3.133600927979638961e-01
3.110546623881625949e-01
3.075800361553807094e-01
3.029245995152111126e-01
2.970834332367819353e-01
2.900582272159100139e-01
2.818571325657118209e-01
2.724945562793680276e-01
2.619909032645226232e-01
2.503722712163095054e-01
2.376701044822476794e-01
2.239208133912273246e-01
2.091653656982459530e-01
1.934488572833606423e-01
1.768200690851218781e-01
1.593310172855591234e-01
1.410365035520646515e-01
1.219936718766106293e-01
1.022615781475994384e-01
8.190077806535028815e-02
6.097293841739637177e-02
3.954047609778712363e-02
1.766622847171213026e-02
-4.586842019623158830e-03
-2.715590701211781019e-02
-4.997849399130339237e-02
-7.299267031445613729e-02
-9.613718999435706680e-02
-1.193516044511148122e-01
-1.425763394396320494e-01
-1.657527407913286233e-01
-1.888230924039334402e-01
-2.117306104059070992e-01
-2.344194179736612538e-01
-2.568345054298163399e-01
-2.789216806981744678e-01
-3.006275152390135430e-01
-3.218992907293565797e-01
-3.426849514394820218e-01
-3.629330673233459037e-01
-3.825928123252734792e-01
-4.016139621968984885e-01
-4.199469154193387066e-01
-4.375427404557957756e-01
-4.543532516437458479e-01
-4.703311156370365009e-01
-4.854299892838878083e-01
-4.996046892325561317e-01
-5.128113926620938567e-01
-5.250078676938216837e-01
-5.361537313703689245e-01
-5.462107322233390461e-01
-5.551430538364439116e-01
-5.629176351640197140e-01
-5.695045026033344060e-01
-5.748771086471424763e-01
-5.790126713462816488e-01
-5.818925084496597844e-01
-5.835023601536637461e-01
-5.838326940865461445e-01
-5.828789862984815606e-01
-5.806419722191303867e-01
-5.771278618335053956e-01
-5.723485136675839913e-01
-5.663215626997506469e-01
-5.590704978365204081e-01
-5.506246853680667463e-01
-5.410193355820986927e-01
-5.302954105320685230e-01
-5.184994717268778253e-01
-5.056834674728200030e-01
-4.919044606136221964e-01
-4.772242983271584582e-01
-4.617092263211734493e-01
-4.454294510664383866e-01
-4.284586541756126854e-01
-4.108734640530556370e-01
-3.927528906514617391e-01
-3.741777296307134404e-01
-3.552299429987158530e-01
-3.359920234710586096e-01
-3.165463503788098487e-01
-2.969745449924037772e-01
-2.773568332432358452e-01
-2.577714237510920214e-01
-2.382939089213417239e-01
-2.189966966801621395e-01
-1.999484798724371903e-01
-1.812137498025414573e-01
-1.628523599149090395e-01
-1.449191448748267941e-01
-1.274635994785295323e-01
-1.105296208448088846e-01
-9.415531666905571639e-02
-7.837288127299570084e-02
-6.320854009131611495e-02
-4.868256250858240403e-02
-3.480934171077270517e-02
-2.159753935526155175e-02
-9.050292210377862412e-03
2.834523286631289267e-03
1.406397325433511071e-02
2.464970065736454483e-02
3.460751784185852470e-02
4.395696366968642604e-02
5.272083235333969997e-02
6.092468104830125325e-02
6.859632378445033873e-02
7.576531910147443760e-02
8.246245885335684589e-02
8.871926533090758460e-02
9.456750390988361010e-02
1.000387175290419206e-01
1.051637893202163748e-01
1.099725387412681388e-01
1.144933562130583254e-01
1.187528803618641271e-01
1.227757212835842993e-01
1.265842323490033172e-01
1.301983323890261168e-01
1.336353791558753945e-01
1.369100940464964278e-01
1.400345373948796435e-01
1.430181327290764581e-01
1.458677376484371069e-01
1.485877583677960856e-01
1.511803042328702662e-01
1.536453779995425317e-01
1.559810972241385540e-01
1.581839416452754388e-01
1.602490211888473182e-01
1.621703590534130934e-01
1.639411842409699005e-01
1.655542278438824344e-01
1.670020174157128001e-01
1.682771643034103037e-01
1.693726386601803469e-01
1.702820274517607424e-01
1.709997711952079835e-01
1.715213755944903773e-01
1.718435948414967773e-01
1.719645839172093404e-01
1.718840179025490078e-01
1.716031769195926482e-01
1.711249959404352039e-01
1.704540794398767822e-01
1.695966814773857412e-01
1.685606524266957396e-01
1.673553540625089264e-01
1.659915453024457532e-01
1.644812414735652428e-01
1.628375503026406323e-01
1.610744881167501252e-01
1.592067801772574787e-01
1.572496491135839669e-01
1.552185956799459476e-01
1.531291761029068277e-01
1.509967801040044133e-01
1.488364137829246425e-01
1.466624912397032354e-01
1.444886385968676412e-01
1.423275138017995878e-01
1.401906452555835292e-01
1.380882918694338601e-01
1.360293266354997144e-01
1.340211455016762365e-01
1.320696027387283367e-01
1.301789733088165868e-01
1.283519427042255634e-01
1.265896237568087668e-01
1.248915996901060893e-01
1.232559921713204942e-01
1.216795525146326523e-01
1.201577742460151060e-01
1.186850244325072384e-01
1.172546911417733234e-01
1.158593440448084377e-01
1.144909050839339609e-01
1.131408261346862065e-01
1.118002701426734913e-01
1.104602926098195298e-01
1.091120202326175959e-01
1.077468235489608128e-01
1.063564807146029495e-01
1.049333297613444793e-01
1.034704069151399786e-01
1.019615688911190560e-01
1.004015972844489457e-01
9.878628377865136811e-02
9.711249509319608286e-02
9.537821705900548230e-02
9.358257751532345070e-02
9.172584827474107583e-02
8.980942657118881622e-02
8.783579685698730821e-02
8.580847421921058982e-02
8.373193096740857988e-02
8.161150799087095453e-02
7.945331303396496736e-02
7.726410810061022649e-02
7.505118805979318908e-02
7.282225322603221029e-02
7.058527816383891595e-02
6.834837921538851335e-02
6.611968318596671279e-02
6.390719954707613226e-02
6.171869832514031984e-02
5.956159576510319797e-02
5.744284948333151092e-02
5.536886490318577297e-02
5.334541417117186213e-02
5.137756865434256470e-02
4.946964589787598843e-02
4.762517153477608539e-02
4.584685617899827287e-02
4.413658746996339255e-02
4.249543681205771029e-02
4.092368015006272314e-02
3.942083192597888724e-02
3.798569109492289791e-02
3.661639802073911321e-02
3.531050066165405954e-02
3.406502858307224740e-02
3.287657298897360414e-02
3.174137108578065081e-02
3.065539306620420831e-02
2.961442977527641365e-02
2.861417945257979656e-02
2.765033192779320012e-02
2.671864856197930099e-02
2.581503672236307861e-02
2.493561729634525756e-02
2.407678438123225795e-02
2.323525608878806992e-02
2.240811589998739639e-02
2.159284399709707203e-02
2.078733837072455418e-02
1.998992568225271479e-02
1.919936196580970811e-02
1.841482362638935041e-02
1.763588928646199483e-02
1.686251318668635646e-02
1.609499104712883155e-02
1.533391942046250997e-02
1.458014968536391724e-02
1.383473781580059347e-02
1.309889132639175530e-02
1.237391455179843135e-02
1.166115363528797376e-02
1.096194251516728613e-02
1.027755110145186883e-02
9.609136833499527103e-03
8.957700523961779210e-03
8.324047619487288940e-03
7.708755589009960024e-03
7.112148066509842333e-03
6.534276270221705575e-03
5.974908047160588064e-03
5.433524697884766809e-03
4.909325519048119563e-03
4.401239973536849592e-03
3.907947104781816193e-03
3.427901678523306243e-03
2.959366540962667189e-03
2.500450309388543846e-03
2.049149628052338110e-03
1.603395061290778306e-03
1.161099460810136649e-03
7.202080110115704125e-04
2.787486832222468933e-04
-1.651179286760416913e-04
-6.130504523761173266e-04
-1.066481299894498323e-03
-1.526574890722451252e-03
-1.994190392572005137e-03
-2.469849789860552487e-03
-2.953712008422130879e-03
-3.445553591640788515e-03
-3.944756303367199200e-03
-4.450302044085072128e-03
-4.960775153423400453e-03
-5.474372133056438182e-03
-5.988918625209832015e-03
-6.501893343453159051e-03
-7.010458653162270591e-03
-7.511497145247494379e-03
-8.001653531905445968e-03
-8.477381262046322988e-03
-8.934992901305364651e-03
-9.370713447752952036e-03
-9.780735686366174436e-03
-1.016127647972757397e-02
-1.050863311909496813e-02
-1.081923869803345060e-02
-1.108971562662833081e-02
-1.131692628126289291e-02
-1.149802004873761233e-02
-1.163047585913691388e-02
-1.171213958599430852e-02
-1.174125573660653871e-02
-1.171649287209491040e-02
-1.163696236765828125e-02
-1.150223037846080307e-02
-1.131232274699396287e-02
-1.106772290108779498e-02
-1.076936277088638878e-02
-1.041860703811250434e-02
-1.001723103771684671e-02
-9.567392772713930252e-03
-9.071599476481588195e-03
-8.532669490007738916e-03
-7.953689928508372517e-03
-7.337971128220596891e-03
-6.688998567723308288e-03
-6.010383017239285738e-03
-5.305809818426492248e-03
-4.578988113086584349e-03
-3.833600881376546775e-03
-3.073256518810098953e-03
-2.301442722331081131e-03
-1.521483382083520328e-03
-7.364991423701678979e-04
5.062786953171569533e-05
8.372846540257409967e-04
1.621152905484595994e-03
2.400229240741875037e-03
3.172839863544781036e-03
3.937649572392567902e-03
4.693665252728712600e-03
5.440233742263616071e-03
6.177034334598040764e-03
6.904066254244421892e-03
7.621631331390933163e-03
8.330312340631520693e-03
9.030947533914488248e-03
9.724601847239163627e-03
1.041253536037056032e-02
1.109616955278627283e-02
1.177705206444903084e-02
1.245682050188760305e-02
1.313716599605809811e-02
1.381979702268626604e-02
1.450640416925811672e-02
1.519862633048730920e-02
1.589801882551436854e-02
1.660602399553909314e-02
1.732394458287185926e-02
1.805292028296959575e-02
1.879390771521059419e-02
1.954766410362625967e-02
2.031473481089927577e-02
2.109544469310129650e-02
2.188989334592939678e-02
2.269795422404054588e-02
2.351927752052057272e-02
2.435329659021168505e-02
2.519923764662385449e-02
2.605613255555061514e-02
2.692283437096018930e-02
2.779803525248620774e-02
2.868028639330526264e-02
2.956801956623402589e-02
3.045956981802548647e-02
3.135319910978499186e-02
3.224712022366051783e-02
3.313952067416494479e-02
3.402858624374371227e-02
3.491252373304273848e-02
3.578958258599872211e-02
3.665807513052073835e-02
3.751639512179790609e-02
3.836303440208557042e-02
3.919659738162883933e-02
4.001581331096960154e-02
4.081954610228245850e-02
4.160680173525346803e-02
4.237673323174059176e-02
4.312864312142698081e-02
4.386198343801922528e-02
4.457635342628186309e-02
4.527149508645680887e-02
4.594728654703139625e-02
4.660373361804315273e-02
4.724095958207411711e-02
4.785919352817695482e-02
4.845875738383423337e-02
4.904005188651538311e-02
4.960354181396152418e-02
5.014974058350193942e-02
5.067919454522341882e-02
5.119246713931931148e-02
5.169012321524556891e-02
5.217271366033979230e-02
5.264076053421145457e-02
5.309474292800181461e-02
5.353508368078756241e-02
5.396213709623289001e-02
5.437617779812452951e-02
5.477739086133431162e-02
5.516586319308864478e-02
5.554157635441187707e-02
5.590440085407524795e-02
5.625409189615454553e-02
5.659028654446171536e-02
5.691250243234616257e-02
5.722013792383298658e-02
5.751247366966279889e-02
5.778867556961513052e-02
5.804779906386816485e-02
5.828879468594093394e-02
5.851051474843165651e-02
5.871172119799224209e-02
5.889109448861035850e-02
5.904724335866880225e-02
5.917871536854844156e-02
5.928400828004118384e-02
5.936158199321411172e-02
5.940987098378958109e-02
5.942729722936809789e-02
5.941228333044468179e-02
5.936326590038003281e-02
5.927870902953309706e-02
5.915711769809116338e-02
5.899705111435255694e-02
5.879713575268758624e-02
5.855607806058953785e-02
5.827267674361585187e-02
5.794583444752294393e-02
5.757456876047590405e-02
5.715802255221903716e-02
5.669547335942674154e-02
5.618634190370405679e-02
5.563019958505795171e-02
5.502677477101566156e-02
5.437595797592017360e-02
5.367780576767883921e-02
5.293254342377542998e-02
5.214056617675107141e-02
5.130243916947176130e-02
5.041889592586276669e-02
4.949083543932013274e-02
4.851931787827712395e-02
4.750555894308719496e-02
4.645092283947613310e-02
4.535691397616617437e-02
4.422516742523269206e-02
4.305743826356256410e-02
4.185558989231055738e-02
4.062158136981088713e-02
3.935745392909256041e-02
3.806531696431419975e-02
3.674733336533228534e-02
3.540570452319986849e-02
3.404265513021867418e-02
3.266041798519181416e-02
3.126121894876555951e-02
2.984726219876174258e-02
2.842071600857224573e-02
2.698369921942986999e-02
2.553826851644076801e-02
2.408640668754631620e-02
2.263001207651147914e-02
2.117088923329158226e-02
1.971074099069326097e-02
1.825116201436657176e-02
1.679363385903467551e-02
1.533952168008892100e-02
1.389007253885845422e-02
1.244641539494660380e-02
1.100956274271846190e-02
9.580413774006982935e-03
8.159759054641595871e-03
6.748286710150932025e-03
5.346589860404966574e-03
3.955175291783873982e-03
2.574473129215693133e-03
1.204847376075682741e-03
-1.533928001042075492e-04
-1.499981364920098970e-03
-2.834683376863365769e-03
-4.157282900416492226e-03
-5.467571033487264240e-03
-6.765334337691485470e-03
-8.050343756432489298e-03
-9.322344361904596338e-03
-1.058104598944220771e-02
-1.182611503545990921e-02
-1.305716750406375054e-02
-1.427376347486980154e-02
-1.547540310007605030e-02
-1.666152425810443413e-02
-1.783150187528589545e-02
-1.898464892612421184e-02
-2.012021919952265703e-02
-2.123741168178443217e-02
-2.233537668581503030e-02
-2.341322346304729532e-02
-2.447002936439850521e-02
-2.550485018547292773e-02
-2.651673173199339817e-02
-2.750472235969123394e-02
-2.846788626063279787e-02
-2.940531732036359355e-02
-3.031615325451980300e-02
-3.119958979099106411e-02
-3.205489469258484408e-02
-3.288142136505856766e-02
-3.367862180981096021e-02
-3.444605857564016910e-02
-3.518341560375765065e-02
-3.589050771130922884e-02
-3.656728849517333624e-02
-3.721385651158844177e-02
-3.783045955150271533e-02
-3.841749693447914227e-02
-3.897551959176796810e-02
-3.950522807605211933e-02
-4.000746838192312249e-02
-4.048322545965420127e-02
-4.093361465925968168e-02
-4.135987112229363299e-02
-4.176333713700225436e-02
-4.214544768738219538e-02
-4.250771435637999696e-02
-4.285170777615368576e-02
-4.317903886316622891e-02
-4.349133905875469941e-02
-4.379023991488251860e-02
-4.407735219393889292e-02
-4.435424492899873311e-02
-4.462242459534631472e-02
-4.488331480474035823e-02
-4.513823685519674500e-02
-4.538839127831344189e-02
-4.563484081346946830e-02
-4.587849504557427183e-02
-4.612009691307177722e-02
-4.636021138990443352e-02
-4.659921642825753940e-02
-4.683729642077202882e-02
-4.707443825647431024e-02
-4.731043014077770253e-02
-4.754486315385611506e-02
-4.777713561934991693e-02
-4.800646021515207751e-02
-4.823187378808035247e-02
-4.845224977621382517e-02
-4.866631305772117777e-02
-4.887265707540179582e-02
-4.906976304440024972e-02
-4.925602091008762784e-02
-4.942975192283868835e-02
-4.958923234030250538e-02
-4.973271805395953343e-02
-4.985846978092032394e-02
-4.996477845192601880e-02
-5.004999045720055773e-02
-5.011253232740113528e-02
-5.015093459445586765e-02
-5.016385434090089163e-02
-5.015009617445718992e-02
-5.010863145618372344e-02
-5.003861516673093618e-02
-4.993940042804866086e-02
-4.981055030443311271e-02
-4.965184669751856322e-02
-4.946329630998044791e-02
-4.924513339010672813e-02
-4.899781922623127478e-02
-4.872203842987900269e-02
-4.841869197839963196e-02
-4.808888710005516931e-02
-4.773392412296180443e-02
-4.735528040977069614e-02
-4.695459165390379608e-02
-4.653363067246227974e-02
-4.609428412750950915e-02
-4.563852731811782193e-02
-4.516839751376808959e-02
-4.468596616899474933e-02
-4.419331042709814111e-02
-4.369248419915669479e-02
-4.318548941969149735e-02
-4.267424775710761120e-02
-4.216057322199501939e-02
-4.164614615390115765e-02
-4.113248891874491525e-02
-4.062094364671569452e-02
-4.011265243237192163e-02
-3.960854027835183921e-02
-3.910930108134485356e-02
-3.861538688798005214e-02
-3.812700058028251765e-02
-3.764409216022871624e-02
-3.716635880153251054e-02
-3.669324863346568044e-02
-3.622396821349337798e-02
-3.575749374731394120e-02
-3.529258580793817601e-02
-3.482780756337959527e-02
-3.436154608583413123e-02
-3.389203664191877546e-02
-3.341738956835558355e-02
-3.293561945614043029e-02
-3.244467611010085767e-02
-3.194247707851503859e-02
-3.142694119391396812e-02
-3.089602266506712852e-02
-3.034774528654832909e-02
-2.978023626061303622e-02
-2.919175911523166911e-02
-2.858074534912782502e-02
-2.794582432827911675e-02
-2.728585091521938330e-02
-2.659993052999184288e-02
-2.588744119831648885e-02
-2.514805227105692056e-02
-2.438173954326410681e-02
-2.358879648964151698e-02
-2.276984149689576312e-02
-2.192582089925994640e-02
-2.105800774266235187e-02
-2.016799626324172409e-02
-1.925769214791467690e-02
-1.832929859753743007e-02
-1.738529846687462618e-02
-1.642843263860459951e-02
-1.546167487420713714e-02
-1.448820341969670258e-02
-1.351136986528285976e-02
-1.253466557836249544e-02
-1.156168607818154094e-02
-1.059609388959304420e-02
-9.641580440226954138e-03
-8.701827318457243735e-03
-7.780467532796450300e-03
-6.881047278479481173e-03
-6.006988724824973910e-03
-5.161554149415816146e-03
-4.347812144602939376e-03
-3.568606204247173203e-03
-2.826526041464647032e-03
-2.123882087107272464e-03
-1.462683539020499888e-03
-8.446200474442272857e-04
-2.710475145043901102e-04
2.570220341656121051e-04
7.389263613350178887e-04
1.174354574375890449e-03
1.563344541082091607e-03
1.906276016090888538e-03
2.203859758411527443e-03
2.457122776999279539e-03
2.667389996564868433e-03
2.836262641772975025e-03
2.965593629208610436e-03
3.057460425652736274e-03
3.114135766436905341e-03
3.138056644597320578e-03
3.131792113752651392e-03
3.098010279923921282e-03
3.039445012424628161e-03
2.958862878443717977e-03
2.859030806649791485e-03
2.742684861264784325e-03
2.612500620604705451e-03
2.471065488215207565e-03
2.320853364668264227e-03
2.164201982328275726e-03
2.003293245145217668e-03
1.840136657595894216e-03
1.676556114400019459e-03
1.514180141747600589e-03
1.354435729826352101e-03
1.198545614106740582e-03
1.047529049447008939e-03
9.022059002107642211e-04
7.632038884294289329e-04
6.309688747989678371e-04
5.057777558863402884e-04
3.877537752444860236e-04
2.768838407011945443e-04
1.730374971023553629e-04
7.598716601032476598e-05
-1.457078073054490867e-05
-9.899454688282989599e-05
-1.776754743620196850e-04
-2.510170546668339113e-04
-3.194147199182877594e-04
-3.832370226294234310e-04
-4.428083650040475416e-04
-4.983936888112973579e-04
-5.501853742456037097e-04
-5.982927062983854974e-04
-6.427340167902821123e-04
-6.834316505639520707e-04
-7.202099066638033634e-04
-7.527959386620544473e-04
-7.808236429049475284e-04
-8.038404554703179302e-04
-8.213168593318462361e-04
-8.326584787640642100e-04
-8.372205472522716669e-04
-8.343243882830326825e-04
-8.232756715065647031e-04
-8.033839744326554035e-04
-7.739834114237669144e-04
-7.344537283821445670e-04
-6.842415741381967665e-04
-6.228814867932866038e-04
-5.500161222696598514e-04
-4.654152228875781875e-04
-3.689930939248223154e-04
-2.608240296985666262e-04
-1.411554174994894204e-04
-1.041810845625950084e-05
1.307662133247256562e-04
2.815808124664253794e-04
4.410131307005770709e-04
6.078575977301412664e-04
7.807219681801544917e-04
9.580372711151203874e-04
1.138071343139097696e-03
1.318945773514273003e-03
1.498656087014974339e-03
1.675094928411874958e-03
1.846077985738296548e-03
2.009372226277307376e-03
2.162726085529000780e-03
2.303901135547378135e-03
2.430704852923098146e-03
2.541023863966576559e-03
2.632857202172690213e-03
2.704348990419698159e-03
2.753820057426893675e-03
2.779798027840105646e-03
2.781045224033213206e-03
2.756583940977333762e-03
2.705718678006846598e-03
2.628054883547727930e-03
2.523513807917902082e-03
2.392343176618387784e-03
2.235123421720551593e-03
2.052769274098517182e-03
1.846526586844324464e-03
1.617964348384874716e-03
1.368961917679241110e-03
1.101691525539028006e-03
8.185962594127816142e-04
5.223637764674890190e-04
2.158960197749095280e-04
-9.772458338199649364e-05
-4.152722247831797586e-04
-7.334173431445188641e-04
-1.048768451919901293e-03
-1.357915468277121193e-03
-1.657473983972127755e-03
-1.944129855924145315e-03
-2.214683403826809074e-03
-2.466092657863478994e-03
-2.695514926197538786e-03
-2.900346152305662267e-03
-3.078257351702416798e-03
-3.227227673711793865e-03
-3.345573540521086780e-03
-3.431973365463404386e-03
-3.485487504762650301e-03
-3.505573080355072965e-03
-3.492093380945553247e-03
-3.445321746187693986e-03
-3.365939756720014425e-03
-3.255029756358362655e-03
-3.114061821526343914e-03
-2.944875187476203408e-03
-2.749654556541766912e-03
-2.530901448909765161e-03
-2.291401063478052877e-03
-2.034185105730514607e-03
-1.762491025457073876e-03
-1.479718429449512068e-03
-1.189383115747220856e-03
-8.950694748167129303e-04
-6.003819306086181440e-04
-3.088961209463107109e-04
-2.411054037497215998e-05
2.506005858246295489e-04
5.120325774721611739e-04
7.571929943237658582e-04
9.833411887586909587e-04
1.188024053538335638e-03
1.369107451225538320e-03
1.524802828893833144e-03
1.653688744230340062e-03
1.754726812256553322e-03
1.827271940665623189e-03
1.871076663926766375e-03
1.886289523661054818e-03
1.873447491831048417e-03
1.833462642087732054e-03
1.767603194526021129e-03
1.677469230118274054e-03
1.564963608518716480e-03
1.432258264669769229e-03
1.281756636722571801e-03
1.116052720186216625e-03
9.378873983476547624e-04
7.501027483661288275e-04
5.555950323366453877e-04
3.572670528318357282e-04
1.579807657380641317e-04
-3.948932127027746526e-05
-2.325010060261078375e-04
-4.185869457765197432e-04
-5.954941775856466149e-04
-7.612200151227972809e-04
-9.140436494969401884e-04
-1.052553055455309524e-03
-1.175666766974318815e-03
-1.282650080980668982e-03
-1.373125483557919831e-03
-1.447077088577964363e-03
-1.504849081141603363e-03
-1.547138070522118295e-03
-1.574979585805279074e-03
-1.589728763758136050e-03
-1.593035636532046714e-03
-1.586815458407743722e-03
-1.573214330627539966e-03
-1.554570808661716709e-03
-1.533374079581333602e-03
-1.512219331254090974e-03
-1.493761086314635044e-03
-1.480665094236968855e-03
-1.475559782904721073e-03
-1.480987854162570984e-03
-1.499358896074965862e-03
-1.532903729377750211e-03
-1.583631293995705876e-03
-1.653288726575900293e-03
-1.743325331779116329e-03
-1.854860972626956248e-03
-1.988659529876718717e-03
-2.145107795323817484e-03
-2.324200202421143006e-03
-2.525529706029740629e-03
-2.748284975617914291e-03
-2.991253928381237912e-03
-3.252833714096184207e-03
-3.531046969892879910e-03
-3.823564156231736098e-03
-4.127731636957815420e-03
-4.440605148236132817e-03
-4.758988185078778278e-03
-5.079474638708019255e-03
-5.398495191135206303e-03
-5.712366726200631718e-03
-6.017343975894655535e-03
-6.309672687424367973e-03
-6.585643454814106915e-03
-6.841645431066483221e-03
-7.074219068013717568e-03
-7.280107154924267063e-03
-7.456303279498983916e-03
-7.600097016083268500e-03
-7.709115181474834183e-03
-7.781358392234413723e-03
-7.815232543700869131e-03
-7.809574595381688945e-03
-7.763672244081715884e-03
-7.677277293415559790e-03
-7.550612465411409013e-03
-7.384371450627280099e-03
-7.179712340183186728e-03
-6.938244421450935444e-03
-6.662008571072979349e-03
-6.353451568053467523e-03
-6.015394716402046489e-03
-5.650997236220769993e-03
-5.263714896095835621e-03
-4.857254690145722774e-03
-4.435526113149290683e-03
-4.002589870224326600e-03
-3.562604631212773921e-03
-3.119772820439405906e-03
-2.678286193658653124e-03
-2.242271848554913075e-03
-1.815739767895894249e-03
-1.402532478609485114e-03
-1.006277514925863099e-03
-6.303435553391894619e-04
-2.778007605043029005e-04
4.861430104364084756e-05
3.465282978576943737e-04
6.139552433010369908e-04
8.493146518097325921e-04
1.051443609234497915e-03
1.219602600813258055e-03
1.353475097397159382e-03
1.453160990625191251e-03
1.519164069097546192e-03
1.552373891607092748e-03
1.554042327618921412e-03
1.525755239397919840e-03
1.469399890986954494e-03
1.387128656225974444e-03
1.281319621037124452e-03
1.154534793325816310e-03
1.009476653118201702e-03
8.489437725824668666e-04
6.757862711612475873e-04
4.928617505886448771e-04
3.029925580310863752e-04
1.089249184711146504e-04
-8.670931479488243484e-05
-2.814276914437657969e-04
-4.729285702125452136e-04
-6.591183243979755911e-04
-8.381340493071922628e-04
-1.008361411167026361e-03
-1.168447458293784408e-03
-1.317308315208025587e-03
-1.454131676196885594e-03
-1.578374234515646929e-03
-1.689754139750471087e-03
-1.788238795433747886e-03
-1.874028269377563463e-03
-1.947534746249408952e-03
-2.009358475883926600e-03
-2.060260718911503201e-03
-2.101134391903321155e-03
-2.132972836058963286e-03
-2.156837468098746820e-03
-2.173824940230926085e-03
-2.185034445170908144e-03
-2.191535788359298513e-03
-2.194338902701546863e-03
-2.194365397590639869e-03
-2.192422678044191400e-03
-2.189181063155985329e-03
-2.185154444472122651e-03
-2.180684748959414460e-03
-2.175930576647862671e-03
-2.170860162329823779e-03
-2.165248799243128970e-03
-2.158680789448759029e-03
-2.150555831045191605e-03
-2.140099730648761887e-03
-2.126379231909758180e-03
-2.108320660960863631e-03
-2.084731937647220975e-03
-2.054327682965193837e-03
-2.015756832604829758e-03
-1.967632200783009985e-03
-1.908561482426505236e-03
-1.837179037136663301e-03
-1.752177840663796116e-03
-1.652341021990752197e-03
-1.536572301379451715e-03
-1.403924798134483605e-03
-1.253627574929830303e-03
-1.085109449176379802e-03
-8.980195063734686643e-04
-6.922439670476757080e-04
-4.679190178248751109e-04
-2.254393913809235139e-04
3.453763827735015424e-05
3.110928786108532978e-04
6.030505309302924008e-04
9.089881247408021113e-04
1.227250939904627695e-03
1.555970764875710130e-03
1.893088680405991117e-03
2.236381393230375738e-03
2.583490807281551855e-03
2.931956348146551837e-03
3.279249494881998801e-03
3.622809867764045788e-03
3.960082314920327848e-03
4.288554308282876634e-03
4.605793200187408704e-03
4.909482481440221625e-03
5.197456540092577036e-03
5.467733280818257331e-03
5.718544094334308478e-03
5.948360656359692918e-03
6.155918041514710747e-03
6.340233846089757958e-03
6.500622918872439246e-03
6.636707470122173332e-03
6.748422430185441537e-03
6.836015934259449291e-03
6.900044973768050711e-03
6.941366210401594614e-03
6.961122145454761226e-03
6.960722920192505443e-03
6.941824025229016877e-03
6.906300314214409465e-03
6.856216741041250111e-03
6.793796336984590789e-03
6.721385914639048387e-03
6.641420160310086696e-03
6.556384631289487869e-03
6.468778234321388362e-03
6.381075885166355953e-03
6.295691921460695901e-03
6.214944837530574431e-03
6.141023919406305223e-03
6.075958204806025664e-03
6.021588352495743993e-03
5.979541785675005633e-03
5.951211423348552049e-03
5.937738405231586698e-03
5.939998881129919181e-03
5.958595080821013634e-03
5.993850752604047011e-03
6.045810943646470412e-03
6.114245977758350770e-03
6.198659581784088379e-03
6.298300906595182339e-03
6.412180099047432545e-03
6.539087157107295774e-03
6.677613688037041181e-03
6.826177087393294103e-03
6.983046696741415128e-03
7.146371441624400564e-03
7.314208480046766221e-03
7.484552377075797021e-03
7.655364207652844144e-03
7.824600228763601076e-03
7.990239565286430187e-03
8.150310489258807967e-03
8.302914906181953908e-03
8.446250671741739255e-03
8.578631479255537789e-03
8.698504065934547017e-03
8.804462487232747950e-03
8.895259415216880822e-03
8.969814283448507286e-03
9.027218370112524010e-03
9.066736736159042298e-03
9.087807292628343261e-03
9.090037092680048128e-03
9.073195990352219548e-03
9.037207956243983528e-03
8.982140353681840328e-03
8.908191488364160943e-03
8.815676795205363084e-03
8.705013956127501118e-03
8.576707397968307001e-03
8.431332467958822449e-03
8.269519666825054724e-03
8.091939237710210273e-03
7.899286545860594727e-03
7.692268434426566270e-03
7.471590859961400877e-03
7.237948000367942780e-03
6.992013042458013715e-03
6.734430786837575580e-03
6.465812140190737960e-03
6.186730499415888512e-03
5.897720107885323464e-03
5.599276303689761092e-03
5.291857479835201591e-03
4.975888675044330689e-03
4.651766692794661803e-03
4.319866352370473409e-03
3.980547907705210553e-03
3.634165094228007740e-03
3.281073719916747979e-03
2.921640478931844358e-03
2.556251625656261010e-03
2.185321361238983223e-03
1.809299571495603769e-03
1.428678682138183678e-03
1.043999438480224451e-03
6.558553902432426698e-04
2.648958893773985680e-04
-1.281725241613362886e-04
-5.225864974011294132e-04
-9.175279151772380414e-04
-1.312127797897847357e-03
-1.705471923327190383e-03
-2.096608195779829219e-03
-2.484555553526546050e-03
-2.868314371971519405e-03
-3.246878181212688001e-03
-3.619246424976806792e-03
-3.984438110923996419e-03
-4.341506142670242124e-03
-4.689551929796146462e-03
-5.027740098676054467e-03
-5.355313039248625617e-03
-5.671604986743209072e-03
-5.976055374762484149e-03
-6.268221214004379357e-03
-6.547788281702860390e-03
-6.814580806531598221e-03
-7.068569605997884059e-03
-7.309878351346252127e-03
-7.538787934799394061e-03
-7.755738827807761443e-03
-7.961331305119457788e-03
-8.156323571754206525e-03
-8.341627692297220314e-03
-8.518303467987846031e-03
-8.687550326568597298e-03
-8.850697209982593197e-03
-9.009190662884856635e-03
-9.164581186397475349e-03
-9.318508169196349292e-03
-9.472683462738253068e-03
-9.628873790364001276e-03
-9.788882267588469230e-03
-9.954529147568535671e-03
-1.012763210420709187e-02
-1.030998610826863206e-02
-1.050334331396744932e-02
-1.070939296039039382e-02
-1.092974151584654580e-02
-1.116589332829908202e-02
-1.141923181528745231e-02
-1.169100139140882844e-02
-1.198229028630484923e-02
-1.229401431166942012e-02
-1.262690175021552452e-02
-1.298147935927969517e-02
-1.335805967141238428e-02
-1.375672959331549795e-02
-1.417734037504493443e-02
-1.461949907737269093e-02
-1.508256148659370931e-02
-1.556562664572589544e-02
-1.606753296934197023e-02
-1.658685599782107681e-02
-1.712190797745568802e-02
-1.767073925405847346e-02
-1.823114152939701860e-02
-1.880065313140321173e-02
-1.937656626302491913e-02
-1.995593650709014816e-02
-2.053559456800123362e-02
-2.111216031464339254e-02
-2.168205922324409687e-02
-2.224154129593209836e-02
-2.278670253835343024e-02
-2.331350897362712352e-02
-2.381782328015856487e-02
-2.429543401898229954e-02
-2.474208733478697186e-02
-2.515352107781137700e-02
-2.552550127953485265e-02
-2.585386070871861092e-02
-2.613453931008419273e-02
-2.636362632233481967e-02
-2.653740366033333423e-02
-2.665239024456295125e-02
-2.670538675390855821e-02
-2.669352037234400121e-02
-2.661428901317938397e-02
-2.646560445835606165e-02
-2.624583380422491549e-02
-2.595383855396679249e-02
-2.558901059452390811e-02
-2.515130464434195065e-02
-2.464126637877806295e-02
-2.406005549911972852e-02
-2.340946329710385035e-02
-2.269192392217621659e-02
-2.191051905734336946e-02
-2.106897536993285538e-02
-2.017165438342513259e-02
-1.922353446208177608e-02
-1.823018470417134274e-02
-1.719773065211313914e-02
-1.613281182753901685e-02
-1.504253121838382452e-02
-1.393439703104390817e-02
-1.281625708364484903e-02
-1.169622633744907096e-02
-1.058260831867772860e-02
-9.483811151394520161e-03
-8.408259114920536154e-03
-7.364300789686246788e-03
-6.360114841132466675e-03
-5.403614772465024398e-03
-4.502353827447507818e-03
-3.663431313560679570e-03
-2.893401822308332844e-03
-2.198188721288190425e-03
-1.583003161274094701e-03
-1.052269994947941734e-03
-6.095618929148965363e-04
-2.575427499068317630e-04
2.078439110460858844e-06
1.685822808746762391e-04
2.422615732480369198e-04
2.244309986592449172e-04
1.174234901047667244e-04
-7.542693407874988720e-05
-3.498160817618163653e-04
-7.005138582034027041e-04
-1.121421789053723668e-03
-1.605643138208321221e-03
-2.145564785578870596e-03
-2.732949890250700124e-03
-3.359040223972930249e-03
-4.014666740851955372e-03
-4.690366818084826077e-03
-5.376506599473062850e-03
-6.063406610323990482e-03
-6.741468791111518769e-03
-7.401303011456184661e-03
-8.033851148525821689e-03
-8.630506738371315073e-03
-9.183228303468893988e-03
-9.684644523920010739e-03
-1.012814953852629422e-02
-1.050798683483889981e-02
-1.081932018240735864e-02
-1.105829050835734073e-02
-1.122205759985259003e-02
-1.130882596230038846e-02
-1.131785422435425091e-02
-1.124944800641558378e-02
-1.110493609880732445e-02
-1.088663048944667200e-02
-1.059777065721868514e-02
-1.024245309434991362e-02
-9.825547261855036366e-03
-9.352599325636505243e-03
-8.829725304145413789e-03
-8.263495399042726855e-03
-7.660811656544489791e-03
-7.028780954315625752e-03
-6.374585547006102193e-03
-5.705353565401759079e-03
-5.028031728310775918e-03
-4.349262544942578482e-03
-3.675268229526454898e-03
-3.011743550844845317e-03
-2.363759504030993591e-03
-1.735679530467860348e-03
-1.131090075731125324e-03
-5.527466397325306313e-04
-2.536339318852353453e-06
5.185421002886183217e-04
1.010380737404148986e-03
1.473746920567151324e-03
1.910250187875461771e-03
2.322292321780970031e-03
2.713001184442109630e-03
3.086149809712469220e-03
3.446062182357357249e-03
3.797507598879918626e-03
4.145585515751577972e-03
4.495603259228821494e-03
4.852948989204707020e-03
5.222962412484629183e-03
5.610805931576081859e-03
6.021338796675814939e-03
6.458996905748846419e-03
6.927680829260812224e-03
7.430654358560486936e-03
7.970455895935001089e-03
8.548824558009362681e-03
9.166642893508901435e-03
9.823897486481620450e-03
1.051965865527707336e-02
1.125207986276220012e-02
1.201841725058494341e-02
1.281506918888040102e-02
1.363763543694548191e-02
1.448099499500639376e-02
1.533940136985124242e-02
1.620659362098658338e-02
1.707592119824668381e-02
1.794048032622531236e-02
1.879325926321492174e-02
1.962728973630581408e-02
2.043580135622582658e-02
2.121237606063671940e-02
2.195109933120240053e-02
2.264670502605848484e-02
2.329471061193707365e-02
2.389153986947588001e-02
2.443463016704570598e-02
2.492252173023209658e-02
2.535492663081952494e-02
2.573277557404478333e-02
2.605824084792043513e-02
2.633473446091766021e-02
2.656688079257328930e-02
2.676046354729450308e-02
2.692234743794010704e-02
2.706037545605266201e-02
2.718324317521893588e-02
2.730035185914969978e-02
2.742164283780743061e-02
2.755741598742153867e-02
2.771813532277540501e-02
2.791422537786931654e-02
2.815586213159112020e-02
2.845276252777090287e-02
2.881397681097625299e-02
2.924768792999248718e-02
2.976102217969782068e-02
3.035987528714467060e-02
3.104875798745500987e-02
3.183066472255663415e-02
3.270696893464330318e-02
3.367734799133986073e-02
3.473974024266303362e-02
3.589033619807140835e-02
3.712360533845816823e-02
3.843235932766624063e-02
3.980785175497685013e-02
4.123991393297585240e-02
4.271712540378543033e-02
4.422701744476113112e-02
4.575630683233934681e-02
4.729115675656756640e-02
4.881746104656153190e-02
5.032114728366793299e-02
5.178849395035236419e-02
5.320645635494652970e-02
5.456299572897595207e-02
5.584740562162656546e-02
5.705062957804827445e-02
5.816556403070106962e-02
5.918734040226799470e-02
6.011358057209815337e-02
6.094462013446775434e-02
6.168369420326793445e-02
6.233708106972183499e-02
6.291419955994621838e-02
6.342765644799958080e-02
6.389324114171923696e-02
6.432986560425091316e-02
6.475944840391575918e-02
6.520674245535777735e-02
6.569910706095417885e-02
6.626622581218861996e-02
6.693977281904495147e-02
6.775303042317477875e-02
6.874046270183138685e-02
6.993724965816736083e-02
7.137878795945264143e-02
7.310016449295834995e-02
7.513560979175762378e-02
7.751793880871694908e-02
8.027798687933820898e-02
8.344404895381477005e-02
8.704133025896026998e-02
9.109141688415607618e-02
9.561177405636141213e-02
1.006152802696763521e-01
1.061098046093656572e-01
1.120978342507838316e-01
1.185761586603933243e-01
1.255356159951673267e-01
1.329609066835225895e-01
1.408304780626657426e-01
1.491164831387872536e-01
1.577848153836990119e-01
1.667952204652753123e-01
1.761014848269279454e-01
1.856516997768825339e-01
1.953885987547151759e-01
2.052499643786084293e-01
2.151691009195687010e-01
2.250753668661351348e-01
2.348947612770089788e-01
2.445505570073984170e-01
2.539639732384058046e-01
2.630548789353188699e-01
2.717425187289235211e-01
2.799462520980430247e-01
2.875862968606773817e-01
2.945844677863779792e-01
3.008649011437130039e-01
3.063547564529519041e-01
3.109848869811967509e-01
3.146904709326808769e-01
3.174115959754070793e-01
3.190937905107875672e-01
3.196884957561075269e-01
3.191534737799039401e-01
3.174531473922850289e-01
3.145588689473339250e-01
3.104491160931870386e-01
3.051096135571130241e-01
2.985333811472011822e-01
2.907207091947875965e-01
2.816790635301582579e-01
2.714229232049972795e-01
2.599735549630659004e-01
2.473587293693581546e-01
2.336123840479672475e-01
2.187742402912062345e-01
2.028893796068018673e-01
1.860077872938275256e-01
1.681838703254226186e-01
1.494759569519955589e-01
1.299457855730766498e-01
1.096579900075208974e-01
8.867958832394433333e-02
6.707948198664419326e-02
4.492797150780029197e-02
2.229629430249868705e-02
-7.438101345237953374e-04
-2.412050348165478350e-02
-4.776221662908849974e-02
-7.159797985556193289e-02
-9.555771310882066327e-02
-1.195724754775752130e-01
-1.435746735746287195e-01
-1.674982295415591294e-01
-1.912787100848368227e-01
-2.148534186593128725e-01
-2.381614538045222496e-01
-2.611437370178543715e-01
-2.837430142229806496e-01
-3.059038351331598848e-01
-3.275725154558803420e-01
-3.486970866869896768e-01
-3.692272388107893932e-01
-3.891142608229982702e-01
-4.083109839789185735e-01
-4.267717326933331834e-01
-4.444522874001623491e-01
-4.613098634184129021e-01
-4.773031092290120347e-01
-4.923921271318062454e-01
-5.065385186758591951e-01
-5.197054561660668925e-01
-5.318577813136736721e-01
-5.429621310696172154e-01
-5.529870899784896654e-01
-5.619033675583894327e-01
-5.696839986841468750e-01
-5.763045640039038409e-01
-5.817434270892222203e-01
-5.859819840366941035e-01
-5.890049211163426168e-01
-5.908004754640179268e-01
-5.913606934691501005e-01
-5.906816813734172555e-01
-5.887638425435243184e-01
-5.856120956170678404e-01
-5.812360680509802702e-01
-5.756502598276874716e-01
-5.688741722719141691e-01
-5.609323974322113493e-01
-5.518546639336510129e-01
-5.416758359072687545e-01
-5.304358622104655696e-01
-5.181796738504059752e-01
-5.049570284946960363e-01
-4.908223015364118758e-01
-4.758342243330483390e-01
-4.600555707521283844e-01
-4.435527943043506283e-01
-4.263956187673041409e-01
-4.086565861925844922e-01
-3.904105667869310903e-01
-3.717342358665560176e-01
-3.527055237931603915e-01
-3.334030450255746070e-01
-3.139055132035388773e-01
-2.942911493298355774e-01
-2.746370902318353568e-01
-2.550188046272774955e-01
-2.355095242549657686e-01
-2.161796971464155503e-01
-1.970964700466284747e-01
-1.783232065026102153e-01
-1.599190466953453182e-01
-1.419385145671841209e-01
-1.244311770436998948e-01
-1.074413596387389369e-01
-9.100792165146548429e-02
-7.516409354718731062e-02
-5.993737797415081558e-02
-4.534951531485355292e-02
-3.141651341146704801e-02
-1.814874035219873200e-02
-5.551078461510286673e-03
6.376863664190159445e-03
1.764048450913640459e-02
2.824987283731593066e-02
3.821944596126830573e-02
4.756754865067047700e-02
5.631601870582026576e-02
6.448972608704711673e-02
7.211609220550661836e-02
7.922459649687264849e-02
8.584627733968042129e-02
9.201323437435592056e-02
9.775813916326840658e-02
1.031137608373809411e-01
1.081125130417946723e-01
1.127860279057279896e-01
1.171647625217619032e-01
1.212776425649563228e-01
1.251517470515617625e-01
1.288120375806948714e-01
1.322811346774316055e-01
1.355791428570411739e-01
1.387235255296204173e-01
1.417290297474560756e-01
1.446076603103952918e-01
1.473687017474734628e-01
1.500187860682622443e-01
1.525620035457120327e-01
1.550000530991854086e-01
1.573324282792716577e-01
1.595566345458374058e-01
1.616684329780704310e-01
1.636621053540832094e-01
1.655307352141590360e-01
1.672664995642807184e-01
1.688609657251475549e-01
1.703053880101224049e-01
1.715909990589810086e-01
1.727092907348939665e-01
1.736522800326668892e-01
1.744127556988518957e-01
1.749845017708001604e-01
1.753624947519619170e-01
1.755430715940948794e-01
1.755240664880040602e-01
1.753049146814700532e-01
1.748867225953683879e-01
1.742723037608714665e-01
1.734661808770392999e-01
1.724745549275331635e-01
1.713052427407389666e-01
1.699675849316205634e-01
1.684723266944560538e-01
1.668314741870975948e-01
1.650581297678767045e-01
1.631663095314893619e-01
1.611707468668447940e-01
1.590866858891932245e-01
1.569296686360756032e-01
1.547153200145438279e-01
1.524591343827575995e-01
1.501762674978147083e-01
1.478813374462741026e-01
1.455882377566185271e-01
1.433099657854118025e-01
1.410584690248740114e-01
1.388445115829613496e-01
1.366775626763534757e-01
1.345657086725489948e-01
1.325155894686834979e-01
1.305323597545100245e-01
1.286196753095592560e-01
1.267797038752410121e-01
1.250131597491680180e-01
1.233193608585207712e-01
1.216963068127859537e-01
1.201407759488210547e-01
1.186484391321412646e-01
1.172139879650571509e-01
1.158312747308324342e-01
1.144934612447555122e-01
1.131931738903333567e-01
1.119226617958333919e-01
1.106739554279281279e-01
1.094390228308561724e-01
1.082099207780275324e-01
1.069789383636256946e-01
1.057387308601061282e-01
1.044824417247716131e-01
1.032038110082008214e-01
1.018972686911584352e-01
1.005580119193671407e-01
9.918206520845398999e-02
9.776632325780362787e-02
9.630857609403897790e-02
9.480751684459842732e-02
9.326273253162241372e-02
9.167467882873735208e-02
9.004463969933750034e-02
8.837467328474037098e-02
8.666754557339031995e-02
8.492665350849394612e-02
8.315593935675545667e-02
8.135979833706390163e-02
7.954298144503997581e-02
7.771049551466324701e-02
7.586750245107483359e-02
7.401921969977545701e-02
7.217082375962778629e-02
7.032735843331586190e-02
6.849364945178837427e-02
6.667422689184110407e-02
6.487325653477278575e-02
6.309448121856267577e-02
6.134117296387797680e-02
5.961609629410379724e-02
5.792148320658867949e-02
5.625901981373228333e-02
5.462984435539339906e-02
5.303455635597594670e-02
5.147323619632157565e-02
4.994547442668756387e-02
4.845040984285869240e-02
4.698677517827469508e-02
4.555294923072986807e-02
4.414701418209279055e-02
4.276681668218851318e-02
4.141003131432806350e-02
4.007422511842172880e-02
3.875692169687207367e-02
3.745566369408739188e-02
3.616807234509653024e-02
3.489190292448537262e-02
3.362509513646302906e-02
3.236581752389838806e-02
3.111250521703429542e-02
2.986389033449400945e-02
2.861902469459226550e-02
2.737729462507122041e-02
2.613842777180681171e-02
2.490249207301524145e-02
2.366988699154248810e-02
2.244132768882707574e-02
2.121782242840251215e-02
2.000064410970583614e-02
1.879129655672910973e-02
1.759147656696164255e-02
1.640303263966877770e-02
1.522792128606897943e-02
1.406816202662091418e-02
1.292579213287155596e-02
1.180282197831222443e-02
1.070119212353261469e-02
9.622732952703862142e-03
8.569127774656350519e-03
7.541880049558327866e-03
6.542285364482285613e-03
5.571408810286187889e-03
4.630068098303317080e-03
3.718822701881314453e-03
2.837969139286813068e-03
1.987542450904157022e-03
1.167323695184344177e-03
3.768532346756730644e-04
-3.845505384246545753e-04
-1.117767466803432476e-03
-1.823847546521575142e-03
-2.503979119135322628e-03
-3.159454064538912751e-03
-3.791630766929526223e-03
-4.401895707196634873e-03
-4.991624489915354873e-03
-5.562143177600177915e-03
-6.114690711185212166e-03
-6.650383295494052133e-03
-7.170181466738067763e-03
-7.674860558512549939e-03
-8.164985160382897539e-03
-8.640888037672333349e-03
-9.102654146952639247e-03
-9.550109844382472998e-03
-9.982817809010984672e-03
-1.040007751164081888e-02
-1.080093138122104925e-02
-1.118417666030957318e-02
-1.154838252510989073e-02
-1.189191232072685581e-02
-1.221295039772790636e-02
-1.250953312972174700e-02
-1.277958356010815491e-02
-1.302094894316871594e-02
-1.323144052368372715e-02
-1.340887484733460991e-02
-1.355111577877059388e-02
-1.365611655170103494e-02
-1.372196099076246172e-02
-1.374690321490012329e-02
-1.372940503866378406e-02
-1.366817044552885024e-02
-1.356217649234927290e-02
-1.341070002901145058e-02
-1.321333985307250949e-02
-1.297003375302649940e-02
-1.268107019290498280e-02
-1.234709448356231636e-02
-1.196910926749325706e-02
-1.154846920732842917e-02
-1.108687000341913691e-02
-1.058633194254283982e-02
-1.004917812843299750e-02
-9.478007836216438206e-03
-8.875665386716248897e-03
-8.245204925516695302e-03
-7.589851767104507409e-03
-6.912960940167078849e-03
-6.217973434971437244e-03
-5.508370945952922176e-03
-4.787629715798785539e-03
-4.059174343966648162e-03
-3.326332053020665536e-03
-2.592288193792790726e-03
-1.860043713158319317e-03
-1.132375108613733160e-03
-4.117975851497788250e-04
2.994682069469679171e-04
9.995252820583758104e-04
1.686824886840585739e-03
2.360186184313282313e-03
3.018810808911538256e-03
3.662292088538821391e-03
4.290618787032076178e-03
4.904173463525736409e-03
5.503725363622347620e-03
6.090418002556312153e-03
6.665751633704158734e-03
7.231560863852124973e-03
7.789987792276657427e-03
8.343450951537784849e-03
8.894610576864565507e-03
9.446330615553428720e-03
1.000163801386038699e-02
1.056367984413785800e-02
1.113567877302413904e-02
1.172088748571452343e-02
1.232254269712576913e-02
1.294381919911082902e-02
1.358778461465340835e-02
1.425735535163512660e-02
1.495525430616398768e-02
1.568397081735529650e-02
1.644572338933043484e-02
1.724242549659903145e-02
1.807565490738484784e-02
1.894662680272010333e-02
1.985617112712724508e-02
2.080471428613495447e-02
2.179226538089010581e-02
2.281840712590094827e-02
2.388229150482188562e-02
2.498264021247361202e-02
2.611774981909670626e-02
2.728550164315395390e-02
2.848337616198370545e-02
2.970847168171229791e-02
3.095752714159069954e-02
3.222694887912679745e-02
3.351284085697875392e-02
3.481103811227839739e-02
3.611714312030758073e-02
3.742656459795434820e-02
3.873455840485003077e-02
4.003627001306568622e-02
4.132677815604590688e-02
4.260113921947921573e-02
4.385443197194656417e-02
4.508180204481588432e-02
4.627850579695427791e-02
4.743995303124376450e-02
4.856174820649038909e-02
4.963972978613969550e-02
5.067000713754600538e-02
5.164899474026742043e-02
5.257344327238068493e-02
5.344046736164326239e-02
5.424756957608806857e-02
5.499266050394248373e-02
5.567407463351837366e-02
5.629058191875831174e-02
5.684139484102747331e-02
5.732617091200089415e-02
5.774501058451391583e-02
5.809845051739525451e-02
5.838745235001306655e-02
5.861338696885295962e-02
5.877801448893690828e-02
5.888346012255865625e-02
5.893218619690419879e-02
5.892696049485996596e-02
5.887082138452116864e-02
5.876704008396181622e-02
5.861908035838150205e-02
5.843055615657564289e-02
5.820518761682216824e-02
5.794675601199684306e-02
5.765905801760519422e-02
5.734585983420253247e-02
5.701085177396689185e-02
5.665760372008510348e-02
5.628952206667287017e-02
5.590980865195553651e-02
5.552142207707383426e-02
5.512704199649671316e-02
5.472903676886905350e-02
5.432943483443934685e-02
5.392990033497994246e-02
5.353171305185083079e-02
5.313575312879188078e-02
5.274249081989670213e-02
5.235198126395396861e-02
5.196386451549067642e-02
5.157737079319067025e-02
5.119133098471990301e-02
5.080419220647466177e-02
5.041403840817797188e-02
5.001861569759802340e-02
4.961536213741474938e-02
4.920144167118749995e-02
4.877378180387207524e-02
4.832911457587191900e-02
4.786402030061162605e-02
4.737497359897324678e-02
4.685839109848850825e-02
4.631068033623193109e-02
4.572828905970799385e-02
4.510775451666483582e-02
4.444575193558505943e-02
4.373914174736008575e-02
4.298501472830016518e-02
4.218073473436753651e-02
4.132397828572010462e-02
4.041277064809060265e-02
3.944551776112325409e-02
3.842103372610698730e-02
3.733856349173805128e-02
3.619780035969531740e-02
3.499889817929038860e-02
3.374247794224205510e-02
3.242962883737967456e-02
3.106190363595594597e-02
2.964130851444869014e-02
2.817028743712391217e-02
2.665170129787250083e-02
2.508880211246899625e-02
2.348520255264256382e-02
2.184484127345584156e-02
2.017194451957680240e-02
1.847098435337422850e-02
1.674663422593115208e-02
1.500372240562783920e-02
1.324718384400266034e-02
1.148201115409587525e-02
9.713205287467378823e-03
7.945726582962686982e-03
6.184446856993178372e-03
4.434102952338563573e-03
2.699252581160542074e-03
9.842328689940564330e-04
-7.068778197906144768e-04
-2.370294444939764072e-03
-4.002555607047948889e-03
-5.600549463459048721e-03
-7.161534877895586737e-03
-8.683157587929877033e-03
-1.016346123466469083e-02
-1.160089319312005395e-02
-1.299430518464420904e-02
-1.434294875900580038e-02
-1.564646574175545049e-02
-1.690487392888693693e-02
-1.811854814724752488e-02
-1.928819719357718551e-02
-2.041483689160381726e-02
-2.149975980350846139e-02
-2.254450194640764474e-02
-2.355080714089568747e-02
-2.452058947456088600e-02
-2.545589446867623645e-02
-2.635885948790049615e-02
-2.723167396442138094e-02
-2.807654000711102757e-02
-2.889563388438506908e-02
-2.969106909024895463e-02
-3.046486133197152599e-02
-3.121889602507163172e-02
-3.195489860615443461e-02
-3.267440812058256677e-02
-3.337875440017613882e-02
-3.406903920430138372e-02
-3.474612131383134767e-02
-3.541060599554578942e-02
-3.606283872689509257e-02
-3.670290332159505814e-02
-3.733062439053937837e-02
-3.794557403971164644e-02
-3.854708267818794665e-02
-3.913425365017551144e-02
-3.970598158078597617e-02
-4.026097398686658696e-02
-4.079777582826408372e-02
-4.131479659816800903e-02
-4.181033962832909207e-02
-4.228263297200382520e-02
-4.272986161078100309e-02
-4.315020040045806221e-02
-4.354184722326051582e-02
-4.390305594171135112e-02
-4.423216863742168020e-02
-4.452764671131086149e-02
-4.478810037681187767e-02
-4.501231622340182842e-02
-4.519928230123489155e-02
-4.534821055135904166e-02
-4.545855620778948419e-02
-4.553003393139108679e-02
-4.556263043156821846e-02
-4.555661348762463786e-02
-4.551253720713053369e-02
-4.543124348142753288e-02
-4.531385969716882761e-02
-4.516179264031904006e-02
-4.497671871832115836e-02
-4.476057078290574670e-02
-4.451552150880802583e-02
-4.424396371191038208e-02
-4.394848781624222794e-02
-4.363185687484584518e-02
-4.329697932486749334e-02
-4.294687990971923081e-02
-4.258466912959845557e-02
-4.221351157766636830e-02
-4.183659357991924288e-02
-4.145709057202932174e-02
-4.107813458555566871e-02
-4.070278216572340707e-02
-4.033398319717158842e-02
-3.997455086217228254e-02
-3.962713331423364793e-02
-3.929418706599456523e-02
-3.897795264109077396e-02
-3.868043264294528105e-02
-3.840337245524751836e-02
-3.814824378457275927e-02
-3.791623119066432623e-02
-3.770822174518744657e-02
-3.752479784288892395e-02
-3.736623323071229519e-02
-3.723249223774592609e-02
-3.712323232434015796e-02
-3.703780959303640957e-02
-3.697528738758829731e-02
-3.693444769647014070e-02
-3.691380537034331250e-02
-3.691162478890114979e-02
-3.692593879305471061e-02
-3.695456974369645126e-02
-3.699515239556482038e-02
-3.704515824178696015e-02
-3.710192117106998755e-02
-3.716266415321950456e-02
-3.722452650973348542e-02
-3.728459169351637514e-02
-3.733991513588287570e-02
-3.738755189657875372e-02
-3.742458401276448771e-02
-3.744814706159587531e-02
-3.745545583692160702e-02
-3.744382884859046717e-02
-3.741071144962042350e-02
-3.735369751943984351e-02
-3.727054933317341945e-02
-3.715921559474356928e-02
-3.701784751221316727e-02
-3.684481275475096074e-02
-3.663870730952788896e-02
-3.639836510026341759e-02
-3.612286542111271120e-02
-3.581153807748608392e-02
-3.546396631561141155e-02
-3.507998764802842950e-02
-3.465969249057886808e-02
-3.420342079053886875e-02
-3.371175664531618488e-02
-3.318552115602299568e-02
-3.262576351980656097e-02
-3.203375053717382598e-02
-3.141095465548239540e-02
-3.075904071513529611e-02
-3.007985157704964885e-02
-2.937539269446281728e-02
-2.864781592095409779e-02
-2.789940258800161985e-02
-2.713254613568790580e-02
-2.634973434555467828e-02
-2.555353138244480238e-02
-2.474655977507979332e-02
-2.393148241691018738e-02
-2.311098483349718555e-02
-2.228775776622820767e-02
-2.146448022755374427e-02
-2.064380305392659459e-02
-1.982833308005996220e-02
-1.902061802460292342e-02
-1.822313215180427007e-02
-1.743826280192277769e-02
-1.666829777681093014e-02
-1.591541365040130551e-02
-1.518166495178657413e-02
-1.446897438056255966e-02
-1.377912402774793266e-02
-1.311374749613289890e-02
-1.247432294441004966e-02
-1.186216717458926997e-02
-1.127843061916639598e-02
-1.072409318131824565e-02
-1.019996107554200018e-02
-9.706664473714111604e-03
-9.244656004208359756e-03
-8.814210059483280554e-03
-8.415422899073652860e-03
-8.048213521779357810e-03
-7.712325271823754387e-03
-7.407328181625610734e-03
-7.132621991836190015e-03
-6.887439910640833114e-03
-6.670852989968123654e-03
-6.481775228224782338e-03
-6.318969295163659808e-03
-6.181052996442800047e-03
-6.066506298100566956e-03
-5.973679167945700717e-03
-5.900799974664993654e-03
-5.845984607308759955e-03
-5.807246304403578148e-03
-5.782506122589834742e-03
-5.769604139365907061e-03
-5.766311274258121948e-03
-5.770341809882118846e-03
-5.779366582055422280e-03
-5.791026697370912218e-03
-5.802947964982421367e-03
-5.812755829212134899e-03
-5.818090779371680628e-03
-5.816624180247125658e-03
-5.806074489995124814e-03
-5.784223719824554792e-03
-5.748934116056956395e-03
-5.698164801730851332e-03
-5.629988409219048237e-03
-5.542607523122826917e-03
-5.434370728239859907e-03
-5.303788210302608913e-03
-5.149546683426407118e-03
-4.970523456051466685e-03
-4.765799523260864576e-03
-4.534671514404058947e-03
-4.276662274590071686e-03
-3.991529945226083773e-03
-3.679275352638062494e-03
-3.340147578064371885e-03
-2.974647591264797074e-03
-2.583529734279125124e-03
-2.167801045847744888e-03
-1.728718253971420465e-03
-1.267782421227065665e-03
-7.867310391696267840e-04
-2.875277815844964912e-04
2.276502155692047976e-04
7.564274568523820423e-04
1.296247550579763359e-03
1.844392948597083949e-03
2.398006788845435857e-03
2.954116716372817524e-03
3.509660411225563534e-03
4.061512707727677439e-03
4.606514020877580835e-03
5.141499793935779862e-03
5.663330614435234736e-03
6.168922746123637994e-03
6.655278755371869803e-03
7.119517861318987173e-03
7.558905630003910463e-03
7.970882636661312526e-03
8.353091765756983852e-03
8.703403793388441931e-03
9.019940893789704303e-03
9.301097709928374258e-03
9.545559848112615195e-03
9.752319262628379726e-03
9.920686409350837690e-03
1.005029897142162287e-02
1.014112691049583355e-02
1.019347382442621457e-02
1.020797437267605828e-02
1.018558785577237946e-02
1.012758791549145908e-02
1.003554840221970550e-02
9.911325573975206249e-03
9.757036812440753742e-03
9.575036007943021552e-03
9.367885897173390541e-03
9.138327734608040973e-03
8.889248593661788767e-03
8.623646764840264475e-03
8.344595640448882953e-03
8.055206537706161365e-03
7.758590965821391718e-03
7.457822911798347131e-03
7.155901532901478256e-03
6.855714861052667267e-03
6.560004994117761556e-03
6.271335272995731333e-03
5.992059901952826763e-03
5.724296533176822382e-03
5.469902105101174736e-03
5.230452431509545128e-03
5.007225742006550517e-03
4.801190552009464499e-03
4.612997996979082381e-03
4.442978773570920199e-03
4.291144777275450808e-03
4.157195480986864734e-03
4.040528972845890479e-03
3.940257409619942093e-03
3.855226836444776949e-03
3.784041080626947533e-03
3.725089284650240883e-03
3.676576815399768949e-03
3.636559005614757503e-03
3.602977192325888985e-03
3.573696646696297979e-03
3.546545710882693329e-03
3.519355555968383797e-03
3.489999999494118686e-03
3.456434685006590495e-03
3.416735055569695284e-03
3.369132401649789325e-03
3.312047569130557607e-03
3.244121593776895691e-03
3.164242809170327367e-03
3.071570047760244140e-03
2.965551377942479260e-03
2.845938065072551627e-03
2.712793530133866295e-03
2.566497037562807514e-03
2.407742032108775750e-03
2.237529110011447688e-03
2.057153650663074568e-03
1.868188204382155090e-03
1.672459877033903456e-03
1.472023087881654249e-03
1.269127963969968837e-03
1.066184872341654393e-03
8.657256529814238381e-04
6.703620130271307825e-04
4.827418793411597476e-04
3.055042379372982357e-04
1.412333218232864117e-04
-7.587295734240234805e-06
-1.386198147636912568e-04
-2.497159150514851765e-04
-3.389582377295877408e-04
-4.046989398332670853e-04
-4.455947316042842103e-04
-4.606378087362003647e-04
-4.491819793086091893e-04
-4.109635827481813368e-04
-3.461167940744480599e-04
-2.551829982983958912e-04
-1.391138477170868290e-04
7.319295378608965785e-07
1.625981646335086393e-04
3.443471954604064881e-04
5.434820113609611881e-04
7.571743851613618953e-04
9.822986401222101680e-04
1.215470507896313293e-03
1.453090654599892718e-03
1.691392239148077539e-03
1.926491828427592595e-03
2.154443029935781528e-03
2.371291901820367278e-03
2.573133410286497502e-03
2.756168109098163475e-03
2.916758111597506174e-03
3.051481581688081802e-03
3.157184862975215972e-03
3.231031442564028487e-03
3.270547023727299156e-03
3.273659870954926613e-03
3.238735901171969477e-03
3.164607909611468883e-03
3.050598363881651225e-03
2.896535467332891130e-03
2.702762201524047930e-03
2.470138029492888795e-03
2.200033292399214760e-03
1.894316293971041792e-03
1.555333203029698195e-03
1.185881048533614368e-03
7.891741342922055195e-04
3.688043150808355828e-04
-7.130427440217972372e-05
-5.269454424151006657e-04
-9.936853543064808666e-04
-1.466920417892468922e-03
-1.941937720278142385e-03
-2.413977190774870170e-03
-2.878294595433334574e-03
-3.330224505106273332e-03
-3.765242150875043603e-03
-4.179023379382312484e-03
-4.567501798734600015e-03
-4.926922385631813187e-03
-5.253890559901850353e-03
-5.545416194961493191e-03
-5.798951839159247404e-03
-6.012424637970305644e-03
-6.184261525155430352e-03
-6.313407272536622657e-03
-6.399335222045787926e-03
-6.442050539627105533e-03
-6.442085986839405504e-03
-6.400490330101571076e-03
-6.318809500867440289e-03
-6.199060989511311591e-03
-6.043701759993091310e-03
-5.855590283346262179e-03
-5.637943268096645005e-03
-5.394287756681861480e-03
-5.128409303661110585e-03
-4.844297131903369316e-03
-4.546087120096307770e-03
-4.238003338655911209e-03
-3.924299250931754558e-03
-3.609199201317197722e-03
-3.296841295228729058e-03
-2.991222377118810116e-03
-2.696145989742341088e-03
-2.415174060973799327e-03
-2.151582925088059515e-03
-1.908324358338972081e-03
-1.687992166523286834e-03
-1.492794658315789013e-03
-1.324533471872271209e-03
-1.184588905419634540e-03
-1.073911913794941718e-03
-9.930227358797524048e-04
-9.420160557509454739e-04
-9.205726182306213541e-04
-9.279768921326837609e-04
-9.631405008925274583e-04
-1.024630803354781468e-03
-1.110704251534384585e-03
-1.219343684347482665e-03
-1.348299071434368905e-03
-1.495130901738163202e-03
-1.657255486239185257e-03
-1.831991348855460406e-03
-2.016605964151443886e-03
-2.208362044377372175e-03
-2.404562624385425153e-03
-2.602594175538915176e-03
-2.799967089421957246e-03
-2.994352924541326781e-03
-3.183617851991922022e-03
-3.365851685069791693e-03
-3.539392171865689361e-03
-3.702844238416721969e-03
-3.855093811515052614e-03
-3.995316283866186258e-03
-4.122979383727917203e-03
-4.237840621327719839e-03
-4.339939343829136292e-03
-4.429583684925342962e-03
-4.507332788027464641e-03
-4.573974543062493160e-03
-4.630499457616146959e-03
-4.678071116637973377e-03
-4.717993856002491299e-03
-4.751678216895315575e-03
-4.780604854375248430e-03
-4.806287637970407638e-03
-4.830236603460024043e-03
-4.853921399003833202e-03
-4.878735931607838978e-03
-4.905964874920780427e-03
-4.936752606930140674e-03
-4.972075120351514624e-03
-5.012715440647986034e-03
-5.059242991481903776e-03
-5.111997258454464496e-03
-5.171075987402424384e-03
-5.236328196890976776e-03
-5.307352073856345075e-03
-5.383497819598599167e-03
-5.463875319551535388e-03
-5.547366482835770253e-03
-5.632642163011842076e-03
-5.718183244539672312e-03
-5.802305545720825956e-03
-5.883188098556467807e-03
-5.958904316372317343e-03
-6.027455449032479741e-03
-6.086805838158313407e-03
-6.134919269200287024e-03
-6.169795801261578408e-03
-6.189508489422146723e-03
-6.192239321846820452e-03
-6.176313741567816817e-03
-6.140233140186517058e-03
-6.082704865134632745e-03
-6.002669132303070816e-03
-5.899322324942349316e-03
-5.772136437546529150e-03
-5.620874188790946947e-03
-5.445599573875434772e-03
-5.246683722295143217e-03
-5.024805912030887688e-03
-4.780949635611517028e-03
-4.516393920841488621e-03
-4.232699972871762674e-03
-3.931693265301724159e-03
-3.615441562983182696e-03
-3.286229013382413987e-03
-2.946526850476422453e-03
-2.598961084891655664e-03
-2.246277800717534461e-03
-1.891306574788244278e-03
-1.536922546359430599e-03
-1.186007843264006573e-03
-8.414128100925000664e-04
-5.059178536144736359e-04
-1.821963581848101016e-04
1.272207206449575451e-04
4.199779953727730635e-04
6.939260467171539997e-04
9.471486466450271084e-04
1.177986357737790786e-03
1.385056147686551534e-03
1.567266796938927278e-03
1.723829835544316317e-03
1.854265887992200077e-03
1.958406385465545109e-03
2.036390680493594535e-03
2.088658598930933242e-03
2.115938552411289822e-03
2.119231555861908218e-03
2.099791327900143827e-03
2.059100986705793800e-03
1.998846550188248129e-03
1.920887866922052836e-03
1.827227362327397747e-03
1.719977154960618260e-03
1.601325076855125143e-03
1.473500268487332827e-03
1.338738765817616043e-03
1.199249674897474817e-03
1.057182497325090875e-03
9.145961802854087226e-04
7.734302167759597854e-04
6.354783928462437925e-04
5.023654634085049885e-04
3.755272084525902699e-04
2.561941058249833322e-04
1.453788121028306646e-04
4.386760027205586273e-05
-4.778404202562188958e-05
-1.292517852962617338e-04
-2.004387603364731114e-04
-2.614679052195007934e-04
-3.126706231670814407e-04
-3.545719470140811175e-04
-3.878724580543354986e-04
-4.134274044465989983e-04
-4.322233947410818069e-04
-4.453530860193943559e-04
-4.539883316273138846e-04
-4.593523180744416251e-04
-4.626911926242242346e-04
-4.652456584204784935e-04
-4.682230749182412404e-04
-4.727705971486087879e-04
-4.799497409146622189e-04
-4.907129587804257400e-04
-5.058825441355792926e-04
-5.261322351967501068e-04
-5.519718815188877836e-04
-5.837354738864779582e-04
-6.215726331486662315e-04
-6.654438765307794284e-04
-7.151196119442446890e-04
-7.701829195770898287e-04
-8.300360971102657172e-04
-8.939108102075959310e-04
-9.608817406935554447e-04
-1.029883452215934287e-03
-1.099730167717484801e-03
-1.169138170477128195e-03
-1.236750377309982956e-03
-1.301162704469482120e-03
-1.360951762703493245e-03
-1.414703383478745947e-03
-1.461041466707712570e-03
-1.498656706457274094e-03
-1.526334621173022375e-03
-1.542982491914459287e-03
-1.547654573655323201e-03
-1.539575254750911613e-03
-1.518159825382928499e-03
-1.483032324074835991e-03
-1.434040251294263968e-03
-1.371265821315062819e-03
-1.295033547443810457e-03
-1.205914053742636631e-03
-1.104724033301097193e-03
-9.925223029880960064e-04
-8.706020125278538056e-04
-7.404791398222468216e-04
-6.038774232238428583e-04
-4.627100167367964850e-04
-3.190580908194273844e-04
-1.751468033595292024e-04
-3.331897278227540892e-05
1.039930619428275951e-04
2.342970319787724776e-04
3.550711223445675714e-04
4.637948873397789232e-04
5.579799367333775030e-04
6.352001969641171523e-04
6.931210238100372683e-04
7.295267478250314812e-04
7.423462733784982892e-04
7.296763746690442280e-04
6.898022509921576065e-04
6.212150776884390636e-04
5.226263251423225644e-04
3.929786595717110406e-04
2.314533951321298504e-04
3.747428235643189662e-05
-1.892922227192461791e-04
-4.489401573064642900e-04
-7.413305517720209827e-04
-1.066101028249649219e-03
-1.422678220425215544e-03
-1.810292650766913468e-03
-2.227995803712768189e-03
-2.674678863434669894e-03
-3.149092705977532113e-03
-3.649868717747177353e-03
-4.175539940804670093e-03
-4.724562070889809506e-03
-5.295333829592357641e-03
-5.886216268173488295e-03
-6.495550574918905994e-03
-7.121674076381036625e-03
-7.762933899201363182e-03
-8.417698170746206604e-03
-9.084364475023089594e-03
-9.761365428070266012e-03
-1.044717118990813078e-02
-1.114028904207163724e-02
-1.183925993622367279e-02
-1.254265222493116012e-02
-1.324905272561465244e-02
-1.395705550991066003e-02
-1.466524863630309407e-02
-1.537219928872475376e-02
-1.607643776114401832e-02
-1.677644076385348057e-02
-1.747061463010373197e-02
-1.815727902915412889e-02
-1.883465166008958802e-02
-1.950083454314379891e-02
-2.015380244061670822e-02
-2.079139401908998777e-02
-2.141130622882893297e-02
-2.201109227916703617e-02
-2.258816365627942108e-02
-2.313979650321403361e-02
-2.366314258132625956e-02
-2.415524494792691684e-02
-2.461305852260159757e-02
-2.503347527955073620e-02
-2.541335401932702173e-02
-2.574955448059221622e-02
-2.603897541064797289e-02
-2.627859611600544265e-02
-2.646552089613147390e-02
-2.659702570385743398e-02
-2.667060643124982353e-02
-2.668402778889469515e-02
-2.663537216099780627e-02
-2.652308729940229190e-02
-2.634603208713070036e-02
-2.610351938716509376e-02
-2.579535497083076251e-02
-2.542187177344736385e-02
-2.498395843406386527e-02
-2.448308139162548927e-02
-2.392129986059580646e-02
-2.330127299692940496e-02
-2.262625872338194441e-02
-2.190010390170188392e-02
-2.112722543039568385e-02
-2.031258235754601973e-02
-1.946163886194835976e-02
-1.858031844963279125e-02
-1.767494963571050390e-02
-1.675220360727508809e-02
-1.581902461579813915e-02
-1.488255380423172264e-02
-1.395004760236112813e-02
-1.302879159410946786e-02
-1.212601116119316896e-02
-1.124878012998756227e-02
-1.040392885748911943e-02
-9.597953088578387026e-03
-8.836925157730277439e-03
-8.126408859121749331e-03
-7.471379424243313437e-03
-6.876150111717777534e-03
-6.344306668566526003e-03
-5.878650768842821894e-03
-5.481153727068353333e-03
-5.152921359711960282e-03
-4.894170781443190309e-03
-4.704219760395512116e-03
-4.581489116019300291e-03
-4.523518311151403931e-03
-4.526994281168215777e-03
-4.587793287095102632e-03
-4.701035433522247724e-03
-4.861151014261517501e-03
-5.061958000833879923e-03
-5.296749590294457313e-03
-5.558390428779673084e-03
-5.839420282150602909e-03
-6.132163368541488496e-03
-6.428841877698997925e-03
-6.721691728025244381e-03
-7.003078833636084029e-03
-7.265613860048719501e-03
-7.502263659863549553e-03
-7.706457503504605955e-03
-7.872186284832936518e-03
-7.994093001350491626e-03
-8.067552918787261954e-03
-8.088742043508135790e-03
-8.054692517621090536e-03
-7.963334061069035977e-03
-7.813520530637120196e-03
-7.605041150839763307e-03
-7.338615991748027173e-03
-7.015875748805005391e-03
-6.639326050174712557e-03
-6.212296761812838471e-03
-5.738877141659356855e-03
-5.223837911005523894e-03
-4.672541352097154058e-03
-4.090841127275496140e-03
-3.484973468016111259e-03
-2.861441594004541025e-03
-2.226895388689988618e-03
-1.588008489084449066e-03
-9.513548217697479110e-04
-3.232869993930705186e-04
2.901813087649056030e-04
8.834868647331483183e-04
1.451620175025810288e-03
1.990218774706296705e-03
2.495648535037150485e-03
2.965071533059849412e-03
3.396499208029691436e-03
3.788829650595327246e-03
4.141868325782810389e-03
4.456331654835957168e-03
4.733833345599962501e-03
4.976853602038815334e-03
5.188691679343122171e-03
5.373402638731102077e-03
5.535719268193520920e-03
5.680960612080712159e-03
5.814928749421094216e-03
5.943795702541150236e-03
6.073982570885289901e-03
6.212033143983903410e-03
6.364484350950586414e-03
6.537736009408570866e-03
6.737922412929666510e-03
6.970788183237794193e-03
7.241570921817853945e-03
7.554892883715398286e-03
7.914663936573210212e-03
8.323997812334633234e-03
8.785143332931875243e-03
9.299432146767028923e-03
9.867244058419761057e-03
1.048799097464370514e-02
1.116011984088133638e-02
1.188113479331988180e-02
1.264763820697377937e-02
1.345539006316650091e-02
1.429938467149208248e-02
1.517394342038808769e-02
1.607282189902094552e-02
1.698932943427658090e-02
1.791645875122319792e-02
1.884702327214383272e-02
1.977379955280238188e-02
2.068967194932643319e-02
2.158777660943110924e-02
2.246164191485804096e-02
2.330532250971683109e-02
2.411352408562736013e-02
2.488171623864506021e-02
2.560623107405763169e-02
2.628434516758786435e-02
2.691434301483617772e-02
2.749556043044832504e-02
2.802840660450596835e-02
2.851436410812397196e-02
2.895596639865912966e-02
2.935675299233238972e-02
2.972120274270396295e-02
3.005464626928606303e-02
3.036315890465109135e-02
3.065343616064829593e-02
3.093265381544727313e-02
3.120831535588335787e-02
3.148808961006930446e-02
3.177964197648159433e-02
3.209046249908057563e-02
3.242769440541976717e-02
3.279796685566523096e-02
3.320723550263397772e-02
3.366063467323152786e-02
3.416234443773610852e-02
3.471547605696703037e-02
3.532197878697500293e-02
3.598257074465932570e-02
3.669669624202372138e-02
3.746251139017826165e-02
3.827689934083471079e-02
3.913551606704726571e-02
4.003286687170485442e-02
4.096241338381483021e-02
4.191671011486911014e-02
4.288756897766823201e-02
4.386624966378972756e-02
4.484367330221374764e-02
4.581065604664368712e-02
4.675815893655251021e-02
4.767754983754385334e-02
4.856087297298102012e-02
4.940112105919951258e-02
5.019250509730831949e-02
5.093071654588140346e-02
5.161317654906778102e-02
5.223926699950175168e-02
5.281053820929725029e-02
5.333088837816034322e-02
5.380671022278978033e-02
5.424700047842871686e-02
5.466342868179308034e-02
5.507036190769307171e-02
5.548484299290001864e-02
5.592652041438125887e-02
5.641752869285239502e-02
5.698231896936929025e-02
5.764744026315987008e-02
5.844127261506296134e-02
5.939371428944235920e-02
6.053582598587571584e-02
6.189943563226308482e-02
6.351670821498836550e-02
6.541968584379984075e-02
6.763980361291239973e-02
7.020738766803576170e-02
7.315114209042213045e-02
7.649763171090638580e-02
8.027076820734950491e-02
8.449130687635590664e-02
8.917636168587239620e-02
9.433894595956353324e-02
9.998754590408918952e-02
1.061257339500335378e-01
1.127518284374347673e-01
1.198586053892078396e-01
1.274330679554356860e-01
1.354562780641481723e-01
1.439032541067664095e-01
1.527429376248149451e-01
1.619382310245366940e-01
1.714461074442152899e-01
1.812177929237622498e-01
1.911990199348306552e-01
2.013303504311113601e-01
2.115475655546685263e-01
2.217821182544507386e-01
2.319616441294414244e-01
2.420105250648839634e-01
2.518504993354333532e-01
2.614013113898351337e-01
2.705813937477518083e-01
2.793085731957414830e-01
2.875007930222259200e-01
2.950768427752386014e-01
3.019570869892709841e-01
3.080641843500200872e-01
3.133237888494075363e-01
3.176652249211266987e-01
3.210221286810076569e-01
3.233330480530058892e-01
3.245419951225036459e-01
3.245989447410509432e-01
3.234602742147572596e-01
3.210891396040035373e-01
3.174557852128845892e-01
3.125377836422758016e-01
3.063202048876904060e-01
2.987957137087111636e-01
2.899645956380726419e-01
2.798347127831365411e-01
2.684213917413436623e-01
2.557472463478039915e-01
2.418419392153895731e-01
2.267418865266136174e-01
2.104899110891265135e-01
1.931348494320550557e-01
1.747311190404483849e-01
1.553382520890452534e-01
1.350204023531803854e-01
1.138458321355192010e-01
9.188638590030935582e-02
6.921695736850629055e-02
4.591495652710732983e-02
2.205978277787788364e-02
-2.267690078127207551e-03
-2.698561167735079661e-02
-5.201163089041747206e-02
-7.726334559063241514e-02
-1.026587228170387361e-01
-1.281164864320221697e-01
-1.535564703351293692e-01
-1.788999357363612874e-01
-2.040698518315825494e-01
-2.289911400496643934e-01
-2.535908824980059317e-01
-2.777984959099410456e-01
-3.015458730087032801e-01
-3.247674938115409082e-01
-3.474005095899637130e-01
-3.693848027431468339e-01
-3.906630261909066482e-01
-4.111806258368325140e-01
-4.308858499779939510e-01
-4.497297494337915702e-01
-4.676661722224848550e-01
-4.846517561882146552e-01
-5.006459230529390902e-01
-5.156108768854762436e-01
-5.295116096040765052e-01
-5.423159157679411368e-01
-5.539944183260546717e-01
-5.645206065442022192e-01
-5.738708868603130675e-01
-5.820246466736966884e-01
-5.889643306790791621e-01
-5.946755287127668543e-01
-5.991470736941276742e-01
-6.023711474916092490e-01
-6.043433924089315346e-01
-6.050630252763244954e-01
-6.045329511248436205e-01
-6.027598729221271823e-01
-5.997543937732261465e-01
-5.955311077931088048e-01
-5.901086759033637996e-01
-5.835098828466767085e-01
-5.757616718353734120e-01
-5.668951536204979158e-01
-5.569455867321334575e-01
-5.459523262888158479e-01
-5.339587392694304935e-01
-5.210120842691253751e-01
-5.071633547709838430e-01
-4.924670852005602062e-01
-4.769811198298217758e-01
-4.607663451014665790e-01
-4.438863866195351116e-01
-4.264072728417880320e-01
-4.083970678784485386e-01
-3.899254764285587371e-01
-3.710634246371929956e-01
-3.518826209674661420e-01
-3.324551014992800924e-01
-3.128527647429386049e-01
-2.931469010714530810e-01
-2.734077221795607748e-01
-2.537038961904684586e-01
-2.341020939007100454e-01
-2.146665515776424449e-01
-1.954586558075820102e-01
-1.765365554720762509e-01
-1.579548055974899778e-01
-1.397640474537137634e-01
-1.220107289511073445e-01
-1.047368685695965335e-01
-8.797986572176370867e-02
-7.177235959996347558e-02
-5.614213810207499544e-02
-4.111209755270951033e-02
-2.670025325684925385e-02
-1.291980020416848111e-02
2.207772504596955626e-04
1.271754900205364879e-02
2.457093864914682360e-02
3.578548211502673854e-02
4.636954932407327118e-02
5.633503321730642249e-02
6.569701082622340926e-02
7.447338163325754878e-02
8.268448840361680707e-02
9.035272611982006485e-02
9.750214453340881604e-02
1.041580500927028613e-01
1.103466126217490240e-01
1.160944821050788334e-01
1.214284207766826856e-01
1.263749550981046743e-01
1.309600519796131624e-01
1.352088231758838410e-01
1.391452612287519541e-01
1.427920096147035356e-01
1.461701693635203969e-01
1.492991435531327848e-01
1.521965206812749272e-01
1.548779971227045305e-01
1.573573383652186464e-01
1.596463778613780304e-01
1.617550519869776493e-01
1.636914689607242013e-01
1.654620090287555190e-01
1.670714527562352780e-01
1.685231340839909442e-01
1.698191141992627384e-01
1.709603722227266143e-01
1.719470083700767593e-01
1.727784553468572626e-01
1.734536936088343917e-01
1.739714660847749006e-01
1.743304883541736683e-01
1.745296501145454371e-01
1.745682043827051222e-01
1.744459408440323378e-01
1.741633404931998697e-01
1.737217089729253816e-01
1.731232863884576700e-01
1.723713319536576416e-01
1.714701823919760615e-01
1.704252834295222063e-01
1.692431942602530270e-01
1.679315654121713297e-01
1.664990908344742837e-01
1.649554357113999503e-01
1.633111416673677097e-01
1.615775115843542387e-01
1.597664765154026834e-01
1.578904476354758557e-01
1.559621560717222577e-01
1.539944840750595290e-01
1.520002907468366582e-01
1.499922357568296005e-01
1.479826044287248510e-01
1.459831374186932040e-01
1.440048683422622544e-01
1.420579722096195208e-01
1.401516274565105524e-01
1.382938940660039528e-01
1.364916099031955876e-01
1.347503069947560694e-01
1.330741492804323189e-01
1.314658927163378233e-01
1.299268683800202939e-01
1.284569887098263585e-01
1.270547766041186522e-01
1.257174168200274056e-01
1.244408285097178823e-01
1.232197575135404038e-01
1.220478866929369383e-01
1.209179622771814067e-01
1.198219339579479070e-01
1.187511060936731755e-01
1.176962975707560310e-01
1.166480073450620741e-01
1.155965829888346286e-01
1.145323892886760953e-01
1.134459740995758664e-01
1.123282287958391468e-01
1.111705406853405881e-01
1.099649349920800989e-01
1.087042041533630016e-01
1.073820226099116010e-01
1.059930453212162005e-01
1.045329887003931812e-01
1.029986928745380420e-01
1.013881646263285474e-01
9.970060065805511074e-02
9.793639109440045731e-02
9.609710353387822257e-02
9.418544834802808352e-02
9.220522614250419025e-02
9.016125855861557847e-02
8.805930379708029609e-02
8.590595877836564032e-02
8.370854969466946793e-02
8.147501294810277628e-02
7.921376870179287766e-02
7.693358928459502477e-02
7.464346459090571984e-02
7.235246687753019157e-02
7.006961718395385286e-02
6.780375533463160742e-02
6.556341572833838949e-02
6.335671069307964587e-02
6.119122319243679164e-02
5.907391026917356569e-02
5.701101864608668079e-02
5.500801340662678923e-02
5.306952062869985803e-02
5.119928451988584733e-02
4.940013926269984368e-02
4.767399576645875436e-02
4.602184296972294114e-02
4.444376324499579173e-02
4.293896137002108093e-02
4.150580605084614599e-02
4.014188300813073540e-02
3.884405836185267358e-02
3.760855109846322070e-02
3.643101298206662814e-02
3.530661454884347766e-02
3.423013544436524780e-02
3.319605768318450306e-02
3.219866010410380591e-02
3.123211255366658418e-02
3.029056831589358595e-02
2.936825329283425726e-02
2.845955080120321154e-02
2.755908057281884413e-02
2.666177119758963293e-02
2.576292494225713645e-02
2.485827435609924002e-02
2.394402999740515361e-02
2.301691904318458118e-02
2.207421441156296946e-02
2.111375452839370920e-02
2.013395372915769560e-02
1.913380363685022317e-02
1.811286585526737658e-02
1.707125665547907373e-02
1.600962415272293507e-02
1.492911885164797427e-02
1.383135821751885382e-02
1.271838626258873194e-02
1.159262903122788152e-02
1.045684691532017783e-02
9.314084638317036632e-03
8.167619974843710190e-03
7.020912001306326387e-03
5.877549706305152527e-03
4.741201763421784565e-03
3.615568170732256018e-03
2.504334312572724635e-03
1.411128074799156444e-03
3.394804398156924061e-04
-7.072101343628108081e-04
-1.725709336690234904e-03
-2.712974345917943970e-03
-3.666176903686185935e-03
-4.582722130122620155e-03
-5.460263220152696342e-03
-6.296712106687649482e-03
-7.090246392981943563e-03
-7.839312763822455996e-03
-8.542627266973397068e-03
-9.199172826380242265e-03
-9.808194354573024701e-03
-1.036919177466169226e-02
-1.088191143751906370e-02
-1.134633621825039546e-02
-1.176267468111313191e-02
-1.213134962883836293e-02
-1.245298633630255794e-02
-1.272840072870003170e-02
-1.295858760662729758e-02
-1.314470918657196889e-02
-1.328808395863653909e-02
-1.339017597893083292e-02
-1.345258460296430529e-02
-1.347703459059382790e-02
-1.346536653955195811e-02
-1.341952750373328652e-02
-1.334156174020392771e-02
-1.323360130862043411e-02
-1.309785642201246984e-02
-1.293660535340786753e-02
-1.275218379028021307e-02
-1.254697343763297446e-02
-1.232338961782213256e-02
-1.208386788261200766e-02
-1.183084949715356750e-02
-1.156676575499347888e-02
-1.129402111941669833e-02
-1.101497517480617624e-02
-1.073192349514327446e-02
-1.044707753702936275e-02
-1.016254374910421053e-02
-9.880302118268872655e-03
-9.602184443558059793e-03
-9.329852526119951014e-03
-9.064776711235388376e-03
-8.808215091228146013e-03
-8.561193740816536515e-03
-8.324488409510638620e-03
-8.098608056035907013e-03
-7.883780523392188919e-03
-7.679940924536446216e-03
-7.486722845651640201e-03
-7.303452919804138445e-03
-7.129148904835147862e-03
-6.962521482367630375e-03
-6.801980086205376176e-03
-6.645642770153573943e-03
-6.491350211970678755e-03
-6.336683809362626471e-03
-6.178987816866693579e-03
-6.015395361375247205e-03
-5.842858104467066327e-03
-5.658179220265874276e-03
-5.458049363044050091e-03
-5.239085223270959976e-03
-4.997870126953300046e-03
-4.730996170211811125e-03
-4.435107343439974141e-03
-4.106943054331441308e-03
-3.743381290684811777e-03
-3.341481028674380890e-03
-2.898523075266387812e-03
-2.412048709790746981e-03
-1.879895634075523991e-03
-1.300230612968366044e-03
-6.715782929436302229e-04
7.154304498833807650e-06
7.366580041344428492e-04
1.517206834555663401e-03
2.348648615734397552e-03
3.230401088103939441e-03
4.161453676868624371e-03
5.140374879406271399e-03
6.165325178617797781e-03
7.234075363676726288e-03
8.344029927781526287e-03
9.492255276120872484e-03
1.067551227882032258e-02
1.189029279772642160e-02
1.313285949602408659e-02
1.439928837973666192e-02
1.568551345980506717e-02
1.698737277017832448e-02
1.830065512817950421e-02
1.962114690800211697e-02
2.094467809007231549e-02
2.226716686263120748e-02
2.358466212608106849e-02
2.489338326484046363e-02
2.618975667604594645e-02
2.747044834435507371e-02
2.873239213027585157e-02
2.997281333773955253e-02
3.118924728749082956e-02
3.237955254753104722e-02
3.354191890562320533e-02
3.467486981791550321e-02
3.577725944507025718e-02
3.684826441769119970e-02
3.788737063731045795e-02
3.889435530861021229e-02
3.986926455419518428e-02
4.081238718664820242e-02
4.172422514571606095e-02
4.260546104028622300e-02
4.345692357808204204e-02
4.427955134481265792e-02
4.507435578976427132e-02
4.584238396914231545e-02
4.658468174805090872e-02
4.730225818311908220e-02
4.799605161935622394e-02
4.866689816765448762e-02
4.931550309789190650e-02
4.994241563219231628e-02
5.054800760575577784e-02
5.113245633074591651e-02
5.169573188645233686e-02
5.223758917831910348e-02
5.275756475352937763e-02
5.325497848058934058e-02
5.372893997667729099e-02
5.417835966531591579e-02
5.460196426080259069e-02
5.499831630828185686e-02
5.536583752058574226e-02
5.570283538632259807e-02
5.600753257865867529e-02
5.627809858989674813e-02
5.651268301731025845e-02
5.670944992679394919e-02
5.686661270484918290e-02
5.698246863934077616e-02
5.705543262276457223e-02
5.708406947390910063e-02
5.706712419440846534e-02
5.700354958564338853e-02
5.689253083427022600e-02
5.673350651558221186e-02
5.652618562835431265e-02
5.627056041121101387e-02
5.596691463346877005e-02
5.561582719273221176e-02
5.521817095247792684e-02
5.477510675070275392e-02
5.428807285701425789e-02
5.375876970507267871e-02
5.318914037901831954e-02
5.258134711247926946e-02
5.193774412721916672e-02
5.126084722057698551e-02
5.055330068593345827e-02
4.981784197425616345e-02
4.905726476775389144e-02
4.827438104197717683e-02
4.747198264574022802e-02
4.665280307354292139e-02
4.581948011249311475e-02
4.497451982639214668e-02
4.412026251395229776e-02
4.325885120534557482e-02
4.239220322654477235e-02
4.152198517883642220e-02
4.064959181771944652e-02
3.977612907409654869e-02
3.890240164913329191e-02
3.802890523124670408e-02
3.715582350365580905e-02
3.628302998082928027e-02
3.541009464467718970e-02
3.453629535355168950e-02
3.366063372416866484e-02
3.278185532349413983e-02
3.189847384689859650e-02
3.100879890208588924e-02
3.011096706048551480e-02
2.920297558092825596e-02
2.828271845038209109e-02
2.734802405932147337e-02
2.639669403885973667e-02
2.542654278576310031e-02
2.443543696179416302e-02
2.342133444675658857e-02
2.238232217794059245e-02
2.131665246526413468e-02
2.022277716231591499e-02
1.909937923679522545e-02
1.794540136716625198e-02
1.676007117408325961e-02
1.554292274160755383e-02
1.429381420469353139e-02
1.301294114103731907e-02
1.170084564394222905e-02
1.035842101227805144e-02
8.986912003447753913e-03
7.587910712426950560e-03
6.163348134407835473e-03
4.715481672990870163e-03
3.246878586554570022e-03
1.760395793004211227e-03
2.591562465641779529e-04
-1.253477721772096537e-03
-2.773933735833864888e-03
-4.298461069122853223e-03
-5.823164240180709987e-03
-7.344038072613674403e-03
-8.857003752753363560e-03
-1.035794559046710091e-02
-1.184274789477760860e-02
-1.330733166020663626e-02
-1.474769056066719923e-02
-1.615992594385349743e-02
-1.754028043815975685e-02
-1.888516984375035110e-02
-2.019121296682574451e-02
-2.145525915923330446e-02
-2.267441335854698467e-02
-2.384605839247149264e-02
-2.496787436484181055e-02
-2.603785506896699742e-02
-2.705432122311432486e-02
-2.801593059318225817e-02
-2.892168496996090632e-02
-2.977093394570791071e-02
-3.056337557933526752e-02
-3.129905408845915643e-02
-3.197835449225735344e-02
-3.260199449457586857e-02
-3.317101370157087697e-02
-3.368676034337327735e-02
-3.415087562816187389e-02
-3.456527596629285770e-02
-3.493213324335334852e-02
-3.525385333368773882e-02
-3.553305308146121472e-02
-3.577253598131151235e-02
-3.597526672959998340e-02
-3.614434492006116800e-02
-3.628297803555868145e-02
-3.639445393510395282e-02
-3.648211312338426465e-02
-3.654932097096511012e-02
-3.659944002049183437e-02
-3.663580268177628330e-02
-3.666168441708132081e-02
-3.668027770629392337e-02
-3.669466677038241836e-02
-3.670780344645171306e-02
-3.672248424701210490e-02
-3.674132888017607457e-02
-3.676676022744400363e-02
-3.680098609105599688e-02
-3.684598271198586544e-02
-3.690348029125291307e-02
-3.697495060305022729e-02
-3.706159680160713704e-02
-3.716434556401385092e-02
-3.728384163337147839e-02
-3.742044478954444781e-02
-3.757422938108075094e-02
-3.774498644361339028e-02
-3.793222840331265944e-02
-3.813519630994966630e-02
-3.835286974557160916e-02
-3.858397918825807321e-02
-3.882702085462911429e-02
-3.908027385858437591e-02
-3.934181971835385566e-02
-3.960956375618972236e-02
-3.988125853961354411e-02
-4.015452897311826141e-02
-4.042689886699686597e-02
-4.069581874518397868e-02
-4.095869451776075476e-02
-4.121291682024047498e-02
-4.145589073206614600e-02
-4.168506535990117168e-02
-4.189796322806974005e-02
-4.209220882908604883e-02
-4.226555624294839331e-02
-4.241591532206649001e-02
-4.254137612770080012e-02
-4.264023132634353619e-02
-4.271099623751264951e-02
-4.275242620356318329e-02
-4.276353101672360907e-02
-4.274358627908255576e-02
-4.269214133565685243e-02
-4.260902376210252973e-02
-4.249434026977910728e-02
-4.234847388536738116e-02
-4.217207745919391432e-02
-4.196606351417338232e-02
-4.173159057423016932e-02
-4.147004608792741881e-02
-4.118302605156085733e-02
-4.087231168218957711e-02
-4.053984337268410482e-02
-4.018769229953111921e-02
-3.981802999487649847e-02
-3.943309639571700859e-02
-3.903516665632236066e-02
-3.862651734707314016e-02
-3.820939242084560317e-02
-3.778596952420187199e-02
-3.735832705812310722e-02
-3.692841256217066492e-02
-3.649801287016628260e-02
-3.606872652147914693e-02
-3.564193884949538177e-02
-3.521880020997406047e-02
-3.480020761990084560e-02
-3.438679024638284509e-02
-3.397889894286333645e-02
-3.357660007293817445e-02
-3.317967374368442635e-02
-3.278761662521284537e-02
-3.239964924767237131e-02
-3.201472782808572476e-02
-3.163156049661772912e-02
-3.124862770722198688e-02
-3.086420660385345502e-02
-3.047639903327871436e-02
-3.008316278238907723e-02
-2.968234573238530405e-02
-2.927172232358499909e-02
-2.884903188676936001e-02
-2.841201825389794156e-02
-2.795847008499461467e-02
-2.748626135347412291e-02
-2.699339130383532001e-02
-2.647802334872068064e-02
-2.593852223415113803e-02
-2.537348902717196861e-02
-2.478179320634195382e-02
-2.416260145527734937e-02
-2.351540261735951889e-02
-2.284002849574828450e-02
-2.213666997671197290e-02
-2.140588834912731525e-02
-2.064862149007587466e-02
-1.986618473153071301e-02
-1.906026643370964044e-02
-1.823291821227618348e-02
-1.738653990032420008e-02
-1.652385935156911942e-02
-1.564790736340236632e-02
-1.476198802831795061e-02
-1.386964483968134224e-02
-1.297462301131295168e-02
-1.208082851625916047e-02
-1.119228433956288848e-02
-1.031308452937192838e-02
-9.447346768292369523e-03
-8.599163930343333567e-03
-7.772555338351898151e-03
-6.971418508028190755e-03
-6.199481813446369900e-03
-5.460258883667819425e-03
-4.757005355017423359e-03
-4.092678428500982728e-03
-3.469899872182051655e-03
-2.890922943329023598e-03
-2.357603713427988777e-03
-1.871377148655683489e-03
-1.433238262296358334e-03
-1.043728651322316237e-03
-7.029284951566834670e-04
-4.104541800366560858e-04
-1.654615702894961216e-04
3.334513330302974745e-05
1.876990946865853341e-04
2.997512742965471834e-04
3.720458289194607878e-04
4.074908816451451176e-04
4.093250022070329930e-04
3.810798615442229954e-04
3.265394531665978192e-04
2.496965583136892151e-04
1.547069653356384440e-04
4.584194231845739885e-05
-7.256034303606436722e-05
-1.961438968229799694e-04
-3.205838507446712605e-04
-4.416346974368112049e-04
-5.551772543911224394e-04
-6.572637750852647950e-04
-7.441607545942547069e-04
-8.123888076354946570e-04
-8.587593493406501122e-04
-8.804075311030970909e-04
-8.748212338115670230e-04
-8.398657094395512368e-04
-7.738037803512378288e-04
-6.753112518713985744e-04
-5.434875965570774414e-04
-3.778617885551600864e-04
-1.783932576295264069e-04
5.453183942533867723e-05
3.201090717315727293e-04
6.171286115988462110e-04
9.439924440318809770e-04
1.298735466526328500e-03
1.679050281221500804e-03
2.082315417303902752e-03
2.505626455546066961e-03
2.945829745896730734e-03
3.399558322980101872e-03
3.863269656329325862e-03
4.333284629908896492e-03
4.805827457207838792e-03
5.277066050626970893e-03
5.743152430836890102e-03
6.200262772938073576e-03
6.644636710259083090e-03
7.072615398126502230e-03
7.480678143293198641e-03
7.865477156447666512e-03
8.223870197151641678e-03
8.552950751646644367e-03
8.850075504583382671e-03
9.112888912930192792e-03
9.339344668721978257e-03
9.527723930641843197e-03
9.676650233160818959e-03
9.785100859580554006e-03
9.852414720032676154e-03
9.878296635784466692e-03
9.862818126279525657e-03
9.806414659890282451e-03
9.709879450850337351e-03
9.574353860373077327e-03
9.401314537770037727e-03
9.192557466784162176e-03
8.950179055708516740e-03
8.676554399492039660e-03
8.374313007329572262e-03
8.046312209106655511e-03
7.695608447873585924e-03
7.325426688180581430e-03
6.939128304170209989e-03
6.540177692862118690e-03
6.132107817019050860e-03
5.718485190407310292e-03
5.302874468533795051e-03
4.888803090846257325e-03
4.479726128849607046e-03
4.078991836226291030e-03
3.689808186845602942e-03
3.315210682244483422e-03
2.958031885799286640e-03
2.620872878651725382e-03
2.306076878562709782e-03
2.015705513576036747e-03
1.751517876672623562e-03
1.514952659493659084e-03
1.307113565493980356e-03
1.128758293317436634e-03
9.802910805739527798e-04
8.617590989409115894e-04
7.728527367798778639e-04
7.129098488512541128e-04
6.809239479285035404e-04
6.755563307123532354e-04
6.951521448635702375e-04
7.377601142753866361e-04
8.011559188351289771e-04
8.828689048083122361e-04
9.802119767265905954e-04
1.090314361017293097e-03
1.210156761698692827e-03
1.336608677442126681e-03
1.466467464942245022e-03
1.596498608883841798e-03
1.723476819710913124e-03
1.844227418722434045e-03
1.955667518379071781e-03
2.054846528203548104e-03
2.138985379800253678e-03
2.205514028985530121e-03
2.252106692256683213e-03
2.276714403242656708e-03
2.277594316819151182e-03
2.253335493067010371e-03
2.202880597381602461e-03
2.125543275137939912e-03
2.021020915751064063e-03
1.889402507456888888e-03
1.731171504488573844e-03
1.547203494463497741e-03
1.338758669362578825e-03
1.107469136969389204e-03
8.553211646302132489e-04
5.846325200765605619e-04
2.980251779977428949e-04
-1.606376145501686134e-06
-3.111307824704617536e-04
-6.272189780902642960e-04
-9.463864406327446082e-04
-1.265037936559584983e-03
-1.579514260508615075e-03
-1.886140263270822586e-03
-2.181273567349156870e-03
-2.461353298897679068e-03
-2.722948152230718257e-03
-2.962803182870775778e-03
-3.177884567462245773e-03
-3.365421827580285501e-03
-3.522946770531678283e-03
-3.648328705386463377e-03
-3.739805370912768941e-03
-3.796009066015936136e-03
-3.815987645494699643e-03
-3.799220079794988179e-03
-3.745626227053734918e-03
-3.655570707463558569e-03
-3.529860850381158401e-03
-3.369738600283998884e-03
-3.176866567424349239e-03
-2.953308302960346021e-03
-2.701503125709522717e-03
-2.424235842526208801e-03
-2.124601682796771647e-03
-1.805966987630800704e-03
-1.471926223979970125e-03
-1.126255911461128195e-03
-7.728660623005183510e-04
-4.157497697433575209e-04
-5.893183724951382073e-05
2.935829560967990310e-04
6.378612054186524492e-04
9.700911382346026580e-04
1.286630992178611601e-03
1.584054933381117943e-03
1.859195804033139231e-03
2.109184030073911302e-03
2.331482311406593393e-03
2.523915572055253700e-03
2.684695674066172200e-03
2.812440577971757512e-03
2.906187784750781464e-03
2.965401856287392876e-03
2.989975981106663978e-03
2.980227554567015363e-03
2.936887884221019325e-03
2.861086232785150629e-03
2.754328456487538639e-03
2.618470618282594305e-03
2.455688055039990068e-03
2.268440255714153017e-03
2.059432197595644637e-03
1.831572751479378135e-03
1.587930810931516582e-03
1.331689684863866839e-03
1.066100644231855092e-03
7.944361727273870077e-04
5.199437265279296472e-04
2.458004904424516360e-04
-2.492996384343728456e-05
-2.893386365298270977e-04
-5.447090803518869198e-04
-7.885518172604664066e-04
-1.018634854995900067e-03
-1.233009716981819373e-03
-1.430032777286317260e-03
-1.608381648172404511e-03
-1.767066432032785061e-03
-1.905435652363252422e-03
-2.023177039681069763e-03
-2.120313080441581319e-03
-2.197191559483603791e-03
-2.254471322967073737e-03
-2.293103472806250209e-03
-2.314308474717205813e-03
-2.319549579014541351e-03
-2.310502938365274241e-03
-2.289025104557253568e-03
-2.257118261009817290e-03
-2.216893908414573327e-03
-2.170535544386770384e-03
-2.120260970216178778e-03
-2.068284746372384564e-03
-2.016781457906927696e-03
-1.967850357927265238e-03
-1.923481827218923024e-03
-1.885526224683256374e-03
-1.855665542983537088e-03
-1.835388253943431901e-03
-1.825967699885087340e-03
-1.828444330197786464e-03
-1.843611914769197231e-03
-1.872007904308415011e-03
-1.913908074345710550e-03
-1.969325393512041163e-03
-2.038013092590846859e-03
-2.119471693259226876e-03
-2.212959974688034296e-03
-2.317509535827151027e-03
-2.431942707661341289e-03
-2.554893403883636525e-03
-2.684830567561171267e-03
-2.820083770634770979e-03
-2.958870586484905509e-03
-3.099325224619024332e-03
-3.239527940250745176e-03
-3.377534873030782394e-03
-3.511407670038226968e-03
-3.639242541124499807e-03
-3.759198286033538922e-03
-3.869522961765713750e-03
-3.968578679709191225e-03
-4.054864354965577802e-03
-4.127035953652056013e-03
-4.183924102790037222e-03
-4.224548835932903472e-03
-4.248131296574753080e-03
-4.254102307563356784e-03
-4.242107750034034182e-03
-4.212010799979432930e-03
-4.163891015107570003e-03
-4.098040414333904702e-03
-4.014956659657674051e-03
-3.915333485963153407e-03
-3.800048674618777822e-03
-3.670149757881319922e-03
-3.526837742080974909e-03
-3.371449127863042957e-03
-3.205436535562715145e-03
-3.030348291040652065e-03
-2.847807267900020686e-03
-2.659489277431954703e-03
-2.467101345828960277e-03
-2.272360191458673313e-03
-2.076971081858780543e-03
-1.882607529145814088e-03
-1.690891929355635122e-03
-1.503377361197475977e-03
-1.321530831782158572e-03
-1.146718012698126317e-03
-9.801897014478770133e-04
-8.230700362711089110e-04
-6.763465236318545433e-04
-5.408619943410849585e-04
-4.173084462966702166e-04
-3.062227534692180987e-04
-2.079842191745168124e-04
-1.228138746922246205e-04
-5.077549981090488386e-05
8.221779738599030782e-06
5.441942082356399953e-05
8.820405633527842674e-05
1.101008671628985960e-04
1.207658178585168182e-04
1.209769955377812558e-04
1.116250993139468532e-04
9.370335292992952418e-05
6.829675369372355948e-05
3.657089322108369008e-05
-2.395195819784117598e-07
-4.084239294943050810e-05
-8.390015941784678200e-05
-1.280417047536470856e-04
-1.718743218323195575e-04
-2.139956973656755956e-04
-2.530057647142514975e-04
-2.875184460654087930e-04
-3.161731553375399196e-04
-3.376462647850298252e-04
-3.506623010950234913e-04
-3.540050513370456269e-04
-3.465283246912846280e-04
-3.271665168528400318e-04
-2.949449454006096861e-04
-2.489898619288934633e-04
-1.885381743408378035e-04
-1.129467677384157005e-04
-2.170138367278821279e-05
8.557493901096307923e-05
2.091140245981969507e-04
3.489953072313159649e-04
5.051393573005294848e-04
6.773022375116351029e-04
8.650707858909634273e-04
1.067859002882759131e-03
1.284905544424106089e-03
1.515272552994091724e-03
1.757845861440662577e-03
2.011336751853567539e-03
2.274285313875731417e-03
2.545065553867872140e-03
2.821892225081271653e-03
3.102829595187178713e-03
3.385802099522848985e-03
3.668606947535713123e-03
3.948928564409013436e-03
4.224355030203108194e-03
4.492396248014876928e-03
4.750503897001440677e-03
4.996092992787509041e-03
5.226564978727328732e-03
5.439332011669540182e-03
5.631842344524711462e-03
5.801606554662836444e-03
5.946224315520425713e-03
6.063411400891950166e-03
6.151026682792345643e-03
6.207098734468224389e-03
6.229851732358341297e-03
6.217730242701572686e-03
6.169422641965084317e-03
6.083882669245245685e-03
5.960348922480817289e-03
5.798361873801909441e-03
5.597778132208680937e-03
5.358781649003704906e-03
5.081891630162730863e-03
4.767966907308604334e-03
4.418206588116369016e-03
4.034146923769132108e-03
3.617654188352170761e-03
3.170913561434399001e-03
2.696414101650096602e-03
2.196929829676418956e-03
1.675497044388433651e-03
1.135388006295752093e-03
5.800813389423966964e-04
1.322932737853430215e-05
-5.613775144741610292e-04
-1.139848259081127808e-03
-1.718231291180431081e-03
-2.292555409744571546e-03
-2.858872054236451417e-03
-3.413297979089658339e-03
-3.952057846712542233e-03
-4.471526186912374440e-03
-4.968268297119682667e-03
-5.439079461930736159e-03
-5.881021938956142170e-03
-6.291459324983480345e-03
-6.668087739022235394e-03
-7.008963406359093075e-03
-7.312526283860112247e-03
-7.577619400128595036e-03
-7.803503606442747410e-03
-7.989867480462127872e-03
-8.136832272470313765e-03
-8.244951845742479885e-03
-8.315207481257603020e-03
-8.348997611221684739e-03
-8.348122689139739552e-03
-8.314765376028335209e-03
-8.251466159581749560e-03
-8.161094906265882465e-03
-8.046818570519521235e-03
-7.912065567286788101e-03
-7.760487253259797623e-03
-7.595917011599212683e-03
-7.422327511743904462e-03
-7.243786741300000005e-03
-7.064413307354595190e-03
-6.888331641906613075e-03
-6.719627690972561004e-03
-6.562305668413230195e-03
-6.420246389970647900e-03
-6.297167741519149251e-03
-6.196587664687903604e-03
-6.121790262344565560e-03
-6.075795246996548368e-03
-6.061331117976904818e-03
-6.080812352117927373e-03
-6.136320747475474541e-03
-6.229591118504021301e-03
-6.362001242568215455e-03
-6.534566248160509835e-03
-6.747937224813458507e-03
-7.002403936833626226e-03
-7.297901481659306057e-03
-7.634020494918817776e-03
-8.010020734722301736e-03
-8.424847576836733826e-03
-8.877150959697224786e-03
-9.365306547907998810e-03
-9.887438491919536485e-03
-1.044144332714305214e-02
-1.102501458798737545e-02
-1.163566772021884521e-02
-1.227076475086807776e-02
-1.292753837713316034e-02
-1.360311503151521648e-02
-1.429453661876526997e-02
-1.499878061410718499e-02
-1.571277835808230355e-02
-1.643343120984905661e-02
-1.715762456254312646e-02
-1.788223970729512641e-02
-1.860416341779485769e-02
-1.932029547314184983e-02
-2.002755417723161083e-02
-2.072288015074321560e-02
-2.140323851273237890e-02
-2.206561989226467346e-02
-2.270704052908778178e-02
-2.332454193953274052e-02
-2.391519047558414435e-02
-2.447607713947261981e-02
-2.500431819932406180e-02
-2.549705687890260752e-02
-2.595146663765829018e-02
-2.636475630063419770e-02
-2.673417741940437367e-02
-2.705703407338762648e-02
-2.733069534010600446e-02
-2.755261061219341917e-02
-2.772032777911636117e-02
-2.783151430520901942e-02
-2.788398108593319324e-02
-2.787570887056743316e-02
-2.780487700864017753e-02
-2.766989412934449388e-02
-2.746943043456216010e-02
-2.720245096360732195e-02
-2.686824935277402904e-02
-2.646648129716413708e-02
-2.599719718893573825e-02
-2.546087314160956627e-02
-2.485843961057227977e-02
-2.419130684908363943e-02
-2.346138657736176331e-02
-2.267110893112388864e-02
-2.182343406449095691e-02
-2.092185779604078394e-02
-1.997041072861704264e-02
-1.897365020707401234e-02
-1.793664490635282771e-02
-1.686495161836307211e-02
-1.576458414666211463e-02
-1.464197418529491340e-02
-1.350392444035758595e-02
-1.235755401070239706e-02
-1.121023662675574815e-02
-1.006953216441721158e-02
-8.943112137683371238e-03
-7.838679937492589941e-03
-6.763886905933460397e-03
-5.726245085939287403e-03
-4.733038009394129747e-03
-3.791230564100700647e-03
-2.907379448525544263e-03
-2.087545528308540690e-03
-1.337209392586758685e-03
-6.611915997404734218e-04
-6.357899049146112824e-05
4.523416597106258473e-04
8.841413121212640192e-04
1.230296553653341136e-03
1.490226589802397771e-03
1.664318443423761602e-03
1.753939682692381725e-03
1.761437970669289116e-03
1.690127085695017741e-03
1.544259259884534115e-03
1.328983843226033430e-03
1.050292575628063857e-03
7.149518156689866916e-04
3.304226662218834082e-04
-9.523035768926054292e-05
-5.534408002729784056e-04
-1.035250720473140928e-03
-1.531428462799806550e-03
-2.032592334015714559e-03
-2.529338150420590379e-03
-3.012368934527137609e-03
-3.472624734033516805e-03
-3.901410534901757991e-03
-4.290520321720021207e-03
-4.632355177544312044e-03
-4.920033555730729535e-03
-5.147491889843384440e-03
-5.309573607504960990e-03
-5.402105222672127192e-03
-5.421957914261299298e-03
-5.367093489331219505e-03
-5.236593795451151452e-03
-5.030672800514079425e-03
-4.750671039258376645e-03
-4.399032147270135959e-03
-3.979261803859137671e-03
-3.495869441507295540e-03
-2.954293519398109788e-03
-2.360811370664485202e-03
-1.722434958802629423e-03
-1.046794158180210446e-03
-3.420094012318657096e-04
3.834444287882766240e-04
1.120880611487588743e-03
1.861547273517803530e-03
2.596775771923901487e-03
3.318128271756961602e-03
4.017542020762382947e-03
4.687467834353305045e-03
5.321000254569802947e-03
5.911997181095605958e-03
6.455186747846840788e-03
6.946259541358835998e-03
7.381944300409128655e-03
7.760065776079899148e-03
8.079583465263282319e-03
8.340610434082023836e-03
8.544411720024321436e-03
8.693382049208449314e-03
8.791003212096443198e-03
8.841781637863144194e-03
8.851167028707801823e-03
8.825453447330301737e-03
8.771664372088025519e-03
8.697423723173757990e-03
8.610814943416129560e-03
8.520230755148726701e-03
8.434216038645671321e-03
8.361306750341180455e-03
8.309867735243102807e-03
8.287932409458914282e-03
8.303047262818207333e-03
8.362124131762436324e-03
8.471302991915697148e-03
8.635827936937325033e-03
8.859938822608385417e-03
9.146780774635692585e-03
9.498333391343040735e-03
9.915361222199844601e-03
1.039738674185359743e-02
1.094268655831366621e-02
1.154831119247130833e-02
1.221012844926676506e-02
1.292288985235844935e-02
1.368031909373173573e-02
1.447522129602196034e-02
1.529961115963633135e-02
1.614485796089411632e-02
1.700184484782142624e-02
1.786113967491770316e-02
1.871317423085181592e-02
1.954842871666755827e-02
2.035761795507634586e-02
2.113187588334047851e-02
2.186293481721900481e-02
2.254329596222946416e-02
2.316638777379890698e-02
2.372670910043633494e-02
2.421995395692454547e-02
2.464311536278991979e-02
2.499456590020396676e-02
2.527411304393658784e-02
2.548302778751454153e-02
2.562404561487033328e-02
2.570133916700376511e-02
2.572046273274807351e-02
2.568826915094059304e-02
2.561280005258194381e-02
2.550315122600880710e-02
2.536931516572434042e-02
2.522200337988657684e-02
2.507245143862175951e-02
2.493221030577817340e-02
2.481292757001090851e-02
2.472612272653038068e-02
2.468296064349365451e-02
2.469402760272631711e-02
2.476911436256106977e-02
2.491701057139249914e-02
2.514531481973458077e-02
2.546026442344547988e-02
2.586658877523997924e-02
2.636738963179095438e-02
2.696405155284075511e-02
2.765618493157900523e-02
2.844160373916952700e-02
2.931633931441970237e-02
3.027469120165540706e-02
3.130931502556805190e-02
3.241134694408412398e-02
3.357056352761733642e-02
3.477557514649079473e-02
3.601405034666012306e-02
3.727296804113171269e-02
3.853889373617296749e-02
3.979827561555402543e-02
4.103775551953037226e-02
4.224448988341195782e-02
4.340647489619805371e-02
4.451287035056096519e-02
4.555431611459551805e-02
4.652323548381537277e-02
4.741411942260498336e-02
4.822378607900865838e-02
4.895160998473147007e-02
4.959971597369263602e-02
5.017313305691524505e-02
5.067990423079751783e-02
5.113114865200506232e-02
5.154107332320256168e-02
5.192693232115570823e-02
5.230893220528150256e-02
5.271008327098895829e-02
5.315599695219923315e-02
5.367463071731807395e-02
5.429598266993426736e-02
5.505173878212531874e-02
5.597487666289684138e-02
5.709923029261073507e-02
5.845902121741435031e-02
6.008836207881016606e-02
6.202073893882081856e-02
6.428847935571044281e-02
6.692221360536870778e-02
6.995033651213622417e-02
7.339847773284832733e-02
7.728898806393635912e-02
8.164044964309984109e-02
8.646721719712908982e-02
9.177899759620282427e-02
9.758047440822083252e-02
1.038709834518661002e-01
1.106442448739787254e-01
1.178881564569898704e-01
1.255846520159474289e-01
1.337096280877083376e-01
1.422329408849825061e-01
1.511184747750362323e-01
1.603242823973744513e-01
1.698027955584726634e-01
1.795011051843767580e-01
1.893613075802711432e-01
1.993209132740751122e-01
2.093133138555358930e-01
2.192683015595966456e-01
2.291126354777118790e-01
2.387706476981020232e-01
2.481648821612715827e-01
2.572167585868922468e-01
2.658472535846443940e-01
2.739775906706270470e-01
2.815299311423167250e-01
2.884280576245601413e-01
2.945980421861469356e-01
2.999688915015314428e-01
3.044731616282979614e-01
3.080475357732173625e-01
3.106333587147193098e-01
3.121771224098300324e-01
3.126308981299955048e-01
3.119527110103068046e-01
3.101068539719735728e-01
3.070641389325055037e-01
3.028020838825312144e-01
2.973050354554589991e-01
2.905642274246827972e-01
2.825777765833482613e-01
2.733506180814370135e-01
2.628943832316245066e-01
2.512272233398296084e-01
2.383735838238196236e-01
2.243639334378511319e-01
2.092344538063261594e-01
1.930266948810539229e-01
1.757872020230992482e-01
1.575671207772125770e-01
1.384217851769211638e-01
1.184102956214371088e-01
9.759509193097043456e-02
7.604152704027951348e-02
5.381744655191549737e-02
3.099277872832941969e-02
7.639139079853747398e-03
-1.617054679231749725e-02
-4.036239913633546395e-02
-6.486191630279991571e-02
-8.959428172524219747e-02
-1.144846445071555779e-01
-1.394583732663216002e-01
-1.644412834577675120e-01
-1.893598390610263249e-01
-2.141413300352913718e-01
-2.387140274522029648e-01
-2.630073187738298235e-01
-2.869518258893910545e-01
-3.104795090644583699e-01
-3.335237600232950905e-01
-3.560194875098395828e-01
-3.779031987728614372e-01
-3.991130804134002119e-01
-4.195890816835085024e-01
-4.392730032792780404e-01
-4.581085944323070036e-01
-4.760416605605293228e-01
-4.930201833166074077e-01
-5.089944545136841914e-01
-5.239172247890676593e-01
-5.377438673859307183e-01
-5.504325567012700038e-01
-5.619444607223859078e-01
-5.722439459762144187e-01
-5.812987929779689367e-01
-5.890804196469208165e-01
-5.955641096109216548e-01
-6.007292420163772295e-01
-6.045595189040489092e-01
-6.070431860365237409e-01
-6.081732428100067311e-01
-6.079476366965880230e-01
-6.063694376164362465e-01
-6.034469876696231250e-01
-5.991940219864234640e-01
-5.936297563242580733e-01
-5.867789375517488137e-01
-5.786718536821950920e-01
-5.693443003170728378e-01
-5.588375010514868846e-01
-5.471979801382056419e-01
-5.344773860428698731e-01
-5.207322656145881856e-01
-5.060237889682794865e-01
-4.904174261751397257e-01
-4.739825775691966503e-01
-4.567921602034051842e-01
-4.389221536339026897e-01
-4.204511090074963819e-01
-4.014596260868725786e-01
-3.820298033454457287e-01
-3.622446667714165902e-01
-3.421875835600157734e-01
-3.219416671438068422e-01
-3.015891802129328503e-01
-2.812109425996438539e-01
-2.608857509933682484e-01
-2.406898172860658103e-01
-2.206962321590232867e-01
-2.009744604489129005e-01
-1.815898742752989625e-01
-1.626033294876781110e-01
-1.440707904462460165e-01
-1.260430075969667663e-01
-1.085652515756853342e-01
-9.167710672623995138e-02
-7.541232618638267493e-02
-5.979874983798397908e-02
-4.485828564501657262e-02
-3.060695391784043484e-02
-1.705499329433055045e-02
-4.207026317965377980e-03
7.937718356216982851e-03
1.938513069626636443e-02
3.014589530799604775e-02
4.023512378384603433e-02
4.967194891112131777e-02
5.847908668407558741e-02
6.668237248963321262e-02
7.431027814546510568e-02
8.139341667350914744e-02
8.796404149801641259e-02
9.405554700626163334e-02
9.970197718800288822e-02
1.049375487712522620e-01
1.097961949886221145e-01
1.143111356361866532e-01
1.185144786037072295e-01
1.224368576143375353e-01
1.261071099648382321e-01
1.295519976124982486e-01
1.327959742657627007e-01
1.358610001789190280e-01
1.387664056450835515e-01
1.415288036159297602e-01
1.441620507828747511e-01
1.466772559916386942e-01
1.490828340639887839e-01
1.513846023658506346e-01
1.535859170321803302e-01
1.556878450699385741e-01
1.576893681218443366e-01
1.595876133587785239e-01
1.613781066541765952e-01
1.630550428708226196e-01
1.646115680749608290e-01
1.660400684661536008e-01
1.673324606524549674e-01
1.684804783088617031e-01
1.694759502749000057e-01
1.703110655818723118e-01
1.709786211017960411e-01
1.714722480424078210e-01
1.717866139102840750e-01
1.719175972058517854e-01
1.718624325084924243e-01
1.716198243042580951e-01
1.711900284515367743e-01
1.705749006967096637e-01
1.697779124566267672e-01
1.688041344601775851e-01
1.676601894782994429e-01
1.663541757724701364e-01
1.648955635323898772e-01
1.632950668521454818e-01
1.615644942405854989e-01
1.597165809519975610e-01
1.577648065216782358e-01
1.557232013582655616e-01
1.536061459315510302e-01
1.514281665418238110e-01
1.492037314136550608e-01
1.469470507297658268e-01
1.446718841171044379e-01
1.423913588900710681e-01
1.401178019512485662e-01
1.378625882107102074e-01
1.356360077322428803e-01
1.334471535750391125e-01
1.313038317670317257e-01
1.292124946274350872e-01
1.271781979933517825e-01
1.252045825107616361e-01
1.232938788599142327e-01
1.214469361892983879e-01
1.196632726906957517e-01
1.179411468964949999e-01
1.162776479801344159e-01
1.146688029717635032e-01
1.131096986035783902e-01
1.115946152301195149e-01
1.101171702694749704e-01
1.086704683460851806e-01
1.072472552881102992e-01
1.058400732292628793e-01
1.044414140955440828e-01
1.030438687102259582e-01
1.016402692069909852e-01
1.002238222656483269e-01
9.878823109315937323e-02
9.732780447205220675e-02
9.583755114296774180e-02
9.431325844571208927e-02
9.275155411611971101e-02
9.114995074468876246e-02
8.950687263323853227e-02
8.782166507228277019e-02
8.609458641636501264e-02
8.432678357349313036e-02
8.252025195588376383e-02
8.067778101493783272e-02
7.880288685647744706e-02
7.689973345299098983e-02
7.497304435480132978e-02
7.302800673601748949e-02
7.107016977554775350e-02
6.910533942574004218e-02
6.713947161494883409e-02
6.517856578376640675e-02
6.322856087706762995e-02
6.129523551528782976e-02
5.938411407436718775e-02
5.750038026074935638e-02
5.564879947173615587e-02
5.383365120052156089e-02
5.205867235969836859e-02
5.032701230192206110e-02
4.864119995978561511e-02
4.700312337555622583e-02
4.541402147465146977e-02
4.387448812777227508e-02
4.238448783520293306e-02
4.094338254785823139e-02
3.954996857019958678e-02
3.820252270874517631e-02
3.689885649125861783e-02
3.563637714657104383e-02
3.441215403845618304e-02
3.322298908326332817e-02
3.206548974764249216e-02
3.093614322783353604e-02
2.983139024160838190e-02
2.874769717208168138e-02
2.768162518371346248e-02
2.662989515505749180e-02
2.558944726327776892e-02
2.455749427085742939e-02
2.353156779967757392e-02
2.250955677473073097e-02
2.148973767184193112e-02
2.047079617108376465e-02
1.945184010307064726e-02
1.843240366915296219e-02
1.741244323242506845e-02
1.639232483328096138e-02
1.537280406004610384e-02
1.435499881648537659e-02
1.334035584867446569e-02
1.233061169625334144e-02
1.132774910143987887e-02
1.033394981197989157e-02
9.351544797840498358e-03
8.382962913622369477e-03
7.430679046145529168e-03
6.497162794889503080e-03
5.584828671237791926e-03
4.695988673695163790e-03
3.832808170620102296e-03
2.997265819084604221e-03
2.191118201119832739e-03
1.415869764121583654e-03
6.727484635753504466e-04
-3.731257647430782194e-05
-7.136869989443285663e-04
-1.356060931374222182e-03
-1.964432317950681305e-03
-2.539104178099517266e-03
-3.080671913007578498e-03
-3.590005163307756920e-03
-4.068224623265317454e-03
-4.516674353425732293e-03
-4.936890281837746051e-03
-5.330565476464138759e-03
-5.699512962950809697e-03
-6.045626844663676801e-03
-6.370842476677987705e-03
-6.677096464055339714e-03
-6.966287154776540369e-03
-7.240236531773220664e-03
-7.500653978865367590e-03
-7.749102689726527528e-03
-7.986969184852010448e-03
-8.215436523618821485e-03
-8.435461703568198494e-03
-8.647757332142578038e-03
-8.852778020795454283e-03
-9.050711648685936042e-03
-9.241475536927766868e-03
-9.424717505671188073e-03
-9.599821771840431547e-03
-9.765919480750891862e-03
-9.921903611569781942e-03
-1.006644796782854047e-02
-1.019802984944118140e-02
-1.031495596341396037e-02
-1.041539107579094597e-02
-1.049738890317172130e-02
-1.055892478305833077e-02
-1.059792940747090843e-02
-1.061232323668998001e-02
-1.060005081190289015e-02
-1.055911473188766124e-02
-1.048760845254457889e-02
-1.038374759747513754e-02
-1.024589923511739706e-02
-1.007260874841716357e-02
-9.862623906639920307e-03
-9.614915870599901118e-03
-9.328696793815828212e-03
-9.003433875425464680e-03
-8.638859628555938669e-03
-8.234978379291608974e-03
-7.792068903428505701e-03
-7.310683218394442399e-03
-6.791641668115706160e-03
-6.236024383427421491e-03
-5.645159268540683901e-03
-5.020606796330568701e-03
-4.364141888974235571e-03
-3.677733095281326536e-03
-2.963519485981488955e-03
-2.223785546626592339e-03
-1.460934422434925252e-03
-6.774599268248494453e-04
1.240822858032870923e-04
9.411039737233729743e-04
1.771013686638791933e-03
2.611245855471425788e-03
3.459289241549533787e-03
4.312714359864308102e-03
5.169199542880212328e-03
6.026555397442937348e-03
6.882747341956878435e-03
7.735915889484041436e-03
8.584394576731144144e-03
9.426725331244936376e-03
1.026167099562315561e-02
1.108822499003439717e-02
1.190561803095129163e-02
1.271332174750963544e-02
1.351104925847714834e-02
1.429875262944750244e-02
1.507661732798838868e-02
1.584505371777103835e-02
1.660468573300041828e-02
1.735633674906235727e-02
1.810101292589590474e-02
1.883988416149565484e-02
1.957426284944720901e-02
2.030558076644726345e-02
2.103536424553265408e-02
2.176520794858720353e-02
2.249674752674237638e-02
2.323163146942062648e-02
2.397149249580074817e-02
2.471791881380435568e-02
2.547242552683568612e-02
2.623642657199789022e-02
2.701120757770821695e-02
2.779789983960613900e-02
2.859745585710778137e-02
2.941062668620918891e-02
3.023794145428436442e-02
3.107968928631881997e-02
3.193590388496827387e-02
3.280635106743363949e-02
3.369051938718201772e-02
3.458761411548299386e-02
3.549655462643852566e-02
3.641597529740673439e-02
3.734423004161292053e-02
3.827940039413366830e-02
3.921930727411961082e-02
4.016152621691787550e-02
4.110340604972385903e-02
4.204209073973241145e-02
4.297454434066678985e-02
4.389757863845675928e-02
4.480788332191553563e-02
4.570205828975228146e-02
4.657664780909831492e-02
4.742817594940684778e-02
4.825318300821315742e-02
4.904826241734137893e-02
4.981009770389391300e-02
5.053549894087103200e-02
5.122143832995420393e-02
5.186508431742980346e-02
5.246383382556970426e-02
5.301534210276458853e-02
5.351754985973971451e-02
5.396870709788983977e-02
5.436739350374817509e-02
5.471253488661644709e-02
5.500341541165949810e-02
5.523968546698868054e-02
5.542136501372236373e-02
5.554884224134505610e-02
5.562286752133543261e-02
5.564454260411921815e-02
5.561530524855513857e-02
5.553690952255962293e-02
5.541140178384083154e-02
5.524109270676444416e-02
5.502852582228501960e-02
5.477644284076456371e-02
5.448774625887922718e-02
5.416545978338469652e-02
5.381268705461544899e-02
5.343256930482021688e-02
5.302824247454782786e-02
5.260279443554143064e-02
5.215922296992042684e-02
5.170039504921124934e-02
5.122900806825784331e-02
5.074755353814250358e-02
5.025828394672515048e-02
4.976318299236610204e-02
4.926393994008046451e-02
4.876192831255459631e-02
4.825818937140956277e-02
4.775342058174773807e-02
4.724796929710177451e-02
4.674183174871304053e-02
4.623465737402056297e-02
4.572575848348345989e-02
4.521412509934912005e-02
4.469844480765337164e-02
4.417712727651221249e-02
4.364833318329782580e-02
4.311000710919180717e-02
4.255991381297261067e-02
4.199567749277820922e-02
4.141482338642960004e-02
4.081482109033116729e-02
4.019312895761081861e-02
3.954723889593372843e-02
3.887472096776123376e-02
3.817326693072648630e-02
3.744073225950254880e-02
3.667517592713420010e-02
3.587489731806411258e-02
3.503846979233644909e-02
3.416477023015138809e-02
3.325300428868437075e-02
3.230272693168057679e-02
3.131385780452742434e-02
3.028669128758360723e-02
2.922190117204644805e-02
2.812053976087273630e-02
2.698403142535946847e-02
2.581416073681586446e-02
2.461305531042244643e-02
2.338316371523103607e-02
2.212722866105248584e-02
2.084825593395706056e-02
1.954947953294667445e-02
1.823432358993338012e-02
1.690636152207107556e-02
1.556927308430092367e-02
1.422680000688630701e-02
1.288270080148869699e-02
1.154070548915731714e-02
1.020447080869828042e-02
8.877536657410509818e-03
7.563284350202563108e-03
6.264897319132869610e-03
4.985324838958040371e-03
3.727249195811366007e-03
2.493056926504732315e-03
1.284814316702269452e-03
1.042476753046095070e-04
-1.047271484694314424e-03
-2.168736159758769249e-03
-3.259508317986204145e-03
-4.319318127106496277e-03
-5.348258007174059789e-03
-6.346771664595688561e-03
-7.315638202734661699e-03
-8.255951722249070535e-03
-9.169096768701945691e-03
-1.005671992997142321e-02
-1.092069803117973713e-02
-1.176310358861076127e-02
-1.258616792166457159e-02
-1.339224246516793927e-02
-1.418375901890551148e-02
-1.496318941499052806e-02
-1.573300515035094133e-02
-1.649563779953558407e-02
-1.725344045007926735e-02
-1.800865096537709528e-02
-1.876335749605412967e-02
-1.951946670621621319e-02
-2.027867507845221989e-02
-2.104244384677073434e-02
-2.181197763023105460e-02
-2.258820715634961285e-02
-2.337177628748352692e-02
-2.416303338071342649e-02
-2.496202702217443711e-02
-2.576850628998281906e-02
-2.658192523327478768e-02
-2.740145156447766975e-02
-2.822597935803684496e-02
-2.905414549185764486e-02
-2.988434951005178308e-02
-3.071477656300081530e-02
-3.154342299144712730e-02
-3.236812426474457854e-02
-3.318658474112767820e-02
-3.399640872300171979e-02
-3.479513249112310691e-02
-3.558025673537214273e-02
-3.634927903039554542e-02
-3.709972566275824418e-02
-3.782918267674922896e-02
-3.853532550698646891e-02
-3.921594689116702365e-02
-3.986898271789802994e-02
-4.049253543544074213e-02
-4.108489487010225788e-02
-4.164455610529006757e-02
-4.217023435399168407e-02
-4.266087658172645902e-02
-4.311566992609528609e-02
-4.353404676743352630e-02
-4.391568656469026916e-02
-4.426051445981988436e-02
-4.456869684568286194e-02
-4.484063387232072040e-02
-4.507694925852161194e-02
-4.527847757243552707e-02
-4.544624921358091096e-02
-4.558147333927635436e-02
-4.568551914484015458e-02
-4.575989570481536761e-02
-4.580623067364149315e-02
-4.582624824989110085e-02
-4.582174677742310159e-02
-4.579457611033332931e-02
-4.574661524372724414e-02
-4.567975038385829745e-02
-4.559585385879743463e-02
-4.549676395463223000e-02
-4.538426605329427127e-02
-4.526007526189769481e-02
-4.512582068342137903e-02
-4.498303143927505354e-02
-4.483312464302556533e-02
-4.467739532894120236e-02
-4.451700856146090235e-02
-4.435299352894232772e-02
-4.418623971238086479e-02
-4.401749510195165221e-02
-4.384736645674679190e-02
-4.367632139755139170e-02
-4.350469227310927584e-02
-4.333268170009656889e-02
-4.316036956593908430e-02
-4.298772140719228640e-02
-4.281459795689798037e-02
-4.264076556457210149e-02
-4.246590743523449840e-02
-4.228963546169618032e-02
-4.211150244244147439e-02
-4.193101440674084496e-02
-4.174764303329447229e-02
-4.156083775438153965e-02
-4.137003758536098724e-02
-4.117468232556155405e-02
-4.097422319902600807e-02
-4.076813258998748107e-02
-4.055591283392111224e-02
-4.033710400833088322e-02
-4.011129060413847619e-02
-3.987810699957985983e-02
-3.963724174236988446e-02
-3.938844052743738222e-02
-3.913150797597469283e-02
-3.886630811184433459e-02
-3.859276369439151866e-02
-3.831085433484842512e-02
-3.802061350613299834e-02
-3.772212451724529791e-02
-3.741551559018457818e-02
-3.710095409980958964e-02
-3.677864007973007110e-02
-3.644879916057822133e-02
-3.611167500870950120e-02
-3.576752143708374077e-02
-3.541659438687362604e-02
-3.505914377361566553e-02
-3.469540550307484428e-02
-3.432559366143651813e-02
-3.394989311725700454e-02
-3.356845265813802187e-02
-3.318137870083006508e-02
-3.278872977816227330e-02
-3.239051184098754033e-02
-3.198667453805910388e-02
-3.157710847693426942e-02
-3.116164360139136308e-02
-3.074004874909482335e-02
-3.031203238071834144e-02
-2.987724440240406565e-02
-2.943527930248562158e-02
-2.898568046915727878e-02
-2.852794566512548494e-02
-2.806153359343478357e-02
-2.758587152874396320e-02
-2.710036391373240802e-02
-2.660440182781363336e-02
-2.609737320575417074e-02
-2.557867371395156422e-02
-2.504771808265360972e-02
-2.450395179023819037e-02
-2.394686299110762931e-02
-2.337599445824060235e-02
-2.279095541473864783e-02
-2.219143301057792741e-02
-2.157720338726764817e-02
-2.094814206052143454e-02
-2.030423348672545647e-02
-1.964557971574493189e-02
-1.897240794810991366e-02
-1.828507686906804403e-02
-1.758408155166102729e-02
-1.687005691240486480e-02
-1.614377968738967342e-02
-1.540616873205836318e-02
-1.465828369227543081e-02
-1.390132195706111386e-02
-1.313661384778489274e-02
-1.236561617786990398e-02
-1.158990416496175242e-02
-1.081116178683146252e-02
-1.003117058548011996e-02
-9.251797118909501141e-03
-8.474979080994995972e-03
-7.702710402736243425e-03
-6.937025384966470469e-03
-6.179982107289238788e-03
-5.433645110534013334e-03
-4.700067872774205818e-03
-3.981275115842069709e-03
-3.279245093079005517e-03
-2.595892139732312778e-03
-1.933049789086064771e-03
-1.292454580054452342e-03
-6.757307651113835748e-04
-8.437602890722139051e-05
4.802514591696932142e-04
1.016944543716375403e-03
1.524657015939491489e-03
2.002511874448640889e-03
2.449807839366609664e-03
2.866023937001641736e-03
3.250822226178463979e-03
3.604048600113532539e-03
3.925731654703445983e-03
4.216079760014599179e-03
4.475476264338064392e-03
4.704472974143772065e-03
4.903781985032325957e-03
5.074266157502984632e-03
5.216928188118551135e-03
5.332898492869612289e-03
5.423422204878378811e-03
5.489845317059666857e-03
5.533600314062132701e-03
5.556191435694637741e-03
5.559179742422581776e-03
5.544168304831387922e-03
5.512787565529144243e-03
5.466681175316415175e-03
5.407492429816617048e-03
