-2.020612497307464062e-03
-1.905503213358486058e-03
-1.804663777939161193e-03
-1.717421787777550233e-03
-1.642954958556736011e-03
-1.580309375402548467e-03
-1.528419401090775004e-03
-1.486128883380750899e-03
-1.452213336391211919e-03
-1.425402766978821041e-03
-1.404404791737261845e-03
-1.387927654043252454e-03
-1.374702715370355183e-03
-1.363506219872899624e-03
-1.353179891088898993e-03
-1.342649964792942165e-03
-1.330944438937765612e-03
-1.317208260288469865e-03
-1.300716152460915142e-03
-1.280882831413930655e-03
-1.257270512455865505e-03
-1.229593588810839674e-03
-1.197720226883354760e-03
-1.161671046642735652e-03
-1.121614798370915113e-03
-1.077861081485556203e-03
-1.030850251654132901e-03
-9.811406417508158201e-04
-9.293933783534600365e-04
-8.763549108918317759e-04
-8.228376772329216342e-04
-7.696991980035585270e-04
-7.178198850502940861e-04
-6.680800519106634174e-04
-6.213364978571283550e-04
-5.783990978114751224e-04
-5.400078839911922127e-04
-5.068109212238214095e-04
-4.793435167883615834e-04
-4.580091825685986382e-04
-4.430627227470664399e-04
-4.345957649018688087e-04
-4.325251913090070576e-04
-4.365846156856842994e-04
-4.463192912794914464e-04
-4.610845816903757772e-04
-4.800481160051574747e-04
-5.021957287132946613e-04
-5.263412593836962108e-04
-5.511400370316262313e-04
-5.751060384108705459e-04
-5.966325516152392065e-04
-6.140159809621733439e-04
-6.254826518558287678e-04
-6.292181261680595801e-04
-6.233986788324979685e-04
-6.062244351022696856e-04
-5.759536838846609575e-04
-5.309378675869225401e-04
-4.696565737998654143e-04
-3.907520608610280384e-04
-2.930625665405094593e-04
-1.756540436632665473e-04
-3.784955533892189170e-05
1.207441539163221463e-04
3.002135115996895534e-04
5.003187237801275502e-04
7.204788123910919884e-04
9.597612351568480431e-04
1.216876628505813998e-03
1.490178674615720480e-03
1.777669565154704236e-03
2.077010884662989360e-03
2.385539985896304588e-03
2.700291865789859139e-03
3.018026359272021029e-03
3.335260277932302220e-03
3.648304276149991112e-03
3.953303935153134642e-03
4.246284605928663490e-03
4.523199426046748545e-03
4.779979957658399801e-03
5.012588633547229548e-03
5.217072302082330186e-03
5.389616180955001702e-03
5.526597376683760852e-03
5.624637217164458330e-03
5.680651517077057490e-03
5.691898086579503906e-03
5.656020640456298557e-03
5.571088519687932526e-03
5.435631431325653809e-03
5.248668654128156759e-03
5.009732195224543376e-03
4.718883513081800242e-03
4.376723282068745863e-03
3.984394100487470385e-03
3.543575896361833046e-03
3.056474006943491351e-03
2.525800026261849386e-03
1.954745487763354366e-03
1.346948797333587114e-03
7.064557001878095724e-04
3.767379547871984495e-05
-6.546783937021031542e-04
-1.365627035641504188e-03
-2.090002584402323067e-03
-2.822502552955340974e-03
-3.557756692544334406e-03
-4.290393523507169023e-03
-5.015107395964332054e-03
-5.726725134281544435e-03
-6.420271292353812997e-03
-7.091031154073980380e-03
-7.734610448259279791e-03
-8.346991096817614475e-03
-8.924582105010932589e-03
-9.464264863025942387e-03
-9.963432196266589283e-03
-1.042002070711273848e-02
-1.083253583783703837e-02
-1.120006929213481633e-02
-1.152230863448965026e-02
-1.179953893950448814e-02
-1.203263640306844774e-02
-1.222305406064372497e-02
-1.237279990409191101e-02
-1.248440760651138917e-02
-1.256090029725126858e-02
-1.260574796566628873e-02
-1.262281907955430278e-02
-1.261632713326809457e-02
-1.259077291859150328e-02
-1.255088325597205311e-02
-1.250154711980215431e-02
-1.244775003329642686e-02
-1.239450761597999350e-02
-1.234679923859257310e-02
-1.230950262985660605e-02
-1.228733031904967118e-02
-1.228476875369467411e-02
-1.230602088174636080e-02
-1.235495294120765065e-02
-1.243504599845487828e-02
-1.254935288424224339e-02
-1.270046098879183856e-02
-1.289046125628511182e-02
-1.312092374087583946e-02
-1.339287989607646640e-02
-1.370681155605350116e-02
-1.406264682442640197e-02
-1.445976262484312790e-02
-1.489699374470462856e-02
-1.537264807154837577e-02
-1.588452773021145278e-02
-1.642995560912901415e-02
-1.700580686403393646e-02
-1.760854492715199088e-02
-1.823426133592347120e-02
-1.887871872672159182e-02
-1.953739654032609144e-02
-2.020553880638198060e-02
-2.087820322976963183e-02
-2.155031108959170119e-02
-2.221669732926629184e-02
-2.287216028084773298e-02
-2.351151061091758324e-02
-2.412961881357307548e-02
-2.472146097484209312e-02
-2.528216233624696815e-02
-2.580703848869331588e-02
-2.629163380805365352e-02
-2.673175693769293607e-02
-2.712351322578530205e-02
-2.746333389575090350e-02
-2.774800205807142345e-02
-2.797467539716905899e-02
-2.814090566432378079e-02
-2.824465496211840329e-02
-2.828430891429524821e-02
-2.825868691732691743e-02
-2.816704937349206669e-02
-2.800910220109202944e-02
-2.778499867491039318e-02
-2.749533870067517524e-02
-2.714116562979339634e-02
-2.672396069122004100e-02
-2.624563510034226554e-02
-2.570851992149680160e-02
-2.511535368213525798e-02
-2.446926770479504812e-02
-2.377376922556162508e-02
-2.303272215494590880e-02
-2.225032566443470305e-02
-2.143109025624246114e-02
-2.057981143183610501e-02
-1.970154097146304198e-02
-1.880155558694169074e-02
-1.788532317625220192e-02
-1.695846644627232655e-02
-1.602672407667320165e-02
-1.509590951989740748e-02
-1.417186743977102460e-02
-1.326042806558529533e-02
-1.236735969915624123e-02
-1.149831958940670217e-02
-1.065880350242682378e-02
-9.854094466776357891e-03
-9.089211168435072999e-03
-8.368856384021810049e-03
-7.697366221902554248e-03
-7.078660631291129254e-03
-6.516195917208515535e-03
-6.012919904045381340e-03
-5.571230609076138415e-03
-5.192938872965054652e-03
-4.879235955044424616e-03
-4.630666551813549144e-03
-4.447108096335493366e-03
-4.327756826646541460e-03
-4.271121156602063033e-03
-4.275022894250355039e-03
-4.336606681601322053e-03
-4.452357930870763821e-03
-4.618129371707309361e-03
-4.829176279295043818e-03
-5.080200315862068265e-03
-5.365401621501337918e-03
-5.678538955533349829e-03
-6.012997175863564990e-03
-6.361861532229337764e-03
-6.717997883565216509e-03
-7.074137907953913749e-03
-7.422968232235887046e-03
-7.757222403334542229e-03
-8.069774299779126914e-03
-8.353731725000696287e-03
-8.602528836517487135e-03
-8.810015892420372877e-03
-8.970544875170998605e-03
-9.079049703312904937e-03
-9.131119562675765397e-03
-9.123064023436504646e-03
-9.051968792738026778e-03
-8.915740999712458772e-03
-8.713142973570578431e-03
-8.443813784492860963e-03
-8.108277917479693453e-03
-7.707940655243131385e-03
-7.245069879182303163e-03
-6.722764458210996052e-03
-6.144909283450958500e-03
-5.516117535694080309e-03
-4.841660803619770789e-03
-4.127387994587235209e-03
-3.379634222892626515e-03
-2.605120930390080348e-03
-1.810848775034589126e-03
-1.003984967535814354e-03
-1.917467551984967185e-04
6.187169077560087651e-04
1.420443520802915083e-03
2.206773159021081007e-03
2.971460444631741568e-03
3.708780316762205070e-03
4.413625760244919982e-03
5.081595710349906016e-03
5.709071380442451438e-03
6.293279442584643994e-03
6.832340966416950920e-03
7.325304837803974997e-03
7.772164893442527235e-03
8.173860323656908372e-03
8.532259023079483140e-03
8.850123903824147140e-03
9.131062621297021328e-03
9.379461325884644318e-03
9.600403413296305574e-03
9.799574558936048618e-03
9.983155513418913787e-03
1.015770458164542804e-02
1.033003161474724610e-02
1.050706584933500630e-02
1.069571985221815305e-02
1.090275210465004377e-02
1.113463065713714978e-02
1.139740052901423197e-02
1.169655736194498419e-02
1.203692972970712809e-02
1.242257248388061418e-02
1.285667332273516227e-02
1.334147453011216844e-02
1.387821167695007379e-02
1.446707063705397409e-02
1.510716412872035314e-02
1.579652852471020996e-02
1.653214128755563575e-02
1.730995918576401504e-02
1.812497679037275086e-02
1.897130461754112374e-02
1.984226574353656347e-02
2.073050938999847562e-02
2.162813963998581196e-02
2.252685713776269097e-02
2.341811129177426287e-02
2.429326018165494511e-02
2.514373552662459849e-02
2.596120941214001207e-02
2.673775968041729179e-02
2.746603088811756452e-02
2.813938764224765965e-02
2.875205715898393466e-02
2.929925822980189443e-02
2.977731373782790611e-02
3.018374431116763526e-02
3.051734096503831359e-02
3.077821486325382078e-02
3.096782284110705108e-02
3.108896758375171571e-02
3.114577210556330328e-02
3.114362843899582192e-02
3.108912093091300774e-02
3.098992512580079142e-02
3.085468372708677007e-02
3.069286151459542714e-02
3.051458152432987708e-02
3.033044535899504304e-02
3.015134068923507049e-02
2.998823953498611083e-02
2.985199094000437481e-02
2.975311197245027184e-02
2.970158122247155627e-02
2.970663880469506107e-02
2.977659703758644971e-02
2.991866573248106939e-02
3.013879606310439219e-02
3.044154643834080104e-02
3.082997385300768889e-02
3.130555344754540337e-02
3.186812869634266659e-02
3.251589429087511224e-02
3.324541301872444704e-02
3.405166739994885255e-02
3.492814629649841629e-02
3.586696595216482680e-02
3.685902433787162369e-02
3.789418702657420396e-02
3.896150216176886422e-02
4.004944148138978727e-02
4.114616383656723858e-02
4.223979701003127696e-02
4.331873336439702460e-02
4.437193423038273549e-02
4.538923774083088170e-02
4.636166473034211005e-02
4.728171687690956720e-02
4.814366145243779982e-02
4.894379698705534493e-02
4.968069430466389574e-02
5.035540766264558210e-02
5.097165114507391792e-02
5.153593566268530046e-02
5.205766264335501964e-02
5.254917104040945225e-02
5.302573490958687602e-02
5.350550962998947696e-02
5.400942545209795609e-02
5.456102808141449073e-02
5.518626675886209587e-02
5.591323100667002638e-02
5.677183840093451977e-02
5.779347619437279204e-02
5.901060068839285300e-02
6.045629890936182055e-02
6.216381781609371660e-02
6.416606701518509648e-02
6.649510135171637915e-02
6.918159032707697775e-02
7.225428169889665242e-02
7.573946668199980914e-02
7.966045455281821341e-02
8.403706429766068242e-02
8.888514095770584655e-02
9.421610412724251704e-02
1.000365356116865861e-01
1.063478130257553000e-01
1.131457954540404792e-01
1.204205665142237675e-01
1.281562397433360923e-01
1.363308302940994532e-01
1.449161959110679410e-01
1.538780494323170323e-01
1.631760440220198782e-01
1.727639312011080563e-01
1.825897911226999903e-01
1.925963332677846085e-01
2.027212647114419175e-01
2.128977223215796910e-01
2.230547643592238061e-01
2.331179161772087838e-01
2.430097637634932861e-01
2.526505884673394542e-01
2.619590356080609972e-01
2.708528090390494580e-01
2.792493837810957058e-01
2.870667283519967583e-01
2.942240282291003206e-01
3.006424023020962122e-01
3.062456038729548524e-01
3.109606984403470165e-01
3.147187105093655068e-01
3.174552324312642781e-01
3.191109886104914750e-01
3.196323493106744129e-01
3.189717889754009605e-01
3.170882845963474139e-01
3.139476507899577329e-01
3.095228089624766921e-01
3.037939889122494574e-01
2.967488620641425823e-01
2.883826064776208176e-01
2.786979047380647168e-01
2.677048766252293488e-01
2.554209492125450454e-01
2.418706678010437983e-01
2.270854517491742164e-01
2.111033000315170327e-01
1.939684515280895027e-01
1.757310056882690485e-01
1.564465093555441055e-01
1.361755158981553249e-01
1.149831227963187819e-01
9.293849382210528365e-02
7.011437177663709663e-02
4.658658770839432806e-02
2.243357207129862557e-02
-2.264126945854669747e-03
-2.742431326217271981e-02
-5.296359658541685556e-02
-7.879782643521431040e-02
-1.048425033697628211e-01
-1.310131649889472449e-01
-1.572257448972234073e-01
-1.833969035474087572e-01
-2.094443303931071976e-01
-2.352870174703140527e-01
-2.608455049686647653e-01
-2.860421000430584115e-01
-3.108010705257907014e-01
-3.350488155360648590e-01
-3.587140153710028367e-01
-3.817277634530231167e-01
-4.040236830563391779e-01
-4.255380318336630108e-01
-4.462097970116123413e-01
-4.659807842984208248e-01
-4.847957032751636364e-01
-5.026022517311139470e-01
-5.193512013825231088e-01
-5.349964868982816091e-01
-5.494952996885374974e-01
-5.628081877983033277e-01
-5.748991624693250424e-01
-5.857358115777130392e-01
-5.952894196510032376e-01
-6.035350937576658970e-01
-6.104518938894074598e-01
-6.160229661496994247e-01
-6.202356766077681272e-01
-6.230817432067451422e-01
-6.245573629331192533e-01
-6.246633310513821646e-01
-6.234051491640445475e-01
-6.207931184443563621e-01
-6.168424145766665534e-01
-6.115731410491578313e-01
-6.050103571237677169e-01
-5.971840775575307791e-01
-5.881292408783671544e-01
-5.778856437541036728e-01
-5.664978392423409836e-01
-5.540149970950735137e-01
-5.404907249362220778e-01
-5.259828496701774991e-01
-5.105531590132623698e-01
-4.942671038218415247e-01
-4.771934622202309573e-01
-4.594039675401705991e-01
-4.409729025238701694e-01
-4.219766628082833315e-01
-4.024932932894606519e-01
-3.826020016242796529e-01
-3.623826534832770285e-01
-3.419152545942932275e-01
-3.212794249317467710e-01
-3.005538708143102311e-01
-2.798158606386634828e-01
-2.591407101571382432e-01
-2.386012831749140251e-01
-2.182675135682641543e-01
-1.982059541333361374e-01
-1.784793577002608544e-01
-1.591462954368730309e-01
-1.402608168733758265e-01
-1.218721556450623744e-01
-1.040244843857265483e-01
-8.675672165124084789e-02
-7.010239289073810776e-02
-5.408954683714363443e-02
-3.874072807152126319e-02
-2.407300556420091664e-02
-1.009805633288372168e-02
3.177697427769224717e-03
1.575289992762207714e-02
2.763102527046965712e-02
3.882009632823189144e-02
4.933236340996750152e-02
5.918394731206397252e-02
6.839445198964862194e-02
7.698655240816043577e-02
8.498556339947897775e-02
9.241899536822298367e-02
9.931610318588159070e-02
1.057074341754679764e-01
1.116243812332036733e-01
1.170987469141880344e-01
1.221623239969761993e-01
1.268464977631845736e-01
1.311818747477704883e-01
1.351979422020367083e-01
1.389227619841025552e-01
1.423827021006778271e-01
1.456022082958364217e-01
1.486036176176741275e-01
1.514070150938695569e-01
1.540301338590267799e-01
1.564882986270087484e-01
1.587944117396827837e-01
1.609589801153574473e-01
1.629901811221921570e-01
1.648939645733547288e-01
1.666741878524993226e-01
1.683327806034550789e-01
1.698699349213610987e-01
1.712843168946450445e-01
1.725732950606023997e-01
1.737331810303883728e-01
1.747594778968366014e-01
1.756471316021605555e-01
1.763907808753820694e-01
1.769850012212369761e-01
1.774245389863196021e-01
1.777045315761204003e-01
1.778207104885455025e-01
1.777695839413746259e-01
1.775485965855555237e-01
1.771562641932978854e-01
1.765922816499402859e-01
1.758576031703970033e-01
1.749544941535249587e-01
1.738865546398860318e-01
1.726587147386126342e-01
1.712772030567371317e-01
1.697494894382252928e-01
1.680842038946886163e-01
1.662910338252396869e-01
1.643806021356537528e-01
1.623643289209706631e-01
1.602542798392959378e-01
1.580630041297515220e-01
1.558033657358127155e-01
1.534883707554541843e-01
1.511309944053532972e-01
1.487440107664844136e-01
1.463398283441361691e-01
1.439303342104186478e-01
1.415267494383036506e-01
1.391394981878460169e-01
1.367780923984741881e-01
1.344510338230374968e-01
1.321657346697762692e-01
1.299284580215943063e-01
1.277442782487532846e-01
1.256170619398109811e-01
1.235494690565010073e-01
1.215429737370392199e-01
1.195979037599892159e-01
1.177134977231711205e-01
1.158879782212092202e-01
1.141186393252343056e-01
1.124019465299025133e-01
1.107336468766112192e-01
1.091088870553465623e-01
1.075223372269149547e-01
1.059683181798595636e-01
1.044409293581454318e-01
1.029341754891863331e-01
1.014420897033423696e-01
9.995885092137249406e-02
9.847889369779475044e-02
9.699700868981074586e-02
9.550843236328768193e-02
9.400892464098985213e-02
9.249483350031308115e-02
9.096314580313967502e-02
8.941152388495722525e-02
8.783832777356473387e-02
8.624262317220966756e-02
8.462417552952716804e-02
8.298343087295263765e-02
8.132148411242777486e-02
7.964003607022382414e-02
7.794134033964106312e-02
7.622814132729661962e-02
7.450360512294057491e-02
7.277124465646425677e-02
7.103484076955893234e-02
6.929836100829969703e-02
6.756587769365832163e-02
6.584148687377774922e-02
6.412922972789930620e-02
6.243301786605606751e-02
6.075656386122008090e-02
5.910331801714042294e-02
5.747641266925969383e-02
5.587861462984593935e-02
5.431228648017234067e-02
5.277935719727652047e-02
5.128130225789765545e-02
4.981913342507474085e-02
4.839339793525149896e-02
4.700418688091748121e-02
4.565115223323303051e-02
4.433353183104984940e-02
4.305018165129587127e-02
4.179961441271853873e-02
4.058004352620085686e-02
3.938943140449707725e-02
3.822554082090336841e-02
3.708598836501134782e-02
3.596829878485965221e-02
3.486995916315467625e-02
3.378847171315450121e-02
3.272140437347322017e-02
3.166643805437895781e-02
3.062140990020327178e-02
2.958435174261303535e-02
2.855352320768011348e-02
2.752743887362129119e-02
2.650488939230547653e-02
2.548495608651539165e-02
2.446701917127297801e-02
2.345075961033115178e-02
2.243615478633942742e-02
2.142346837691059061e-02
2.041323479316033140e-02
1.940623869648318636e-02
1.840349029354180349e-02
1.740619698925937806e-02
1.641573219077094303e-02
1.543360196585282125e-02
1.446141033005917016e-02
1.350082391899158109e-02
1.255353686533516692e-02
1.162123656614064485e-02
1.070557102105746360e-02
9.808118306386469365e-03
8.930358855272891791e-03
8.073650821520516468e-03
7.239209107924112277e-03
6.428088186732987784e-03
5.641169031400885062e-03
4.879150098798371027e-03
4.142542545767190047e-03
3.431669530515208191e-03
2.746669349078795577e-03
2.087502193756653711e-03
1.453960261353989900e-03
8.456808059736845148e-04
2.621617040379347892e-04
-2.972209395171541285e-04
-8.331936307894836653e-04
-1.346565339045502482e-03
-1.838206803387313487e-03
-2.309029766278726005e-03
-2.759966669760456279e-03
-3.191951275532025744e-03
-3.605900575133876712e-03
-4.002698284246809964e-03
-4.383180336606864319e-03
-4.748122525835103344e-03
-5.098230500210684107e-03
-5.434132197572244527e-03
-5.756372723962959077e-03
-6.065411700457531106e-03
-6.361623005099058606e-03
-6.645296619276644043e-03
-6.916642486062121731e-03
-7.175796123007968305e-03
-7.422825607063486368e-03
-7.657739710440607597e-03
-7.880496741933480653e-03
-8.091013825227510656e-03
-8.289176232070306211e-03
-8.474846436208171435e-03
-8.647872405913496416e-03
-8.808095051099267339e-03
-8.955354461468403859e-03
-9.089494700664269705e-03
-9.210366951784135225e-03
-9.317830923003759397e-03
-9.411754471753628823e-03
-9.492011334575578899e-03
-9.558477112056524769e-03
-9.611023482290110415e-03
-9.649510961593476752e-03
-9.673780262707957697e-03
-9.683642628965604543e-03
-9.678869333423049254e-03
-9.659180767290007422e-03
-9.624235363524389492e-03
-9.573618800583655677e-03
-9.506833880004545920e-03
-9.423291365913391907e-03
-9.322302204493058964e-03
-9.203071485857059614e-03
-9.064694395210636663e-03
-8.906154463683526798e-03
-8.726324341774347251e-03
-8.523969308695419217e-03
-8.297753615630126464e-03
-8.046249750061315251e-03
-7.767950483192591002e-03
-7.461283766409946769e-03
-7.124630324269249325e-03
-6.756343727839270348e-03
-6.354772656394666770e-03
-5.918285078057309440e-03
-5.445293903144987104e-03
-4.934283811280301864e-03
-4.383838659624010071e-03
-3.792669144269602156e-03
-3.159640078263442186e-03
-2.483796759698421713e-03
-1.764390063729320878e-03
-1.000899658509113747e-03
-1.930548973603736561e-04
6.591470596310260383e-04
1.555426348465058619e-03
2.495209064148430893e-03
3.477619645154930716e-03
4.501477435688315543e-03
5.565297467201660471e-03
6.667295519225233287e-03
7.805397549861906384e-03
8.977253413295239320e-03
1.018025465586738613e-02
1.141155621796004042e-02
1.266810182237968797e-02
1.394665255045053100e-02
1.524381820346171722e-02
1.655609109437433321e-02
1.787988163758286175e-02
1.921155517799149823e-02
2.054746953200609072e-02
2.188401253625620393e-02
2.321763906844509159e-02
2.454490698993547562e-02
2.586251125544780302e-02
2.716731576596193368e-02
2.845638241422888612e-02
2.972699685153858823e-02
3.097669053133750641e-02
3.220325872285753621e-02
3.340477423626944664e-02
3.457959652331312611e-02
3.572637624106472093e-02
3.684405508932998841e-02
3.793186101505652968e-02
3.898929893198362778e-02
4.001613707624877836e-02
4.101238947404740876e-02
4.197829467034053241e-02
4.291429124606905426e-02
4.382099061956647862e-02
4.469914756727188382e-02
4.554962912465562730e-02
4.637338235904575612e-02
4.717140175875905034e-02
4.794469668674863905e-02
4.869425960784326546e-02
4.942103560612822605e-02
5.012589379695757408e-02
5.080960112637745302e-02
5.147279902326722806e-02
5.211598334805301463e-02
5.273948786629515523e-02
5.334347171454430908e-02
5.392791085926081085e-02
5.449259381855443146e-02
5.503712153889657455e-02
5.556091151040204457e-02
5.606320594468042900e-02
5.654308371733749589e-02
5.699947598682095912e-02
5.743118505366082843e-02
5.783690601068561254e-02
5.821525079240739281e-02
5.856477407520075534e-02
5.888400056800464216e-02
5.917145306049037545e-02
5.942568074914569148e-02
5.964528717886583703e-02
5.982895725879883164e-02
5.997548288847504711e-02
6.008378662163398054e-02
6.015294289137886746e-02
6.018219647169487097e-02
6.017097769032827420e-02
6.011891420232017696e-02
6.002583909174859927e-02
5.989179507681798020e-02
5.971703478214399757e-02
5.950201710874977040e-02
5.924739983848220648e-02
5.895402847681051328e-02
5.862292172372525478e-02
5.825525384195272965e-02
5.785233413627816762e-02
5.741558418748479720e-02
5.694651311881869515e-02
5.644669152767623627e-02
5.591772457445118999e-02
5.536122469751404013e-02
5.477878456855251460e-02
5.417195091508444915e-02
5.354219962443426684e-02
5.289091263920357722e-02
5.221935720351159049e-02
5.152866779732426933e-02
5.081983114657686457e-02
5.009367465333451619e-02
4.935085855046496273e-02
4.859187174232701412e-02
4.781703165970849906e-02
4.702648801935992162e-02
4.622023043024592326e-02
4.539809972842736435e-02
4.455980287290135095e-02
4.370493106198078404e-02
4.283298064964559393e-02
4.194337665041155544e-02
4.103549818601906485e-02
4.010870538351431897e-02
3.916236726749881131e-02
3.819589008740412184e-02
3.720874542768579096e-02
3.620049753749450538e-02
3.517082933565349179e-02
3.411956661122168138e-02
3.304669973399206040e-02
3.195240248269465289e-02
3.083704765411704116e-02
2.970121895706518897e-02
2.854571896495863847e-02
2.737157284719651806e-02
2.618002777018666946e-02
2.497254784562377011e-02
2.375080469230982441e-02
2.251666369287624175e-02
2.127216609481457840e-02
2.001950725733922173e-02
1.876101136548983042e-02
1.749910296136408458e-02
1.623627581296107486e-02
1.497505960592915991e-02
1.371798505603924988e-02
1.246754799573997555e-02
1.122617313627851353e-02
9.996178070316295849e-03
8.779738241450044459e-03
7.578853414060692829e-03
6.395316329478963925e-03
5.230684117655394309e-03
4.086253010626450868e-03
2.963036801869770726e-03
1.861749613547567569e-03
7.827931924979072064e-04
-2.737509576459241077e-04
-1.308124346555608565e-03
-2.320889115600992345e-03
-3.312920410112468739e-03
-4.285393585413664781e-03
-5.239766454070358438e-03
-6.177756664640082947e-03
-7.101314670495441350e-03
-8.012592643753268379e-03
-8.913909731032166467e-03
-9.807714291798287284e-03
-1.069654354060826928e-02
-1.158298137930286430e-02
-1.246961502852180284e-02
-1.335899109708879075e-02
-1.425357182173802792e-02
-1.515569219867936301e-02
-1.606751868695230345e-02
-1.699101002165824895e-02
-1.792788100055213094e-02
-1.887956968369444710e-02
-1.984720843085315684e-02
-2.083159948359594726e-02
-2.183319532674301081e-02
-2.285208419842237049e-02
-2.388798093654315516e-02
-2.494022336939808598e-02
-2.600777427337921596e-02
-2.708922889770787323e-02
-2.818282791303935997e-02
-2.928647558457444719e-02
-3.039776283195633894e-02
-3.151399490885162941e-02
-3.263222325491215575e-02
-3.374928092837471000e-02
-3.486182111167163145e-02
-3.596635815042962397e-02
-3.705931042115111207e-02
-3.813704439329958229e-02
-3.919591917514371471e-02
-4.023233087954788956e-02
-4.124275624568610882e-02
-4.222379471586210076e-02
-4.317220843084008941e-02
-4.408495959855448371e-02
-4.495924463379234043e-02
-4.579252458499519229e-02
-4.658255153003392629e-02
-4.732739062292660309e-02
-4.802543733307472473e-02
-4.867542997090851253e-02
-4.927645720410521457e-02
-4.982796055592053630e-02
-5.032973204436415327e-02
-5.078190704394551502e-02
-5.118495256422386092e-02
-5.153965125526117907e-02
-5.184708148497051833e-02
-5.210859388500344025e-02
-5.232578481994493852e-02
-5.250046727948060044e-02
-5.263463967121558701e-02
-5.273045317827317058e-02
-5.279017811973030216e-02
-5.281616995000307235e-02
-5.281083542334535919e-02
-5.277659943803574699e-02
-5.271587316659294420e-02
-5.263102382896318182e-02
-5.252434671825224194e-02
-5.239803965614373699e-02
-5.225418036654057297e-02
-5.209470700461538151e-02
-5.192140207114771810e-02
-5.173587978578232660e-02
-5.153957706932671412e-02
-5.133374818804150447e-02
-5.111946291076270577e-02
-5.089760811898421528e-02
-5.066889269702615217e-02
-5.043385547222109522e-02
-5.019287593880290832e-02
-4.994618737054720703e-02
-4.969389211228956299e-02
-4.943597847785054927e-02
-4.917233895796474519e-02
-4.890278930141678249e-02
-4.862708800141054416e-02
-4.834495588598761162e-02
-4.805609519533537988e-02
-4.776020788085497820e-02
-4.745701274192937885e-02
-4.714626104817406377e-02
-4.682775033568056106e-02
-4.650133613813664524e-02
-4.616694148574394113e-02
-4.582456394012026507e-02
-4.547428007858875937e-02
-4.511624741429945407e-02
-4.475070377482084222e-02
-4.437796410636291738e-02
-4.399841487081631447e-02
-4.361250628842679167e-02
-4.322074246290331934e-02
-4.282366977425991483e-02
-4.242186375332304693e-02
-4.201591472124238669e-02
-4.160641263628894748e-02
-4.119393140342743342e-02
-4.077901306535279546e-02
-4.036215219843188040e-02
-3.994378086843835413e-02
-3.952425454002924526e-02
-3.910383926776188346e-02
-3.868270036326056788e-02
-3.826089299222629886e-02
-3.783835473278815420e-02
-3.741490043675704119e-02
-3.699021956502895891e-02
-3.656387592680216542e-02
-3.613531006542260865e-02
-3.570384416364338204e-02
-3.526868954248577048e-02
-3.482895660498665918e-02
-3.438366707415316942e-02
-3.393176832065772364e-02
-3.347214959114171856e-02
-3.300365991024959561e-02
-3.252512726381150826e-02
-3.203537884533765728e-02
-3.153326195504228824e-02
-3.101766524137081205e-02
-3.048753991476925787e-02
-2.994192047255728878e-02
-2.937994470614798195e-02
-2.880087257176376647e-02
-2.820410365864806090e-02
-2.758919282392520433e-02
-2.695586376498288611e-02
-2.630402038139821944e-02
-2.563375561042730358e-02
-2.494535759629466776e-02
-2.423931300292720553e-02
-2.351630752147633799e-02
-2.277722348916890946e-02
-2.202313462026644214e-02
-2.125529789161901759e-02
-2.047514274991750136e-02
-1.968425778232658213e-02
-1.888437505465269395e-02
-1.807735228618997589e-02
-1.726515324594555048e-02
-1.644982658909330958e-02
-1.563348350378787957e-02
-1.481827444007582754e-02
-1.400636535833123079e-02
-1.319991378139299953e-02
-1.240104510001647717e-02
-1.161182938023382592e-02
-1.083425910878923169e-02
-1.007022813804842563e-02
-9.321512184843054605e-03
-8.589751150549523873e-03
-7.876433543182062222e-03
-7.182883143302714463e-03
-6.510248126856256132e-03
-5.859492740332363121e-03
-5.231391779045991945e-03
-4.626527731648363492e-03
-4.045290673741986677e-03
-3.487880914302154012e-03
-2.954314163965231135e-03
-2.444429287428454434e-03
-1.957898418503323159e-03
-1.494239194981411729e-03
-1.052828929484120324e-03
-6.329205062435733524e-04
-2.336596503621433919e-04
1.458967460709145617e-04
5.067614425933712361e-04
8.499971772150156793e-04
1.176696855647697739e-03
1.487963884642350826e-03
1.784892978096396356e-03
2.068551700490117804e-03
2.339963155183864916e-03
2.600089906051514070e-03
2.849819460413659418e-03
3.089951523496022642e-03
3.321187203513608927e-03
3.544120289366819131e-03
3.759230705478365086e-03
3.966880213466889016e-03
4.167310527141833247e-03
4.360643606082869640e-03
4.546884235598137522e-03
4.725924789877414614e-03
4.897552076638156220e-03
5.061456132239600114e-03
5.217240728227711365e-03
5.364435435601830511e-03
5.502509084297774536e-03
5.630884295842875434e-03
5.748952843941025452e-03
5.856091613279742862e-03
5.951678892227158651e-03
6.035110670461384108e-03
6.105816674756701923e-03
6.163275953302432830e-03
6.207031695858852317e-03
6.236705017898348975e-03
6.252007537475738792e-03
6.252752525227865850e-03
6.238864423697494839e-03
6.210386617153880115e-03
6.167487353728653282e-03
6.110463652352639795e-03
6.039743187948907500e-03
5.955884034464747727e-03
5.859572414455834627e-03
5.751618404440621626e-03
5.632949617171596757e-03
5.504603044291665227e-03
5.367715151144496558e-03
5.223510324957060177e-03
5.073287873063010885e-03
4.918407836224881514e-03
4.760275689189370080e-03
4.600326318103046576e-03
4.440007341085906202e-03
4.280762143173314806e-03
4.124012830098870534e-03
3.971143319130252501e-03
3.823482834922499636e-03
3.682290118398834963e-03
3.548738447522835262e-03
3.423901743424022891e-03
3.308742016798731610e-03
3.204098220437654083e-03
3.110676771437556783e-03
3.029043811831271405e-03
2.959619266026195569e-03
2.902672907976047885e-03
2.858322381747972155e-03
2.826533254371488713e-03
2.807121046044634347e-03
2.799755185382861531e-03
2.803964919738498839e-03
2.819146994709868966e-03
2.844575086164256514e-03
2.879410673690924877e-03
2.922715341288004143e-03
2.973464272939539341e-03
3.030560784605985068e-03
3.092851601932967206e-03
3.159142683909120074e-03
3.228215421988309304e-03
3.298842903545551927e-03
3.369806064011781482e-03
3.439909459762812132e-03
3.507996451725541292e-03
3.572963621341063850e-03
3.633774078880833494e-03
3.689469680048973205e-03
3.739181816302567483e-03
3.782140724735037415e-03
3.817683119677171919e-03
3.845258216427988648e-03
3.864431869491900991e-03
3.874888866894495368e-03
3.876433416843550871e-03
3.868987784673773387e-03
3.852589148520722644e-03
3.827384698423809753e-03
3.793625207769648830e-03
3.751657039050350015e-03
3.701912819755575398e-03
3.644900934295458236e-03
3.581194016816781258e-03
3.511416641702263652e-03
3.436232487807530482e-03
3.356331056337519009e-03
3.272414378278826197e-03
3.185183769486384618e-03
3.095326890379616631e-03
3.003505422894791298e-03
2.910343491921743488e-03
2.816417014383270929e-03
2.722244281087808811e-03
2.628277834546813643e-03
2.534897754495054039e-03
2.442406572686591556e-03
2.351025816606857298e-03
2.260894352809226116e-03
2.172068389218766681e-03
2.084523308120356504e-03
1.998157198920702798e-03
1.912796049768365238e-03
1.828200493262017046e-03
1.744074057009997172e-03
1.660072605449311629e-03
1.575815012007056315e-03
1.490894725378443279e-03
1.404892005913236947e-03
1.317386652606005728e-03
1.227970994068261403e-03
1.136262841030528069e-03
1.041918104559362871e-03
9.446429484786575794e-04
8.442051803744874804e-04
7.404445872121082984e-04
6.332820176688587661e-04
5.227270272383129079e-04
4.088838592930166467e-04
2.919556317728913184e-04
1.722465738552931766e-04
5.016225401404507341e-05
-7.379228653528656042e-05
-1.990165400184951648e-04
-3.248206234114144205e-04
-4.504334268114966564e-04
-5.750127576451795211e-04
-6.976573664450666382e-04
-8.174206095305345697e-04
-9.333256465618877283e-04
-1.044381908255824975e-03
-1.149602568494850156e-03
-1.248022798806323061e-03
-1.338718454802388918e-03
-1.420824870001664679e-03
-1.493555495066649060e-03
-1.556220014182350692e-03
-1.608241578358842860e-03
-1.649172854625314058e-03
-1.678710603757458232e-03
-1.696708517341259572e-03
-1.703187844865001630e-03
-1.698345850031696917e-03
-1.682561670971790017e-03
-1.656399510629481863e-03
-1.620608943628141499e-03
-1.576122259361502874e-03
-1.524048883143856292e-03
-1.465666719104726304e-03
-1.402410591318969252e-03
-1.335857780768397608e-03
-1.267710849918255150e-03
-1.199777915188257171e-03
-1.133950624525135271e-03
-1.072180106264538019e-03
-1.016451258516793072e-03
-9.687555534194257009e-04
-9.310629396498462922e-04
-9.052931385299783354e-04
-8.932867743769443755e-04
-8.967767368035136624e-04
-9.173602687738410593e-04
-9.564721608233514756e-04
-1.015359546871235979e-03
-1.095058621565254010e-03
-1.196373782638570412e-03
-1.319859379523958534e-03
-1.465804631658943705e-03
-1.634221788372843941e-03
-1.824837880656774228e-03
-2.037090200733820272e-03
-2.270125685825802406e-03
-2.522804306425069365e-03
-2.793706454117319670e-03
-3.081144210934278795e-03
-3.383176596306563914e-03
-3.697628453353769135e-03
-4.022112875792068637e-03
-4.354056901745275918e-03
-4.690730028572228510e-03
-5.029275372366645049e-03
-5.366742946886711267e-03
-5.700124695917269980e-03
-6.026390771725282161e-03
-6.342526541491709351e-03
-6.645569933579160635e-03
-6.932648419458468415e-03
-7.201015322724596025e-03
-7.448084818141093716e-03
-7.671465120989436060e-03
-7.868989490355599720e-03
-8.038744549402588105e-03
-8.179095498975792050e-03
-8.288707933730555741e-03
-8.366565860772640084e-03
-8.411985700793826043e-03
-8.424626109065448676e-03
-8.404493438329314545e-03
-8.351942709969421147e-03
-8.267674191230006686e-03
-8.152725485719561349e-03
-8.008459301210673481e-03
-7.836547110627471724e-03
-7.638948905138655439e-03
-7.417889250567365894e-03
-7.175830075080196629e-03
-6.915440511235361465e-03
-6.639564213681108107e-03
-6.351184563093228465e-03
-6.053388352142876315e-03
-5.749328335644817226e-03
-5.442185189004742837e-03
-5.135129404133061647e-03
-4.831283567869381311e-03
-4.533685621083604657e-03
-4.245253549936963203e-03
-3.968751837855431265e-03
-3.706760312036673326e-03
-3.461645649486670782e-03
-3.235535908407185732e-03
-3.030298423019539382e-03
-2.847521267724254217e-03
-2.688498425742792686e-03
-2.554218997287608858e-03
-2.445360343168922687e-03
-2.362285293875369344e-03
-2.305043370086033543e-03
-2.273375872695176329e-03
-2.266724821241973640e-03
-2.284245389789647460e-03
-2.324821785208056480e-03
-2.387086111287939436e-03
-2.469440133019358812e-03
-2.570079339054309655e-03
-2.687019108951283885e-03
-2.818122451599423817e-03
-2.961129066040621600e-03
-3.113685164943922820e-03
-3.273373710703381990e-03
-3.437744678674101682e-03
-3.604344892772516715e-03
-3.770747048575000000e-03
-3.934577635495099118e-03
-4.093543297457299078e-03
-4.245455463012985133e-03
-4.388252871745667444e-03
-4.520021814287743071e-03
-4.639013874733527790e-03
-4.743661037838943495e-03
-4.832587984211523212e-03
-4.904621704137126711e-03
-4.958798146598046575e-03
-4.994366123905491853e-03
-5.010788400538390176e-03
-5.007740157237492232e-03
-4.985104903723897550e-03
-4.942968012423953200e-03
-4.881608063640391522e-03
-4.801486277741029603e-03
-4.703234114190813636e-03
-4.587639426265649641e-03
-4.455631418687082228e-03
-4.308264634413546020e-03
-4.146702229865150725e-03
-3.972198787093809101e-03
-3.786082989524334075e-03
-3.589740376288413741e-03
-3.384596406899837741e-03
-3.172099952723965530e-03
-2.953707655911839026e-03
-2.730869029269717644e-03
-2.505012618064566144e-03
-2.277533400958801305e-03
-2.049781413070540965e-03
-1.823051686531361286e-03
-1.598575551331014996e-03
-1.377513361973961136e-03
-1.160948584886003533e-03
-9.498832235741445484e-04
-7.452345889586171196e-04
-5.478333342942542364e-04
-3.584225628804157309e-04
-1.776580501164096105e-04
-6.109391288523272453e-06
1.557380732994868876e-04
3.074805992517688704e-04
4.487928453179593430e-04
5.794242994982527371e-04
6.991953065639821023e-04
8.079930391312624806e-04
9.057673869721895657e-04
9.925269047699122882e-04
1.068334870032202743e-03
1.133305654185283451e-03
1.187601382141040968e-03
1.231428939540443615e-03
1.265037438125802887e-03
1.288716081705149671e-03
1.302792582822681492e-03
1.307631900481216356e-03
1.303635432394887727e-03
1.291240667959566487e-03
1.270921113735773780e-03
1.243186563523666173e-03
1.208583525692900505e-03
1.167695888557846937e-03
1.121145530803354653e-03
1.069592987925877025e-03
1.013737997544787023e-03
9.543198255069038505e-04
8.921173074005676711e-04
8.279484845301679496e-04
7.626698410378915643e-04
6.971748962790227369e-04
6.323923443373389826e-04
5.692834174189651333e-04
5.088385973410704428e-04
4.520735583319913649e-04
4.000244068454379448e-04
3.537421351886087771e-04
3.142862736054625517e-04
2.827179015112414552e-04
2.600919029341528486e-04
2.474485519049627507e-04
2.458045744063115439e-04
2.561436532018871825e-04
2.794065197546280639e-04
3.164807627999731486e-04
3.681903945376669243e-04
4.352853092175203403e-04
5.184307858145546571e-04
6.181971940132129561e-04
7.350499157510019272e-04
8.693398084900049849e-04
1.021294195379377672e-03
1.191008524532017991e-03
1.378438928446283672e-03
1.583395771675080201e-03
1.805538230580522535e-03
2.044370114223984219e-03
2.299237024481688794e-03
2.569324937296707263e-03
2.853660196025638047e-03
3.151111117005617711e-03
3.460391173257602003e-03
3.780063754474995239e-03
4.108548652368032052e-03
4.444130137206741757e-03
4.784966677299528834e-03
5.129102212354783030e-03
5.474478842402222267e-03
5.818951101594000731e-03
6.160301460407288654e-03
6.496256990821413363e-03
6.824507124605395068e-03
7.142722319824034230e-03
7.448573491354152677e-03
7.739751950294759125e-03
8.013989715739938680e-03
8.269079966655311711e-03
8.502897391161895121e-03
8.713418335090180114e-03
8.898740367961316400e-03
9.057101152344875991e-03
9.186896354521002783e-03
9.286696413926766661e-03
9.355261880928857771e-03
9.391557214760327607e-03
9.394762849065667679e-03
9.364285262576019925e-03
9.299764997877510084e-03
9.201082553216430315e-03
9.068361859545044992e-03
8.901971375756757149e-03
8.702522724699585793e-03
8.470866877285569349e-03
8.208087821711661583e-03
7.915493753798005794e-03
7.594605900544030772e-03
7.247145019415413697e-03
6.875015685274168953e-03
6.480288520247711945e-03
6.065180514377934221e-03
5.632033699317241966e-03
5.183292336913401625e-03
4.721478845551458151e-03
4.249168789387188644e-03
3.768965128156396074e-03
3.283472046467904130e-03
2.795268647357854446e-03
2.306882804176100393e-03
1.820765422634554537e-03
1.339265488613804438e-03
8.646061547960408626e-04
3.988620894618797349e-04
-5.606156348948225184e-05
-4.984484479351515042e-04
-9.267882508072351191e-04
-1.339791745878001188e-03
-1.736403433258051692e-03
-2.115811603901387658e-03
-2.477455800657166803e-03
-2.821031510550888344e-03
-3.146492095772625373e-03
-3.454047952799904533e-03
-3.744162930022023467e-03
-4.017547907917608067e-03
-4.275151817017922538e-03
-4.518150047961889092e-03
-4.747930479468600272e-03
-4.966077286217895903e-03
-5.174352638913607902e-03
-5.374676595887844383e-03
-5.569105372415938775e-03
-5.759808163503175350e-03
-5.949042838181910903e-03
-6.139130713708034967e-03
-6.332430717672841297e-03
-6.531313151352538537e-03
-6.738133299220945213e-03
-6.955205169890655258e-03
-7.184775596345206738e-03
-7.428998920366118412e-03
-7.689912462203359923e-03
-7.969413008598848908e-03
-8.269234458651478215e-03
-8.590926788988496529e-03
-8.935836625489463128e-03
-9.305089364796617288e-03
-9.699573045748534697e-03
-1.011992407160291346e-02
-1.056651486349102602e-02
-1.103944350617936179e-02
-1.153852543235370925e-02
-1.206328717423636732e-02
-1.261296223023516266e-02
-1.318648903990089771e-02
-1.378251113952763847e-02
-1.439937938327159189e-02
-1.503515633827128169e-02
-1.568762280595219910e-02
-1.635428647670745389e-02
-1.703239261894406650e-02
-1.771893689692062915e-02
-1.841068026766914251e-02
-1.910416591398557407e-02
-1.979573818439575583e-02
-2.048156351138405093e-02
-2.115765332787124253e-02
-2.181988885169642775e-02
-2.246404770808970927e-02
-2.308583229115625246e-02
-2.368089990757217544e-02
-2.424489446297448114e-02
-2.477347951714808233e-02
-2.526237275672971877e-02
-2.570738153859536412e-02
-2.610443938594459931e-02
-2.644964316263127835e-02
-2.673929075540866854e-02
-2.696991882118120534e-02
-2.713834045522453553e-02
-2.724168231105960833e-02
-2.727742085282216719e-02
-2.724341730014186863e-02
-2.713795093127392005e-02
-2.695975018964446093e-02
-2.670802128777493428e-02
-2.638247373437760737e-02
-2.598334236432105898e-02
-2.551140542439194608e-02
-2.496799836220946894e-02
-2.435502280057747285e-02
-2.367495033297654927e-02
-2.293082090741644166e-02
-2.212623528008004700e-02
-2.126534160925092759e-02
-2.035281579322696655e-02
-1.939383548652937744e-02
-1.839404784388852174e-02
-1.735953101044947211e-02
-1.629674949377494034e-02
-1.521250362874171369e-02
-1.411387353868249865e-02
-1.300815799572105531e-02
-1.190280868034528962e-02
-1.080536042826549595e-02
-9.723358231971082621e-03
-8.664281696283943068e-03
-7.635467818648185648e-03
-6.644033032718261837e-03
-5.696795442958728882e-03
-4.800198268615133053e-03
-3.960235485997456138e-03
-3.182380716900782072e-03
-2.471520437439016053e-03
-1.831892466189095903e-03
-1.267030783943475175e-03
-7.797174511333203458e-04
-3.719426334475316761e-04
-4.487341633663798486e-05
2.011680092245576098e-04
3.667161042083345109e-04
4.531633197782009600e-04
4.627507980462056158e-04
3.985482661512669122e-04
2.644231741034126890e-04
6.499925123422098697e-05
-1.943950907367738461e-04
-5.077880835206189259e-04
-8.686348977833880693e-04
-1.269896105658890016e-03
-1.704123339496679780e-03
-2.163551041441132746e-03
-2.640193100618139135e-03
-3.125942974716361053e-03
-3.612675928570021743e-03
-4.092351950274242256e-03
-4.557117861507482826e-03
-4.999406951196714785e-03
-5.412034850692122243e-03
-5.788289975345346436e-03
-6.122017222229284017e-03
-6.407693630975197334e-03
-6.640494631755471978e-03
-6.816349987213900230e-03
-6.931988367879373704e-03
-6.984969864436620102e-03
-6.973705845967021442e-03
-6.897465746346369449e-03
-6.756370680602602312e-03
-6.551373960500955773e-03
-6.284228742227599036e-03
-5.957443295495711867e-03
-5.574224660159195557e-03
-5.138411555376233564e-03
-4.654397667885663663e-03
-4.127046643388558242e-03
-3.561600121865590371e-03
-2.963580542436960313e-03
-2.338690284433076957e-03
-1.692708926477714225e-03
-1.031390493002002371e-03
-3.603624563704079659e-04
3.149716455014596743e-04
9.895242639729939435e-04
1.658608829683206254e-03
2.318016137877575242e-03
2.964080642267653571e-03
3.593735535822432676e-03
4.204555411672494282e-03
4.794785751212895034e-03
5.363358602616972309e-03
5.909894123856623480e-03
6.434687871949019630e-03
6.938684133549854853e-03
7.423435465516421347e-03
7.891049420850625856e-03
8.344123916084227738e-03
8.785671488216233171e-03
9.219034287380528311e-03
9.647791566412235870e-03
1.007566139934545912e-02
1.050639863804055454e-02
1.094369113279818062e-02
1.139105630008811765e-02
1.185174018212704385e-02
1.232862123866158149e-02
1.282412081286584370e-02
1.334012240934419856e-02
1.387790150229364916e-02
1.443806758870602377e-02
1.502051992390822897e-02
1.562441830063381921e-02
1.624816962966051798e-02
1.688943105631340175e-02
1.754512998620743475e-02
1.821150090742821789e-02
1.888413883424842551e-02
1.955806864793235497e-02
2.022782926587510938e-02
2.088757139271905927e-02
2.153116727668001953e-02
2.215233049764048223e-02
2.274474364965783924e-02
2.330219163269350163e-02
2.381869800550325683e-02
2.428866175973276587e-02
2.470699170323945038e-02
2.506923581152106090e-02
2.537170276739219785e-02
2.561157305248965704e-02
2.578699707421623633e-02
2.589717796549117351e-02
2.594243703724984085e-02
2.592425987431439330e-02
2.584532179644874819e-02
2.570949140252496573e-02
2.552181149492481482e-02
2.528845690733866683e-02
2.501666953541165084e-02
2.471467110771020589e-02
2.439155447607933846e-02
2.405715485900770945e-02
2.372190299377963801e-02
2.339666242178455036e-02
2.309255346479911764e-02
2.282076686628295437e-02
2.259237030366793852e-02
2.241811125002170224e-02
2.230821980922688408e-02
2.227221522239207496e-02
2.231871997092422025e-02
2.245528516069515007e-02
2.268823090839270501e-02
2.302250525026494632e-02
2.346156489498264081e-02
2.400728077561153917e-02
2.465987107885534574e-02
2.541786401190586006e-02
2.627809198134790220e-02
2.723571847291664585e-02
2.828429835976643478e-02
2.941587163251378756e-02
3.062109026956208457e-02
3.188937688749372140e-02
3.320911367420668892e-02
3.456785916951177901e-02
3.595259013502287437e-02
3.734996498939131826e-02
3.874660503689890401e-02
4.012938904241812599e-02
4.148575650686882332e-02
4.280401456397220361e-02
4.407364322977402188e-02
4.528559372043819420e-02
4.643257417426047834e-02
4.750931752675080499e-02
4.851282615082336963e-02
4.944258812099886630e-02
5.030076036410600915e-02
5.109231425536973209e-02
5.182513981559801891e-02
5.251010493123685341e-02
5.316106705203049732e-02
5.379483512113007737e-02
5.443108040370323725e-02
5.509219577993701433e-02
5.580310347337743421e-02
5.659101242259003545e-02
5.748512691469510189e-02
5.851630934878341433e-02
5.971670039856946666e-02
6.111930066374216680e-02
6.275751879731276961e-02
6.466469140575227537e-02
6.687358090455700066e-02
6.941585774383846053e-02
7.232157380981128758e-02
7.561863430802830133e-02
7.933227542574279589e-02
8.348455511753724578e-02
8.809386449873594926e-02
9.317446703272569408e-02
9.873607247831056588e-02
1.047834523253645400e-01
1.113161027464745073e-01
1.183279606204954010e-01
1.258071777391925328e-01
1.337359572103923588e-01
1.420904555871978781e-01
1.508407532445424082e-01
1.599508946395218623e-01
1.693789990686207780e-01
1.790774419266328299e-01
1.889931051845762100e-01
1.990676948920022671e-01
2.092381228254150405e-01
2.194369482662627269e-01
2.295928754667223293e-01
2.396313010645068631e-01
2.494749055416871086e-01
2.590442820364043941e-01
2.682585952543174446e-01
2.770362630313422669e-01
2.852956526435015960e-01
2.929557839810200126e-01
2.999370315259118902e-01
3.061618171449267400e-01
3.115552860120164858e-01
3.160459581365592796e-01
3.195663483855671338e-01
3.220535484467619836e-01
3.234497647775355089e-01
3.237028070071006347e-01
3.227665222954722024e-01
3.206011717291107899e-01
3.171737456882241513e-01
3.124582160190281233e-01
3.064357235556363079e-01
2.990947006270109898e-01
2.904309288768761044e-01
2.804475334886745719e-01
2.691549157916156565e-01
2.565706270465106797e-01
2.427191866587126989e-01
2.276318488325224099e-01
2.113463220376386176e-01
1.939064463028574159e-01
1.753618335245518411e-01
1.557674763664220197e-01
1.351833313144931714e-01
1.136738816063244673e-01
9.130768575655580366e-02
6.815691713340281399e-02
4.429690001651567094e-02
1.980564702090713974e-02
-5.236597282662914729e-03
-3.074780249241695906e-02
-5.664458432228614698e-02
-8.284261923155297747e-02
-1.092570391359336673e-01
-1.358028040494826116e-01
-1.623950512115721057e-01
-1.889494196685942706e-01
-2.153823501596598411e-01
-2.416113603409707766e-01
-2.675552961235406202e-01
-2.931345602283463303e-01
-3.182713195588565691e-01
-3.428896933839796213e-01
-3.669159243399497949e-01
-3.902785347895227352e-01
-4.129084709664170294e-01
-4.347392374940707294e-01
-4.557070249085513614e-01
-4.757508325944018734e-01
-4.948125893886907711e-01
-5.128372740199466095e-01
-5.297730371213348333e-01
-5.455713262198647051e-01
-5.601870147323406712e-01
-5.735785358063130168e-01
-5.857080209398348725e-01
-5.965414432216747942e-01
-6.060487644393156570e-01
-6.142040849018262083e-01
-6.209857943278513925e-01
-6.263767217470961324e-01
-6.303642820434421923e-01
-6.329406163388953122e-01
-6.341027232736817787e-01
-6.338525779106282121e-01
-6.321972349886111342e-01
-6.291489130061329593e-01
-6.247250557714444374e-01
-6.189483679860861010e-01
-6.118468218572331585e-01
-6.034536315973541010e-01
-5.938071933112938350e-01
-5.829509879702701181e-01
-5.709334456286192516e-01
-5.578077696344443392e-01
-5.436317199905729147e-01
-5.284673556499249747e-01
-5.123807362526501263e-01
-4.954415842255166513e-01
-4.777229090266520428e-01
-4.593005957458839994e-01
-4.402529610664546733e-01
-4.206602799921179137e-01
-4.006042874695857625e-01
-3.801676594061745851e-01
-3.594334779938423430e-01
-3.384846867899750089e-01
-3.174035411898716297e-01
-2.962710600229800928e-01
-2.751664844160138790e-01
-2.541667498887729137e-01
-2.333459775853178597e-01
-2.127749906449088457e-01
-1.925208611176831008e-01
-1.726464927882903899e-01
-1.532102447974579285e-01
-1.342656003773013418e-01
-1.158608846311067614e-01
-9.803903442997521922e-02
-8.083742317793297938e-02
-6.428774210551185808e-02
-4.841593926844738049e-02
-3.324221669549951019e-02
-1.878108499409551768e-02
-5.041474499535003422e-03
7.973099074313264728e-03
2.026431721108150688e-02
3.183879263454345715e-02
4.270775874740394967e-02
5.288671909158658424e-02
6.239506182178402444e-02
7.125564457819487385e-02
7.949435565625656563e-02
8.713965738520523807e-02
9.422211798393211046e-02
1.007739381596230582e-01
1.068284787206608133e-01
1.124197952151745478e-01
1.175821855886903661e-01
1.223497564142701222e-01
1.267560129733703855e-01
1.308334779330828646e-01
1.346133429880313204e-01
1.381251570514242522e-01
1.413965540817857802e-01
1.444530230670253157e-01
1.473177218034591729e-01
1.500113356255090291e-01
1.525519813866185181e-01
1.549551562655488712e-01
1.572337305661911933e-01
1.593979827577188257e-01
1.614556744908073604e-01
1.634121629048534696e-01
1.652705468191242866e-01
1.670318430523082265e-01
1.686951889274307670e-01
1.702580664735495464e-01
1.717165437972878739e-01
1.730655288977213102e-01
1.742990310947251376e-01
1.754104254693438225e-01
1.763927155261011681e-01
1.772387897337506790e-01
1.779416677220758136e-01
1.784947322754498467e-01
1.788919435284248294e-01
1.791280323203615632e-01
1.791986700106212582e-01
1.791006127396428116e-01
1.788318182988135607e-01
1.783915346269484004e-01
1.777803593415469285e-01
1.770002703014513512e-01
1.760546275126080029e-01
1.749481474974180217e-01
1.736868514233201322e-01
1.722779888923174074e-01
1.707299395773253237e-01
1.690520952322447645e-01
1.672547249240333711e-01
1.653488265208082342e-01
1.633459675240610254e-01
1.612581186949001155e-01
1.590974835488710160e-01
1.568763272395210240e-01
1.546068078797266099e-01
1.523008134160293570e-01
1.499698068836656517e-01
1.476246825973282772e-01
1.452756357573055379e-01
1.429320474517982720e-01
1.406023866262092747e-01
1.382941304062427212e-01
1.360137037256363146e-01
1.337664388534286486e-01
1.315565548490522374e-01
1.293871567933979894e-01
1.272602542617880805e-01
1.251767981084936643e-01
1.231367342819610911e-01
1.211390731548734889e-01
1.191819727625405695e-01
1.172628336907208801e-01
1.153784037443685295e-01
1.135248900365847524e-01
1.116980762284173617e-01
1.098934425077771199e-01
1.081062859522845254e-01
1.063318391183265821e-01
1.045653845981763946e-01
1.028023635236031963e-01
1.010384762086986715e-01
9.926977333050648888e-02
9.749273606242814250e-02
9.570434419870949005e-02
9.390213131956329229e-02
9.208422628105930596e-02
9.024938086396000481e-02
8.839698343740907960e-02
8.652705885256410656e-02
8.464025516126925941e-02
8.273781773625543678e-02
8.082155183189533576e-02
7.889377469676168986e-02
7.695725866557789896e-02
7.501516656021971208e-02
7.307098098692570154e-02
7.112842928336927939e-02
6.919140564556770789e-02
6.726389218041416151e-02
6.534988049749201888e-02
6.345329557254655861e-02
6.157792323182097877e-02
5.972734263386245829e-02
5.790486506393962424e-02
5.611348005851427706e-02
5.435580981138183471e-02
5.263407243562458204e-02
5.095005473931668583e-02
4.930509461874491017e-02
4.770007323438604091e-02
4.613541684715334601e-02
4.461110798466053073e-02
4.312670540431377819e-02
4.168137217953165469e-02
4.027391110625640896e-02
3.890280634887476052e-02
3.756627047761752769e-02
3.626229558564701000e-02
3.498870733422110996e-02
3.374322065818534389e-02
3.252349591377515919e-02
3.132719435135774416e-02
3.015203161392245035e-02
2.899582816128344967e-02
2.785655575637366321e-02
2.673237900769357550e-02
2.562169124111033855e-02
2.452314410093945143e-02
2.343567030406204163e-02
2.235849937287123432e-02
2.129116608313923534e-02
2.023351171468636481e-02
1.918567817824734512e-02
1.814809541105993906e-02
1.712146236100731134e-02
1.610672224804069255e-02
1.510503280932697090e-02
1.411773219663040729e-02
1.314630143030951978e-02
1.219232438181080611e-02
1.125744618162729214e-02
1.034333097562725734e-02
9.451620079791044418e-03
8.583891414093035646e-03
7.741621099551643584e-03
6.926148022304710189e-03
6.138642174713644303e-03
5.380077331431202398e-03
4.651208643539866787e-03
3.952555554894173970e-03
3.284390326318135586e-03
2.646732444817236594e-03
2.039348689067071486e-03
1.461759045277224436e-03
9.132481311783164409e-04
3.928817878830031239e-04
-1.004716151690353889e-04
-5.681156663057695694e-04
-1.011496791807220668e-03
-1.432172308547892316e-03
-1.831776285308722415e-03
-2.211984101414063951e-03
-2.574476439926130702e-03
-2.920903505349901116e-03
-3.252850318085770669e-03
-3.571803773331650150e-03
-3.879122198716606577e-03
-4.176008007080009472e-03
-4.463484070348186679e-03
-4.742374246481409657e-03
-5.013288407219344475e-03
-5.276612281261879207e-03
-5.532502296946723193e-03
-5.780885383869915385e-03
-6.021463740828896828e-03
-6.253724362910699323e-03
-6.476953107052783008e-03
-6.690252873036709597e-03
-6.892565481696789030e-03
-7.082696694294452963e-03
-7.259343760473086112e-03
-7.421124892887110899e-03
-7.566610010239950036e-03
-7.694351953447294522e-03
-7.802917587028568476e-03
-7.890918076665707007e-03
-7.957037569343185582e-03
-8.000059865858727068e-03
-8.018892295949655094e-03
-8.012586484579645868e-03
-7.980355479380620010e-03
-7.921586997347481937e-03
-7.835852464109551926e-03
-7.722911740954464289e-03
-7.582713580554167714e-03
-7.415391736792252553e-03
-7.221257007337010363e-03
-7.000785416419260873e-03
-6.754602848511250153e-03
-6.483466601199652790e-03
-6.188244351938290005e-03
-5.869891090864086565e-03
-5.529424583439267182e-03
-5.167900039802469925e-03
-4.786384568289554602e-03
-4.385932076615276128e-03
-3.967559247684928833e-03
-3.532223336270294729e-03
-3.080802112609271406e-03
-2.614076613858148240e-03
-2.132717100137807454e-03
-1.637272576506875821e-03
-1.128164168475467377e-03
-6.056825397545546018e-04
-6.998934330213081980e-05
4.788771344112694979e-04
1.040992390431972909e-03
1.616532305401070487e-03
2.205756298145458531e-03
2.808987422140957809e-03
3.426589849947834620e-03
4.058944329172518330e-03
4.706422176777361015e-03
5.369358507028706637e-03
6.048025357591546060e-03
6.742605315058843203e-03
7.453166491947589220e-03
8.179639401958272923e-03
8.921796490154627890e-03
9.679234864180315950e-03
1.045136270564786182e-02
1.123738994776000109e-02
1.203632347088387684e-02
1.284696721223588939e-02
1.366792733222833497e-02
1.449762245801815286e-02
1.533429903031393801e-02
1.617605149034343284e-02
1.702084713281697137e-02
1.786655515273987901e-02
1.871097953260399474e-02
1.955189500884503204e-02
2.038708556932589469e-02
2.121438463526316778e-02
2.203171617774729585e-02
2.283713595622397646e-02
2.362887193001420721e-02
2.440536294451352631e-02
2.516529486968020410e-02
2.590763336074022871e-02
2.663165234676479962e-02
2.733695761050435394e-02
2.802350465281218742e-02
2.869161043001675418e-02
2.934195846245482228e-02
2.997559689096260596e-02
3.059392936327125223e-02
3.119869868007910454e-02
3.179196325822679359e-02
3.237606659741734672e-02
3.295360019427624049e-02
3.352736027447093120e-02
3.410029913362765119e-02
3.467547170508390730e-02
3.525597826243490052e-02
3.584490424212513626e-02
3.644525824364225342e-02
3.705990922926279130e-02
3.769152416680398437e-02
3.834250726702728013e-02
3.901494189809358998e-02
3.971053635974676477e-02
4.043057469872839843e-02
4.117587349931692287e-02
4.194674559695645011e-02
4.274297162730095190e-02
4.356378000693605229e-02
4.440783604530798567e-02
4.527324050077508738e-02
4.615753788765961096e-02
4.705773458920298885e-02
4.797032672820663451e-02
4.889133742488418338e-02
4.981636304900409484e-02
5.074062783303481122e-02
5.165904606391540088e-02
5.256629092061278208e-02
5.345686880881820452e-02
5.432519809695653124e-02
5.516569086530739852e-02
5.597283634469999575e-02
5.674128455955157468e-02
5.746592875579507181e-02
5.814198514690700759e-02
5.876506846649352106e-02
5.933126201000996081e-02
5.983718080364596598e-02
6.028002666968867301e-02
6.065763413585510688e-02
6.096850614540337554e-02
6.121183888489137304e-02
6.138753505224300161e-02
6.149620510501010301e-02
6.153915633492351711e-02
6.151836981993545617e-02
6.143646537777323891e-02
6.129665499679134988e-02
6.110268532997378127e-02
6.085877014809115693e-02
6.056951376494451589e-02
6.023982660195561362e-02
5.987483427465771502e-02
5.947978168827244838e-02
5.905993374266389762e-02
5.862047438558511819e-02
5.816640564463416291e-02
5.770244845117719623e-02
5.723294702252820776e-02
5.676177851194263296e-02
5.629226965916175884e-02
5.582712181604466972e-02
5.536834602975038849e-02
5.491720922268587129e-02
5.447419274422134888e-02
5.403896427198751767e-02
5.361036352196705407e-02
5.318640248837272488e-02
5.276428031723409684e-02
5.234041290151196513e-02
5.191047686328704308e-02
5.146946740733315817e-02
5.101176939766015328e-02
5.053124068552595355e-02
5.002130636999104624e-02
4.947506271890740603e-02
4.888538915878380686e-02
4.824506657997043590e-02
4.754690016294429999e-02
4.678384476113934404e-02
4.594913080345699313e-02
4.503638875455993201e-02
4.403976997666333298e-02
4.295406208479288918e-02
4.177479690549579239e-02
4.049834904321091000e-02
3.912202351686437651e-02
3.764413081975580277e-02
3.606404814630381067e-02
3.438226553292508814e-02
3.260041608540031888e-02
3.072128957795495358e-02
2.874882910862582366e-02
2.668811057964837197e-02
2.454530519838656749e-02
2.232762537342403500e-02
2.004325475737441312e-02
1.770126318247958186e-02
1.531150813031310898e-02
1.288452367509736879e-02
1.043139762493313326e-02
7.963640555536704441e-03
5.493047721989139515e-03
3.031555796560696323e-03
5.910965641530317380e-04
-1.816550137167803050e-03
-4.179902129618055101e-03
-6.487916992898535781e-03
-8.730128433726426496e-03
-1.089677500545735943e-02
-1.297891908381034777e-02
-1.496855449430969411e-02
-1.685870109660479732e-02
-1.864348501572177935e-02
-2.031820330112336231e-02
-2.187937220193415105e-02
-2.332475825719909981e-02
-2.465339187865282777e-02
-2.586556333745049924e-02
-2.696280124577717444e-02
-2.794783399815131339e-02
-2.882453490329039622e-02
-2.959785177167290407e-02
-3.027372226941541997e-02
-3.085897638803269255e-02
-3.136122758919367842e-02
-3.178875432108264204e-02
-3.215037381187880322e-02
-3.245531009380574206e-02
-3.271305838308198599e-02
-3.293324764666184790e-02
-3.312550371262917848e-02
-3.329931478779260545e-02
-3.346390155166816677e-02
-3.362809356284267304e-02
-3.380021383548940245e-02
-3.398797317778403521e-02
-3.419837577193450551e-02
-3.443763720436616993e-02
-3.471111606961305163e-02
-3.502325989876618056e-02
-3.537756588670940699e-02
-3.577655693901304196e-02
-3.622177324569406803e-02
-3.671377881877215671e-02
-3.725218269322433384e-02
-3.783567427950830508e-02
-3.846207198753530399e-02
-3.912838404295923556e-02
-3.983088030256729667e-02
-4.056517364078085497e-02
-4.132630939742231585e-02
-4.210886127838139870e-02
-4.290703197451451595e-02
-4.371475684495405162e-02
-4.452580880787095768e-02
-4.533390273745347560e-02
-4.613279768491239385e-02
-4.691639527297029877e-02
-4.767883272671930017e-02
-4.841456914972208647e-02
-4.911846376272461373e-02
-4.978584494174173591e-02
-5.041256921178176309e-02
-5.099506948518782445e-02
-5.153039185619621987e-02
-5.201622082279646481e-02
-5.245089257702401087e-02
-5.283339670052056292e-02
-5.316336631650118993e-02
-5.344105737630865105e-02
-5.366731753239235847e-02
-5.384354564386248376e-02
-5.397164270249379253e-02
-5.405395540127248821e-02
-5.409321347829377374e-02
-5.409246210316874526e-02
-5.405499083774718827e-02
-5.398426031954627752e-02
-5.388382822029091218e-02
-5.375727588782768657e-02
-5.360813683549248143e-02
-5.343982854178407765e-02
-5.325558867245125394e-02
-5.305841686949307190e-02
-5.285102296788497800e-02
-5.263578257781204722e-02
-5.241470068169415408e-02
-5.218938369740279415e-02
-5.196102053204754156e-02
-5.173037263918014300e-02
-5.149777322157408910e-02
-5.126313525383251191e-02
-5.102596822620403955e-02
-5.078540295194174797e-02
-5.054022394309442417e-02
-5.028890859141237762e-02
-5.002967220243590557e-02
-4.976051802408512637e-02
-4.947929122252679029e-02
-4.918373563575480223e-02
-4.887155230398133876e-02
-4.854045852269731065e-02
-4.818824630318883917e-02
-4.781283908269921140e-02
-4.741234570073152993e-02
-4.698511056498166916e-02
-4.652975911411598442e-02
-4.604523775055902740e-02
-4.553084742470876745e-02
-4.498627044121145113e-02
-4.441158990824435604e-02
-4.380730153862894688e-02
-4.317431764443609848e-02
-4.251396322188977228e-02
-4.182796424868235469e-02
-4.111842853175928791e-02
-4.038781943178784695e-02
-3.963892287385439861e-02
-3.887480841544976168e-02
-3.809878491000896067e-02
-3.731435183928812072e-02
-3.652514694750971097e-02
-3.573489126142467831e-02
-3.494733244229056290e-02
-3.416618742013700916e-02
-3.339508535952418616e-02
-3.263751192304072124e-02
-3.189675584851466017e-02
-3.117585866672823239e-02
-3.047756842275906389e-02
-2.980429822714466409e-02
-2.915809025522346498e-02
-2.854058576618515378e-02
-2.795300160745553195e-02
-2.739611361667350364e-02
-2.687024708137115969e-02
-2.637527438754801168e-02
-2.591061981739919626e-02
-2.547527138078243061e-02
-2.506779944181823649e-02
-2.468638172183457158e-02
-2.432883421157993470e-02
-2.399264749882659351e-02
-2.367502777869185185e-02
-2.337294179970658345e-02
-2.308316512992909797e-02
-2.280233276461300293e-02
-2.252699128296119235e-02
-2.225365172745322889e-02
-2.197884225674280947e-02
-2.169915980541689202e-02
-2.141131993577692280e-02
-2.111220409318684266e-02
-2.079890353333832195e-02
-2.046875930255099424e-02
-2.011939767203556328e-02
-1.974876061017419998e-02
-1.935513078617708688e-02
-1.893715094557183939e-02
-1.849383728767522994e-02
-1.802458693692907121e-02
-1.752917943086355901e-02
-1.700777232036327843e-02
-1.646089108202310539e-02
-1.588941362018436027e-02
-1.529454981842918830e-02
-1.467781639358605762e-02
-1.404100780860583104e-02
-1.338616362304806753e-02
-1.271553303659886391e-02
-1.203153718644539398e-02
-1.133672976697723545e-02
-1.063375691854552205e-02
-9.925316837133086809e-03
-9.214119892336423284e-03
-8.502849848071081934e-03
-7.794126712829723379e-03
-7.090471913203525052e-03
-6.394276251490362342e-03
-5.707771085721708750e-03
-5.033003101479840459e-03
-4.371813023661242671e-03
-3.725818526724140097e-03
-3.096401379206444385e-03
-2.484699027036387821e-03
-1.891600664091527004e-03
-1.317747589454358994e-03
-7.635378266977617921e-04
-2.291347135159071437e-04
2.855208355112090913e-04
7.806945508210458556e-04
1.256840066246130497e-03
1.714577536008582252e-03
2.154670099320082129e-03
2.577998699082159097e-03
2.985535679962679576e-03
3.378317733060538525e-03
3.757418574100037257e-03
4.123921999023318942e-03
4.478895652024662659e-03
4.823366067601366283e-03
5.158295306378866095e-03
5.484559563273020202e-03
5.802930195287218235e-03
6.114057327685667662e-03
6.418456257303639667e-03
6.716496953152852403e-03
7.008396646057334436e-03
7.294215660600798616e-03
7.573856444887653964e-03
7.847065792549354560e-03
8.113440110108276204e-03
8.372433622911668732e-03
8.623369311445748184e-03
8.865452258044016071e-03
9.097785279286197194e-03
9.319386450731140595e-03
9.529208149824960547e-03
9.726157386720283432e-03
9.909116976441957603e-03
1.007696714005557569e-02
1.022860733392757550e-02
1.036297773853554413e-02
1.047908015766145853e-02
1.057599801497893441e-02
1.065291502137697896e-02
1.070913235309588728e-02
1.074408395339129275e-02
1.075734979644029678e-02
1.074866695332865087e-02
1.071793817987850422e-02
1.066523811032289715e-02
1.059081672183131463e-02
1.049510026544428661e-02
1.037868955131416616e-02
1.024235565017379487e-02
1.008703305078893428e-02
9.913810504863838566e-03
9.723919633718118918e-03
9.518721443744189784e-03
9.299691000325979381e-03
9.068400474316250237e-03
8.826500829831095477e-03
8.575702403810038510e-03
8.317754660277317316e-03
8.054425308998726385e-03
7.787479253027238847e-03
7.518657539824970086e-03
7.249656595611633954e-03
6.982108079075541145e-03
6.717559534036983589e-03
6.457456116673795064e-03
6.203123686242102697e-03
5.955753452861319887e-03
5.716388303774939429e-03
5.485911068351660702e-03
5.265034757293452806e-03
5.054294975761232205e-03
4.854044631661958917e-03
4.664450875489258019e-03
4.485494392818812660e-03
4.316971059980773129e-03
4.158495841797484049e-03
4.009509013114521264e-03
3.869284534261955167e-03
3.736940494570985087e-03
3.611451509953778755e-03
3.491662955029770522e-03
3.376306798672923729e-03
3.264018914451591313e-03
3.153357589891837495e-03
3.042823133595713107e-03
2.930878282108669800e-03
2.815969122028072740e-03
2.696546405172258343e-03
2.571086897002789525e-03
2.438114615772295473e-03
2.296221624271210446e-03
2.144088145400014668e-03
1.980501848409204398e-03
1.804375995520427585e-03
1.614766281240445547e-03
1.410886055917797387e-03
1.192119918434468399e-03
9.580353762525570900e-04
7.083924643231051012e-04
4.431512228486804536e-04
1.624768918124205094e-04
-1.332572439890171293e-04
-4.434694242955129957e-04
-7.673714683287555325e-04
-1.103973169286416329e-03
-1.452089189106701593e-03
-1.810348234602023390e-03
-2.177204570584357832e-03
-2.550951726573827232e-03
-2.929738182007397308e-03
-3.311584947172970059e-03
-3.694404812339732030e-03
-4.076023100219170435e-03
-4.454199803529017461e-03
-4.826652605669872614e-03
-5.191080691537017580e-03
-5.545189065543091635e-03
-5.886713155907512610e-03
-6.213443257916426848e-03
-6.523248695945596011e-03
-6.814101294463191169e-03
-7.084098000093020688e-03
-7.331482232904563100e-03
-7.554663819401482953e-03
-7.752237245198106974e-03
-7.922997907043564589e-03
-8.065956278006578689e-03
-8.180349673204865071e-03
-8.265651599066827990e-03
-8.321578459384540438e-03
-8.348093497991419809e-03
-8.345408018962427454e-03
-8.313979748119287860e-03
-8.254508403771169955e-03
-8.167928480831181809e-03
-8.055399378284764170e-03
-7.918292856534624863e-03
-7.758178141921837252e-03
-7.576804726515761097e-03
-7.376083055964642067e-03
-7.158063447388611500e-03
-6.924913409765576927e-03
-6.678893699716028157e-03
-6.422333348507636500e-03
-6.157604062062831986e-03
-5.887094216161297897e-03
-5.613182812862153870e-03
-5.338213766765952453e-03
-5.064470815690930335e-03
-4.794153340445151887e-03
-4.529353519901667575e-03
-4.272034990751309193e-03
-4.024013231827859756e-03
-3.786938114610319608e-03
-3.562278707982578698e-03
-3.351310567178149204e-03
-3.155105637987854449e-03
-2.974524866193977747e-03
-2.810213630672373473e-03
-2.662600110415951765e-03
-2.531896444552004643e-03
-2.418102774354322949e-03
-2.321013994999374802e-03
-2.240229186540886736e-03
-2.175163512129439473e-03
-2.125062448871678587e-03
-2.089018065777025531e-03
-2.065987229465786681e-03
-2.054811280925010388e-03
-2.054237019861703852e-03
-2.062938732218338751e-03
-2.079540840320504968e-03
-2.102640867431843606e-03
-2.130832401867801661e-03
-2.162727691625589404e-03
-2.196979661197636519e-03
-2.232302932461514931e-03
-2.267493502054918671e-03
-2.301446960121353476e-03
-2.333174885564426836e-03
-2.361819180816855657e-03
-2.386664228008145931e-03
-2.407146587915918404e-03
-2.422862275917742666e-03
-2.433571311155209062e-03
-2.439199714197694876e-03
-2.439838799780138113e-03
-2.435741826771975482e-03
-2.427317988833471718e-03
-2.415123997243806553e-03
-2.399853324093085671e-03
-2.382323232966900104e-03
-2.363459874317337759e-03
-2.344281626421805195e-03
-2.325880931186035620e-03
-2.309404913778523478e-03
-2.296035121017264442e-03
-2.286966618575429246e-03
-2.283386770422457263e-03
-2.286454008870660113e-03
-2.297276977949178674e-03
-2.316894279415839322e-03
-2.346255141236991502e-03
-2.386201341521629674e-03
-2.437450596391580078e-03
-2.500581724232997776e-03
-2.576021680560068756e-03
-2.664034798360048230e-03
-2.764714313514824058e-03
-2.877976390761608806e-03
-3.003556565841257204e-03
-3.141008892272098910e-03
-3.289707656411557275e-03
-3.448851652182931965e-03
-3.617471081662425661e-03
-3.794436872886800156e-03
-3.978472360364088654e-03
-4.168167175658574024e-03
-4.361993100293704538e-03
-4.558321766802501430e-03
-4.755443941604185071e-03
-4.951590089690409251e-03
-5.144951944779875032e-03
-5.333704855246677173e-03
-5.516030598406037287e-03
-5.690140345389737425e-03
-5.854297418898412979e-03
-6.006839596425033422e-03
-6.146200684845209289e-03
-6.270930996658458101e-03
-6.379716525263781808e-03
-6.471396488617436361e-03
-6.544979091792539096e-03
-6.599655225638626985e-03
-6.634809924327314534e-03
-6.650031526633545624e-03
-6.645118178173168265e-03
-6.620081843383587676e-03
-6.575149609296241683e-03
-6.510762263564824279e-03
-6.427570250602329324e-03
-6.326426872439393743e-03
-6.208379015899427589e-03
-6.074655377783693203e-03
-5.926652388715301402e-03
-5.765917928042619059e-03
-5.594133113767610181e-03
-5.413092429315982494e-03
-5.224682264330905712e-03
-5.030858337871855525e-03
-4.833622135342714558e-03
-4.634996746396585765e-03
-4.437002316613172966e-03
-4.241631537967951483e-03
-4.050825398167303033e-03
-3.866449541609720715e-03
-3.690271515683664783e-03
-3.523939225807853556e-03
-3.368960857727702502e-03
-3.226686521603722765e-03
-3.098291904807171440e-03
-2.984763978876869405e-03
-2.886889183499112294e-03
-2.805244146813874566e-03
-2.740189007661749786e-03
-2.691863477177372337e-03
-2.660185745354603365e-03
-2.644854174719127923e-03
-2.645351855512616257e-03
-2.660953890145224647e-03
-2.690737374813499151e-03
-2.733593868694121718e-03
-2.788244315666408429e-03
-2.853256158689725184e-03
-2.927062458189425877e-03
-3.007982781877309615e-03
-3.094245554598748244e-03
-3.184011588008203806e-03
-3.275398541291908976e-03
-3.366505865602349018e-03
-3.455440105629095041e-03
-3.540340000401534168e-03
-3.619401200181869300e-03
-3.690900252913738126e-03
-3.753217458942421925e-03
-3.804858374770042195e-03
-3.844473607754471476e-03
-3.870876673080611736e-03
-3.883059663653459347e-03
-3.880206517256883352e-03
-3.861703683220261366e-03
-3.827148048706830070e-03
-3.776351952613949802e-03
-3.709345314267233941e-03
-3.626374840107688628e-03
-3.527900205418215470e-03
-3.414587389119002388e-03
-3.287299148378833129e-03
-3.147082807779131609e-03
-2.995155557412318339e-03
-2.832887424074686470e-03
-2.661782159227892713e-03
-2.483456280598906295e-03
-2.299616657293758470e-03
-2.112036859321632376e-03
-1.922532709346893090e-03
-1.732937260745004947e-03
-1.545075626784007863e-03
-1.360740031767486034e-03
-1.181665442747260875e-03
-1.009506065792280553e-03
-8.458131152361246258e-04
-6.920141609308062434e-04
-5.493943602752569258e-04
-4.190798223823389212e-04
-3.020233290512666538e-04
-1.989926801206955967e-04
-1.105617613322935823e-04
-3.710441056321834002e-05
2.120868511214764134e-05
6.441014680379725601e-05
9.273309179284842268e-05
1.066054108301618550e-04
1.066412111683205660e-04
9.362960829712742555e-05
6.852106957239986014e-05
3.241150717998514879e-05
-1.347564185880033623e-05
-6.780905262213680559e-05
-1.291704903562039227e-04
-1.960768631833496921e-04
-2.670029539382352780e-04
-3.404044417489406928e-04
-4.147409353468203721e-04
-4.884985327973632736e-04
-5.602116646932665941e-04
-6.284838001449958265e-04
-6.920066848521634791e-04
-7.495778195058443389e-04
-8.001159438909228932e-04
-8.426742663225481782e-04
-8.764512315872937092e-04
-9.007986263216065208e-04
-9.152270151022673210e-04
-9.194083538115745786e-04
-9.131757612166577524e-04
-8.965205328383317679e-04
-8.695864765934163080e-04
-8.326615945903910855e-04
-7.861673783042179720e-04
-7.306459408100155406e-04
-6.667451308444659590e-04
-5.952019882108843885e-04
-5.168248235537446604e-04
-4.324743258137141904e-04
-3.430439364640231500e-04
-2.494398739703158310e-04
-1.525612605562475356e-04
-5.328064753563168711e-05
4.757466313689096227e-05
1.492401819957409070e-04
2.510303735294397063e-04
3.523530040726028430e-04
4.527214708584282612e-04
5.517649629251708586e-04
6.492361403726866487e-04
7.450162454459791170e-04
8.391175245794792572e-04
9.316829144772302432e-04
1.022983020473581476e-03
1.113410423999519096e-03
1.203471381824589102e-03
1.293775131923290914e-03
1.385020927117316123e-03
1.477983124113686330e-03
1.573494443752381780e-03
1.672427964227036741e-03
1.775677912416788636e-03
1.884139698640552264e-03
1.998689689065670082e-03
2.120164920342107549e-03
2.249343230314310594e-03
2.386924128792779730e-03
2.533510837953689612e-03
2.689593880545418370e-03
2.855536363587935465e-03
3.031561334827619948e-03
3.217741579262250236e-03
3.413991905046335953e-03
3.620064173432271243e-03
3.835545187139425150e-03
4.059857424575276895e-03
4.292262774222065612e-03
4.531869076833592441e-03
4.777639508224387245e-03
5.028404675781714649e-03
5.282877097072561853e-03
5.539667938022615166e-03
5.797305733600074777e-03
6.054256702590935998e-03
6.308946436472547513e-03
6.559782451790925964e-03
6.805177352532121478e-03
7.043572164275136577e-03
7.273459419895079124e-03
7.493405535751901901e-03
7.702072197617043300e-03
7.898236360921916804e-03
8.080808475186999212e-03
8.248848598696702922e-03
8.401580263877573077e-03
8.538401521088987214e-03
8.658893274650242625e-03
8.762825120911013968e-03
8.850157712887067943e-03
8.921042002742936641e-03
8.975815422938881669e-03
9.014995143860273993e-03
9.039268370394822061e-03
9.049479929352248833e-03
9.046617293388336048e-03
9.031793340943733081e-03
9.006227159927309572e-03
8.971223139220912968e-03
8.928148801718526970e-03
8.878411668477062882e-03
8.823435610444685384e-03
8.764637079422654686e-03
8.703401553269795796e-03
8.641060662578227414e-03
8.578870315166051835e-03
8.517990217800875882e-03
8.459465075316927388e-03
8.404207840914943925e-03
8.352985252755467868e-03
8.306405796636572025e-03
8.264910380888597016e-03
8.228765800923170531e-03
8.198061080736384135e-03
8.172706691275193405e-03
8.152436668834726202e-03
8.136813509628679220e-03
8.125235858752376250e-03
8.116948576284720163e-03
8.111055225525017759e-03
8.106532552685050130e-03
8.102246892267940537e-03
8.096971966192283848e-03
8.089407925025254159e-03
8.078201148079940802e-03
8.061964640033102494e-03
8.039298458316728596e-03
8.008810014561528953e-03
7.969133824659451609e-03
7.918950355218461537e-03
7.857003762094394092e-03
7.782118266290622560e-03
7.693212795751882410e-03
7.589313700815821483e-03
7.469565464259901415e-03
7.333239207538031976e-03
7.179738981824479102e-03
7.008605702476117423e-03
6.819518802892316107e-03
6.612295611976167463e-03
6.386888497995425566e-03
6.143379963769903321e-03
5.881975800143764838e-03
5.602996478048423608e-03
5.306866936409764327e-03
4.994105090759309341e-03
4.665309257738752512e-03
4.321144758823244544e-03
3.962329984757525202e-03
3.589622160217684384e-03
3.203803021943077423e-03
2.805664782777351866e-03
2.395996601584507966e-03
1.975571709185800981e-03
1.545135512157378137e-03
1.105394733095872413e-03
6.570078776421009546e-04
2.005771299352661471e-04
-2.633582627326962167e-04
-7.343270600930856774e-04
-1.211929330115462788e-03
-1.695838163490826205e-03
-2.185799707777525379e-03
-2.681631570214045544e-03
-3.183219742571134943e-03
-3.690513948356587571e-03
-4.203521631822274181e-03
-4.722300739473708417e-03
-5.246951298255511133e-03
-5.777606128192873218e-03
-6.314420670880982120e-03
-6.857562188307262351e-03
-7.407198445281221871e-03
-7.963486081503988109e-03
-8.526558850694246003e-03
-9.096515801943746982e-03
-9.673409639095027768e-03
-1.025723530723484517e-02
-1.084791903337428177e-02
-1.144530786059210284e-02
-1.204915984541129331e-02
-1.265913496657586519e-02
-1.327478693396504962e-02
-1.389555588486367579e-02
-1.452076199234422250e-02
-1.514960016758945885e-02
-1.578113589972833866e-02
-1.641430221809450293e-02
-1.704789783832123123e-02
-1.768058655647495800e-02
-1.831089793510194338e-02
-1.893722924380245032e-02
-1.955784885362967657e-02
-2.017090092808970433e-02
-2.077441151652550250e-02
-2.136629609627315601e-02
-2.194436858496716727e-02
-2.250635184785467618e-02
-2.304988962605018440e-02
-2.357255995975415797e-02
-2.407189011239576834e-02
-2.454537295880875047e-02
-2.499048479366823908e-02
-2.540470451587252890e-02
-2.578553406588190294e-02
-2.613052008690799552e-02
-2.643727670399603422e-02
-2.670350918021149877e-02
-2.692703839669289764e-02
-2.710582586525490598e-02
-2.723799908050392182e-02
-2.732187690640214620e-02
-2.735599480289669511e-02
-2.733912957601208199e-02
-2.727032326039287996e-02
-2.714890578414707809e-02
-2.697451610120056922e-02
-2.674712138925830138e-02
-2.646703396641450837e-02
-2.613492549220363531e-02
-2.575183809642996036e-02
-2.531919212678625242e-02
-2.483879019965337318e-02
-2.431281719775437236e-02
-2.374383593837228398e-02
-2.313477838262486055e-02
-2.248893216305869816e-02
-2.180992236757836600e-02
-2.110168848314019838e-02
-2.036845658917485827e-02
-1.961470693130762388e-02
-1.884513697735986509e-02
-1.806462027417495356e-02
-1.727816153909145919e-02
-1.649084819210358197e-02
-1.570779905913189181e-02
-1.493411072208511957e-02
-1.417480208925838737e-02
-1.343475807065537715e-02
-1.271867292037360923e-02
-1.203099413499907067e-02
-1.137586765803708794e-02
-1.075708530972877691e-02
-1.017803524778914878e-02
-9.641656210416326908e-03
-9.150396416377637107e-03
-8.706177880294305171e-03
-8.310366768270020105e-03
-7.963750546090950580e-03
-7.666522327165197111e-03
-7.418272994616807378e-03
-7.217991295691970899e-03
-7.064072281481545770e-03
-6.954334099790179975e-03
-6.886043132920250005e-03
-6.855947359156542437e-03
-6.860317480464701335e-03
-6.894995555081048083e-03
-6.955450388195833292e-03
-7.036839066365630467e-03
-7.134073868579240106e-03
-7.241893442629404598e-03
-7.354937315142586265e-03
-7.467822601436817712e-03
-7.575221745445516117e-03
-7.671940070883401935e-03
-7.752991850719204159e-03
-7.813673675047637726e-03
-7.849633842480420454e-03
-7.856936630737871782e-03
-7.832120273081742690e-03
-7.772247593254303678e-03
-7.674948375431565190e-03
-7.538452677346862800e-03
-7.361614254571069785e-03
-7.143923848116836249e-03
-6.885511697500828338e-03
-6.587139295779268801e-03
-6.250180415722366399e-03
-5.876591451612355604e-03
-5.468871660129210124e-03
-5.030013786191114659e-03
-4.563445906621057049e-03
-4.072965409430842967e-03
-3.562666223727152179e-03
-3.036860544507219862e-03
-2.499996368943541072e-03
-1.956572419678062006e-03
-1.411051854005786199e-03
-8.677764625309976679e-04
-3.308828676168993396e-04
1.957776906860476951e-04
7.087143076979468114e-04
1.204864822665665776e-03
1.681656245616805229e-03
2.137055884988639347e-03
2.569612162801162940e-03
2.978484199131637821e-03
3.363459430141656301e-03
3.724958870687349911e-03
4.064029591517900018e-03
4.382324511410327222e-03
4.682069672848482300e-03
4.966019572498731049e-03
5.237401074669099932e-03
5.499846957473838137e-03
5.757320302402451836e-03
6.014030923500579898e-03
6.274345527412889152e-03
6.542693258724686239e-03
6.823468331814728539e-03
7.120931808557214721e-03
7.439114351537662838e-03
7.781721984388467565e-03
8.152046838675198331e-03
8.552884705077703001e-03
8.986461246548583040e-03
9.454368602206997263e-03
9.957513636870496745e-03
1.049607940638244002e-02
1.106950071217419063e-02
1.167645465479760954e-02
1.231486666778928464e-02
1.298193223314091094e-02
1.367415426115106344e-02
1.438739573826215180e-02
1.511694689562338018e-02
1.585760587929390189e-02
1.660377171726985790e-02
1.734954796287784332e-02
1.808885518032929754e-02
1.881555027721720785e-02
1.952355040685406495e-02
2.020695905300284520e-02
2.086019198264143018e-02
2.147810033780104058e-02
2.205608844801922042e-02
2.259022384303946418e-02
2.307733701970665977e-02
2.351510879764627179e-02
2.390214310174700388e-02
2.423802333248660512e-02
2.452335076494943991e-02
2.475976375799529214e-02
2.494993682077849967e-02
2.509755900608132834e-02
2.520729151788653893e-02
2.528470472584824422e-02
2.533619534621291136e-02
2.536888481225119119e-02
2.539050035691200330e-02
2.540924068278975143e-02
2.543362839401712774e-02
2.547235187285470243e-02
2.553409931601184624e-02
2.562738810528028890e-02
2.576039269774208981e-02
2.594077456202810786e-02
2.617551755661947158e-02
2.647077227622695456e-02
2.683171273444846447e-02
2.726240877098709547e-02
2.776571729086232607e-02
2.834319513279947439e-02
2.899503614307050170e-02
2.972003461675482711e-02
3.051557693591115325e-02
3.137766257069041220e-02
3.230095524597985379e-02
3.327886455769172441e-02
3.430365764297568093e-02
3.536660009455978859e-02
3.645812456654758810e-02
3.756802505848140517e-02
3.868567438994914565e-02
3.980026164492923152e-02
4.090104608845860495e-02
4.197762357922067700e-02
4.302020112403873164e-02
4.401987487461581083e-02
4.496890664036428537e-02
4.586099392424429488e-02
4.669152830173122631e-02
4.745783709694433028e-02
4.815940329200905229e-02
4.879805878490485471e-02
4.937814657970279741e-02
4.990664766249511275e-02
5.039326876069143146e-02
5.085048797873223392e-02
5.129355534569679520e-02
5.174044645348638283e-02
5.221176787448195827e-02
5.273061379016041883e-02
5.332237389711611680e-02
5.401449375830287558e-02
5.483618908595700586e-02
5.581811666839030933e-02
5.699200506730044830e-02
5.839024916974017154e-02
6.004547318187378191e-02
6.199006728176850028e-02
6.425570376001198125e-02
6.687283889741872656e-02
6.987020722917378079e-02
7.327431510066580167e-02
7.710894054519541740e-02
8.139464671038598720e-02
8.614831589977460513e-02
9.138271128007241506e-02
9.710607291635385552e-02
1.033217545958050598e-01
1.100279072322636054e-01
1.172172143995805355e-01
1.248766846068167374e-01
1.329875043706984228e-01
1.415249552835473323e-01
1.504583975709279653e-01
1.597513215998307423e-01
1.693614679239556775e-01
1.792410156316042169e-01
1.893368376773586770e-01
1.995908211584192793e-01
2.099402493184481522e-01
2.203182415167997121e-01
2.306542464629285638e-01
2.408745833030736805e-01
2.509030245526551739e-01
2.606614140365082211e-01
2.700703130979243416e-01
2.790496673305248865e-01
2.875194863205903228e-01
2.954005284904571704e-01
3.026149830816411423e-01
3.090871416157719431e-01
3.147440512330876294e-01
3.195161424946793560e-01
3.233378248277272715e-01
3.261480432767395188e-01
3.278907907200208638e-01
3.285155703824632623e-01
3.279778042868412569e-01
3.262391839062298571e-01
3.232679604050537892e-01
3.190391723096347998e-01
3.135348096182935529e-01
3.067439140786976659e-01
2.986626162557647346e-01
2.892941107750107710e-01
2.786485719406650019e-01
2.667430126444358951e-01
2.536010901807447815e-01
2.392528630891326280e-01
2.237345036003971221e-01
2.070879709160052540e-01
1.893606506247184074e-01
1.706049657907403594e-01
1.508779656611370368e-01
1.302408975266488855e-01
1.087587676231653588e-01
8.649989644455985394e-02
6.353547392887920475e-02
3.993911934758129917e-02
1.578645051684259004e-02
-8.845333695420686676e-03
-3.387785385127471682e-02
-5.923193048989769394e-02
-8.482794233440806020e-02
-1.105861602788491549e-01
-1.364270561121592173e-01
-1.622715853406422326e-01
-1.880414441157495231e-01
-2.136593008641931579e-01
-2.390490037270351920e-01
-2.641357654440095182e-01
-2.888463276626325738e-01
-3.131091069140337080e-01
-3.368543250361213937e-01
-3.600141267966028846e-01
-3.825226876149153687e-01
-4.043163144364314565e-01
-4.253335426424654786e-01
-4.455152318813969670e-01
-4.648046634340293748e-01
-4.831476414821065379e-01
-5.004926002296110621e-01
-5.167907186992825030e-01
-5.319960442409585877e-01
-5.460656256597584690e-01
-5.589596561677202535e-01
-5.706416258169549893e-01
-5.810784827559324350e-01
-5.902408019553602170e-01
-5.981029596927535108e-01
-6.046433115090709132e-01
-6.098443709420521275e-01
-6.136929860864037689e-01
-6.161805105882227629e-01
-6.173029655149611106e-01
-6.170611882243888235e-01
-6.154609644158307580e-01
-6.125131394036531507e-01
-6.082337048898286413e-01
-6.026438574861264774e-01
-5.957700254260435146e-01
-5.876438604457563386e-01
-5.783021919150602708e-01
-5.677869410387655913e-01
-5.561449931383104506e-01
-5.434280269285938214e-01
-5.296923000897378886e-01
-5.149983909855486708e-01
-4.994108974689467351e-01
-4.829980938861727080e-01
-4.658315483541148327e-01
-4.479857030275963270e-01
-4.295374206428977382e-01
-4.105655013038300161e-01
-3.911501738702171660e-01
-3.713725669100848004e-01
-3.513141646920778238e-01
-3.310562539087865686e-01
-3.106793670719410483e-01
-2.902627287744566353e-01
-2.698837111307172409e-01
-2.496173045418750847e-01
-2.295356100655596421e-01
-2.097073591587003683e-01
-1.901974666100237910e-01
-1.710666218302457908e-01
-1.523709233419539566e-01
-1.341615607119585607e-01
-1.164845476193315243e-01
-9.938050896651121069e-02
-8.288452439507880409e-02
-6.702602974239141309e-02
-5.182877710146661238e-02
-3.731085353840157826e-02
-2.348475753069520153e-02
-1.035753159317337642e-02
2.069051194654030878e-03
1.379824990965168932e-02
2.483807150890266630e-02
3.520094381634942399e-02
4.490335064756769551e-02
5.396543448369438278e-02
6.241057233288246214e-02
7.026493081660506457e-02
7.755700669454043683e-02
8.431715912534933077e-02
9.057714003357836274e-02
9.636962875702237419e-02
1.017277770577615370e-01
1.066847702515926893e-01
1.112734099474049915e-01
1.155257233581953452e-01
1.194726037651295397e-01
1.231434859514468627e-01
1.265660600187816509e-01
1.297660263189916452e-01
1.327668934388099575e-01
1.355898205505182974e-01
1.382535047723715549e-01
1.407741133933881339e-01
1.431652601892852428e-01
1.454380244649097764e-01
1.476010106281249179e-01
1.496604458634617496e-01
1.516203125034994714e-01
1.534825117035384656e-01
1.552470543840573092e-01
1.569122750637586550e-01
1.584750641734606613e-01
1.599311140581087809e-01
1.612751739573656529e-01
1.625013092140356052e-01
1.636031600068109659e-01
1.645741951583764850e-01
1.654079566855835293e-01
1.660982911622404246e-01
1.666395642678847600e-01
1.670268553120429211e-01
1.672561290015318891e-01
1.673243821007298626e-01
1.672297633002031991e-01
1.669716650809804082e-01
1.665507868085505661e-01
1.659691689182617447e-01
1.652301985544593343e-01
1.643385875901689497e-01
1.633003242474307393e-01
1.621226000980608151e-01
1.608137146447107257e-01
1.593829599232183536e-01
1.578404878467641881e-01
1.561971634389340557e-01
1.544644070414853410e-01
1.526540287612163371e-01
1.507780584998436035e-01
1.488485748795297381e-01
1.468775362902275394e-01
1.448766171275232828e-01
1.428570521285729422e-01
1.408294915260507318e-01
1.388038694194451417e-01
1.367892873759617989e-01
1.347939150910907324e-01
1.328249094436888544e-01
1.308883528976713395e-01
1.289892119438014739e-01
1.271313157008290562e-01
1.253173545820222001e-01
1.235488985315287280e-01
1.218264338151481552e-01
1.201494172059539151e-01
1.185163461303406773e-01
1.169248429509038290e-01
1.153717514709344388e-01
1.138532433600383253e-01
1.123649324136942740e-01
1.109019942152554838e-01
1.094592887417270566e-01
1.080314836301185938e-01
1.066131757845707739e-01
1.051990089883475393e-01
1.037837855443234925e-01
1.023625700447396147e-01
1.009307834420851563e-01
9.948428605030178173e-02
9.801944825769859371e-02
9.653320803837291131e-02
9.502311451342482229e-02
9.348735725715073830e-02
9.192478132333037344e-02
9.033488807719748659e-02
8.871782239614936505e-02
8.707434694720149471e-02
8.540580450216044006e-02
8.371406952354133735e-02
8.200149029820098801e-02
8.027082308355074081e-02
7.852516004981240083e-02
7.676785258505486320e-02
7.500243177448760734e-02
7.323252776782586404e-02
7.146178982731386797e-02
6.969380866824767540e-02
6.793204274098813000e-02
6.617974985605906690e-02
6.443992545129738347e-02
6.271524872925368643e-02
6.100803755730614675e-02
5.932021283260806299e-02
5.765327303710587187e-02
5.600827907360885621e-02
5.438584957182616975e-02
5.278616657656360484e-02
5.120899122263988107e-02
4.965368887814317067e-02
4.811926299715222483e-02
4.660439673506046321e-02
4.510750146819386686e-02
4.362677092716232136e-02
4.216023962535678238e-02
4.070584431757459654e-02
3.926148711752293352e-02
3.782509890380452572e-02
3.639470158039646852e-02
3.496846789119212318e-02
3.354477758126066245e-02
3.212226862186026710e-02
3.069988251619954964e-02
2.927690278203128396e-02
2.785298577853545857e-02
2.642818338398686753e-02
2.500295701673996632e-02
2.357818270247194828e-02
2.215514725142054761e-02
2.073553559478208755e-02
1.932140951959036151e-02
1.791517832269928778e-02
1.651956206158568946e-02
1.513754808854544769e-02
1.377234169891603834e-02
1.242731204056377048e-02
1.110593429821698369e-02
9.811729244016229035e-03
8.548201437848618536e-03
7.318777232987417822e-03
6.126743854607810333e-03
4.975190561433395428e-03
3.866953190977822329e-03
2.804563080977832881e-03
1.790201288411411885e-03
8.256589815285028449e-04
-8.769531890397759977e-05
-9.489409424387842441e-04
-1.757622417269704166e-03
-2.513758590937129143e-03
-3.217843390384363903e-03
-3.870838320241510103e-03
-4.474156794329159706e-03
-5.029640681356951915e-03
-5.539529537806418824e-03
-6.006423075099601334e-03
-6.433237673285521589e-03
-6.823157674426188340e-03
-7.179582434931677803e-03
-7.506070050217881172e-03
-7.806278855199320042e-03
-8.083907700881062808e-03
-8.342636062195409041e-03
-8.586065070240614036e-03
-8.817660517743930795e-03
-9.040698757963578844e-03
-9.258216409045465570e-03
-9.472964773408419289e-03
-9.687369588628336539e-03
