7.559222145325356610e-05
-7.900380957799412298e-05
-3.854665999109441622e-04
5.291932336079709261e-04
7.073738765021371109e-05
-3.876944242923667083e-04
-8.319465391997272596e-05
6.880828983349933240e-05
-8.405346826908987527e-05
2.214693768668994124e-04
-8.238440044256314465e-05
2.254368061593731176e-04
-3.806478467952547013e-04
3.883921010846388597e-04
-2.139246872991056698e-04
-5.139485895069279524e-05
-3.970936543640296243e-05
2.785937607005254052e-04
-1.650340673479542999e-04
2.149935036992992804e-06
1.657173426881912182e-05
1.827256720120395853e-04
-4.155958024803589590e-04
3.572125771759107789e-04
2.118185815471707815e-04
-2.417733699238773417e-04
-8.816750292955153180e-05
-2.427748799179313681e-04
5.771108534046606145e-05
-1.016541550017028786e-04
-1.097932735573510038e-04
3.392393454712017446e-04
-1.271393238960190992e-04
6.278570246640235390e-04
1.058321413008040880e-05
-4.529488434667015406e-04
-1.524389584760734589e-04
-3.595645350774472194e-06
1.459157889600838295e-04
1.432319083589166878e-04
-1.190464883727453221e-05
-1.671113406376043388e-04
-4.751029925277000347e-04
7.425537411681077532e-04
-2.360051653064942361e-05
-1.794212476041717600e-04
-1.824455656823233227e-04
-3.238816875306117592e-05
-3.410801752068849912e-05
4.230565162670568789e-04
-1.865137803800394735e-04
-3.159477484761966326e-05
-3.328402598130340883e-04
5.881275416918422356e-04
-1.680947284324865374e-04
-1.604701134690289456e-04
1.527581325611236619e-04
1.606903499529345589e-04
-2.898238359806540386e-04
3.265785825816230827e-04
-2.793295772989764537e-04
2.843099942689757161e-05
-4.286693919972003365e-04
3.331398740339330485e-04
2.533263870384050214e-05
-1.309811552222959390e-04
3.224241561147872504e-04
1.653066057088991539e-04
-2.967413257650689971e-04
-3.004374386271398416e-04
3.070545890089436880e-04
-7.815408027012792432e-09
-4.586778872583866613e-04
6.093781788381959262e-04
1.521323102166369917e-04
2.580157446451379295e-07
-1.518586779191328530e-04
-3.046376266513634674e-04
-6.361172583024747911e-07
3.022275989401581762e-04
-1.589313823075866436e-04
1.420440808231264820e-04
-6.254126132956317223e-04
4.385232102796725426e-04
-1.749207940719998175e-04
-2.359005473910996936e-05
2.828065922355053495e-04
-1.823040808743452810e-05
-1.101008918839884664e-05
1.517290864931252945e-04
1.176155401482787944e-05
1.787079213712247671e-04
-5.690608305125505802e-04
3.614218357721513640e-04
-2.352218379499747378e-04
-7.112126624702727238e-05
2.425820799404240747e-04
9.496212758824830577e-05
-2.091209639323408248e-04
9.324608995289137582e-05
-6.577342141830310807e-05
7.733784450169415583e-05
-5.446892715999824153e-04
5.106058031356501287e-04
4.005270456461916019e-05
-4.292810012705133155e-04
1.921616666560140146e-05
1.657040064762602268e-04
3.158978115882837617e-04
1.217942854555873122e-05
1.698057336147214388e-04
1.777739486132257248e-04
-7.277999652027218949e-04
3.511377464487252685e-04
-9.608964291437722049e-05
-2.394994751354590314e-04
2.251944758335982849e-04
-7.593446161147148149e-05
2.300670295621535925e-04
-7.752449474389365154e-05
-8.288839224321320736e-05
-2.432108640770274288e-04
-5.576906602016127885e-04
8.056585849332525539e-04
3.308402002552595289e-05
-1.279964663993844037e-04
3.230442403930908288e-04
-1.393160202745954035e-04
1.087031450695870559e-05
1.046598090455423442e-05
-1.409427251189182182e-04
1.664330160414315130e-04
-4.413385534392925448e-04
3.239079043862174052e-04
-1.324320590002957872e-04
2.017253099650923343e-05
3.235574324644436292e-04
1.453984475047413688e-05
-1.439935412822657558e-04
-1.518772073091898304e-04
-1.613051480339230254e-04
-1.716765766794899420e-04
-1.822450289723700362e-04
5.707240481661408817e-04
-4.827174973970037590e-05
-5.503755956990462176e-05
2.455502261192313903e-04
2.431572476289692536e-04
-6.245767721160819046e-05
-6.137140478423695105e-05
-3.644495487495503366e-04
-5.665768547540736230e-05
-3.590845706572852263e-04
5.590951920063486590e-04
1.038246627806095433e-04
-3.515199750297482448e-04
2.613755945942957261e-04
-1.934474157956862588e-04
-3.722368469432320369e-05
-3.261579427351607029e-05
2.783480736765207614e-04
1.328295756821067466e-04
-3.166107075050962226e-04
4.557504803230132346e-04
-2.969336396826377901e-04
-4.387765534531482621e-04
3.350036869304904132e-04
-1.122470636976074756e-04
2.026696600923569888e-04
-9.399640869901278303e-05
2.179940441587426892e-04
7.007980312473098962e-05
-5.381322340615675220e-04
3.767032599751320675e-04
6.784622337813331968e-05
-9.139365563784098551e-05
-1.007932987594604578e-04
4.008867822505664838e-05
-1.258571393955723399e-04
1.255835752760045710e-05
1.511251674521382835e-04
-1.669042083345467710e-04
-4.827947186294792603e-04
5.775662920697576539e-04
1.155777073975362541e-04
-3.747397932879375821e-05
1.182592820545783633e-04
-2.810709129480888150e-05
-1.966993377004188728e-05
1.424800668527557036e-04
1.519750671821904690e-04
-1.449217577377029907e-04
-7.491759837756754338e-04
4.747734934094313165e-04
-2.880783570468420048e-04
1.666771734412025386e-04
8.377364586921087880e-06
6.040802986577145877e-07
-8.436296897837132917e-06
1.346869765498828601e-04
1.255945916856850706e-04
-3.503999098446687805e-05
-4.993068654122456967e-04
5.641430815592637059e-04
2.562272306930384958e-04
-3.550389251382756774e-04
-2.017844967888006804e-04
2.578953909274711229e-04
-1.970603458284723997e-04
1.114840781958209310e-04
1.151505175228913018e-04
-3.364123565251051780e-05
-6.401305036741276183e-04
4.319433254654013823e-04
-2.167449699307230629e-05
-1.723873696533368519e-05
2.927250294056546421e-04
-7.328309140738152273e-06
-1.545739492307718647e-04
1.559613640233279536e-04
8.490333175951292124e-06
1.309013711351597572e-05
-5.934229353614913025e-04
4.775900886156064567e-04
-1.309025749490770781e-04
-1.301037265833429276e-04
1.748468327229561682e-04
2.107539251742572185e-05
1.900283644870734754e-05
1.686846058281611291e-04
1.239438372208560232e-05
7.923554180329938872e-06
-7.602227362752944900e-04
4.545845693006729657e-04
-9.705503736490672290e-06
1.357802074156390848e-04
1.281375451562960109e-04
-3.262130153144624011e-05
1.112726018573205201e-04
-2.030873719796284576e-04
9.251823145762906142e-05
-6.981007637285024784e-05
-5.371340394582352741e-04
5.220820142665529929e-04
-2.485183503262511709e-04
5.084856642566191998e-05
2.000576552591852217e-04
4.699265075480088972e-05
4.972609972048925604e-05
-9.680626426454000052e-05
6.506133501456500500e-05
-2.279124108575502207e-04
-3.658662696804294194e-04
5.660687727699353650e-04
2.782752239031941366e-04
-1.620291833123897935e-04
7.164963605866203862e-06
2.204338280566667753e-05
-2.707051941756699457e-04
4.395967175486840961e-05
-1.022725096620778263e-04
-9.894128438302842452e-05
-5.560201529154649644e-04
8.158786103288213605e-04
5.012489422415628048e-05
-2.586560912422769835e-04
3.478172068957329074e-04
3.884225188231394820e-05
-1.172901056551078826e-04
3.203413532404446952e-05
2.898236400901401999e-05
2.604570182193525913e-05
-7.397760759221674648e-04
6.307079068466430165e-04
-1.348424814740742947e-04
-1.370471102683956557e-04
1.665973931966024382e-04
-1.391580969116743894e-04
1.666286266105489753e-04
1.599521291754926861e-05
1.932337602334939462e-05
2.391184130707501614e-05
-4.282632239543096488e-04
6.460473118260097458e-04
4.200019915343686954e-05
-2.573192262475400109e-04
-2.524716249677230154e-04
2.086255176599286377e-04
-2.477201096331934130e-04
5.669206434272191109e-05
3.588048760249783631e-04
4.829971929347633640e-05
-4.168783876729309501e-04
3.368866719982693673e-04
-2.839417300622069885e-04
-1.425683626248460659e-04
1.512836330437170235e-04
-1.210624708395458499e-05
-2.182393728140662282e-05
-3.003280940026623183e-05
2.686754337474424889e-04
2.639639715502767325e-04
-5.021217782459392763e-04
7.166567632318355651e-04
-1.999812897890881880e-04
-2.006420595691595630e-04
-3.536550051331237721e-04
-2.012449050830604730e-04
-4.832784888081947841e-05
1.055624374806031387e-04
2.610020494851468618e-04
1.133729140289937260e-04
-3.369165744780876432e-04
4.361620835681715097e-04
-1.615667106251235017e-04
3.107647229418660341e-04
-2.839458203737671481e-04
3.419870416947457773e-04
-1.015380996581339884e-04
-3.951154250097725206e-04
2.230250513400183505e-04
2.260923439579728923e-04
-6.916425304664955073e-04
2.162708865989529871e-04
5.097075444033921621e-05
3.388135804859839574e-05
1.348550273922166066e-05
-8.884717973433595012e-06
1.208514508078647917e-04
-2.061077944483718854e-04
2.324467550073005249e-04
2.171817815584342832e-04
-7.085146697440427091e-04
2.028025270275282546e-04
2.050661848209557451e-04
6.133676736941372307e-05
7.649469227032517401e-05
9.725134893254185813e-05
-3.003774740446966791e-05
-1.541132790990164063e-04
1.812946077112517936e-04
-9.347435152559459607e-05
-6.747353025040749410e-04
4.198006710867396851e-04
1.372134892888466511e-04
2.439611334292120634e-06
1.673587152845953810e-04
-1.314302360390534900e-04
2.140060245169772245e-05
1.557793862549814367e-05
-1.485337046231342091e-04
1.400609386596189828e-04
-6.436236203224096099e-04
5.532584425704490869e-04
-8.278536895867111148e-05
1.960584327325849664e-04
-1.349183318519651628e-04
-6.562366051325676374e-06
1.242183280335739054e-04
-4.710461014208586390e-05
2.428447571550826714e-04
-2.263932350651354599e-04
-3.866201460563509955e-04
6.776532668847392010e-04
-8.545357584062833749e-05
-3.873013860682123898e-04
-3.806988793282246614e-04
8.667337293861369484e-05
2.515315634371810679e-04
4.185916135525026994e-04
4.346621940184935929e-04
-4.639378752863054984e-04
-5.995771437699551516e-04
4.846495870857091227e-04
-1.112352446340359033e-04
5.347888032463231508e-05
-2.424520698020775724e-04
6.872661082611648603e-05
2.239057908966838022e-04
-8.206983902214943540e-05
2.191192507862936827e-04
-9.285002597734801967e-05
-5.596694385839183668e-04
4.978161738199364094e-04
-1.239434002650453403e-04
-1.352810670653339258e-04
6.875216828779542526e-06
-1.898235094877178348e-06
4.493532712116455274e-04
-1.225635866909313803e-05
-1.658416115458928239e-04
-1.640287352338182540e-04
-3.122327886073941912e-04
4.572477860263833940e-04
7.621858805118929558e-06
1.667984678724622268e-05
2.590775897540232656e-05
-1.180513893319563889e-04
1.944308517190873142e-04
-2.579596453727432985e-04
5.021517640969137223e-05
5.061056336432248246e-05
-4.093619847257654607e-04
5.015712551232375579e-04
-2.679437356961368024e-04
-1.233793616678009449e-04
2.033289191993733236e-05
3.163694875243547007e-04
1.548998623900349079e-04
-5.897297059134307111e-06
1.394536931067495331e-04
-4.769608620558040335e-04
-3.291304798216548085e-04
4.304406640929455438e-04
-2.926200087481418665e-05
-1.823758933640373431e-04
1.235943090631611138e-04
2.781140085720884472e-04
1.283238138870950731e-04
-1.735234740763687636e-04
1.351599336507875533e-04
-3.192265296499180905e-04
-6.213699623771622074e-04
6.019320912437235238e-04
2.989608532525327806e-04
-1.568467403561619924e-04
-2.327780604904523109e-06
-1.527373820625490901e-04
2.568274872549462596e-06
-1.464844537818610207e-04
1.632641645680223369e-04
1.639976195470988469e-05
-4.345322794604414480e-04
6.412889737001719812e-04
1.916698278496231872e-04
1.996407534344628830e-04
-4.036337195050786479e-04
-2.455890949886729022e-04
6.280336495593889790e-05
-8.922291663567860924e-05
3.663007554961371804e-04
-5.541240408225276727e-04
-4.086757445920820016e-04
9.558624523589875389e-04
-2.744500308625547297e-04
-1.315404881446912582e-04
1.646176442566283922e-04
3.094535865820540409e-04
-1.543544958218926507e-04
-1.584222567234446627e-04
1.447725453879461380e-04
-1.603203325514819945e-04
-4.634794963862841669e-04
4.557776982864975100e-04
1.557410947123085646e-04
-1.432698202226666826e-04
1.605661272804247123e-05
1.754632468390737005e-04
1.818711517575569950e-04
-1.177396912223658361e-04
-2.659198615171738840e-04
-2.628204569877492722e-04
-4.135919548861053991e-04
5.026405694273214288e-04
1.973090118324291381e-04
4.394874423375811029e-05
4.272642610023461539e-05
1.936946170949317735e-04
1.916245954934311436e-04
-2.687679992191031268e-04
-1.194560655920631287e-04
-1.233679427370329017e-04
-5.855134342415933835e-04
4.780839956504639001e-04
1.687218249790689583e-04
-1.397798643282804475e-04
-1.417440641334055261e-04
1.632146628701440960e-04
3.175308633390476086e-04
1.599686996624503625e-05
2.128450112606121184e-05
-1.248407946410097090e-04
-5.755799155865782332e-04
4.994406321961274544e-04
4.778725915840088389e-05
2.050889059297498899e-04
-9.723121496062154612e-05
-2.490815326286284406e-04
-9.788444658893037339e-05
-1.011439723791658245e-04
4.682634935039263761e-05
1.941404631753551743e-04
-5.739285747480996156e-04
6.425773498337554674e-04
2.962542081949573065e-05
-1.235195097016143512e-04
3.072164017674297576e-05
1.870401532711409216e-04
3.984916439153797063e-05
-1.063053503971158698e-04
2.055797812023022332e-04
-2.459873028308760725e-04
-6.987854864542588718e-04
5.250807732655549207e-04
2.208852612113203250e-04
-8.567107561579190777e-05
-8.939764300204705875e-05
-9.528432043403315321e-05
4.958372743491963586e-05
4.046067048277451406e-05
1.830114964824620623e-04
-2.851993241217996898e-04
-1.429904769991113909e-04
6.100574707473441043e-04
-3.145354958908502026e-04
-1.734989104496400207e-05
1.284930259613872871e-04
1.231064034005247053e-04
-1.860098696690136433e-04
-1.884110206574465742e-04
1.160217869982421073e-04
-1.880942906066188254e-04
-1.850866835222157660e-04
2.777312978365266828e-04
1.322380524782803917e-04
-1.138019920791361068e-05
1.516966746203087999e-04
1.631625881271359753e-04
-2.828456619112614716e-04
1.862044329649292166e-04
4.369710076613700340e-05
-4.058129934008872361e-04
-9.463868117172994027e-05
-9.108521706800601185e-05
3.678394817081129730e-04
-9.089316949546075619e-05
-9.357835788246158506e-05
5.510317911440184918e-05
5.048104844118569403e-05
4.559520895991974745e-05
1.933827480302484738e-04
-1.162919009296599240e-04
-2.730044983694055079e-04
2.835636996198881343e-05
3.298427868873075961e-04
-1.317632748467070444e-04
1.649168605524608587e-05
1.131846154810059701e-05
4.998677151754067600e-06
1.499162970355789057e-04
-1.643276648102066960e-04
-2.205662698022581127e-05
-3.384367881229184997e-04
-4.479984643065057482e-05
9.659967691281383471e-05
8.648384111308623622e-05
-7.450129707333886663e-05
2.244571427162230719e-04
2.206150418179166300e-04
2.190422943048346473e-04
-8.582343924823783400e-05
-8.422453653807439821e-05
-2.346171404671619433e-04
-3.850866435598832602e-04
2.267521966043801421e-04
7.465043047111388557e-05
7.397717714841396631e-05
-8.039125929177158981e-05
2.221395412901751125e-04
-8.614193132274995885e-05
-2.417694658045911019e-04
6.103515858743050143e-05
-9.263683500865130607e-05
-9.187052207410549044e-05
2.163537107180218359e-04
2.219157762808231162e-04
7.738992521278044044e-05
8.768515406209633043e-05
-2.054492360593850834e-04
1.128730119917801698e-04
-3.313514824986920617e-04
-1.294765655897106133e-05
-1.532533400573946286e-04
1.013867868588331951e-05
4.768069642405645386e-04
-1.268555617060004967e-04
-1.225979230110154435e-04
1.842931845870461203e-04
3.088825749713339735e-05
2.769230873094294596e-05
-1.301523020696136496e-04
-2.895662009099729561e-04
-1.447253227779612408e-04
-5.125993206300790426e-08
2.978195896375141643e-04
-1.335929154332478088e-05
-1.755251629647482540e-05
2.854855377073277009e-04
-1.982589402916982548e-05
1.342881360568559798e-04
-1.567910240823471092e-05
-1.266104597781763732e-05
-3.151325800084653871e-04
-3.133566613206601121e-04
1.448206433185513561e-04
2.962504633049692230e-04
-1.642234880113355687e-04
-1.567478702974105695e-05
1.319293672621761051e-04
-3.312690971233487268e-04
4.263316799015243034e-04
1.164607408950033002e-04
-3.448529983209245014e-04
-1.942503492738874597e-04
4.159912720933215563e-04
-3.982705904698672489e-05
-1.883791291093780756e-04
1.228090562439061078e-04
-2.204547774619867374e-05
-1.296984373741827805e-05
1.495636686059866472e-04
1.598530199521420189e-04
-4.403981131739667198e-04
2.678763156185273814e-05
1.877160247639495612e-04
-1.104887275025801538e-04
-1.050471259197018157e-04
2.040065738064217684e-04
5.381024653153062436e-05
-9.770660376904852674e-05
-2.503201296550164887e-04
5.397681732963458196e-05
5.246129315181593047e-05
-1.021399335870771174e-04
3.531295592050725336e-04
4.485009600851684358e-05
4.087223665632391616e-05
1.882564942747332385e-04
-1.237026679480760839e-04
-1.323168619408309908e-04
-1.428067686767874110e-04
-1.549356490856196506e-04
-4.733352520036630210e-04
1.235131845148129963e-04
5.684888307004503987e-04
9.969614902454387384e-05
-2.137918130513360147e-04
-6.604318437776111016e-05
2.382389147912852216e-04
-6.374004060585346048e-05
2.485329884762802507e-04
-4.614258901456037192e-05
-4.907518180859399108e-04
-1.706946416703519331e-04
6.078235328226526011e-04
1.268942009843432277e-05
2.653109625393630327e-05
-1.144842636093251884e-04
-1.058755961478573417e-04
-2.532494605506207933e-04
5.361666204795341559e-05
5.195660942347715217e-05
4.738522883921453992e-05
-1.120455363822766773e-04
1.847759951691902781e-04
2.312005326644253197e-05
1.409932021060087341e-05
5.793862901504422218e-06
-1.256789985520757515e-06
1.459326719271565858e-04
-1.627290807968488867e-04
2.936022018279600644e-04
-4.686708252921403155e-04
-1.607623608844563280e-04
1.491051446301817625e-04
2.970014422411647376e-06
1.086504671868135289e-05
1.723209424733318572e-04
1.815294991208345502e-04
3.771378686105547574e-05
4.518467987371916456e-05
5.049250153674531135e-05
-2.522853190964859842e-04
-4.059056610896874116e-04
3.523639885217189223e-04
-2.661421738467686059e-04
1.804919827490857130e-04
-1.379670707282906446e-04
1.528245025001778875e-04
-1.406502857801989778e-05
-2.708026275412680754e-05
1.148938844391000815e-04
-1.975671760716203921e-04
-4.828035095785964878e-05
2.579021737496510719e-04
1.105886642757248592e-04
2.723204440394064218e-04
-1.731377915019514566e-04
-1.586023559737405938e-04
-1.428831282485960494e-04
2.555650751105180014e-05
4.057440096124290813e-05
-4.038289369524079224e-04
6.497812851867781014e-05
2.257870640266482665e-04
7.821608162169833031e-05
2.323264908370691615e-04
7.755249563922891052e-05
-8.105686447655105768e-05
-9.091642244105751223e-05
-2.570321737320987229e-04
1.839196331098634973e-04
-2.933220211290737999e-04
-9.451869553033923741e-06
2.736042428902521733e-04
-5.338714145748946216e-05
-7.376007650493685138e-05
6.097144074226097524e-05
4.656373807368023837e-05
3.633259376812719927e-05
1.833465603335045332e-04
-2.751213908233945049e-04
3.416373974328784321e-05
-1.098097507981730410e-04
2.079509968642548931e-04
-8.139469880533168873e-05
-6.319175859367141205e-05
4.141839543378319469e-04
-2.354703279963698921e-05
-3.092082588030110836e-04
-2.910290335523345708e-04
3.034937274200415970e-05
-1.084536641216885780e-04
2.078405619958939023e-04
5.213849921325438251e-04
-8.329340361013372156e-05
-2.327234455823537843e-04
7.340811483931626471e-05
-7.996364071649733401e-05
-8.186741901567521902e-05
-8.412927791932987723e-05
-2.384817194416624089e-04
-2.388850929153311508e-04
2.205931215411482873e-04
3.775349056160145871e-04
2.321148029582212151e-04
8.927367833760091746e-05
1.009647848651079686e-04
-3.893504198038731190e-05
-2.636037731796451287e-05
-1.675762706962833238e-04
-1.582921667548757311e-04
-4.568063781944140759e-04
4.894116123951134578e-06
3.116147835391198050e-04
-2.988895015687652442e-04
5.360831897303607492e-06
1.572448441312812193e-04
4.628407332523950071e-04
7.299802430887818959e-06
1.642894707919905959e-04
-1.342453335121929735e-04
-1.255767620704936424e-04
-2.678686779211190256e-04
2.013265079703727047e-04
-9.177646321522466499e-05
7.309763261579974632e-05
-2.198973269329094408e-04
9.715970062712811440e-05
-4.392732197164472732e-05
-3.280882674539803428e-05
1.305406611685693094e-04
-1.642363763801046048e-04
-1.706138048370606153e-06
4.653194695125003927e-04
1.576329576749506441e-05
-2.827725007718189052e-04
-1.257228516910036250e-04
3.336794406511426649e-04
-1.258744370252044039e-04
2.100120132096364091e-05
1.105108788139030382e-05
-3.084034911186349717e-04
-3.268567232807414406e-04
4.138398758963601006e-04
2.357873706384175242e-04
-9.739251767306971309e-05
-1.272130057300630609e-04
-5.564902677128200281e-06
-3.700902110536777648e-05
8.411908929689551964e-05
2.055647984058123147e-04
2.232169969700773272e-05
-3.130004354006488219e-04
2.676285841572834242e-04
2.381968891255031298e-04
-4.014073200390380234e-04
2.726125808343277695e-05
-1.541384542436403222e-04
1.228139233966366788e-04
-5.692473576371681100e-05
-8.237332537366376807e-05
4.718048154877090965e-05
-2.779034972900251027e-04
1.636937491487301850e-04
4.568742698495227355e-04
-8.539957695215241168e-06
-1.195871148522792260e-05
-1.152831010932798423e-05
-7.841603578671197883e-06
-1.614141997360176321e-06
-2.987638567839911519e-04
1.555347573114719949e-05
-2.799294041125514150e-04
3.402479289761868391e-04
1.973416685007891962e-04
-2.510444977434666864e-04
-8.945847372842945960e-05
2.243139972401973401e-04
7.992617297062468737e-05
8.774376462564245497e-05
-2.099799829925577980e-04
-2.028713085490544191e-04
1.091024299355063316e-04
1.156343406181514527e-04
1.219538797562782058e-04
-1.770557758635429727e-04
-1.839129275265362522e-05
1.402560338213386945e-04
-6.203362456637902151e-06
-1.524891145802189122e-04
6.698773652247625697e-06
1.373584683103960557e-05
2.135212132316752410e-05
1.822618845083827106e-04
-2.663861004540879940e-04
-2.564505187424239341e-04
2.120085793278353177e-04
2.232974505783644008e-04
3.874878181855924094e-04
-2.113229522378924402e-04
1.049097714052362460e-04
-3.426788944316686101e-04
-4.862749349922782893e-04
4.369078969953354812e-04
-1.452751196317526861e-05
-1.619663023857129190e-04
1.474156757614911411e-04
-1.648200476850470400e-06
1.415490448425446347e-06
1.567385795514140100e-04
1.591577597440556931e-04
-1.440233241526065714e-04
-2.952441149007694081e-04
4.681854149975642849e-04
9.800653449018967655e-06
-1.446721998608886759e-04
-1.478311408108026216e-04
-1.520884255073203081e-04
-1.570721993326532648e-04
-9.658246675832073637e-06
1.381937068604459048e-04
1.345155953900715367e-04
-2.018741225892013553e-05
2.847370810227804121e-04
-1.878491563840314332e-05
-1.545622996978784070e-05
-1.635113550194379202e-04
1.467539883373749493e-04
-9.272060464522056972e-07
-1.495330959692291520e-04
-1.471357372810060289e-04
5.754224592654258578e-06
3.643546351613476354e-06
1.516033644681341044e-04
-8.020788255867164162e-06
-1.715113206217544047e-05
2.773074816669941788e-04
-3.948358777697150504e-05
-2.037291701573656151e-04
-2.144324882667518418e-04
-7.050583663281333798e-05
-2.286189081410977075e-04
-7.743961286744963546e-05
6.889336625303409990e-04
-6.539486894830911796e-05
1.008244004174257475e-04
-3.379812112562206893e-05
1.399072493248928041e-04
1.626038867630119123e-04
-1.200987607673268081e-04
5.290460804389995262e-05
-3.881585876502406359e-04
-2.238782981476751413e-04
8.719077269207062991e-05
-6.552290765312930598e-05
-7.132089788712366236e-05
2.232299707411146623e-04
-9.616935207181224934e-05
1.926534593216898004e-04
2.314347917781327504e-05
7.161082139095430585e-06
-1.591385306933825968e-04
-3.221206939200166753e-04
4.344196930838621824e-04
-2.549762747423696421e-05
2.815707760959440509e-04
1.343005472409292329e-04
-1.050537980047811942e-05
-1.427802860353375275e-06
-2.974465449133036998e-04
-1.367260766457180842e-04
-4.356582428741835556e-04
1.784932216121501534e-04
2.702075037131687269e-05
2.547176933307821104e-05
1.740394702646227802e-04
3.204082672065026918e-04
-1.454966554211992516e-04
1.498582822377235359e-04
-1.401956620197745156e-05
1.260235200271492273e-04
-3.452675622644303948e-04
-3.593952325680776811e-04
2.367502453731439580e-04
-8.205630785018547669e-05
-9.437290652723321390e-05
2.005485367638270894e-04
1.930256720533267694e-04
3.615469345562131488e-05
-1.171903887683563826e-04
3.819682908539689877e-05
-1.082664060317956929e-04
-9.929432561063678941e-05
2.170075699269479656e-04
-7.575159033801444808e-05
2.421583370666230612e-04
-5.097062573243416462e-05
1.120325108660550804e-04
-3.377320631163112071e-04
-2.750702334275868444e-05
-2.562387742456091692e-05
-2.677730241784226164e-05
-1.830952708237994025e-04
2.690954066548459844e-04
-1.951650057179527421e-04
1.035882741746477052e-04
9.820754942677540093e-05
2.472970294441108872e-04
-5.885237800673794278e-05
-5.689527242485988207e-05
1.007428361382613360e-04
-1.963556086480765998e-04
-3.381094512332220229e-04
1.327901725788624226e-04
-4.989740970565000645e-06
1.068718986399783457e-05
3.314400092789167307e-04
4.984008131745338655e-04
-4.051303726978602231e-04
-9.147107129633423920e-05
-8.747034933149313619e-05
-8.862940540752925109e-05
-2.478194799491016545e-04
1.980656746315979629e-04
2.894683446777218845e-05
8.805955706179757433e-06
-1.355811548585442331e-05
1.160734131137102442e-04
-2.108940226827859513e-04
7.540693080493259090e-05
-2.441194507274073000e-04
5.254938854998141581e-05
5.078058600313605615e-05
2.086922458498191948e-04
2.208499552855550184e-04
8.637085971722631146e-05
1.089867163811690428e-04
-1.834676997915766998e-05
-1.451393857105991690e-04
3.168525304024216716e-05
-2.526864495380482379e-04
-2.367698903290084444e-04
-2.266419773477283835e-04
5.403483891074853385e-04
-3.768985972985693512e-04
-7.839588012918685418e-05
6.376072210522641627e-05
3.561590526744765322e-04
3.732048764458104854e-05
-1.284593310040677808e-04
1.253652677700119198e-05
3.361994686631185820e-06
-2.934140436004430969e-06
2.989207958783954592e-04
-1.594258714622154185e-04
1.473965927861979456e-04
-1.545922252639400152e-04
-3.032218671895954175e-04
5.932055024989577406e-06
1.618632419340889923e-04
1.640687336636837215e-04
-1.403569520100487382e-04
-1.411770479104839098e-04
3.142883843597966183e-04
-2.995506035950535944e-04
1.409075845156019370e-06
1.496429995770721705e-04
-1.593595006514915945e-04
-9.399178431623979467e-06
1.423652443571349325e-04
-8.777314182043082427e-06
-3.099800055369580551e-04
3.068753502643342115e-04
1.630414009468277405e-04
2.089698138346507436e-05
1.848182504932857054e-04
-1.090938703129864943e-04
-2.515001664530033864e-04
-9.076058811877231534e-05
6.717182217425344041e-05
-8.340712956659562132e-05
-8.497073997330473910e-05
6.254290798578287288e-05
3.594730856415158165e-04
-4.143081435255966316e-04
1.833640140498989817e-04
1.714301520813446661e-05
3.504768137960414052e-06
-9.187429171476176040e-06
-1.726298092569202003e-04
1.242995651723382341e-04
-3.333797012829301583e-05
-3.483986141571117167e-05
-3.272663238013312682e-05
2.779325854261630534e-04
-1.895052352189819899e-05
-3.138740293445504005e-04
4.602004682081582438e-04
1.658327100507305408e-04
-1.300828279044648520e-04
-1.234628300326247091e-04
-2.728972669043324296e-04
-1.210709770476512450e-04
2.683200313526227270e-05
1.865663055156465905e-05
-1.447829587794617319e-04
1.479514256660687519e-04
1.351394303425059557e-04
-2.943067173947189243e-05
-3.954461237900933101e-05
-1.996211710135502770e-04
4.062581607262827051e-04
4.047885020016866401e-04
-3.570224241941564970e-04
-4.884418325820522326e-05
2.602817933643645576e-04
-1.935659457807810109e-04
-1.905708096799476410e-04
1.160220387546490343e-04
-1.896465200366121546e-04
-1.920121213647085431e-04
-3.484503641772635808e-04
4.098158377326407498e-04
9.995634339558250752e-05
9.608143528126951492e-05
9.370765930623824180e-05
2.458904334479676958e-04
-5.752634321862636221e-05
-5.367465399139878404e-05
-4.802079654887546106e-05
-1.935899122838227369e-04
-1.857142860474257000e-04
1.276770807263736152e-04
-1.684212871605145773e-05
-9.360802010706009271e-06
1.497290976405174457e-04
1.549070728686597817e-04
5.880481015198621730e-06
-1.449882014551432318e-04
7.341235880829433126e-06
-3.000951170257665245e-04
9.146153976262458143e-07
3.002301089869245914e-04
1.403933768497158167e-04
-1.730446744639117416e-04
-2.930963507028067885e-05
-3.829885205898573007e-05
1.056347552581216802e-04
-5.480037760431543439e-05
-6.138797612165842413e-05
-6.630767446353638597e-05
-6.922455271889377921e-05
3.878558097061549819e-04
-6.825848481921694094e-05
-3.695024950765003714e-04
2.468591606629268534e-04
-5.057669052676556736e-05
2.635991772345468035e-04
1.207197565899595002e-04
-1.746172307804714596e-04
-1.651856073632860600e-04
-1.565937246576392435e-04
3.463920774916261969e-06
9.693583086028626837e-06
1.471060686376521151e-05
1.864260790169515718e-05
2.165811303828731979e-05
1.764947763060872789e-04
1.780599056461816077e-04
-1.262457852646337085e-04
-4.313582965700511361e-04
2.546065413454382721e-05
4.810020909913589925e-04
1.943028737835257903e-05
-1.388562044042843514e-04
1.584894371002058225e-04
-4.165314031185604749e-06
-1.689540097195729067e-04
-1.829239535853257844e-04
-1.980182579635274655e-04
-2.133441100772002260e-04
-7.525793548198708239e-05
6.750959037620570674e-04
5.506163824897457966e-05
4.904064152638499792e-05
1.997230291957325949e-04
-1.031141738144125859e-04
-2.492862513977177862e-04
-8.660691776853590934e-05
-7.340766197686845985e-05
-2.103648871075665980e-04
1.121260584287298349e-04
4.355058379724114433e-04
-3.991755424793044472e-06
1.350631299646328879e-05
2.944803780862653998e-05
-2.620312631755958169e-04
-2.511137862661107245e-04
2.144465125006185763e-04
-8.619711469854565255e-05
-2.374885296481337284e-04
6.589900636281073717e-05
5.190023624576673572e-04
5.392830048909426246e-05
4.417290461954944498e-05
-1.204178805042969654e-04
-1.344380333533054311e-04
-1.501580677621467861e-04
2.906381259959292572e-04
-3.373160522034164424e-04
-2.022019022778838611e-04
-6.608786159704912446e-05
2.245141330274603704e-04
2.126716131086928542e-04
5.163783499563019555e-05
1.996035399573201140e-04
4.637353994704430840e-05
-2.555680546538908050e-04
5.639813111311839334e-05
-8.632002288705219835e-05
-3.791245693416543314e-04
-2.123051773577486396e-04
5.660354815501553258e-04
1.241009056037697435e-04
1.395649825061400385e-04
1.253250429632916568e-06
-1.390491448706387089e-04
-1.294646468940196670e-04
2.946609868944240324e-05
-1.203280699958607689e-04
-1.211223553518892275e-04
2.731346105585187391e-05
2.026888070590424814e-05
1.635587874236270431e-04
-1.524317538657266437e-04
1.411688483038665246e-04
1.295417013408440958e-04
-3.411401194254591628e-05
-4.413513108617366442e-05
9.983685586140691657e-05
-2.123083667332790537e-04
-6.489906229547833579e-05
2.369584075076117515e-04
-6.966212485996809312e-05
-6.926160046168902413e-05
8.551254526803711976e-05
-6.318909187430447731e-05
-2.103049006570639008e-04
-5.081274745597358096e-05
2.624880581708072128e-04
1.189578504791954033e-04
-1.766008355139881379e-04
4.434816878365456603e-04
-4.915748513056798973e-06
-3.015396019208570980e-04
1.102521921842217812e-05
-2.881098856353986651e-04
-2.834081949509176268e-04
3.304990147394779162e-04
2.805590833038922150e-05
-1.222502658135887136e-04
1.850904437068472564e-04
4.925408083037127781e-04
-1.153431866191896213e-04
-1.127347612777958156e-04
-1.101267146482217806e-04
-1.076811421173810157e-04
-1.055129205370708206e-04
4.894764161280272736e-05
5.062421883926530766e-05
-1.002749231854947070e-04
-9.829128817283750569e-05
2.094673973013643528e-04
-9.226251576212372938e-05
-8.779208481842951757e-05
3.754769266153654052e-04
7.667398824891922420e-05
-2.216031066872487833e-04
2.431039447039394996e-04
-2.082329841310469809e-04
-5.030573073709205232e-05
-3.517427495475025645e-04
2.603414644107232903e-04
1.072094169426351040e-04
-4.832904873669672342e-05
9.890666645112302551e-05
-6.130787774153302182e-05
-2.235619357997918740e-04
2.228215001553838517e-04
5.753397830715524953e-05
-2.612210607364375383e-04
1.825443399465518442e-04
1.685870451452786190e-04
-3.026499089037294017e-04
1.425409498389881434e-04
1.312557171486083095e-04
-3.096917430766558575e-05
-1.912053291313995263e-04
2.612250440427746020e-04
-3.518332729765286603e-04
1.061343708247035420e-04
-1.956991220873480143e-04
1.160826078989094916e-04
-2.666911008172320838e-05
1.387367857560990020e-04
1.540321453420503441e-04
1.844451029423153777e-05
3.613604553138654370e-05
5.333138117377171313e-05
6.877035304189013589e-05
-2.239341470215444759e-04
-3.680572469282582530e-04
2.459930233855468773e-04
-6.065534215515854324e-05
3.904522454600443883e-04
-3.839406363522289813e-04
-9.425384504119175958e-05
1.924859305242725962e-04
1.985529021442587774e-05
-1.528893676434023947e-04
-1.904575677776852152e-05
-1.875372179105096139e-04
1.057676536929359008e-04
9.875287653927119873e-05
9.694025365728216694e-05
2.527213097458478621e-04
2.601791421960959663e-04
-1.870777514677332120e-04
1.301026681380491412e-04
-1.632667467760353427e-04
-3.058752210730909804e-04
-1.464940841237978770e-04
3.139498993552254365e-04
6.952867353567289737e-06
-3.043551475876547395e-04
-1.614652203569700976e-04
-2.093008013191203232e-05
-3.380914634814086877e-05
1.067265631115865021e-04
2.496548038538225146e-04
-6.151043291454565479e-05
8.958982250713808104e-05
5.506614066226456347e-04
-5.184285511044086671e-05
-1.927812834041591318e-04
-2.582473812939513577e-05
-9.992096130678331675e-06
-4.517101188976253845e-04
-1.313759546895548226e-04
3.462647688669682924e-05
-1.068732683748134662e-04
2.067306637863322095e-04
3.649424253956607984e-04
-9.002406267977948874e-05
6.258206206504788953e-05
5.991622620154437998e-05
-9.787321307768788892e-05
-1.053816251129893256e-04
3.773504517892208997e-05
1.793774591473155326e-04
-2.901598526376348783e-04
-3.019695715863134045e-04
2.974320167729570274e-04
-1.694968281601850059e-04
-2.343537349883089815e-05
1.259358923480783298e-04
1.264132720950040232e-04
1.306057548080071678e-04
2.907283656053628504e-04
-4.312356556385028095e-06
-1.451962619103342920e-04
-4.383006087055197741e-04
3.066546476671107063e-05
1.924412639182522251e-04
4.607388811679761701e-05
-1.039481045391892912e-04
4.717619915833889916e-05
-2.635335572202379272e-04
3.375026617048217906e-04
-1.327683941816451020e-04
-3.002186766696854445e-04
4.465170568363259094e-04
-3.328608242471357490e-04
1.093404404444611424e-04
2.482720464094264430e-04
8.481217393485789078e-05
-2.277759437157516156e-04
-2.312849627900464492e-04
3.796621694303537646e-04
-7.344082819133034988e-05
-2.175721863962900822e-04
2.519648612798910232e-04
-1.913686479287281684e-04
-2.249819834784878974e-05
2.999085098154363836e-04
1.196213178810847856e-05
2.825753469093271152e-05
-2.624026747641501666e-04
-9.777270997037677152e-05
6.389073685318210813e-05
-8.285986189266349568e-05
7.226580708498162400e-05
-2.335607687617957651e-04
6.800177318522241862e-05
3.668797358129549137e-04
5.299628820902986233e-05
4.211897468059807800e-05
-1.233093144854554668e-04
1.467947303265211057e-05
-1.425101618288273544e-06
-1.867738693865812760e-05
1.160185867363392555e-04
-5.121831264591108004e-04
-7.138411056172743645e-05
6.607856803694369470e-05
5.376574134236809289e-05
1.977292118449264246e-04
4.086765412510202553e-05
3.464768560371223396e-04
-1.061451249489638081e-04
5.594018037106472625e-05
-2.360422683792398667e-04
-3.726322477992322166e-04
1.028969110214399802e-04
5.790934408956014204e-04
-1.324513481033593697e-05
-3.018285037856437061e-04
-2.874998631444661995e-04
1.817023252923168758e-04
-1.152988718406350115e-04
1.946730569172407479e-04
1.962175774121745740e-04
-4.155070811980941109e-04
3.846360589884247896e-05
3.380380338240532366e-04
-1.264646594757025497e-04
-2.862556875901384884e-04
1.187437705130746708e-05
3.106806615208568918e-04
1.858201952769540963e-07
1.487097583944307401e-04
-6.652959631196561059e-06
-4.660161276724454019e-04
2.962765070882532174e-04
-8.880824022420735514e-06
-8.507995066126183557e-06
-8.079839404755285220e-06
-1.604431264721870476e-04
1.445548640100117284e-04
-8.741986492220024462e-06
-1.004024060029694934e-05
-1.192218746141450500e-05
-1.669187947040047006e-04
1.354135554078711424e-04
2.848331663259291192e-04
-1.763101358157197793e-04
-2.720347543592607512e-05
-1.832692046797435145e-04
1.185330263802929272e-04
-3.722979894101256912e-05
-4.012476322421615810e-05
2.624977784477959064e-04
-4.484853474513254823e-05
-1.991952756968845854e-04
2.572577835618296716e-04
1.038790416388884222e-04
-2.014319396630006654e-04
-2.006879926916287798e-04
-4.615944735127463865e-05
-4.263088420084301276e-05
-3.710079623689796258e-05
2.759663377006442973e-04
-3.239142292781351765e-04
2.994838819948261515e-04
3.148218722714271394e-04
-1.258965466599116080e-04
4.458470909899794963e-05
-2.429155251927538571e-04
2.311327483065949882e-04
-2.129031605265878900e-04
-5.018950711415691760e-05
2.606857062316122824e-04
-3.489186675924875664e-04
-4.812675298069929669e-05
2.477182286920989653e-04
-2.237938951896228316e-04
6.404210930505982999e-05
-1.084254264925899080e-04
1.755200173334756108e-04
1.541727125829659957e-04
-1.868967303749089233e-05
-1.894089717058980232e-04
-2.045059439070974028e-04
3.944513051778945466e-04
8.199976341281145368e-05
-7.359284065485753004e-05
-7.242709141969663137e-05
-2.200024452900771216e-04
2.461166021432439573e-04
1.045913082655507289e-04
-1.875311368988104343e-04
1.319428197122758314e-04
-4.635919321311112980e-04
3.140186492416113199e-04
3.279743025892928429e-04
-1.169995426077275575e-04
-2.582738764446986619e-04
5.658343842278760008e-05
-8.795409373179914234e-05
-8.139628785119297309e-05
7.649107423213208877e-05
8.080075149625050833e-05
-6.823548870494776603e-05
-2.179042502332244878e-04
3.946967897010013587e-04
2.434570136878835194e-04
-6.169525652743049421e-05
-2.161551193127258163e-04
8.461555943778100103e-05
7.707746992310979121e-05
6.595551491286587320e-05
-2.541265696641405929e-04
-2.726913844758300067e-04
1.074863168394799900e-05
1.392637554590867379e-04
-1.912076527020794918e-04
8.873778357318623609e-05
6.490658201234816523e-05
3.489000443526696729e-04
-1.263430079954548906e-04
1.658366008931274813e-04
5.203807172360887090e-06
-4.555005839225546903e-04
4.285216958346228069e-06
1.634545316024189291e-04
1.739658660202892185e-04
3.500642282749377856e-05
-1.017781624022280455e-04
6.778356630655712036e-05
-6.765052296471586182e-05
-2.038068650334510449e-04
1.163274939037273642e-04
-2.332976771825183456e-05
-1.276380509622817749e-05
1.479092691754959623e-04
1.016053877989386764e-06
-3.005868140688704583e-04
-1.461412900441654385e-04
4.648438684710663781e-04
7.004815614897235252e-06
-1.458883542883388429e-04
6.558224743659514912e-06
6.855362248869125154e-06
7.726630947903124724e-06
1.617508509350065412e-04
-1.415702841402228672e-04
-1.395624405400777278e-04
1.483213765945423769e-05
3.212062918594453444e-04
-1.363839311525204441e-04
1.675658947395019160e-04
1.207899178839034005e-05
-2.977830311201175827e-04
-3.041655440814768790e-04
2.984217172001873085e-04
-1.537978376566488019e-05
-2.419318611055357382e-05
-1.850331850507012455e-04
1.131843676420293203e-04
2.607313103946051953e-04
-4.713470849238934912e-05
1.053012208248060052e-04
-1.975690033888486958e-04
-4.055469526487464921e-05
2.706193105037097042e-04
2.774974865263879465e-04
-3.258399726008019475e-04
-1.667952158993664640e-04
1.437378705362915815e-04
-1.574941328406618581e-04
-1.550111097354577104e-04
-1.537797093784036399e-04
-1.533951076837131470e-04
1.518160292681630999e-04
4.571422360421042736e-04
-4.520737770420784003e-08
3.062049173838081039e-04
-1.501814434893559069e-04
-3.015211985850995520e-04
1.567704605596395302e-04
1.559347011820219381e-04
5.659795057027060976e-07
-4.623353087903140355e-04
-1.222357866157615832e-05
1.303422505298632190e-04
-3.418971210915509808e-05
-1.999336418194064442e-04
9.176941709858502203e-05
2.315507224873341913e-04
6.779005535272717591e-05
5.911220824367761787e-05
5.361577111857138860e-05
-2.534043512364552190e-04
-2.513606909112781735e-04
3.649184256563279931e-04
6.931298214025629213e-05
-2.231157765205590566e-04
9.731798684782562848e-05
1.142632913310493185e-04
1.319724494170611045e-04
-3.093614913498905483e-06
-1.392456015357802519e-04
-4.298402235859201414e-04
4.006987425129798167e-05
3.545954431503183912e-04
-9.676111095994475487e-05
-9.325203529640403157e-05
2.127336464315669100e-04
-2.466049283969718071e-04
2.075929566594620572e-04
4.989195578709488974e-05
4.370323545114023162e-05
-1.156617506083291026e-04
-1.225312883211101200e-04
2.359199004316306063e-05
1.801707623145887302e-05
1.378043198330038996e-05
1.126289660647053438e-05
-1.418454553930104459e-04
1.236039334818862436e-05
3.212704862244196869e-04
2.174674943729289231e-05
-2.762275625371988803e-04
1.897783093439860938e-04
1.984605710643509930e-04
-2.508131521468475421e-04
-9.052878019850840361e-05
-8.414101660541773082e-05
-7.945575598581401970e-05
-7.673522239825376033e-05
3.816400989191919956e-04
7.491357444431312744e-05
-2.339667654380111269e-04
-8.718682353488487347e-05
3.627487111496016398e-04
-2.573345602331862441e-04
3.636444570247405247e-05
1.759455400030592194e-04
-2.960652427330876229e-04
2.991809721689605867e-04
-2.147103754681051096e-05
-1.893102471415989492e-04
-2.036451152035812320e-04
-2.163112388017054434e-04
3.837958612190786167e-04
2.240595197721813271e-04
-8.465597985445464974e-05
-8.430576019150085336e-05
-2.326501040583954624e-04
3.855433863299956819e-04
-6.136865410750669725e-05
1.042288637219497755e-04
-1.868359871709425067e-04
1.323733161853033911e-04
1.451294781095131066e-04
-3.022677999470880063e-04
9.965555669955024513e-06
1.307993441313074643e-05
1.196807270494338708e-05
6.733919030407103323e-06
-2.129219869136557651e-06
-1.376998607017981912e-05
-3.322198886508018418e-04
1.119750675066075066e-04
-5.307067038498038906e-05
8.949575657440719139e-05
2.355963594727702884e-04
8.079809034403148541e-05
-2.220108681488495181e-04
2.425197646116560404e-04
2.530541649257106820e-04
-3.883247754050671448e-05
-3.292367007654829715e-04
-9.190519823896330209e-06
1.570255354456583335e-04
-1.369259035173274236e-04
-4.341596451056229343e-04
1.803163564939111593e-04
2.785634286311330311e-05
3.293125514194988283e-04
-2.881847682376467061e-04
3.122206226305468272e-04
-3.101152535448360812e-04
1.344612953958264779e-04
-3.166602299863879871e-05
1.078438375481312903e-04
-5.662861772527606925e-05
8.588226210047184852e-05
-2.270948618452111689e-04
-7.973215444824412624e-05
2.229101692027187496e-04
7.039914439075338351e-05
-2.323698347700308071e-04
7.707750273472058721e-05
3.877746685256170441e-04
8.866370715843344228e-05
-2.106212679695530158e-04
-2.055387997466159465e-04
-2.017253744273131400e-04
1.057733967786922099e-04
1.066494881051990016e-04
-1.988072029360772402e-04
-4.717865559396630919e-05
-4.823648432766128639e-05
1.037717678797134751e-04
1.041378481896979030e-04
4.108965578398559638e-04
-4.404192210278871813e-05
-1.927820662209140182e-04
2.694369900335070664e-04
-3.363752930465567785e-04
-2.710591362834715291e-05
-2.389441316219490183e-05
-2.183008749062167024e-05
-2.095971590793988771e-05
-2.109975168595678465e-05
-2.185792530501878483e-05
-2.268400896438423607e-05
-2.294293193649690085e-05
-2.200124060524713643e-05
2.858599828987141490e-04
-1.451234514608930864e-05
-7.442713108985778238e-06
-1.508020323115270270e-04
1.653974696957941288e-04
-1.275567297798488797e-04
3.766242534719574440e-05
4.978304559073114239e-05
6.041300119649098481e-05
6.859629235358173768e-05
-7.909596206681629568e-05
2.270528939768653477e-04
-5.391849039701761184e-04
-8.899903163083567941e-05
2.046687630740343794e-04
3.732111714580207566e-05
-2.849274946230109838e-04
1.545515697884802646e-04
1.362079289441908356e-04
4.240769200685057141e-04
-3.541833986489924453e-04
9.098586862983437185e-05
-2.235594107099918868e-04
-7.687320529510156407e-05
7.326597152347674963e-05
7.400349054188386276e-05
3.826023336699895406e-04
-2.223377248054330074e-04
-6.318191346655756637e-05
9.624513716662350246e-05
-5.007966373530321617e-05
-4.511569248528222846e-05
-4.997444662151038402e-04
2.642053327925567995e-04
4.156281035030538100e-04
-1.978869390837378916e-04
-5.008898386135541501e-05
-2.085688936770719736e-04
9.023963068909693678e-05
8.406830230389707973e-05
2.313332555348220781e-04
-2.303317139105388813e-04
-2.323684156912814950e-04
2.254973704538794452e-04
2.278194672418629662e-04
7.965508227219507420e-05
-2.192986560533510354e-04
-5.913981475730688010e-05
-5.076396533071675154e-05
1.104229452154053973e-04
-3.390911528045577810e-05
-2.650098014734424533e-05
-2.034350348219102610e-05
-1.570492102523881724e-05
2.924841009880622868e-04
-1.122698073437014496e-05
-1.636238778520742105e-04
-3.168190430813805619e-04
-1.239232566481012926e-05
1.400918288659727218e-04
-1.111834749831692845e-05
1.451108997367854536e-04
-1.535402146092727869e-04
-1.437740894660426974e-04
3.270168676283850590e-04
1.903550171656847158e-04
5.584786896683676912e-05
7.500923989934427235e-05
-3.638162508639629453e-04
1.112637915913234233e-04
1.256136411207371250e-04
-1.693279284569834014e-04
-3.166330419714275023e-04
1.410202758560991142e-04
1.355046287670034653e-04
-1.801861322014652010e-04
1.102464866186298056e-04
-2.128501508794665507e-04
7.244727550817174329e-05
5.187820578054097044e-05
1.843961736287884042e-04
1.658296633091923904e-04
-3.082586384523778819e-04
-1.673693457197666535e-05
2.775673811142153214e-04
1.167141157854847098e-04
-1.945258699318697842e-04
2.588289951250598384e-04
-3.548580814350272292e-04
1.001302624312510518e-04
-5.502909771901987859e-05
-2.101302879804844525e-04
-3.650998168402603303e-04
-6.192199070101736275e-05
6.997511529135462755e-04
8.920503973416837244e-05
-2.148568902072980446e-04
2.454004801922497888e-04
9.657657150387019345e-05
-5.123980345754701004e-05
-1.984051179861579754e-04
-4.012082998428411602e-05
-3.396587867958212096e-04
-1.817385769093466297e-04
5.860740689776701602e-04
-1.994305556459778913e-05
-1.618366065295806091e-05
1.395703614419129598e-04
-3.156317102366770614e-04
1.440869502081036364e-04
1.454522057611900036e-04
-6.312960503980129705e-06
-4.637108407403761796e-04
1.466732470976800146e-04
1.465209939532980581e-04
-1.588446377590010451e-04
1.462172148648999874e-04
1.462308971962758650e-04
-6.240176884926313103e-06
-6.115570266441613201e-06
-6.124238461766029732e-06
1.461742426933445606e-04
-4.648578440282900197e-04
-8.203141841777151797e-06
1.429014660267245273e-04
1.411863765044433854e-04
-1.313821973535725305e-05
-1.464879698530742194e-05
-3.208570388162766576e-04
2.891619629999144219e-04
-1.548961714426448798e-05
1.385396506919230552e-04
-3.169240733573573557e-04
1.438116396441382568e-04
1.471486133195824527e-04
1.504474512176683500e-04
-1.519228350867711367e-04
1.551188475797201554e-04
-3.020852649611789793e-04
2.123131743951337117e-06
1.521903880699163351e-04
-1.568730951896369079e-04
-4.669231721912261773e-04
1.380863827593686801e-04
2.854337300956807737e-04
1.282210588285789756e-04
-2.801526168249226994e-05
1.220384033198780235e-04
1.205094260977439291e-04
-3.293291720904659050e-05
1.189914076857983687e-04
-3.460616212152254657e-05
-4.942053978919962089e-04
-1.920153181788070021e-04
4.140967247200762961e-04
-4.902245412015892277e-05
-5.513561626358140478e-05
-2.140683592052544464e-04
8.515050335354423946e-05
2.327974843123061346e-04
2.294243450759045550e-04
-2.297405385135018634e-04
-7.637411965598990722e-05
-7.342954271502209718e-05
8.402760684763463004e-05
-6.222638317340456926e-05
2.500942798486543626e-04
1.046604047304371436e-04
-1.942329853956614098e-04
1.154853478009202218e-04
1.175375542081891840e-04
-3.601618981106948593e-05
-4.979805864646819112e-04
-2.000934369600955855e-04
2.478065684125523699e-04
-6.898305873688403609e-05
2.238650698037178313e-04
-9.323060487841984025e-05
4.892289381316486982e-05
1.934833304216164093e-04
3.595764217197333407e-05
1.870968446785827336e-04
-4.211037624567025208e-04
4.225874066966211887e-05
5.093838798099712133e-05
6.217245745747228009e-05
-7.725438091660701597e-05
8.975135250479031963e-05
-4.781795396776782417e-05
1.198002145734888444e-04
-1.822317139614046630e-05
-1.570479502990101668e-04
-4.494476676800057474e-04
2.004798664018475735e-05
3.359315355811173039e-04
1.930530981810023869e-04
2.017283129028662461e-04
-2.485337942757547599e-04
-8.986313383534768782e-05
5.248387409119213524e-04
-8.320903199257679629e-05
-2.357679359072110861e-04
-3.906575007997521286e-04
-8.993280819652042834e-05
3.616711081744175982e-04
-2.558772895128085326e-04
4.189264489130391678e-05
-1.174316950766864825e-04
2.989654023687233702e-05
3.319073906053150117e-04
3.311702419553743445e-04
-1.249081135895741251e-04
-2.737332068460271396e-04
-1.159421014293478806e-04
3.476187109316689538e-04
4.788060357197538788e-05
-1.005779302911075042e-04
-2.511780272623352519e-04
-9.936303532897591405e-05
2.019463492259286055e-04
-1.101992388624143380e-04
1.852157551481778972e-04
-4.370864811218506344e-04
1.599528722784800670e-04
1.462516855939751119e-04
1.331825636881519550e-04
-1.834570558567728089e-04
1.127000473930670930e-04
-4.582273598271235167e-05
-4.828436575778762365e-05
1.054283088174832984e-04
1.099706827296018357e-04
-1.876792788931851066e-04
1.273446480426127284e-04
-1.390382411077945261e-05
-2.003331316111463225e-06
9.507575635130078063e-06
1.973789208891297832e-05
-1.246573541127733069e-04
3.352293987258153163e-05
-1.164012722393363520e-04
3.584039626508768765e-05
-2.725403703484492171e-04
1.795024866728414615e-04
3.243304489645484879e-04
1.624910929702206739e-04
-4.580401915109687033e-04
-1.084674454839422361e-05
-2.132488875349724045e-05
2.738692474407252884e-04
1.121057793396854627e-04
-4.864295684111553573e-05
-2.082621164993039842e-04
-3.667146979535025825e-04
3.915020904002342343e-04
8.267089462536741852e-05
7.996707812842190617e-05
7.807364800862242476e-05
-2.283258870624135751e-04
-7.639881717621667769e-05
7.604980457141615369e-05
7.647560874476495255e-05
-7.499114736745538412e-05
-3.781513132291606182e-04
2.353409791825829506e-04
-6.536083969677848366e-05
2.457458878538248698e-04
2.531179508951925789e-04
-5.011974690052710272e-04
4.238405325929293747e-04
1.285492661659194560e-04
-1.438533736823293932e-05
-6.159410435845769777e-04
1.773746550656413413e-06
3.124125286638933458e-04
-1.421167141545424343e-04
1.638848379382748565e-04
9.678202193331924844e-06
-1.468725451358576643e-04
3.048135723625612875e-04
-1.607899215540656919e-04
-1.733578744160107975e-05
-1.797802283689823514e-04
-1.897109262707322055e-04
2.587324268787710626e-04
-5.448853098968219337e-05
2.445025116162888421e-04
2.406340615271771388e-04
-3.709726979681293767e-04
-6.430730997509572779e-05
-6.009676380125165241e-05
2.518481608296724880e-04
-4.428279531935970720e-05
-1.859354238647333252e-04
1.315982265712883925e-04
-7.738423597743910329e-06
5.837441214186644565e-06
1.915226448197651697e-05
-1.209608721704131282e-04
1.953013565049082419e-04
-1.006698581437394667e-04
5.882441909580553589e-05
-2.420622776371322523e-04
6.457844510955780418e-05
3.683094505856885931e-04
-2.463569719913811379e-04
-1.007879609877542257e-04
4.236839815334082098e-05
3.093509563132955723e-05
1.801800682599929537e-05
1.568117865668282990e-04
-9.774007906560002728e-06
-4.810260238728182852e-04
1.170666957493491723e-04
2.593077726487070210e-04
-5.371037435750208216e-05
9.398869760246618551e-05
-2.128604647761203053e-04
-5.868420203360091793e-05
4.037499643171917584e-04
1.059308960974935548e-04
-3.719442156455116761e-05
-6.366906890985996655e-04
1.377123284115106179e-04
3.015741975874758774e-04
6.718678176692276820e-06
-1.371942852193845023e-04
1.744287024796984796e-04
-1.269632383359412713e-04
1.790803433574514661e-04
-1.281833490883385065e-04
-1.330363184284541283e-04
-1.402363030388050044e-04
-1.491674450543767512e-04
2.986903580476657364e-04
2.886294078773424601e-04
-3.311382935011496806e-04
1.185603536475070204e-04
-4.018473536356391944e-05
1.085250855215534707e-04
1.070961693366777426e-04
-4.449954680308811452e-05
-4.990568839947659516e-04
2.689465860339463016e-04
2.753961338248198413e-04
-2.249455402538770915e-05
-1.495615370114831772e-05
-7.723925425682608685e-06
-1.538635580909254567e-04
4.043842679830089385e-06
-2.971214751575072702e-04
1.633311273124210072e-04
1.224017753393461177e-05
1.276898087410277805e-05
3.177670736085862896e-04
-1.406323676327508659e-04
1.106160797794464728e-05
-1.425430019636096343e-04
8.976270474581183372e-06
3.130493801894447363e-04
-1.458673240621971524e-04
5.490506719560819361e-06
-3.010054645160044600e-04
2.776602962540871372e-06
1.539446261630991156e-04
-1.526145337070441890e-04
1.512662782437600617e-04
3.026629083536900460e-04
-1.562249837811312931e-04
-1.573695541533000472e-04
1.465201300182618631e-04
1.449634115510764899e-04
-6.199143351647564640e-04
1.406310483101937928e-04
2.903384117847550142e-04
1.343929653432802442e-04
-1.745735666267522160e-04
1.264567998896785786e-04
-1.830974320535175683e-04
1.176433916432330742e-04
-3.919672137223675451e-05
-4.296703227136004690e-05
-3.510903029870576179e-04
1.048952033128254828e-04
4.097621654826743686e-04
-1.992346320950462912e-04
-4.359318159400058656e-05
1.135880145592190350e-04
-3.323050189521007639e-05
1.257520487615526551e-04
1.320808292099299910e-04
1.375869750635546718e-04
-3.162190077459141151e-04
-1.618120435572270816e-04
1.426836054190644659e-04
-1.657381476340073051e-04
-1.871216120105608072e-05
-2.604680990006857084e-05
-3.395599092551347458e-04
2.623476590868322714e-04
2.546985745790265898e-04
2.486334159732220706e-04
-2.130281975443849916e-04
-6.184580778770349600e-05
2.444762732979247457e-04
-5.717713622143259680e-05
-5.163040401767035121e-05
-4.451164466544184600e-05
-1.888840408661177301e-04
-2.741648488964040236e-05
1.343682208072157988e-04
-8.951801867778236605e-06
-1.523564716762427986e-04
-2.959426559480644674e-04
3.231451718172311752e-04
3.314951924647650014e-04
1.866750056353926220e-04
-2.641862967161133979e-04
-1.059102778086908406e-04
5.078302515140236870e-05
5.297354098070266069e-05
-9.958468238957677101e-05
-4.070185198548337529e-04
4.620052765685078743e-05
3.446583306382648877e-04
3.078343854124756640e-05
1.729277980704020201e-04
8.412921287756449748e-06
-4.710915927792178183e-06
-3.238762514479690143e-04
1.194316518710906511e-04
-4.759630493937149989e-05
-6.146300228946266399e-05
-3.793303314773635582e-04
3.726843679149429486e-04
2.114520982665340641e-04
-9.971873043610851280e-05
2.022873078782776916e-04
-2.558564016117892870e-04
2.040835148137152622e-04
5.583840370280026384e-05
6.186275226428979927e-05
-3.887049146310402005e-04
-7.562998849944807111e-05
8.518169013354449242e-05
-5.912440551627882567e-05
1.016436244815205743e-04
1.096460330684533577e-04
-3.514006580394622790e-05
2.776395971722507659e-04
-1.727096942263515924e-04
-3.180723810131498228e-04
-3.110589375310542711e-04
1.534377705491866604e-04
6.175089875260136646e-04
1.653821796777883235e-04
-1.351697507542674349e-04
-2.845451303121777496e-04
1.746389423083322926e-04
-1.311848084623935579e-04
-1.339938252530014360e-04
1.663576759081234228e-04
-1.452529072528447208e-04
-4.578293357594602573e-04
2.975694531350379793e-04
1.382157503865901220e-04
1.331182256140011364e-04
1.304530555828333047e-04
-3.269950058391988168e-04
2.869318018626142120e-04
-1.141943730121632458e-05
-1.633230104415222990e-06
1.058824742550290304e-05
-4.332257729598763081e-04
4.971602955455713775e-04
-9.828300154535841255e-05
6.843288611373297904e-05
-7.154132366858618032e-05
-3.661992976039274992e-04
2.521841681254633361e-04
-4.763015395415395306e-05
-4.493103132061501356e-05
1.078591445664864524e-04
-5.045141956016192808e-04
7.122668183135074781e-04
-5.617260026063305924e-05
-6.296558979673435100e-05
8.177170719690139505e-05
-7.952454115218626004e-05
-8.889421725131102297e-05
5.389501262804994393e-05
1.965587959640371647e-04
-1.182697258434754414e-04
-8.901000235940850248e-04
6.282052537729016254e-04
-1.404314104717261323e-04
3.139907727352141348e-04
1.607305335211778807e-04
-1.423662925103967624e-04
1.487268373151664297e-05
2.166352004627691822e-05
2.994920890999450852e-05
3.893633763191827439e-05
-5.625911941019760094e-04
6.659184824457807430e-04
-9.099822964882289225e-05
-2.399547453261833532e-04
2.186611743821112214e-04
-8.856317775634307756e-05
-9.334462353378912851e-05
-2.529967819399980638e-04
-1.090685958060454169e-04
3.392818453207932690e-04
-5.855285380165450339e-04
9.319981447196737075e-04
-1.429343805303089207e-04
4.699744117526942506e-06
1.632527045581749635e-06
-1.523980698180486815e-04
1.524741049678599426e-04
1.526898550109732509e-04
-3.049901839864037952e-04
1.521442231559363013e-04
-6.125600405105173073e-04
2.998610460582518925e-04
1.428585214318920152e-04
1.373959971897640935e-04
-2.124933774619485179e-05
-1.798921158121079419e-04
-3.267166445289004730e-05
-1.892352974199241382e-04
-3.858849945292337270e-05
2.671738159106831984e-04
-3.462850835909160585e-05
4.292612387970120126e-04
-1.996965371445889536e-05
-9.653869610430755742e-06
1.625822831696932868e-06
-4.447942359355499435e-04
1.761062814323192190e-04
-1.200262624745430826e-04
3.960886642093756308e-05
4.442392003818737729e-05
-7.159210947209676199e-04
6.579623377126332488e-04
3.517384675894207275e-04
-1.082794674300792599e-04
-1.112908747360208948e-04
-2.672207950443943394e-04
3.398425391174705315e-04
-1.208239407565999454e-04
-1.230706976418666112e-04
1.807158228842508047e-04
-4.300444086930623345e-04
4.860895875921309719e-04
2.988592273280093350e-05
-1.203491928606078643e-04
-1.174548006987296813e-04
-1.143433217360448827e-04
1.937854766259865377e-04
1.961788034726826783e-04
4.502772983525337716e-05
-1.074354045268668690e-04
-5.666604599048165672e-04
4.982485046688368488e-04
-2.696678306349149269e-04
1.814543857544781121e-04
1.733713823332684698e-04
-1.410086208544793207e-04
1.653028605346922244e-06
-8.533217071792323596e-06
-1.847123106251241564e-05
1.249600582413377470e-04
-4.932377856745626208e-04
4.162393746138078532e-04
-1.979712933873880795e-04
-4.679884775758294611e-05
2.594688296176449302e-04
-4.226313972179912462e-05
2.683306659170362493e-04
-3.002180662034860503e-05
-2.248791224400764895e-05
1.376148186003006235e-04
-7.710825088786642245e-04
3.026612603859855271e-04
1.597993824019948717e-06
4.094091564894741023e-06
-1.475262021890502077e-04
4.724113101851751973e-06
3.085494729178125256e-04
1.538943284159338123e-04
-1.228217472108448392e-06
-1.566421249744829334e-04
-6.174251465434011168e-04
7.526822280791113304e-04
1.389580325503278913e-04
-1.698371153443699268e-04
-3.263540685707094400e-04
-2.545427472299143339e-05
1.225235282928560817e-04
-3.493531120421084884e-05
2.652397339988594267e-04
1.077016039766197527e-04
-6.599168525208711465e-04
4.040433328903657523e-04
-5.707858380051522541e-05
9.322341967108678019e-05
-6.032053247359804246e-05
-2.123152886347719833e-04
4.003433897268737643e-04
-5.330050536551416058e-05
-1.999287614779972084e-04
1.130026828837824260e-04
-6.404966525659230121e-04
7.437427352284165958e-04
1.456121070751011603e-04
6.238055387100953295e-06
-1.324330155959130674e-04
-1.180635992293572128e-04
-1.034005433341006312e-04
-2.410643234408218225e-04
2.319815351118896139e-04
9.522686599363740863e-05
-8.036934248446184334e-04
7.397316989193700610e-04
1.478809986762695300e-04
1.453728712358685376e-05
3.404594515071317727e-05
5.308115643675041703e-05
-8.188438790957012429e-05
8.586839626067726443e-05
-5.504265574671368970e-05
-4.774648992416330418e-05
-6.558266108744037742e-04
5.618089896670982845e-04
9.569723874523467075e-05
-2.226707995955288751e-04
6.525830603718675354e-05
-1.075345526145857146e-04
3.284031191444679526e-04
-1.513097385636770378e-04
-1.718168029061837687e-04
1.158222103423094779e-04
-8.128970739616262452e-04
7.052295340535252866e-04
2.458439334910801004e-04
9.795038432749991492e-05
-4.399743453061292706e-05
-2.832419833242592045e-05
1.435974555618609678e-04
1.230952549469755958e-05
1.863245719588708092e-04
-2.516747401000378036e-04
-8.454818313635127864e-04
5.399552208460610056e-04
-6.336342993837947718e-05
-6.167635259670669820e-05
8.746189181607618237e-05
-7.314316564648375380e-05
2.202710675018224019e-04
5.313893894461086938e-05
-1.157877230832896634e-04
1.958086364186621543e-05
-4.555287924502795702e-04
5.956370326602826708e-04
-1.836139925758597797e-04
2.584111194862849644e-04
-6.228840847775923709e-05
-7.819473760479853260e-05
2.099478824250691192e-04
3.842940710382864225e-05
1.693875780800158795e-05
-3.127127300372853271e-04
-6.454338232937036632e-04
3.923761980307884350e-04
2.074192723303265303e-04
-1.311725834351859163e-04
-1.181603997863706110e-05
-4.354018719761204603e-05
3.852950823204977660e-04
-9.745699763455165326e-05
3.499788904753534232e-05
2.035422541442964047e-05
-4.462333105526583316e-04
6.189070861099429900e-04
-2.939982516509896649e-04
1.889601276978916626e-05
3.100602476361528583e-05
-2.585280381990551408e-04
3.700329986274700071e-04
-2.205610601197108094e-04
1.048897584166460318e-04
-2.790523899947951699e-05
-4.672897382118838924e-04
6.169594542037579784e-04
1.979343129233446249e-05
-1.231029581812592320e-04
3.532903351668213943e-05
-1.153847242734798732e-04
3.525011919814325468e-05
2.989879092278405757e-05
-1.307247041039410356e-04
1.647023031525310149e-04
-7.611168841703325931e-04
6.026198478412329688e-04
-1.527054643137346797e-05
-1.964310117212463797e-05
1.326462225419396189e-04
-1.559118169772974843e-05
1.461878750087622120e-04
1.600213239561327442e-04
-1.272304594178648213e-04
4.653881052852552967e-05
-6.929845348964099386e-04
3.996626414114509262e-04
-3.358884333599335571e-05
1.424003350250077008e-04
1.110423396397811043e-05
-1.231636939211260451e-04
1.966788590537771049e-04
5.465017831400212746e-05
6.091844508158512840e-05
-8.956950558902082690e-05
-8.541342143752786963e-04
5.145500619035183474e-04
-1.024086055689143760e-04
1.952764600100416470e-04
1.880325755235895109e-04
-1.231148314870599101e-04
2.559720463843857545e-05
2.437316923473173297e-05
1.786453774526545351e-04
3.060656036257047093e-05
-7.252370179331436807e-04
5.045608382810236239e-04
2.097560946171087059e-04
-8.460592636194144093e-05
7.836683468911959495e-05
-3.702694463679253711e-04
2.472471244553076314e-04
-5.323941472299587735e-05
-5.130352212092738497e-05
-2.047366900048750815e-04
-3.607489961018683433e-04
5.491535566173346133e-04
-6.854551635475757804e-05
2.280513287098100248e-04
-8.650218553648100122e-05
-9.634919393857423382e-05
3.513133902014193687e-04
-1.166849528867821846e-04
2.560366923394391897e-05
-1.372755958994300771e-04
-6.051960139890215406e-04
4.531078276261648230e-04
-1.382847630693033107e-05
-2.201678449812483163e-05
1.237168294395964391e-04
-1.866765289220808971e-04
2.677189220571785620e-04
1.137077345685653045e-04
-3.838670805599105789e-05
1.164731523407220898e-04
-9.478125190081431286e-04
5.831790868585131878e-04
1.315046289618568601e-04
1.382451326006454452e-04
-7.280189036359591553e-06
-1.527929149172808357e-04
-1.459627174925854959e-04
1.656244266729347072e-04
1.896024040545326691e-05
2.443687782970524187e-05
-8.859266076003111980e-04
7.975824312891645600e-04
3.975735447970269051e-05
4.508033377465256529e-05
-1.019452484500786398e-04
5.634526312776070640e-05
6.196382554326447544e-05
6.717854292350578091e-05
7.162389778146522007e-05
-7.763818305394289848e-05
-6.860580065468370979e-04
5.350290480985599824e-04
-7.650049078169263237e-05
7.346365319764759367e-05
-2.355663876105558354e-04
-8.779248651858289644e-05
5.170639364523647689e-04
-9.922051666253373526e-05
4.717644034289063346e-05
4.083549889083436279e-05
-5.759602465704419423e-04
4.856128172600780919e-04
-1.313955617785872432e-04
1.439734769924275934e-05
7.445221684797660860e-06
-1.522562032240933701e-04
1.456656151378125225e-04
2.909176637503090219e-04
-2.156367021492901944e-05
-1.812415398098654899e-04
-6.456046660025275760e-04
5.693560277235371449e-04
-4.544500578201765583e-05
-4.814151676984506099e-05
1.039281275806471628e-04
-4.666965959924478091e-05
-4.199056416436485178e-05
-3.463462436337466887e-05
1.277519180223068041e-04
2.921135249187183417e-04
-7.629444992126643626e-04
6.238040951678641959e-04
2.629039186014717241e-05
3.742725438573887950e-05
-2.593599753489376505e-04
2.031390526521122380e-04
5.098089134959769771e-05
-1.057859125360540765e-04
-1.144580781768520303e-04
-2.796515937221442124e-04
-6.003927133808145385e-04
7.556681958442684581e-04
-2.469601072231303722e-05
1.117437024961557873e-04
9.817507784785351724e-05
-6.440410859647702777e-05
2.349614497423914428e-04
-7.166984419284429925e-05
-6.901380534853837091e-05
-6.285286882391827366e-05
-3.592528911903724838e-04
4.139976120438833350e-04
2.720870728026587707e-04
-1.757872949640528870e-04
-1.513096270155256085e-05
-4.674563821531913530e-04
1.451996709388756824e-04
1.442208180037569867e-04
1.401712746595618010e-04
-1.899071378749305646e-05
-7.902093725104728222e-04
4.215137017681540462e-04
1.077329809332738223e-04
1.005247605396683948e-04
2.481504549517551841e-04
-5.915207569083362482e-05
9.443073928256610211e-05
-5.405514274661099626e-05
-4.712282763394298767e-05
-3.784055549780678755e-05
-9.423594514852928717e-04
9.007091718914490711e-04
-1.551764147651530561e-04
1.616036314868617347e-04
1.717152702854158393e-04
2.690062875883617475e-05
1.841735131388650716e-04
-2.725544590855927219e-04
-2.754478727130607336e-04
-2.822024788550800520e-04
-2.923852531279529923e-04
4.576988554730222628e-04
2.905674797683847812e-04
1.228417528781970127e-04
-1.969782635173832042e-04
-5.754906010922941650e-05
2.367907247815147676e-04
-2.288345393372374936e-04
2.245000440076287131e-04
2.237764580701661287e-04
-8.412508947899560892e-04
3.863083452330229707e-04
-2.136037707459610669e-04
1.052610072333463214e-04
1.217004218995121020e-04
1.402134944577105419e-04
1.599529035836547738e-04
2.734977508705655746e-05
-1.060545832178045743e-04
-8.869461285528381625e-05
-5.318257787927752620e-04
5.474885906824205652e-04
-5.555288727794656270e-05
-5.231526963223734404e-05
-2.056537208236901022e-04
-5.747971771110372001e-05
2.401376934640911040e-04
7.749968612064221934e-05
6.568100486507657296e-05
5.283106606209512146e-05
-5.706942927407738500e-04
6.371554437590177394e-04
-2.903503451831629064e-04
4.164597018840503056e-06
-4.865059300977949061e-06
-1.646780980056511184e-04
2.876944345779493240e-04
1.314426641457156972e-04
1.292867904984368050e-04
-1.768265602567012384e-04
-6.346148489774247441e-04
5.867102761586010309e-04
-2.255839263677620728e-05
-1.736845754165503583e-04
1.333595490265284994e-04
-1.694108813813919082e-04
1.389204094191841612e-04
-1.620853506384423170e-04
3.011370539780396354e-04
2.944922389552475724e-06
-9.039270902945434425e-04
6.322828221014845053e-04
1.863356330036490202e-04
4.662668115287756142e-05
5.990312889781054199e-05
-7.988373350940553908e-05
2.366164321621542198e-04
9.286407803815965823e-05
-5.426100313429161476e-05
-3.579630387435742004e-04
-9.710672728732097506e-04
1.005794528213485714e-03
-2.250959027523392983e-04
6.745552453318650883e-05
5.359433797763412223e-05
-1.127965754451863971e-04
2.729863662564589567e-05
1.697865537966641565e-04
1.029813074083147787e-05
1.596409606743069871e-04
-6.028207052659749661e-04
6.217627709687912913e-04
1.802508128900658717e-05
2.643027368396405432e-05
3.552093313030926737e-05
-1.084262025151022305e-04
-2.538473163690878527e-04
5.623306858424406652e-05
-9.417770633001607190e-05
-9.483547382875079455e-05
-5.558633004907172432e-04
6.594592551359169941e-04
4.225070883556095028e-05
1.871718430924763942e-04
1.792810955977162328e-04
-2.861642851988993206e-04
1.178801911086144068e-05
-1.474972619995243580e-04
1.514177496611837875e-04
1.453826185355364814e-04
-4.710683462578738783e-04
4.379735727579014124e-04
-2.696544765923319619e-05
1.175214793193842205e-04
-3.493881910101146902e-04
-5.436709986430983139e-05
-6.531652271633765815e-05
2.285042099552959125e-04
6.469378717045327649e-05
2.068362479976658158e-04
-7.176599232523851821e-04
1.910719279190735160e-04
1.870795550264018345e-04
3.379793731198075905e-05
1.892923398628446302e-04
-1.093073515202149025e-04
5.335536949656541762e-05
6.654125652164349805e-05
8.228230087523262894e-05
-2.052577232759853312e-04
-4.916024556747087410e-04
4.432665627004396774e-04
-1.478698724158866739e-04
1.758167845311028952e-04
4.051699782994383763e-05
-9.646709511291976099e-05
-8.294959273069800086e-05
3.859122441513676625e-04
-6.342109923706005853e-05
-5.780351737577219060e-05
-8.179635612262727050e-04
5.553653244261720634e-04
9.509872589881131894e-05
9.032484873920315692e-05
8.358015917362673561e-05
-2.300099130360368444e-04
6.537013083955432551e-05
5.446681615806064626e-05
4.272236214314420976e-05
-1.221811311574180845e-04
-2.873702149973178088e-04
6.155817822329125860e-04
-1.595623923783550150e-04
-1.710130638701386945e-04
-2.869720656656496311e-05
-3.732970829952442769e-05
-4.384372344136041997e-05
1.048115745208060885e-04
1.038604134921078615e-04
-1.990013502269237164e-04
-3.458956666798541522e-04
5.786030054704750011e-04
-1.985007235705047078e-05
1.469570131924149568e-04
1.007606392300951945e-05
2.628003930112453174e-05
-2.632431353631891637e-04
2.086302401409073084e-04
-2.373922699294365567e-04
-7.600648312615167798e-05
-5.281921943477449564e-04
5.423050716544588210e-04
2.366020625720826969e-04
-2.241126117061868143e-04
2.288900748537430353e-04
-8.217783392239878261e-05
-8.850897541162016768e-05
-9.461692607442167321e-05
5.267845508106248025e-05
4.868300976755287701e-05
-5.640371379907571474e-04
8.086531292297291290e-04
4.680925524256802635e-05
-1.032696700777561570e-04
5.277953031288312919e-05
-2.485591116770670926e-04
-9.237192308621139142e-05
6.300347939933330691e-05
6.450758712383382820e-05
6.440199003634647888e-05
-3.952342799292872738e-04
5.166716979887137160e-04
-9.886476943782695061e-05
-2.578704422224716367e-04
-1.124905259516233744e-04
1.851965530762489094e-04
2.536021685291750739e-05
1.714140986181477149e-04
-1.392047425775359512e-04
1.618631382511961274e-04
-4.511641894263406535e-04
4.630731316151260137e-04
1.578241919236396179e-04
-1.464621562304132174e-04
-2.974867297639262808e-04
1.622482394523516735e-04
1.644362127299400637e-04
-2.910037010915436173e-04
1.667438775758910583e-05
-1.330795221580933791e-04
-4.348675672727438839e-04
7.900028165117273064e-04
-1.204241226569615979e-04
3.821294303322027199e-05
3.502281798978435379e-04
-2.528223453606949435e-04
-9.292937017637618283e-05
-8.614067325901831771e-05
7.220911019721700560e-05
-7.608005897476008319e-05
-5.313254428957753109e-04
8.425279846412114804e-04
-7.442290033860118545e-05
-2.303128216790731298e-04
-8.267301601454819392e-05
-8.892685820388910667e-05
2.091117415348570346e-04
4.897195000498686372e-05
-1.111100749231363918e-04
3.447472016684602087e-05
-5.820348730860555380e-04
7.861837217205142753e-04
1.719498456659363829e-04
-1.359506843255253077e-04
-1.376594525715581555e-04
1.403861588408657710e-05
-1.388081067586976157e-04
1.403027250490858297e-05
-1.378176602143410274e-04
1.686756220977336177e-04
-5.921975107118068651e-04
4.789362784047284261e-04
1.779002238505845946e-04
3.064221346118240082e-05
3.708513351797106778e-05
-1.081845486238227152e-04
5.221752782409915742e-05
2.126412641823745568e-04
6.740559593227453839e-05
-3.839566804933197013e-04
-8.366408817304723123e-04
6.927507160536492152e-04
2.368083951675493720e-04
-6.827506703802559531e-05
8.268547104981160923e-05
7.936824382879476372e-05
7.440641740652956617e-05
-2.373009750718719536e-04
-9.268675140184712887e-05
5.068600203641051866e-05
-4.172553993891084845e-04
4.874750863457440490e-04
1.867466600320603624e-05
1.603677887451783197e-04
-1.552022412707630889e-04
-1.647741198224116142e-04
1.319338163298152539e-04
-2.777691375641859299e-05
-3.335737771713584090e-05
1.153388884851673280e-04
-4.971315611263500776e-04
4.180559518025807829e-04
1.142330223727335372e-04
-3.549682552500997774e-05
1.211718968196192546e-04
-1.790529686562759241e-04
-2.102757219917954866e-05
-1.547211565912955857e-05
-1.011020586158606990e-05
1.474238906989569606e-04
-6.110989925759004009e-04
7.660783279432877664e-04
-2.985748383178026726e-04
9.837615814479136499e-06
1.657119903540456242e-04
-1.357936259008762046e-04
-1.313688192251326705e-04
-1.258113567595650379e-04
3.389854547998914672e-04
-2.626029016578778274e-04
-4.045916543683055703e-04
6.758589762964871146e-04
7.923219571452640262e-05
9.374128242949863424e-05
-4.438398199926335715e-05
-3.094584780833192344e-05
-1.954430950248373900e-05
-1.636855938243278203e-04
-6.310523837637317694e-06
-5.580977106501232780e-06
-4.667143930844417504e-04
2.890714015643082923e-04
-2.641787600755103542e-05
1.135426170768434584e-04
-5.302660341842749259e-05
8.519067249340482411e-05
2.238938005125421513e-04
5.862550418472617028e-05
-1.049107158566075495e-04
3.879479793576756495e-05
-5.782148782317519334e-04
4.854752263715998739e-04
-1.271863734498160457e-04
2.497904207382066024e-05
2.612153469354789063e-05
2.842881083390762825e-05
3.144691352000228901e-05
-1.178885620546189046e-04
3.429005179736220967e-04
-1.124693161102351797e-04
-5.687783133381111352e-04
4.996729340176482136e-04
-2.640863028664020614e-04
3.921338163397814121e-05
1.890825151137398878e-04
3.322896059622407287e-05
-1.228285000696778973e-04
-1.261455847869051854e-04
2.361488973753114661e-05
3.267388235726903793e-04
-5.898601804371166307e-04
6.308511491162304124e-04
-1.310178829161417373e-04
-1.290176499194882237e-04
1.788593124176329589e-04
-1.232091011152265355e-04
3.256744051857545630e-05
-2.696609422727548480e-04
-1.146653900754367281e-04
3.446985925703934146e-04
-2.651022680740124484e-04
4.971130262343332641e-04
-1.154446035945108135e-04
3.328623637295870165e-05
2.768642264143415777e-05
-2.847956008625974296e-04
1.641679706269939560e-04
1.705008432786277678e-06
-3.137959966470851869e-04
-1.860369266535014080e-05
-6.377181777689897501e-04
7.288801128211415360e-04
2.671806278293070431e-04
1.138166015221604873e-04
1.162430809412497471e-04
-1.836311811427478191e-04
1.290780336309598061e-04
-1.671860285755573882e-04
1.473475373587550242e-04
-1.489009452806811374e-04
-7.514629099963790818e-04
4.754283458268055221e-04
1.746432851615372208e-04
-2.804774119904865446e-04
1.784224197950026812e-04
2.582746638958706455e-05
3.302715964524522980e-04
-1.285301881145875101e-04
2.309264236585162390e-05
-2.826576965800890349e-04
-5.877808989446408261e-04
7.863213149043684052e-04
2.494648765712134715e-05
-1.254935511839011324e-04
1.820685158705892667e-04
-1.209825251520709328e-04
3.286241355993599637e-05
1.851999285180983327e-04
3.026792852209038884e-05
-1.272009090892693868e-04
-8.977806731740618903e-04
7.703324981184812327e-04
-5.352268019035257445e-06
-1.725133724765637593e-04
-3.558360496914397510e-05
-5.148408569026764986e-05
3.909930097962184851e-04
-8.065552480489177013e-05
-9.248801593077448063e-05
5.078414141059497857e-05
-5.661175855757362169e-04
8.034101014804308910e-04
-1.132942820552609864e-04
4.030859518607558996e-05
4.298175803785449277e-05
-2.584602301361845931e-04
5.093302990751429917e-05
-2.500224758033046057e-04
5.904369160349005039e-05
2.150291486184923676e-04
-5.450068769763598102e-04
6.782351633264176172e-04
-8.231202153911981972e-05
-7.980426451886993961e-05
-7.691244856013375059e-05
-2.259799155572659191e-04
2.361273126192285838e-04
2.414155534674568748e-04
-2.100833183854648170e-04
1.022703116398101305e-04
-5.001427554772424743e-04
5.764459596620942310e-04
1.274135427388374824e-04
-1.690743965446060042e-04
-3.133102634062817247e-04
-1.529578793427923539e-04
1.592055139815196356e-04
3.178842010326491264e-04
1.704377935058319323e-04
2.205639885087282438e-05
-8.901128468304752954e-04
4.858519129629950057e-04
3.031267374163578191e-05
3.237021398531152253e-05
-1.180334783298253468e-04
3.713031205050227820e-05
3.454748837930317253e-04
-2.610039641274095219e-04
-1.038338154309571392e-04
2.065281780865813824e-04
-7.034263516018063149e-04
6.754969241076940519e-04
2.229955029542427089e-04
-7.779791820133145626e-05
-7.484110222942487369e-05
-7.382421229590568467e-05
7.743535934751442495e-05
-2.316389363952988593e-04
-8.551628096179058887e-05
5.828501485918568821e-05
-5.627136764493608856e-04
4.935074381945887042e-04
3.284593120395308454e-04
1.091964463307193178e-05
1.518215134493919533e-04
-1.129911666826390652e-05
-1.728864870866078619e-04
-3.326250529417236175e-04
-3.247032111829481612e-05
2.700700003113336084e-04
-6.454942960630730749e-04
5.778980348185437481e-04
2.781271715545552588e-04
-1.717098695860537504e-04
-9.073244910293821620e-06
-1.500867954053306430e-04
1.674325367040075091e-04
1.796871358947302452e-04
-1.142104328771098955e-04
-1.047453816847668826e-04
-5.555657756921162770e-04
6.690418616922075984e-04
5.927261641362996207e-05
-9.608433647825847428e-05
-2.545646644811940104e-04
-2.631106719550496470e-04
3.367143181453983742e-04
1.984413114919726095e-05
7.853008019527973001e-06
1.489961335487628496e-04
-6.241065618041640936e-04
5.882760834004438760e-04
1.243753956037217385e-04
-3.206609920068797539e-05
1.188233133602515897e-04
-3.387954325498168987e-04
1.205283968113482067e-04
-2.955536333379590503e-05
-1.791447999957159441e-04
1.291413523115746782e-04
-4.782815747916725887e-04
4.397855148920937424e-04
1.366205768951385966e-04
1.380055597681654317e-04
-1.389281826974406030e-05
-3.191178725489158792e-04
-1.673255870353105408e-04
2.889342392997909428e-04
1.342206936584242917e-04
-1.735726445101299828e-04
-4.816931000069616937e-04
8.885166271819726997e-04
-1.826076359222724094e-04
-1.853195583831392654e-04
-3.490218786206585467e-05
-3.414392769721602897e-04
4.212353756034498196e-04
-3.540644228445991688e-05
-3.263117932936742267e-05
1.245995058380076068e-04
-4.791079715773472673e-04
4.450927130971744222e-04
-1.546570995824314326e-04
1.021343134188161263e-05
1.763632780340740813e-04
-1.145186322251783142e-04
5.242831019672975287e-05
2.186985550631548075e-04
-7.423059956069960315e-05
-2.167196723942752239e-04
-6.671388712499424795e-04
8.628699557008126996e-04
-2.046266588288669930e-04
-5.506609478684637891e-05
9.086798419763119868e-05
2.333445523655075754e-04
6.750926327528321389e-05
-2.535674877788762706e-04
-2.714725744472669140e-04
1.459976948146594361e-05
-4.625435852183530996e-04
5.868818103167180566e-04
1.120349598824390414e-04
2.499226106325597857e-04
8.558798514942880927e-05
-3.806296369913858037e-04
7.209215115530416172e-05
-2.347810190864008497e-04
7.182495554063086864e-05
2.286347469824161552e-04
-5.277256449222074821e-04
5.488059287558861915e-04
-5.188506568406308305e-05
-1.942171370869662369e-04
1.211318062331392400e-04
-2.203422459398095864e-05
2.912008448766669226e-04
-1.603645207783830349e-04
-3.766788191051444677e-06
-2.050735169613271022e-06
-7.654205111763805755e-04
4.531024640060304703e-04
1.445985678974100468e-04
-1.173581003191953474e-05
-1.513813666196398349e-05
-1.749478537898150354e-05
1.343424237425463639e-04
-1.696178761129888508e-04
2.914548892742385754e-04
1.441610677340118851e-04
-4.592300308861478934e-04
3.118587841925416133e-04
1.545132619316565023e-05
-2.809292722457477757e-04
3.251728593114157080e-05
-2.653760402525418070e-04
3.509176465668788279e-04
-1.024806641444412194e-04
3.579411262344487504e-04
-9.890968055740288344e-05
-7.100515068099294818e-04
5.082675307825436405e-04
4.668481040102440615e-05
4.161776168161784796e-05
3.549946770930584837e-05
-1.240594718813575422e-04
1.734964951885002108e-04
-1.397266535583552044e-04
4.638081115728364378e-06
1.491174031573909778e-04
-7.740787519375492108e-04
4.397347831932188304e-04
1.287656591104458057e-04
2.769071088184170155e-04
-1.838074250719519181e-04
-3.264184414192122086e-05
2.725698426180593235e-04
-1.838399740734736137e-04
-2.874649557466734445e-05
-1.778275727042690217e-04
-6.311920804684848863e-04
8.999119954129820593e-04
-1.621991074154681184e-04
-2.891033304043624356e-06
4.435588029642256829e-06
1.219688822085504937e-05
1.727498978447760476e-04
-1.245272534540662018e-04
1.882025730673972451e-04
-2.626016469110856828e-04
-5.616055000918268505e-04
5.117690835129617630e-04
5.828228966663214042e-05
6.153093319685251790e-05
-2.414827025370934173e-04
-8.791997028921324337e-05
5.220599141084686715e-04
6.236417482086259434e-05
5.863124845921979323e-05
-4.048818250795262956e-04
-5.653629896261608842e-04
6.453207376831229282e-04
3.281991123693513385e-04
-2.956281238172731485e-04
-1.574539281207349144e-04
-1.720366406775135685e-04
1.192927928171435149e-04
-1.980206055257529435e-04
2.502582773950047545e-04
9.164483363176416961e-05
-5.207116395151577173e-04
8.548227046748706291e-04
-2.069632359482894476e-04
-4.452475996671811877e-05
-1.846723004810765811e-04
1.343151160354089601e-04
3.006956835860023856e-04
7.872633861973292238e-06
-1.350971910860580122e-04
1.759514800473180416e-04
-1.043214273117473940e-03
4.797837490502098899e-04
1.516420919267070430e-05
-2.999293677068821896e-04
1.461174189869052264e-04
1.340519218825781365e-04
2.756856749310857523e-04
-3.803112293408319002e-05
1.094369796587623431e-04
-1.968141021965466521e-04
-4.988280839032064196e-04
7.290308133976090106e-04
2.817706789290031670e-04
-1.631188397089003601e-04
-1.490705448323672720e-04
-2.877118540051038951e-04
-1.224888471798794409e-04
3.455816587979289398e-04
4.765367267598597098e-05
5.145271739559891417e-05
-1.016344594277056789e-03
5.066713880986943369e-04
3.486064025405325936e-04
-1.165137785652765808e-04
2.763083244756559976e-05
1.885054210283764340e-05
1.629502972341245238e-04
-1.499621006554246268e-04
1.484978218150991383e-04
-9.700679178655970052e-06
-6.246330225367375394e-04
7.449085685192069354e-04
-1.738147644625245868e-04
-2.417743564366866705e-05
1.254230723538307939e-04
-1.829736397033931061e-04
1.186924355260954073e-04
-3.756602778525463279e-05
-1.936577736283346177e-04
-4.389783775483013762e-05
-8.083578165831727157e-04
7.179619855894295473e-04
2.631500992623736295e-04
1.163439630694900221e-04
2.775420417655187033e-04
-1.691340302910973050e-04
-3.642597651085162091e-06
1.019976156755362177e-05
-1.285726817649845565e-04
3.688171308873435688e-05
-8.674941304152363484e-04
6.672838172846164628e-04
-8.929398233862431765e-05
6.706578295322904735e-05
6.837951785860467565e-05
-8.509696343945473418e-05
6.472120193619350793e-05
6.040622524402998830e-05
-9.772997868929786966e-05
3.535154462016869194e-04
-7.218833442880114980e-04
4.909188629117194197e-04
1.773280658588606085e-04
-1.366972555267939745e-04
6.692171971236337577e-06
-3.079047512635587529e-04
1.404126704741826806e-04
1.312274623041408605e-04
-2.991106511096921710e-05
-3.738621002674082875e-05
-6.536672021830612286e-04
5.630958557627495104e-04
1.037287771350834786e-04
-4.794681990128369829e-05
-4.456498458095505737e-05
1.135757247685964934e-04
4.259347061596011085e-04
-1.763368700014015687e-04
-1.682047967993905509e-04
-1.608766420218275296e-04
-4.602999739434150174e-04
3.061989157277407989e-04
1.545497793733173486e-04
1.526350470670688887e-04
-1.573567661475528594e-04
-1.235968497997890607e-05
4.353349709040511698e-04
-1.870951699724399011e-04
-2.005397220822287664e-04
-6.195096077280253140e-05
-6.859087778682204043e-04
5.225967057684520987e-04
5.502512951782475138e-05
2.010202387117022570e-04
4.561208085908304314e-05
4.677592983048326500e-05
5.176160583825717388e-05
6.005764194159892208e-05
-8.171333157838762593e-05
8.324961437788695945e-05
-3.615955914807780216e-04
2.612702679008263845e-04
-3.377516275068425614e-04
1.296123323351263291e-04
-1.538227378309725332e-05
-1.623996924753182180e-04
2.991211054250697272e-04
-1.563229504312152007e-04
-2.381766363532964844e-06
3.036740112022574714e-04
-4.584123574130834515e-04
3.056946167908449787e-04
-1.503958793806611165e-04
4.383097282331610541e-06
3.120926825398432540e-04
-1.431404136233755829e-04
3.166788951118283332e-04
-2.926181088722366614e-04
1.211903276791795871e-05
9.818957553310519740e-06
-6.048653496218049262e-04
4.569515081814316511e-04
-8.768544622312867995e-06
-1.786830005476747630e-05
-2.744900100831198548e-05
-1.893615681706979680e-04
2.600671877710061027e-04
2.533791015182196402e-04
9.627064312593271536e-05
-3.635012187305518066e-04
-6.680243397826797751e-04
7.085223679397885041e-04
2.563483842312502163e-04
-1.939668778195399366e-04
1.198609535996944422e-04
-3.288274694265861048e-04
2.901953634675578453e-04
2.976817562272947044e-04
-1.544180608030808839e-04
-3.035702001350341645e-04
-7.602361922272452607e-04
4.594307463138521189e-04
-1.021364426272645079e-06
4.530774592633426056e-04
1.440266150459766116e-04
-3.170621196881949640e-04
1.386087827020658647e-04
-1.668689672867228082e-04
-1.238477651697073653e-05
1.445371537992197540e-04
-4.589824166231772323e-04
6.183378704317662143e-04
-1.333307513265501816e-04
3.212003744390647976e-05
-2.592091349640988072e-04
6.009909565730844460e-05
7.378255619172076471e-05
2.388885506262556713e-04
9.701245621307390894e-05
-1.997668205029236722e-04
-8.043659589423777893e-04
5.719110675675700625e-04
-3.814346767745460800e-05
1.122910754113514385e-04
-4.455788839217133797e-05
1.020490297281373627e-04
-5.785489343520791507e-05
2.390205695845563851e-04
-7.513538509031257519e-05
6.805444872296412305e-05
-7.044689273506708413e-04
3.540887841850625501e-04
1.921614916197941282e-04
3.061135300497278927e-05
2.213679312481669351e-05
-2.909749857452916498e-04
6.790823093531000799e-06
1.524210590297018044e-04
2.983770598317356552e-04
-1.326603709030807202e-05
-6.300848327560617471e-04
5.840251256443739804e-04
-3.308892054237078388e-05
-3.994322369503059816e-05
-3.518410473134281130e-04
-5.287863390075789826e-05
2.470993314990489959e-04
-2.142613662565050377e-04
8.950530942188758489e-05
2.433721734848726809e-04
-6.678626051108426959e-04
7.128118612851838416e-04
1.127166935858440414e-04
-2.726359807499450705e-05
1.394950248679956888e-04
-3.035084744925873874e-04
1.596644476350426412e-05
-2.763839228598479478e-04
1.918552659190568468e-04
-1.058660829028149899e-04
-4.070416684816987826e-04
6.614250804463357811e-04
-2.573774269910993106e-04
3.462791802256819356e-04
-1.212351942664400661e-04
-1.335375188767922057e-04
1.574201726477792861e-04
-1.631295790040868392e-04
-2.620442325966846906e-05
-4.121567852489048698e-05
-5.123821938966320686e-04
5.448336293813295979e-04
7.941441214629870664e-05
-7.708979350760176898e-05
7.550240537224050510e-05
2.318503356560496376e-04
-6.630986100006041055e-05
-5.682124358419233704e-05
1.067500266536077668e-04
-3.442790449881663920e-05
-7.865815353656146428e-04
5.959296075492440201e-04
-1.601230812906173293e-04
1.490494280831300899e-04
3.024167090458748154e-04
-3.104601329798848406e-04
-1.095355352635470586e-05
1.332329880971093428e-04
-1.824232088425747152e-04
1.110573942778221465e-04
-6.637721972336182996e-04
5.459381505640129072e-04
7.913828662622457259e-05
-2.322064601328938831e-04
7.032232286293023382e-05
2.241022946395899106e-04
7.648274327979465029e-05
2.373797337280643275e-04
9.569473613710703674e-05
-4.434564015413023556e-05
-9.466937666069256962e-04
4.394705922533488130e-04
1.461117259909453772e-04
-1.487989992235204482e-04
-1.403032206724784609e-04
1.905556325443294569e-05
1.769480238259171919e-04
2.860103737535145345e-05
-1.203442376355977621e-04
1.883220816699124681e-04
-7.235143285633108615e-04
9.590411665813450672e-04
4.800180728892428431e-05
-2.524918148007603154e-04
-9.541473240205227313e-05
-9.163244737879911979e-05
2.160508203042796013e-04
6.415115015917758907e-05
-9.001557002756636590e-05
-9.415031645004124522e-05
-7.112801520024675857e-04
6.527161711175578571e-04
3.087781473628795255e-05
1.702693983942638056e-04
3.372858292684691711e-06
-1.639595540758576574e-04
-2.582040615762654385e-05
1.133825858439872742e-04
1.018443060344766598e-04
-2.122572779813375310e-04
-9.808084690111648716e-04
1.001106841419244263e-03
8.809346514929180367e-05
9.491064920915484344e-05
-1.994334836323973675e-04
-3.265222042558539589e-05
2.890958336868642902e-04
1.542230481675659548e-04
-1.334718097817425529e-04
-1.176068003254702961e-04
-5.623659562981687997e-04
5.149112097118911397e-04
-9.074947516742791443e-05
6.183327820699811785e-05
-2.478549390845156508e-04
4.887742878322259149e-05
-1.151807311633463310e-04
1.766404792565250256e-04
1.626725044598434898e-04
-3.215877633814544639e-06
-6.250244946147253278e-04
5.870322851432878061e-04
1.241046281502668170e-04
-1.824393493235682332e-04
-2.749811556122316460e-05
-2.187626243539094581e-05
2.914052581693635517e-04
1.483738274712873288e-04
5.626510732897042418e-06
-1.379988660585924247e-04
-7.412817269761367255e-04
3.312599634423603226e-04
3.326411579195320540e-04
-2.794055140497165158e-04
-1.312689707783890221e-04
1.472318374901629367e-05
6.797556647900174851e-06
1.510385477815730443e-04
1.431600638283114834e-04
1.365201295046856761e-04
-6.312447960164237724e-04
7.393747577435623398e-04
-2.398775589070384625e-05
-1.748784128660194775e-04
-1.877454702411744016e-05
-3.190260923745902679e-04
1.446155382366949972e-04
1.510013031211532861e-04
4.905188492319743325e-06
1.116472137907053472e-05
-7.460170266264680352e-04
6.323197341270942948e-04
2.612959916822685071e-05
1.818347168142690415e-04
3.115730230786014146e-05
-1.208871151721980825e-04
-1.218440340571820091e-04
2.821442628486436289e-05
2.413316577205264432e-05
1.863210990745844676e-05
-5.983970305243989504e-04
6.147860316092293182e-04
-1.561289299711250710e-04
1.410099236703021819e-04
1.332708191715541873e-04
-3.316371643079887876e-04
2.723900092133330715e-04
1.144573713135923598e-04
-4.238362649923996858e-05
-1.980466642816593095e-04
-6.576306349227839217e-04
5.625737824293688223e-04
1.056672244852937739e-04
-4.474226548142815464e-05
1.112087103867704415e-04
-3.708450423503706513e-05
2.729606375779379708e-04
-2.719189618984659768e-05
-1.750268738872353086e-04
-1.831642060342536805e-05
-7.780030320103457474e-04
7.501681952874758108e-04
-3.165660949354158699e-04
1.418167332178381281e-04
1.418697094213252664e-04
-1.104094134744563567e-05
2.935879495758077348e-04
-1.225468796922643778e-05
-3.181450265216597437e-04
-1.366143846143151484e-05
-4.719989693810960679e-04
5.957952856011957798e-04
-1.445838985956470679e-05
-1.663527918897425909e-04
1.402758136309124621e-04
-1.625564772080033719e-04
2.985277466608440844e-04
-1.549023531149853875e-04
3.018381605339593990e-06
1.618791720778267867e-04
-7.465373864011478656e-04
4.819642516831441426e-04
3.247392135215139148e-05
1.935150047659867382e-04
-1.034177427182933235e-04
-2.484544015183657055e-04
3.682067177471847570e-04
6.752249322535042229e-05
-8.293785956693531169e-05
-8.362358919686418567e-05
-3.925842826233419056e-04
5.159902143066029791e-04
-1.043032946492994601e-04
-2.693937000040734107e-04
-1.312178637482993800e-04
-1.467220930256499093e-04
4.479358048968541369e-04
2.803596724530861518e-04
-1.908861256329079414e-04
1.029577416571905062e-04
-5.161207566609606794e-04
5.461297151640716416e-04
-2.197452298107068457e-04
-6.726913366079647011e-05
8.777761587326805707e-05
-6.014946109737721560e-05
9.885424166433409178e-05
2.591302532127328934e-04
-1.901447531816859659e-04
-2.868219542294591655e-05
-7.826821832920802290e-04
7.519870041494444279e-04
-1.550208381618360415e-04
1.583357194623640147e-04
-2.916497809523500959e-04
2.079429842015929883e-05
1.799536642676864326e-04
3.381322104997851858e-04
3.719522428624559411e-05
3.966634312464765511e-05
-8.755490602062695376e-04
6.481943968288036984e-04
-1.194445302834560251e-04
-1.266096720506296582e-04
-1.359135212673672540e-04
1.583593146483375832e-04
-6.021310007074757264e-06
-1.788921225429506684e-05
-2.898976995396873929e-05
2.666416029486657919e-04
-8.088049108867687801e-04
8.650011779407237953e-04
1.002802042347609752e-04
-2.038594568685687209e-04
-4.773610926729196979e-05
-1.948179653711743452e-04
1.171643587942358634e-04
2.771288890307403762e-04
1.317831506950766787e-04
-1.428910089536068323e-05
-9.244291266046443523e-04
3.003725225394033248e-04
-1.906412188872952822e-06
7.781783885211864925e-08
1.552773801576143259e-06
2.928116459386321202e-06
3.096925475912058073e-04
4.642240371603848555e-04
-1.438865386420676870e-04
1.100795222314772711e-05
-9.024860025381119515e-04
6.247917045444100924e-04
-2.902802085615242443e-04
1.667891399749398473e-04
1.227525904912873124e-05
-2.960161565599537690e-04
3.101792672404280827e-04
3.608776285260379248e-08
1.471241820564134250e-04
-1.119525885492187786e-05
-7.797985085356013823e-04
7.407623178831168088e-04
-2.691340800063023731e-05
-3.089097578230043069e-05
1.185884058696151080e-04
-1.887763840491152464e-04
-3.744991700598323934e-05
1.147905339688319771e-04
-3.725021148781606736e-05
-3.582804402626293098e-05
-6.439099783627881546e-04
7.324403941447073241e-04
-2.677017054006958059e-05
1.300022028648438672e-04
-3.234457024682348982e-04
1.383365335408179970e-04
1.415544281681073674e-04
-9.146211309333832662e-06
1.435054912376492885e-04
-1.122461307513133941e-05
-6.261251912820871204e-04
2.824821292065452264e-04
-3.168915145681793383e-05
-4.222044574262723548e-05
-5.355497336388374564e-05
8.774375025285242814e-05
7.737500519279742869e-05
-8.384836932900139683e-05
3.676889170224720846e-04
5.918408514259498160e-05
-5.513202405462865573e-04
3.673048750707593357e-04
6.836929380105627365e-05
-2.276838079002129649e-04
-6.347151041644004637e-05
-2.024093516106506899e-04
1.178866041578269729e-04
4.390256083711527226e-04
-2.622138253460172263e-06
-1.396761069098481980e-04
-5.832336047808345204e-04
6.496336312916994090e-04
4.876477033935604807e-05
-2.501331234261871162e-04
5.774672142240656707e-05
-9.589171291001221341e-05
5.192192256581148514e-05
-1.089138299243783581e-04
1.849992590277510529e-04
1.713615778442100911e-04
-9.119880949706075197e-04
5.979199900447675553e-04
1.243246697065134823e-04
1.094534977666794615e-04
-2.089247364388245078e-04
8.527526483587713176e-05
2.295093463071938870e-04
-8.115646965293869808e-05
-8.367075201744285525e-05
-8.319944469104384964e-05
-8.427560999407994035e-04
6.892562921963392431e-04
8.751652805571388143e-05
2.507774477043574614e-04
1.103436775049635728e-04
-1.819248085760516562e-04
1.360891767249851141e-04
-3.097404746001942944e-04
1.582966825352133150e-04
1.372686679706323225e-05
-7.438247165650749889e-04
6.320939988502164266e-04
2.171344167576509776e-05
-1.332643811447508687e-04
1.500176429376175034e-05
-1.433423991022456340e-04
1.551446941721138244e-04
1.479764963180253549e-04
2.932845346385099970e-04
-1.900991185351414773e-05
-7.887124488122215522e-04
5.783207895548261477e-04
-3.764185195978283322e-05
-1.950336033154810708e-04
1.063390112339209653e-04
-2.014139565979267978e-04
1.026509096284385054e-04
-4.935757503511732343e-05
1.056670952191728682e-04
1.100291476392621301e-04
-3.415131228358179549e-04
4.292874554640901475e-04
-1.934886066081471987e-05
-9.460382405549021877e-06
-1.519912590023710661e-04
1.020274829464882619e-05
1.713675274961790214e-04
2.585582868496850777e-05
-1.214658560283726475e-04
-1.181206950610286580e-04
-8.795426599263740479e-04
7.988798537665061207e-04
3.470526521841106279e-05
3.378459079896767477e-04
3.017014594396564010e-05
-2.777355460141224617e-04
2.460768629301565575e-05
1.743021084488340186e-04
1.875410680635561668e-05
-1.368724503272056065e-04
-7.503272124756628922e-04
4.672596552987210274e-04
1.590289394365207855e-04
1.560989082383874068e-04
7.231672688262828361e-07
-1.971659635953756889e-06
-4.686128150069072738e-06
-7.573318782843576766e-06
-1.633804987125955506e-04
1.381125005196395100e-04
-6.290516701820452134e-04
5.868696235427151367e-04
1.238121649519176575e-04
1.181040585240832638e-04
-1.930469871193507450e-04
-1.990876215480284317e-04
1.002451330927150715e-04
-5.766696424871062189e-05
-6.211310303014406099e-05
8.726528096679427645e-05
-5.247545436230866478e-04
6.960123258140766492e-04
8.747905427074824879e-05
-6.171534210297572329e-05
-5.712838246043830523e-05
-2.044843013390562766e-04
4.110941811466777137e-04
-4.211560219636372392e-05
-1.914169115322237778e-04
1.153454295326285283e-04
-8.004971787896268242e-04
5.706417519021310392e-04
-4.337253008269394345e-05
1.045859751880238683e-04
-5.290439982832296367e-05
-5.731553070947417229e-05
2.446963152378701803e-04
-3.668998870103167714e-04
9.205900077661010694e-05
2.485932538994247831e-04
-3.550024749162884654e-04
4.172836072596649258e-04
-1.816247000665439275e-04
1.363523760769452592e-04
-2.997807984199418311e-06
9.659969327466822790e-06
2.073456337928487910e-05
1.819399551330769531e-04
-2.702971939430584081e-04
-1.155794310229593886e-04
-8.797157757030756552e-04
7.946650540634482259e-04
1.780797474978348027e-04
1.805052508304342637e-05
-2.947546141812317421e-04
1.561782885591061695e-04
1.510066382485335029e-04
1.481604124116998606e-04
-1.571033270540502002e-04
-1.655547445690138432e-06
-4.536508625502296953e-04
6.229023685387848237e-04
-1.293297458761765719e-04
3.571766100574563308e-05
-1.032418075149553851e-04
-2.416291585861202423e-04
2.303428585570395067e-04
-6.111696705287487387e-05
-4.831522322081258271e-05
1.158150260733768441e-04
-6.371244492353315319e-04
5.917926204385818602e-04
2.928170804304424833e-04
-8.395356501634438460e-06
-6.875501717850716534e-06
-3.131270203637896059e-04
1.409201735665756077e-04
-1.705027752272064321e-04
-1.789886509963285006e-04
1.159314305934015094e-04
-3.532504454309999672e-04
7.029648674614905925e-04
-7.167917316369687170e-05
-8.258766529808847143e-05
-2.448192456096963876e-04
-1.003094068805965755e-04
3.510568442579099823e-04
3.462694329048671875e-04
3.768333202952024990e-05
-2.698721465786384352e-04
-8.819676991584459759e-04
6.424212026599297526e-04
3.050495034961865968e-05
2.860377684885168266e-05
2.616882104579354204e-05
-1.295258736106676839e-04
3.243803374782043797e-04
1.458452040823209825e-05
-2.959053797731319487e-04
1.560125404793154063e-04
-6.130439765452834044e-04
4.490260221621265651e-04
-1.432182929682779196e-05
1.335268237893386871e-04
-2.262953030113952797e-05
-2.480075468458526095e-05
1.271171939089646733e-04
-2.466177032293612520e-05
-2.251122929072632385e-05
1.333376762287399701e-04
-9.307095236524722372e-04
5.996820383394907980e-04
2.990437256966023958e-04
-1.546390279796013370e-04
-1.515541903962890459e-04
1.551349036484458077e-04
3.070984889211258138e-04
1.512588648317888455e-04
-3.127146563913517688e-04
-1.693811526323379718e-04
-7.918088851236829715e-04
7.197249893499142043e-04
-5.898012536749224714e-05
-7.510679194646594772e-05
2.147395600159174062e-04
2.013445963646906783e-04
-4.194618084904504652e-04
1.841558046770416616e-04
2.903684798828865907e-05
-1.217507268776090384e-04
-5.736421938494645507e-04
9.615235136417595941e-04
5.766686711604704233e-05
2.229770747947255514e-04
-6.993089187304379114e-05
-3.647973759452817792e-04
-5.257539883953586473e-05
-2.023039212844926819e-04
1.011326027633230394e-04
-3.628107039856278532e-04
-3.727256045231306845e-04
6.828922598087918240e-04
5.890489876035729256e-05
-1.069059737206094264e-04
1.869384932185858916e-04
2.616669401252704296e-05
2.205408825288157797e-05
2.254210749143628284e-05
2.774637695583847660e-05
-1.152018827772976833e-04
-7.121127845000918295e-04
9.826670466230519926e-04
-6.741474492565085628e-05
-4.895002319669324779e-05
-3.137478729078163451e-05
-1.685082166192985553e-04
-3.605269254699434581e-06
1.574608186799876801e-04
9.218243014196975465e-06
9.578524453889617044e-06
-1.061573514110489540e-03
6.114295718410597781e-04
1.470142478222495640e-04
-1.646496526238631832e-04
2.880808802409026486e-04
-1.959980140290451742e-05
2.863357388442544700e-04
1.381086036953447583e-04
-1.591717216443954428e-04
4.428730771707140768e-06
-7.450627920150562980e-04
6.432653341228451293e-04
-1.039652361061087427e-04
-8.849470194067305046e-05
7.848696074114123154e-05
-6.149749503399584856e-05
1.013575648441068837e-04
-4.364562699216470286e-05
1.137184760952520465e-04
-3.680063034095993653e-05
-9.526489450446791810e-04
8.761977263824957110e-04
2.623877312791847156e-04
-4.678614778022471203e-05
-5.059275841563903972e-05
-3.586731005931890516e-04
-2.074326047581684178e-04
9.851181277996837551e-05
2.543951190914376997e-04
2.604249140022291392e-04
-4.937875448449800938e-04
5.854570889059741105e-04
-1.189165068287795350e-05
-1.503079072612041752e-04
1.682521861080064416e-05
-4.268095319532085865e-04
4.396963764680876605e-05
2.079187241423964072e-04
6.468635119408001259e-05
7.188077753419540425e-05
-6.859985362434236353e-04
5.378098412979274686e-04
8.148609482905674233e-05
-7.097635157223961585e-05
8.078909346691513121e-05
-2.258090920857781499e-04
3.828283200149764200e-04
-7.668238097134540826e-05
-2.308426728760964856e-04
-2.320845578878062330e-04
-8.030939807319621162e-05
6.822733135439362079e-04
-2.332182610916883514e-04
2.248085348928800494e-04
-3.853155701770641524e-04
-2.328795700748386441e-04
3.765381638965798394e-04
6.920418928159229553e-05
-8.723239671916407857e-05
5.934347461704803268e-05
-5.596433228815143532e-04
6.493745212904427581e-04
-1.286749694448361834e-04
5.075965020987869047e-06
-1.769145985617534260e-05
-4.446146569780901709e-05
7.744929738810833048e-05
4.316194784690770780e-05
5.788705795774889568e-06
-1.864944868396842010e-04
-5.326933234415824267e-04
6.468474600248363482e-04
-3.486717016141355298e-06
-4.092197444140348631e-05
-7.448036120218916257e-05
2.022238746316829612e-04
-1.253188009478112437e-04
-2.934078715429590365e-04
1.561662678935449213e-04
1.553669043833938467e-04
-6.013124462848060993e-04
7.845365647094486479e-04
3.927245255853196266e-05
2.131125475154672380e-04
-6.902080933065057942e-05
-1.986462109446390030e-04
-2.493946514069835411e-05
-1.597233995594676674e-04
-2.988505842552750466e-04
1.675360312581901856e-04
-5.915598718997418237e-04
7.813550292819854354e-04
-1.378145794097421824e-04
9.071867340447666253e-06
1.552104141154302607e-04
-3.084757635254622597e-04
-7.581176287072979087e-06
2.958069900380731363e-04
-8.147495489016437912e-06
1.488089019516710407e-04
-7.594407787590294915e-04
1.081229303522558173e-03
2.424558742182721026e-05
-1.166474333290219397e-04
-4.105052464212989756e-04
-5.529352299485620946e-04
3.710776401821201361e-04
7.253180188852327570e-05
-7.513912491036457675e-05
8.106653768730564895e-05
-5.263710758787547555e-04
6.972102799119060191e-04
-6.225804704750048397e-05
-5.770283040413759436e-05
2.533986514601087878e-04
-1.970148877791669880e-04
1.167691732035819763e-04
1.262942977780577667e-04
-1.630095145237084198e-05
-3.114998001926182420e-04
-9.123433793010602083e-04
9.273649971003666490e-04
1.719145928123216188e-04
2.540393388179346782e-05
2.987580916344556199e-05
-1.199776175448418353e-04
3.356230582702920289e-05
-1.197815624941478690e-04
3.056139282363375690e-05
2.719704013637251126e-05
-8.923158145074049606e-04
7.821189511774285369e-04
1.567471539642299172e-05
1.657723186268845723e-04
1.203791580540509438e-05
1.236739697836250575e-05
1.666954165507397723e-04
-2.881476708989631113e-04
-1.318006829269396680e-04
1.775766900936368118e-04
-5.811203616486898017e-04
4.909026852752220761e-04
1.889683458445006316e-04
1.912672254903367809e-04
-2.653438496049778661e-04
-2.654442602765544747e-04
1.909804483637920483e-04
-2.692140866403745498e-04
1.852949446262558972e-04
1.815734825366483926e-04
-5.851567447799805059e-04
4.794812828954009786e-04
1.714573039632685315e-04
-1.357303048118450926e-04
1.576153012718356931e-05
1.553700796956887333e-05
1.604132760212662720e-05
1.707191214513684017e-05
-1.341782652557739854e-04
1.724459247677576166e-04
-8.942572420537709885e-04
9.380836770938971551e-04
-2.815010464896744425e-04
3.297868639906459442e-04
-2.798139965789307737e-04
2.592739845832644084e-05
2.631700374845596824e-05
2.655890300734708821e-05
2.671311609123148999e-05
1.794703387629810877e-04
-7.357208401952608414e-04
4.856822702584525286e-04
2.920749566705463187e-05
3.130888312549531170e-05
-1.181791577158931828e-04
-1.139688907488708666e-04
4.394401032446426333e-05
5.025185216272773581e-05
3.624314971768066414e-04
6.451257848820748616e-05
-8.440832168672969364e-04
5.351414591138418247e-04
-7.098714604305392836e-05
2.360101691560319130e-04
2.348334817383825220e-04
-2.275251740863695478e-04
-2.356944653722987991e-04
5.792100761145338168e-05
-1.090539294158493640e-04
-2.779201086793993782e-04
-4.474407186963534188e-04
6.044987744812528640e-04
2.853240913663027014e-04
-3.042097721807309041e-05
-3.662663043347823299e-05
-3.795721477318192134e-05
2.708055479321116771e-04
-2.628164184693076601e-05
1.380833828220469567e-04
-1.527357189113455547e-04
-7.474324191988936106e-04
4.888945868183385219e-04
4.545502843492951848e-05
2.099448098833381219e-04
-8.665896340930636125e-05
-2.346405642557274182e-04
2.234448957601434390e-04
-8.566824662712130679e-05
-9.349364419301984446e-05
4.806856722172474385e-05
-7.281552360653934398e-04
6.306926573118782926e-04
1.584655529976314054e-04
-7.554582384524128847e-06
-1.909945284979212087e-05
1.244186738202442035e-04
-3.447493292977939097e-05
1.145726099905426828e-04
-3.903067746967547576e-05
-3.793353907317747206e-05
-6.455804619225034846e-04
7.314991580234549281e-04
-1.796394179828161299e-04
-2.246742559940792983e-05
-1.705798976551927391e-04
-1.664109406433325947e-04
2.951125339927451394e-04
1.458429768866372606e-04
-1.564479403711600521e-04
3.037893601053586736e-04
-6.096565588721706338e-04
3.075654193526621200e-04
3.681734242660661303e-06
4.528219346068574717e-06
1.574446930430016415e-04
-1.480151602214130530e-04
1.561639628634832965e-04
-1.508005737821604898e-04
1.517636915885993399e-04
-1.568041898741649189e-04
-4.660258163668625766e-04
4.450068948347451082e-04
-1.744318068302462541e-05
1.305365090124379105e-04
-2.633906558865687072e-05
-3.012383544424732402e-05
-3.330350828858655689e-05
-1.884542717425804321e-04
1.146928893725641257e-04
2.656110135051458561e-04
-4.988986216584066161e-04
5.674240498204610912e-04
1.072980250117290584e-04
-2.011287235353272356e-04
-2.054928180107453393e-04
-5.844737889393063939e-05
8.756149588395187246e-05
-2.248636230084336387e-04
2.255534314311057661e-04
6.625164492557404487e-05
-7.019568679106150122e-04
8.209012067188052337e-04
-9.470010029836387760e-05
-2.439093607021576755e-04
6.834297185671832863e-05
2.316522264063351918e-04
9.307492105936263343e-05
1.097486807349490622e-04
-1.769206912316931475e-04
-4.938915025556113581e-06
-7.485610715911310449e-04
4.904819235618674677e-04
2.018873494769596192e-04
6.349183628799048309e-05
7.483278610188008736e-05
-5.273144541851929002e-04
8.799977031814538043e-05
2.423736279978976808e-04
8.860392148450188152e-05
-6.781905758026154506e-05
-6.842836615302605235e-04
5.284168840270057638e-04
2.137035408822742281e-04
5.032706515753176241e-05
1.910760154577473171e-04
-2.794392943686943836e-04
1.219675982714425216e-05
-1.954126141672554662e-06
-1.642452111933266721e-05
-3.076513244666525604e-05
-6.547095633726014545e-04
5.539065793383473203e-04
-6.619596233442702937e-05
-7.280708033540167056e-05
7.697626767209418230e-05
7.840326253487182743e-05
8.416299625480521296e-05
9.398637397108687672e-05
-4.535630760614861915e-05
2.755163599739426450e-04
-6.230739330885003754e-04
6.144730570778548498e-04
1.955578727479514141e-05
-2.727508027113570085e-04
-1.107202878078846858e-04
-2.577559133583500264e-04
4.907072176359386791e-05
4.725674660723952947e-05
4.279745610425141696e-05
3.678212946548839349e-05
-7.325150469319115796e-04
9.404297191940908960e-04
2.120429455190912791e-05
2.000326681715405220e-05
2.158189250159925612e-05
-1.267710806880000332e-04
1.848071254552325683e-04
-1.125690450009042337e-04
4.827549610618296394e-05
5.600258522351706371e-05
-8.532419309293040469e-04
8.293183376694722485e-04
-2.374016645213392811e-04
-8.635579631754014280e-05
2.143770135335134729e-04
-9.784828924148899793e-05
-1.069889053412836032e-04
-1.175402187528443328e-04
2.385657166072991593e-05
1.279806613248478648e-05
-3.026241824516416666e-04
9.091464889830837325e-04
-1.373063873468346537e-05
-1.720611430834103456e-04
-2.378903088367020287e-05
-3.321605551027898701e-04
1.231890699505115315e-04
1.212755434923092155e-04
-3.288216627190043093e-05
-3.410294686373301586e-05
-9.503311822334752773e-04
7.282565233934074327e-04
2.717996117446884116e-04
-3.054515942704983571e-05
-2.596025097741489518e-05
-1.955965824127295439e-05
-1.147729146405284782e-05
-2.041418561419179182e-06
1.608385850343277662e-04
1.877708000505985851e-05
-5.815028814775420173e-04
6.481246499203399073e-04
-2.602587049575976960e-04
4.976312584235863967e-05
5.195733943509484964e-05
-2.538301974651947768e-04
4.799291677640762097e-05
4.218191425374463179e-05
1.869768037408706726e-04
-1.273468765092039730e-04
-5.948935765656957787e-04
6.161340773314658362e-04
-3.096153384347989498e-06
-1.061489328233498860e-05
1.361959140058577409e-04
-2.025454215925690419e-05
-2.223570859508365417e-05
-1.751338611112685320e-04
1.310603500113351097e-04
1.329869801798237304e-04
-4.749747847634895126e-04
4.429845937552129645e-04
-1.652498769718127852e-04
1.414628854428633120e-04
-3.155015675874778183e-04
-1.629013939277752375e-04
2.941318806846587104e-04
2.927679948040702129e-04
-1.426474671856179317e-05
-3.216489421098426204e-04
-6.292656568071730485e-04
7.414265070692993087e-04
2.809159830247245720e-04
-2.721944079800856921e-05
-3.051781280918881682e-05
-1.868883512538137314e-04
-3.867329180479473107e-05
-4.364458948563820415e-05
-2.016741166625201330e-04
2.504506235939645410e-04
-6.705196383358691435e-04
8.505729819993986408e-04
-6.862568511162064813e-05
-7.079669511808183314e-05
-2.238015077915942353e-04
-6.979535495681141242e-05
2.385180227549704159e-04
9.046719569485935130e-05
2.484828457293285935e-04
-5.102936827438910874e-05
-6.562132793104657070e-04
5.684382393337920371e-04
-1.924009890531601602e-04
-4.002069733269137330e-05
1.098187141821000941e-04
-4.802847616447465239e-05
-5.549315599088591077e-05
-2.171861717934567293e-04
7.802130480437241967e-05
6.810094180119081531e-05
-7.037701784468851363e-04
8.150186149445833549e-04
3.526598997723091357e-04
4.575675949453509380e-05
-2.582190259084768229e-04
-2.543231652141269769e-04
2.095717830004668761e-04
6.474231955653903772e-05
-2.317222219866254943e-04
-7.014046866391778975e-05
-5.192431409879366732e-04
8.618423650974002623e-04
-4.720066120612948966e-05
-1.949665323533681510e-04
1.131159805725443087e-04
-3.861608555355439142e-05
1.127833623086264131e-04
-1.954524656297345698e-04
1.051445829094197160e-04
-5.301137821363208224e-05
-6.692442589613320243e-04
3.934391638013335388e-04
2.366308986841804472e-04
8.169391604547433024e-05
-7.090786397511558898e-05
-6.838541531764774856e-05
2.417585418158629666e-04
9.621384404521511743e-05
-4.785658210997340727e-05
1.139738901535072076e-04
-7.923833882405822808e-04
5.892590371055454876e-04
-1.667593374450490563e-04
-9.101324716463409059e-06
-1.586703611756540516e-04
1.474983409680366857e-04
2.992903664491377061e-04
-1.606363503023762701e-04
-1.635968567487312690e-04
1.384934050249595925e-04
-7.795282156423309584e-04
5.925438692040105879e-04
2.879879213541902813e-04
-1.669606332511268160e-04
1.433110538753654562e-04
-1.547008083193896052e-04
3.117977076091632636e-04
-1.363903252827531937e-04
-1.268569943541653924e-04
3.428300552412030192e-05
-4.168038512850758925e-04
6.553558975565488762e-04
-1.067140554945593823e-04
-2.618753584778799309e-04
3.733310408967754077e-05
-1.242318257165727095e-04
1.696643538036225014e-04
4.478744077332525343e-06
-1.608404391796877729e-04
-1.983718759169828547e-05
-6.393776806555659820e-04
5.756086564312919412e-04
4.215401354590099276e-04
1.194595636939730461e-04
1.269901676275639584e-04
-3.194115203191635909e-04
1.525627394163874332e-04
-1.367831484545181772e-04
-1.206574574505772624e-04
1.996687098679886501e-04
-1.160545677853813684e-03
9.858423055387642228e-04
2.295871002183389809e-04
-2.252228671838579993e-04
7.920456878263678940e-05
-3.827135412459028259e-04
2.206142850930500508e-04
5.887051347956958410e-05
-1.041242758907660377e-04
1.903492914388854249e-04
-7.352231717828234441e-04
6.295469765923313423e-04
1.290128242367643450e-05
3.144822079519356078e-04
-1.439719466376235756e-04
-4.469983925143839972e-04
3.206257967046171014e-04
2.217776093875605149e-05
3.355093449126041226e-04
-1.133341842792030449e-04
-1.019814320995194147e-03
6.672799054785248478e-04
6.471954610368712093e-05
7.140117361763756291e-05
-7.575152370499229585e-05
-2.241666087960941388e-04
2.365930261910284343e-04
2.385769034865623396e-04
-2.179954721438677196e-04
-6.476108899211672088e-05
-8.273544685711668734e-04
8.513576165620636259e-04
8.866874018041061441e-05
8.889501764050188797e-05
8.891626812568770917e-05
-6.416335223395717297e-05
8.704606514970802261e-05
-2.207501537335327660e-04
-7.227522167969342270e-05
-2.305487194450036692e-04
-5.428648253932770538e-04
8.221289917758423191e-04
5.015627020010542580e-05
-1.117329872341974475e-04
3.172909487576578655e-05
-1.294415303944854352e-04
3.205465987094292596e-04
8.559805807937244683e-06
2.781626107341276053e-06
-1.951923730322455493e-06
-7.685899406313873115e-04
2.968522583955334956e-04
-9.983860488090386102e-06
2.945001779405634367e-04
1.420760747290784887e-04
-1.622899504532989410e-04
1.440326320170319096e-04
-7.453978666974284002e-06
-6.805179517795420479e-06
-6.977576696986428387e-06
-3.134140535771531627e-04
2.944738228835457657e-04
-4.720675708819376481e-04
2.863729847177849219e-04
-2.381295413858575545e-05
-1.814467099931265032e-04
2.717352254322367880e-04
2.680783241588607685e-04
-3.945710497460649339e-05
-1.928511003198361113e-04
-4.971474067707846740e-04
5.735435302962800129e-04
-1.852288354742005468e-04
2.780815427637451992e-04
-2.046971711702235322e-05
-3.183056649542158312e-04
1.471294503399554244e-04
1.547701150709299275e-04
9.489179697596187600e-06
-1.363409430379042351e-04
-5.880124686678759455e-04
3.329119039408804520e-04
-1.201312797852688248e-04
3.416854026422742234e-04
1.924257900221923066e-04
-1.103029991987141680e-04
5.013656390582422323e-04
-2.616766713419147513e-04
-2.634480199727404779e-04
3.817235942591074623e-05
-7.300180726501914481e-04
4.840565192567861845e-04
-2.863728636057505665e-04
3.162596872842216630e-04
3.772477215191179490e-06
-2.605138145670123804e-06
2.974498478763435479e-04
1.410654002397132578e-04
-1.667731864727252790e-04
1.364720158650143029e-04
-4.756059203849253214e-04
4.378483508315141894e-04
-3.279813849370421782e-04
1.257722927475384651e-04
-3.201817205332883648e-05
-1.908157347528809014e-04
-4.500940368973164237e-05
-5.172493455411862341e-05
2.475608156499555304e-04
-6.190319542973377694e-05
-2.164978774903987947e-04
2.420163396841883651e-04
-2.120542643228014797e-04
5.573616471677865156e-04
1.083473907784659671e-04
-3.403076209032243225e-05
-1.759591590462305588e-04
-1.332617329994324595e-05
-1.574426728824074957e-04
1.539203136403914803e-04
-6.054722783095659510e-04
3.110104230032531038e-04
-3.005348339180403949e-04
3.072401074685467224e-04
-1.535075364240832594e-04
3.019128219150858964e-04
1.486059959510972327e-04
-1.548620510507182544e-04
2.395018606765167094e-06
1.024019769841710754e-05
-4.366313647707062494e-04
6.449509979822348662e-04
-4.079134231916505958e-04
3.709987386234501507e-04
8.126404139416332478e-05
-2.103383396325553332e-04
2.578460693136590308e-04
-4.115081342431513897e-05
-3.451461529603135829e-04
-4.410594124984709209e-05
-5.111450165284163981e-04
3.906251949244076370e-04
-2.369043493614840989e-04
3.541808706454872922e-04
1.816863075760048350e-04
9.963979719613959586e-06
1.454446726265842035e-04
-1.737947444450178478e-04
-3.148994198675350895e-05
1.150434800625893474e-04
-4.969659218601535713e-04
4.212043861462601508e-04
-3.351336408716091902e-04
2.852073476401778161e-04
1.452232419537086573e-04
-1.456721572239231004e-04
1.744170331913497953e-04
3.630311680258261503e-05
-2.558510991719563192e-04
6.002812231883096928e-05
-3.899955957269463113e-04
5.299297707877616889e-04
-5.372264498317233256e-04
3.759893861160926252e-04
-8.696127354329268185e-05
5.813265152715774376e-05
4.901542130706924611e-05
3.901731037288204749e-05
2.888794631597552486e-05
-2.858383500503262464e-04
-1.415970011090174254e-04
4.621047719633218989e-04
-4.580634262023841304e-04
3.023336147712658026e-04
1.491433457433628590e-04
-2.511219651280460247e-06
-6.562548143723248292e-07
1.539556592632162016e-04
2.769240969298460908e-06
-1.497563295106272467e-04
-4.567408165595900939e-04
3.022563989878712123e-04
-3.141212500044615196e-04
2.884765517753916744e-04
-2.556757018118271596e-05
-1.873499097269364533e-04
1.091695362726498336e-04
1.018868404676648043e-04
9.668821613563790402e-05
9.408306268490548440e-05
-5.825419780990003979e-05
2.500301767066231192e-04
-6.597729980847690055e-04
1.110534408994352427e-04
2.730702473910930571e-04
-2.187847959894597883e-05
2.935064503786676470e-04
-3.074813283145011477e-04
5.444490529820614814e-06
1.635311208865896011e-04
-5.966072943745235387e-04
3.188054997919819648e-04
-1.419693569160204835e-04
3.101233053129756785e-04
-2.965935616366430979e-06
-1.651559518114910873e-04
1.293762566340378624e-04
1.183924184369703224e-04
-1.973900295177400917e-04
-5.433763377172630052e-05
-3.673535324713643685e-04
2.373516094518306478e-04
8.162096702017852682e-05
3.862231510574931116e-04
-6.975530064626175039e-05
-6.608857748793412195e-05
2.439446667963837407e-04
-2.085846764535563308e-04
-5.121200517110992251e-05
-4.760566589204779650e-05
-5.034842485311412028e-04
2.593127362023545449e-04
-2.006856799586073301e-04
4.054811004087232359e-04
2.470500734097315961e-04
-3.704213273611100176e-04
2.319597013159836458e-04
7.099483170550945402e-05
-8.992373521576522109e-05
-9.774816922700031913e-05
-4.097780635729400089e-04
3.477311179208580232e-04
-2.662150141727453729e-04
4.952927121415102996e-04
-1.141279608365828506e-04
-1.107903072280072641e-04
2.000136306706945121e-04
5.508826831410544963e-05
-8.815672670368991421e-05
7.505816293450883337e-05
-3.711751654055435467e-04
9.870308337458390930e-05
-1.940089882191417341e-04
1.238213464730405036e-04
1.365515882637418645e-04
-1.559398808018198663e-04
1.616945216916022853e-04
-1.315270041816427060e-04
3.372895072164238664e-04
1.943470846582379813e-04
-4.083393507514291709e-04
3.597155342874537240e-04
-5.537246180703158608e-04
2.079725133474806336e-04
2.033461643769039079e-04
-2.621940351186969492e-04
3.258517289342336060e-05
-2.848102224730209410e-04
7.317646988375697886e-06
-5.472842069891029920e-06
-1.695508620865594752e-04
5.840584006094201325e-04
-3.290772755334383983e-05
4.211355193426141600e-04
-3.766016368718854779e-05
-3.417074025567736818e-04
1.186116100993317251e-04
-1.833789273714233790e-04
-1.802849576380446657e-04
1.273580456763185448e-04
-3.288496095213466796e-04
2.821278735980980675e-04
-3.283145823255110684e-04
2.816035567716360728e-04
-2.390634385582074409e-05
-2.372906709866689977e-05
2.824351895103818766e-04
2.843702799873020501e-04
-1.705527375647819305e-04
-1.440852886872052211e-05
-6.207717761881135620e-04
4.514484563011962278e-04
-3.075662796924658049e-04
1.536917505484984765e-04
1.565615475159243296e-04
-1.465094504358049909e-04
1.599153602167120930e-04
1.602679652332379711e-04
-2.980234997606029802e-04
1.584147121739245200e-04
-4.539038958620831600e-04
4.592399716742725222e-04
-3.062243923030795760e-04
1.491654238344638757e-04
-5.374361206431459781e-06
-6.692777495234313770e-06
2.979212681047061699e-04
-1.596267531318856922e-04
-6.124881257489230657e-06
-1.572627638422266657e-04
-3.080871950260439455e-04
7.618446330285645910e-04
-4.572665494534755657e-04
1.590524600896063173e-06
3.071175093265505335e-04
1.369178437989689366e-06
-3.053880025751045421e-04
-1.553483357108556844e-04
2.990882071201424143e-04
2.953163596234199676e-04
-6.239669652581499894e-04
1.357794939901759833e-04
-4.766294754553748931e-04
4.384922089802657254e-04
1.349286698778011308e-04
1.386900909697731253e-04
2.970334487655924361e-04
-1.534224559448865103e-04
1.599398479850617550e-04
-4.421537203195759387e-04
-1.294708927990568712e-04
4.869127635657119501e-04
-7.297707420427777293e-04
3.400518172460761652e-04
-1.183676825146837944e-04
3.137412417140272153e-05
2.668212286144346464e-05
1.731818828874155279e-04
1.661873500949926957e-04
-1.464134434696216162e-04
-3.064314087509017993e-04
4.494266666206738663e-04
-4.725617420333702188e-04
4.373111144987859014e-04
-1.777834661407982854e-04
1.235968655549174943e-04
1.207376587072025997e-04
-1.863928394364145716e-04
-3.400578459792388646e-04
1.174979351556261573e-04
-1.870120084750895176e-04
4.248721134199403443e-04
-3.054337384248738472e-05
2.776761644250040238e-04
-1.765414356814964166e-04
-3.253276250384170036e-04
1.362305128976386281e-04
2.923705441149938595e-04
-9.660259144863378664e-06
-1.595684823197673647e-04
-4.624566992574203911e-04
3.025862063040238650e-04
-3.055293145123483701e-04
3.075612878830008903e-04
1.585673218799497788e-04
-1.418975739050326145e-04
3.218131744837435921e-04
-1.288148072252630230e-04
3.189030572262230203e-05
4.065526398780661349e-05
-5.606974087383803564e-04
3.636158561282475262e-04
-8.601846327832806923e-05
7.362434451136743037e-05
7.922491089426744314e-05
-2.221380872102376276e-04
2.373735052526939639e-04
8.426169488661604734e-05
-7.124041494144912282e-05
-7.655322743260963459e-05
-2.367306892467505399e-04
3.640174903088847012e-04
