-1.809665800655588068e-04
5.193849359001192437e-05
2.735270513777658371e-04
4.835422194256765215e-04
6.817974906030140969e-04
8.681831714401393391e-04
1.042672055886139813e-03
1.205323974213779207e-03
1.356289316231431988e-03
1.495811323889866202e-03
1.624227163250138240e-03
1.741967647244910744e-03
1.849555653973535170e-03
1.947603271904470735e-03
2.036807583183001310e-03
2.117945153168307882e-03
2.191865368788989236e-03
2.259482612270437198e-03
2.321767396631989593e-03
2.379736546296041307e-03
2.434442656612130756e-03
2.486962840039543682e-03
2.538387012614835847e-03
2.589805808963539097e-03
2.642298350179944459e-03
2.696920015828391335e-03
2.754690452909857798e-03
2.816581897572309739e-03
2.883507994063443970e-03
2.956313291081440978e-03
3.035763621025954536e-03
3.122537439777337259e-03
3.217218220757976990e-03
3.320288086760239416e-03
3.432122647022757544e-03
3.552987321707977170e-03
3.683035009899414056e-03
3.822305161906576921e-03
3.970724367226550512e-03
4.128108267031450028e-03
4.294164894970909502e-03
4.468499392807221554e-03
4.650619989790201123e-03
4.839944452610683845e-03
5.035808191449255879e-03
5.237473159372559722e-03
5.444137436668162501e-03
5.654945375942506923e-03
5.868998150510220009e-03
6.085364486782916284e-03
6.303091480798411750e-03
6.521215262803229176e-03
6.738771444165478873e-03
6.954805043239729173e-03
7.168379842887980663e-03
7.378586999618237489e-03
7.584552779496950108e-03
7.785445338172465070e-03
7.980480480345926095e-03
8.168926257137316613e-03
8.350106346631469556e-03
8.523402295904505127e-03
8.688254514703118089e-03
8.844162152474511346e-03
8.990681836961845683e-03
9.127425334425709122e-03
9.254056260809790518e-03
9.370285923675940321e-03
9.475868443510837569e-03
9.570595287203284909e-03
9.654289392813658263e-03
9.726798987183706349e-03
9.787991381601740884e-03
9.837746782947871110e-03
9.875952381157975316e-03
9.902496883985098877e-03
9.917265645865591672e-03
9.920136547093023199e-03
9.910976776079067491e-03
9.889640606933005479e-03
9.855968314261220886e-03
9.809786306362274985e-03
9.750908487617135009e-03
9.679138936125448317e-03
9.594275884386972708e-03
9.496116983706436379e-03
9.384465741081347151e-03
9.259139168415787824e-03
9.119976378985225271e-03
8.966848147026322893e-03
8.799667127200041031e-03
8.618398742486188188e-03
8.423072277326495300e-03
8.213792179909784261e-03
7.990749151431126435e-03
7.754230976784699976e-03
7.504632669919170281e-03
7.242465800037646388e-03
6.968366677962480570e-03
6.683103188607270560e-03
6.387580069200417439e-03
6.082842438643511034e-03
5.770077282243158724e-03
5.450612804603235245e-03
5.125915564693436094e-03
4.797585284858716520e-03
4.467347158725426884e-03
4.137041800176923141e-03
3.808612743095898898e-03
3.484091639691869711e-03
3.165581153381589758e-03
2.855235806280302744e-03
2.555240850788387946e-03
2.267789549351479327e-03
1.995058986935437963e-03
1.739184815606689130e-03
1.502235125090370122e-03
1.286184024015925211e-03
1.092885061856387237e-03
9.240450625608480698e-04
7.811987399222596225e-04
6.656843937492034268e-04
5.786212482504982579e-04
5.208886736600248490e-04
4.931077928518188191e-04
4.956257602466156327e-04
5.285030913265439207e-04
5.915042395437334483e-04
6.840917918370924842e-04
8.054243261581681872e-04
9.543582632294136210e-04
1.129453717965137960e-03
1.328984341649932805e-03
1.550951205622683442e-03
1.793100609209646867e-03
2.052945676897826883e-03
2.327791552629756254e-03
2.614763871019066318e-03
2.910840234432366790e-03
3.212884353147566364e-03
3.517682334401968629e-03
3.821980669558832418e-03
4.122525478231294990e-03
4.416102393489775360e-03
4.699576567336398794e-03
4.969932237277190773e-03
5.224311280958418569e-03
5.460050157394139535e-03
5.674714711096572224e-03
5.866132187301856780e-03
6.032420072255578400e-03
6.172011323448252373e-03
6.283675401375340801e-03
6.366534846635226418e-03
6.420077081681492027e-03
6.444161172049689933e-03
6.439019391336646067e-03
6.405253462475075238e-03
6.343825608912471645e-03
6.256044285639271452e-03
6.143544811491442534e-03
6.008265184061245892e-03
5.852417301658338449e-03
5.678454044712575102e-03
5.489032563377966266e-03
5.286974389883607878e-03
5.075222874720257925e-03
4.856798585755978288e-03
4.634753330373178604e-03
4.412123498990011203e-03
4.191883356039703343e-03
3.976899002756160637e-03
3.769883827849089108e-03
3.573356021385965670e-03
3.389598871733458165e-03
3.220624428608446100e-03
3.068141165733462902e-03
2.933526145375051075e-03
2.817802131370303418e-03
2.721620113303748444e-03
2.645247442385209504e-03
2.588561859932707581e-03
2.551051547689100595e-03
2.531821224178866948e-03
2.529604238982748488e-03
2.542780529245546386e-03
2.569400103344918456e-03
2.607211843367077467e-03
2.653697128599421910e-03
2.706107810753853073e-03
2.761507968229966539e-03
2.816818774689199088e-03
2.868865795147163347e-03
2.914427995625694986e-03
2.950287679462340780e-03
2.973280622359805205e-03
2.980345522424386866e-03
2.968572075594129098e-03
2.935246846672395250e-03
2.877896215947761422e-03
2.794325750749368335e-03
2.682655276726455922e-03
2.541349146596440754e-03
2.369241228294622584e-03
2.165554131447088113e-03
1.929912388242297893e-03
1.662349334983749321e-03
1.363307617925695438e-03
1.033633257100846203e-03
6.745633326098222655e-04
2.877075387993800054e-04
-1.249761788217101292e-04
-5.612114375929971475e-04
-1.018438362915200911e-03
-1.493852977911248880e-03
-1.984450428965115181e-03
-2.487071453947158929e-03
-2.998451285025712735e-03
-3.515270212745646213e-03
-4.034204989669320889e-03
-4.551980221340947916e-03
-5.065419090226213478e-03
-5.571492404291769271e-03
-6.067365205722463281e-03
-6.550440279464115299e-03
-7.018397871592214204e-03
-7.469230871214044797e-03
-7.901274962357861600e-03
-8.313233273159298733e-03
-8.704195132949387251e-03
-9.073648613831596793e-03
-9.421486611485240664e-03
-9.748006463316215287e-03
-1.005390303357860636e-02
-1.034025547715091385e-02
-1.060850778021424530e-02
-1.086044346446717393e-02
-1.109815483338456692e-02
-1.132400725448022734e-02
-1.154059907211445711e-02
-1.175071772262195613e-02
-1.195729278307083171e-02
-1.216334673606596535e-02
-1.237194407327765582e-02
-1.258613969642470923e-02
-1.280892728560832639e-02
-1.304318853474091718e-02
-1.329164392305925285e-02
-1.355680580568205396e-02
-1.384093452151415569e-02
-1.414599820606214815e-02
-1.447363680916903018e-02
-1.482513090888795855e-02
-1.520137572395229876e-02
-1.560286066393456669e-02
-1.602965468773234758e-02
-1.648139761965815991e-02
-1.695729755418942317e-02
-1.745613432183091424e-02
-1.797626888131727274e-02
-1.851565842742870782e-02
-1.907187696443027325e-02
-1.964214097398103015e-02
-2.022333987027018914e-02
-2.081207062241722389e-02
-2.140467601240966800e-02
-2.199728604788582856e-02
-2.258586185241697949e-02
-2.316624147973220943e-02
-2.373418692785444692e-02
-2.428543170608331303e-02
-2.481572846463489176e-02
-2.532089590358273593e-02
-2.579686447713641986e-02
-2.623972037731904863e-02
-2.664574722080580507e-02
-2.701146503197548315e-02
-2.733366606349715844e-02
-2.760944720370087091e-02
-2.783623865505668524e-02
-2.801182865650414522e-02
-2.813438404669975357e-02
-2.820246671381932552e-02
-2.821504582185223320e-02
-2.817150578661741650e-02
-2.807165012611802235e-02
-2.791570133237531240e-02
-2.770429679653663851e-02
-2.743848120737598859e-02
-2.711969548020942700e-02
-2.674976255677381787e-02
-2.633087016493155033e-02
-2.586555105552655609e-02
-2.535666085849367854e-02
-2.480735393951799886e-02
-2.422105734603165889e-02
-2.360144324138994942e-02
-2.295240012043397657e-02
-2.227800285069536645e-02
-2.158248193812256285e-02
-2.087019220712281464e-02
-2.014558088176726311e-02
-1.941315540157740119e-02
-1.867745102016615116e-02
-1.794299840366353482e-02
-1.721429127746000251e-02
-1.649575420297844444e-02
-1.579171060744074054e-02
-1.510635123157716940e-02
-1.444370294449120670e-02
-1.380759824164969583e-02
-1.320164536709427308e-02
-1.262919929145419305e-02
-1.209333366116003422e-02
-1.159681397533013879e-02
-1.114207205383921546e-02
-1.073118208760228363e-02
-1.036583850274027004e-02
-1.004733591604999379e-02
-9.776551346282833649e-03
-9.553929167316775953e-03
-9.379468944389270091e-03
-9.252716501749752229e-03
-9.172758487396901958e-03
-9.138220769927627579e-03
-9.147270902121225691e-03
-9.197624934966971630e-03
-9.286558774724387386e-03
-9.410924218636505800e-03
-9.567169902977843907e-03
-9.751367066162355476e-03
-9.959240272116547457e-03
-1.018620294536535381e-02
-1.042739756808430326e-02
-1.067774035308113531e-02
-1.093197012525979478e-02
-1.118470092092120269e-02
-1.143047787244237667e-02
-1.166383579414915182e-02
-1.187935993304290588e-02
-1.207174810019789706e-02
-1.223587338924029579e-02
-1.236684674086272438e-02
-1.246007848274824879e-02
-1.251133789542318436e-02
-1.251680997963798905e-02
-1.247314840708929617e-02
-1.237752386544197815e-02
-1.222766688722184102e-02
-1.202190427072466483e-02
-1.175918851705817780e-02
-1.143911942826755963e-02
-1.106195743747839973e-02
-1.062862805807030311e-02
-1.014071725836657167e-02
-9.600457396321716505e-03
-9.010703839037024002e-03
-8.374902150106234774e-03
-7.697046183867901729e-03
-6.981627459415080429e-03
-6.233576413894373856e-03
-5.458196179767131964e-03
-4.661089774832448407e-03
-3.848081589293189490e-03
-3.025134414599109454e-03
-2.198263182720940154e-03
-1.373446683597911305e-03
-5.565386712700065705e-04
2.468203344330422658e-04
1.031288882342526079e-03
1.791906770566696616e-03
2.524172123694027117e-03
3.224112045459561360e-03
3.888345414559417693e-03
4.514136790438970544e-03
5.099440316762950294e-03
5.642932657342850100e-03
6.144034255257166573e-03
6.602918391939287604e-03
7.020507653184875595e-03
7.398457632612084889e-03
7.739128080022133517e-03
8.045541637461607609e-03
8.321330760115168770e-03
8.570673599615101501e-03
8.798219709021063567e-03
9.009006939762424088e-03
9.208370643009390968e-03
9.401846807681364659e-03
9.595070719081010696e-03
9.793672984663255240e-03
1.000317471209646522e-02
1.022888367518685893e-02
1.047579351113721649e-02
1.074848770600699346e-02
1.105105031710103443e-02
1.138698505476431512e-02
1.175914453692247265e-02
1.216967095352798449e-02
1.261994962022641373e-02
1.311057642869504179e-02
1.364134000107881765e-02
1.421121910132971608e-02
1.481839568155074449e-02
1.546028346607879710e-02
1.613357196086698600e-02
1.683428512820656434e-02
1.755785390740435825e-02
1.829920151435329712e-02
1.905284012095946264e-02
1.981297706865467467e-02
2.057362902275620964e-02
2.132874171345278819e-02
2.207231331694295765e-02
2.279851901514140175e-02
2.350183432814739737e-02
2.417715486268234154e-02
2.481991001341481498e-02
2.542616834305627682e-02
2.599273228227802837e-02
2.651722026297344270e-02
2.699813416164988794e-02
2.743491056385059454e-02
2.782795442686037540e-02
2.817865407078276596e-02
2.848937688979136240e-02
2.876344512790453625e-02
2.900509198499726105e-02
2.921939822842232332e-02
2.941221027131039542e-02
2.959004061674513908e-02
2.975995247110526862e-02
2.992943010904651133e-02
3.010623733577912423e-02
3.029826645791695514e-02
3.051338048891990770e-02
3.075925155174127207e-02
3.104319850120271229e-02
3.137202699511174031e-02
3.175187529092941136e-02
3.218806893320410450e-02
3.268498753741157919e-02
3.324594670619823028e-02
3.387309783924583040e-02
3.456734854048252453e-02
3.532830588717481013e-02
3.615424436095537875e-02
3.704210027005546552e-02
3.798749344554420287e-02
3.898477700545747993e-02
4.002711536247120089e-02
4.110659003176453385e-02
4.221433237114998599e-02
4.334068187422822349e-02
4.447536807473690540e-02
4.560771372429421600e-02
4.672685626798293856e-02
4.782198446930992913e-02
4.888258643731595299e-02
4.989870513313296452e-02
5.086119705624313897e-02
5.176198973161982159e-02
5.259433337626298610e-02
5.335304210882218373e-02
5.403472016835028646e-02
5.463796850896207591e-02
5.516356757466511773e-02
5.561463211720495819e-02
5.599673426346171018e-02
5.631799158056632199e-02
5.658911719621699532e-02
5.682342959360482670e-02
5.703682035324457444e-02
5.724767863888548941e-02
5.747677175714425990e-02
5.774708213827194070e-02
5.808360140730205179e-02
5.851308314170756975e-02
5.906375634115382245e-02
5.976500257088585705e-02
6.064700022546345992e-02
6.174033981252655123e-02
6.307561489643323527e-02
6.468299375160048437e-02
6.659177706728390544e-02
6.882994745886213128e-02
7.142371678700472348e-02
7.439707740412054848e-02
7.777136346744821516e-02
8.156482852517089877e-02
8.579224548421106322e-02
9.046453468617833560e-02
9.558842554361107746e-02
1.011661570416363398e-01
1.071952216746160508e-01
1.136681570178650208e-01
1.205723883321165174e-01
1.278901252017143331e-01
1.355983143559518211e-01
1.436686500127778987e-01
1.520676425559187028e-01
1.607567453810819502e-01
1.696925390168260162e-01
1.788269708886078280e-01
1.881076483661904275e-01
1.974781821258252690e-01
2.068785760253641082e-01
2.162456591883916146e-01
2.255135554510650508e-01
2.346141849011126046e-01
2.434777918271151531e-01
2.520334930588270517e-01
2.602098405252675772e-01
2.679353918031789350e-01
2.751392821703841918e-01
2.817517921315091378e-01
2.877049040786156531e-01
2.929328423879303811e-01
2.973725913602637272e-01
3.009643858771492431e-01
3.036521700655615552e-01
3.053840197598723383e-01
3.061125252713822187e-01
3.057951314058546810e-01
3.043944324577738114e-01
3.018784203687014389e-01
2.982206851134541203e-01
2.934005668034266878e-01
2.874032598866633759e-01
2.802198702015796239e-01
2.718474263809101954e-01
2.622888475287197263e-01
2.515528695998354158e-01
2.396539334389530540e-01
2.266120374811466109e-01
2.124525588470763948e-01
1.972060463349395443e-01
1.809079892001951018e-01
1.635985657364166235e-01
1.453223753699399989e-01
1.261281581263067608e-01
1.060685051141122132e-01
8.519956350839009984e-02
6.358073915427586709e-02
4.127439955169766306e-02
1.834557996257541249e-02
-5.138305495452187219e-03
-2.910774591436400202e-02
-5.349140761250367054e-02
-7.821639926000739651e-02
-1.032085275597204310e-01
-1.283925436201657500e-01
-1.536923802321940313e-01
-1.790313808433068310e-01
-2.043325211509266492e-01
-2.295186246491478232e-01
-2.545125734790174565e-01
-2.792375162826978285e-01
-3.036170746674416998e-01
-3.275755500912587714e-01
-3.510381327278506158e-01
-3.739311140379205090e-01
-3.961821043205688286e-01
-4.177202565668060585e-01
-4.384764974877465860e-01
-4.583837663598487322e-01
-4.773772620054819171e-01
-4.953946977389188655e-01
-5.123765637943992202e-01
-5.282663963641927030e-01
-5.430110518046866730e-01
-5.565609842618458591e-01
-5.688705246315548525e-01
-5.798981581656734718e-01
-5.896067979552493954e-01
-5.979640510368978701e-01
-6.049424736894934984e-01
-6.105198122606299016e-01
-6.146792257863579190e-01
-6.174094865376492658e-01
-6.187051546626212151e-01
-6.185667231355689299e-01
-6.170007296313426703e-01
-6.140198315877369861e-01
-6.096428416878677536e-01
-6.038947209283987982e-01
-5.968065270212489226e-01
-5.884153164388010726e-01
-5.787639987289378007e-01
-5.679011424890761939e-01
-5.558807330647046463e-01
-5.427618825371552935e-01
-5.286084931987022895e-01
-5.134888765384237885e-01
-4.974753302063518734e-01
-4.806436763051734617e-01
-4.630727646301368572e-01
-4.448439454553264616e-01
-4.260405165471871092e-01
-4.067471497008243175e-01
-3.870493027302713274e-01
-3.670326226223247224e-01
-3.467823463492441527e-01
-3.263827054989734133e-01
-3.059163411765180030e-01
-2.854637356098790879e-01
-2.651026665278173877e-01
-2.449076905076427724e-01
-2.249496607824575112e-01
-2.052952848989412216e-01
-1.860067269751752017e-01
-1.671412587500828717e-01
-1.487509631543253441e-01
-1.308824932768114235e-01
-1.135768890757118954e-01
-9.686945326215239127e-02
-8.078968707740805111e-02
-6.536128601463538079e-02
-5.060219460877666414e-02
-3.652471868645964376e-02
-2.313569281376325407e-02
-1.043669989068329168e-02
1.575660760672116870e-03
1.290946110490026957e-02
2.357709273706173544e-02
3.359488100963348850e-02
4.298267066576827444e-02
5.176338892779975415e-02
5.996259218368894806e-02
6.760800245560236177e-02
7.472903996921596848e-02
8.135635804047962327e-02
8.752138624593744365e-02
9.325588771965694079e-02
9.859153597403305658e-02
1.035595164329621010e-01
1.081901570766451715e-01
1.125125923248565390e-01
1.165544636264857076e-01
1.203416594811456825e-01
1.238980971654822238e-01
1.272455475950420856e-01
1.304035042153529889e-01
1.333890958477593758e-01
1.362170431588163311e-01
1.388996573971167658e-01
1.414468796677775253e-01
1.438663582863945467e-01
1.461635613627656205e-01
1.483419212127294051e-01
1.504030068548725119e-01
1.523467204525015828e-01
1.541715134607076765e-01
1.558746177797588617e-01
1.574522874485208002e-01
1.589000461540248099e-01
1.602129359876337811e-01
1.613857630012158484e-01
1.624133352384189155e-01
1.632906893181540198e-01
1.640133018559988276e-01
1.645772824756046859e-01
1.649795454626271085e-01
1.652179577468793070e-01
1.652914612003384409e-01
1.652001678840818721e-01
1.649454273243733948e-01
1.645298654725957377e-01
1.639573955042959441e-01
1.632332010025520919e-01
1.623636927089910642e-01
1.613564404094119387e-01
1.602200818588864761e-01
1.589642110032182531e-01
1.575992482605679257e-01
1.561362956605444607e-01
1.545869798998109335e-01
1.529632865264658192e-01
1.512773885585092237e-01
1.495414727940022337e-01
1.477675672206293922e-01
1.459673725322435667e-01
1.441521008233744017e-01
1.423323243585194742e-01
1.405178368877112449e-01
1.387175298208392082e-01
1.369392852503420188e-01
1.351898874705552422e-01
1.334749541199608536e-01
1.317988880090247006e-01
1.301648499470236531e-01
1.285747527684023839e-01
1.270292761924229075e-01
1.255279019798559992e-01
1.240689682924783488e-01
1.226497420634191926e-01
1.212665076530084901e-01
1.199146699303661051e-01
1.185888698413841563e-01
1.172831101461704051e-01
1.159908889396143311e-01
1.147053385575800971e-01
1.134193672322226509e-01
1.121258012224578687e-01
1.108175248456358813e-01
1.094876160949264376e-01
1.081294755682710440e-01
1.067369468453863574e-01
1.053044262128143976e-01
1.038269603130507895e-01
1.023003302811394122e-01
1.007211212174270037e-01
9.908677627202815141e-02
9.739563476220204630e-02
9.564695405225061287e-02
9.384091527081328543e-02
9.197861314956598533e-02
9.006203064915181689e-02
8.809399910571984182e-02
8.607814506932191800e-02
8.401882504265534291e-02
8.192104944199644911e-02
7.979039761708763001e-02
7.763292544060770850e-02
7.545506732661604044e-02
7.326353439928411093e-02
7.106521079487485015e-02
6.886704979076138655e-02
6.667597156919707890e-02
6.449876429478196282e-02
6.234199009644002948e-02
6.021189736730628989e-02
5.811434069831430266e-02
5.605470952020857878e-02
5.403786643397711503e-02
5.206809589315961051e-02
5.014906387791098069e-02
4.828378872881713968e-02
4.647462336671819710e-02
4.472324877118323549e-02
4.303067837700834397e-02
4.139727309211075484e-02
3.982276615944942144e-02
3.830629706024367420e-02
3.684645368422251321e-02
3.544132164593296469e-02
3.408853970131287686e-02
3.278535992404820604e-02
3.152871160343635043e-02
3.031526756696834718e-02
2.914151170660454065e-02
2.800380648600558908e-02
2.689845915618575486e-02
2.582178582720691395e-02
2.477017220124696703e-02
2.374013013168532402e-02
2.272834918852579059e-02
2.173174258321125887e-02
2.074748691592900179e-02
1.977305523014866520e-02
1.880624324889506455e-02
1.784518861325055591e-02
1.688838308774940483e-02
1.593467790076618512e-02
1.498328245659508694e-02
1.403375678773911839e-02
1.308599821767218382e-02
1.214022276771601141e-02
1.119694192389201863e-02
1.025693549019193566e-02
9.321221178142725591e-03
8.391021779153198801e-03
7.467730610628371332e-03
6.552876005632925563e-03
5.648085597820400559e-03
4.755051115087842624e-03
3.875494345046519729e-03
3.011134856632117617e-03
2.163660051226473993e-03
1.334697992512359549e-03
5.257933567374291871e-04
-2.616130896580713358e-04
-1.026201342536984260e-03
-1.766785186782590363e-03
-2.482321333257858816e-03
-3.171914791238589042e-03
-3.834820495242370619e-03
-4.470441426707145657e-03
-5.078323491342819768e-03
-5.658147478431687152e-03
-6.209718433323487691e-03
-6.732952929394930321e-03
-7.227864572910915400e-03
-7.694548282427889074e-03
-8.133163758532891557e-03
-8.543918617989062006e-03
-8.927051683245567845e-03
-9.282816817492470576e-03
-9.611467733326883867e-03
-9.913244113685519207e-03
-1.018835940064356793e-02
-1.043699052247014196e-02
-1.065926972016011109e-02
-1.085527877123420269e-02
-1.102504558716830250e-02
-1.116854328601242334e-02
-1.128569171729768179e-02
-1.137636132403478315e-02
-1.144037933722899525e-02
-1.147753803074257062e-02
-1.148760486341198275e-02
-1.147033422069856923e-02
-1.142548049617031491e-02
-1.135281216318394931e-02
-1.125212650510399280e-02
-1.112326467152177471e-02
-1.096612675752371528e-02
-1.078068642116921522e-02
-1.056700474878132651e-02
-1.032524309626576056e-02
-1.005567459555536253e-02
-9.758694043869911225e-03
-9.434825824317913390e-03
-9.084729779852709908e-03
-8.709204863820641657e-03
-8.309190418975726661e-03
-7.885764945467825526e-03
-7.440142423870126781e-03
-6.973666222981669480e-03
-6.487800527069474167e-03
-5.984119477373638432e-03
-5.464294153752561646e-03
-4.930077616907960203e-03
-4.383288176361996996e-03
-3.825791112670885036e-03
-3.259479169820563450e-03
-2.686252101831437464e-03
-2.107995590567226293e-03
-1.526559790881080493e-03
-9.437378891317294450e-04
-3.612449452612702307e-04
2.193026099108452123e-04
7.964065471369894062e-04
1.368705231389247398e-03
1.934990477032060485e-03
2.494222736189825179e-03
3.045544301767956832e-03
3.588290397032160677e-03
4.121997948744037833e-03
4.646411933835841584e-03
5.161489239039117501e-03
5.667399926976231066e-03
6.164525930943604883e-03
6.653457147718799640e-03
7.134985065514032505e-03
7.610093896256510913e-03
8.079949405819878902e-03
8.545885474325947903e-03
9.009388664850284320e-03
9.472080999089173281e-03
9.935701035419098118e-03
1.040208351165715361e-02
1.087313784059506377e-02
1.135082570035152172e-02
1.183713793591656578e-02
1.233407103711182951e-02
1.284360352543809959e-02
1.336767243038304923e-02
1.390815017109886358e-02
1.446682203873658236e-02
1.504536457642978269e-02
1.564532501270355855e-02
1.626810210567497528e-02
1.691492843383033198e-02
1.758685439945791365e-02
1.828473412346519333e-02
1.900921330431449424e-02
1.976071927774691525e-02
2.053945321883982045e-02
2.134538469132044730e-02
2.217824849834971329e-02
2.303754397836324866e-02
2.392253660985848782e-02
2.483226200142365364e-02
2.576553228867010589e-02
2.672094466536428445e-02
2.769689211124379269e-02
2.869157617751237274e-02
2.970302164467309922e-02
3.072909298863654715e-02
3.176751246966970366e-02
3.281587960390709713e-02
3.387169180178224714e-02
3.493236601737859104e-02
3.599526115046283725e-02
3.705770104157487393e-02
3.811699765290759573e-02
3.917047430235934269e-02
4.021548870653228469e-02
4.124945545887889059e-02
4.226986787603313062e-02
4.327431886531846184e-02
4.426052049344132711e-02
4.522632216322271942e-02
4.616972714336249617e-02
4.708890728730988351e-02
4.798221567083536115e-02
4.884819706253876181e-02
4.968559605554458136e-02
5.049336283303785394e-02
5.127065635865448584e-02
5.201684509792064287e-02
5.273150508369715828e-02
5.341441541713626284e-02
5.406555131412713044e-02
5.468507468390105403e-02
5.527332233695970987e-02
5.583079203300233412e-02
5.635812644080632344e-02
5.685609532319735315e-02
5.732557605317229604e-02
5.776753286656235997e-02
5.818299495299687069e-02
5.857303379883076200e-02
5.893873994024112495e-02
5.928119963759741207e-02
5.960147160597544652e-02
5.990056427864518668e-02
6.017941384032614305e-02
6.043886331640142828e-02
6.067964311466123029e-02
6.090235327482699385e-02
6.110744767286389878e-02
6.129522044621488891e-02
6.146579478804514718e-02
6.161911439350312159e-02
6.175493776078790770e-02
6.187283531606566772e-02
6.197218950509376240e-02
6.205219782585064819e-02
6.211187893834290569e-02
6.215008168822227369e-02
6.216549694847667284e-02
6.215667216075413531e-02
6.212202847050925236e-02
6.205988010982911585e-02
6.196845592398537994e-02
6.184592257321230857e-02
6.169040928577045751e-02
6.150003376515292275e-02
6.127292875175219256e-02
6.100726913385021155e-02
6.070129895824948746e-02
6.035335812769673097e-02
5.996190834952778298e-02
5.952555794302995251e-02
5.904308513563255589e-02
5.851345956956271327e-02
5.793586161865109385e-02
5.730969925251531982e-02
5.663462218307338536e-02
5.591053310286669270e-02
5.513759578165722264e-02
5.431623996275173477e-02
5.344716280091500044e-02
5.253132698464063610e-02
5.156995556076909848e-02
5.056452331472940237e-02
4.951674499848024436e-02
4.842856042287767282e-02
4.730211673088863256e-02
4.613974809551719958e-02
4.494395297212318285e-02
4.371736933594992658e-02
4.246274822615300759e-02
4.118292597181526238e-02
3.988079546106161610e-02
3.855927688115388940e-02
3.722128830030549396e-02
3.586971660674583701e-02
3.450738907240469278e-02
3.313704605691106947e-02
3.176131511561879062e-02
3.038268697286426734e-02
2.900349367966346265e-02
2.762588916434183944e-02
2.625183257834881254e-02
2.488307450137426310e-02
2.352114630067154641e-02
2.216735271870139135e-02
2.082276780302564148e-02
1.948823417876681743e-02
1.816436561758118240e-02
1.685155295791643595e-02
1.554997306789662401e-02
1.425960083875090108e-02
1.298022393279119058e-02
1.171146008463098791e-02
1.045277656141711808e-02
9.203511633216606910e-03
7.962897537764777184e-03
6.730084683015906746e-03
5.504166644605436309e-03
4.284205614642547927e-03
3.069257857988364532e-03
1.858398847548863378e-03
6.507475383097520482e-04
-5.545103888497610132e-04
-1.758100777134582017e-03
-2.960641025067399946e-03
-4.162622361221099410e-03
-5.364394303160238860e-03
-6.566151878219528455e-03
-7.767925501248454379e-03
-8.969573870598147175e-03
-1.017077983082079369e-02
-1.137104923443147016e-02
-1.256971294521526568e-02
-1.376593180140222271e-02
-1.495870452223656624e-02
-1.614687832190499911e-02
-1.732916220593190212e-02
-1.850414255428740190e-02
-1.967030085033601161e-02
-2.082603317420709046e-02
-2.196967120830451217e-02
-2.309950448509150503e-02
-2.421380335859226601e-02
-2.531084245545885472e-02
-2.638892411935673740e-02
-2.744640163384231418e-02
-2.848170172275699130e-02
-2.949334614685626688e-02
-3.047997184703854501e-02
-3.144034944735028120e-02
-3.237339985551856286e-02
-3.327820858755421024e-02
-3.415403773610613952e-02
-3.500033534186545309e-02
-3.581674201502697136e-02
-3.660309471473360832e-02
-3.735942761884406688e-02
-3.808597012286455558e-02
-3.878314203775808100e-02
-3.945154589603308559e-02
-4.009195665030265004e-02
-4.070530893540171002e-02
-4.129268191963362394e-02
-4.185528219765250607e-02
-4.239442482779304938e-02
-4.291151285089819106e-02
-4.340801563655063283e-02
-4.388544633756231300e-02
-4.434533879767012937e-02
-4.478922427682950624e-02
-4.521860839003144505e-02
-4.563494852620098713e-02
-4.603963202725975395e-02
-4.643395559761268748e-02
-4.681910612960570733e-02
-4.719614327824566552e-02
-4.756598395703641458e-02
-4.792938910269101127e-02
-4.828695279038149740e-02
-4.863909383036502110e-02
-4.898605005223592018e-02
-4.932787520571655510e-02
-4.966443867597496176e-02
-4.999542785170839332e-02
-5.032035313549115818e-02
-5.063855551960277923e-02
-5.094921661636471477e-02
-5.125137089582197658e-02
-5.154392006618999794e-02
-5.182564923747569330e-02
-5.209524460358226639e-02
-5.235131254427574654e-02
-5.259239965530893013e-02
-5.281701354918321573e-02
-5.302364398059411510e-02
-5.321078407782188491e-02
-5.337695139885457324e-02
-5.352070835551996086e-02
-5.364068189257244212e-02
-5.373558200467928175e-02
-5.380421893342096640e-02
-5.384551869605554153e-02
-5.385853682983268720e-02
-5.384247020989341159e-02
-5.379666664452525948e-02
-5.372063222517117764e-02
-5.361403643734700963e-02
-5.347671490836011787e-02
-5.330866969972744562e-02
-5.311006735623352570e-02
-5.288123472174843104e-02
-5.262265259878257800e-02
-5.233494736044628365e-02
-5.201888074329680950e-02
-5.167533803819041732e-02
-5.130531478815402585e-02
-5.090990240219554763e-02
-5.049027276901782435e-02
-5.004766223351875265e-02
-4.958335517925581415e-02
-4.909866745121394677e-02
-4.859493003413003359e-02
-4.807347309703509375e-02
-4.753561076436473021e-02
-4.698262680534273650e-02
-4.641576148926371964e-02
-4.583619983771156092e-02
-4.524506138720410520e-02
-4.464339167331680958e-02
-4.403215559239506000e-02
-4.341223260287930402e-02
-4.278441395739485814e-02
-4.214940188433168033e-02
-4.150781078888508141e-02
-4.086017039492122194e-02
-4.020693076179398390e-02
-3.954846904451674028e-02
-3.888509785370448946e-02
-3.821707504738306588e-02
-3.754461479711077021e-02
-3.686789973558014105e-02
-3.618709381347670617e-02
-3.550235580262977447e-02
-3.481385302149825334e-02
-3.412177514508479143e-02
-3.342634774112394902e-02
-3.272784531356409676e-02
-3.202660363512337127e-02
-3.132303101754595198e-02
-3.061761840083577699e-02
-2.991094794449381672e-02
-2.920370004764466856e-02
-2.849665846331179281e-02
-2.779071351068411813e-02
-2.708686331462405866e-02
-2.638621283583238511e-02
-2.568997075230934971e-02
-2.499944419266992776e-02
-2.431603131220308814e-02
-2.364121184044133336e-02
-2.297653553851618236e-02
-2.232360889003091875e-02
-2.168408009341456916e-02
-2.105962255596446203e-02
-2.045191712875340379e-02
-1.986263324569872285e-02
-1.929340934758483686e-02
-1.874583273534137506e-02
-1.822141926558850517e-02
-1.772159302866768010e-02
-1.724766642336256206e-02
-1.680082085181592091e-02
-1.638208839321183760e-02
-1.599233468289558771e-02
-1.563224326953590454e-02
-1.530230167511053944e-02
-1.500278945567498634e-02
-1.473376835257837227e-02
-1.449507478957375722e-02
-1.428631482342139318e-02
-1.410686163906828099e-02
-1.395585572189445532e-02
-1.383220765171624435e-02
-1.373460356250750039e-02
-1.366151324194199608e-02
-1.361120082726156345e-02
-1.358173787549278415e-02
-1.357101880968148051e-02
-1.357677848173218654e-02
-1.359661164564243338e-02
-1.362799417655648215e-02
-1.366830571799117211e-02
-1.371485350907980343e-02
-1.376489716391172263e-02
-1.381567397255342548e-02
-1.386442457599600629e-02
-1.390841859481264410e-02
-1.394497999122749736e-02
-1.397151168672921238e-02
-1.398551939544534321e-02
-1.398463418960549896e-02
-1.396663364465872831e-02
-1.392946129349623662e-02
-1.387124415382995878e-02
-1.379030816218312742e-02
-1.368519140062758425e-02
-1.355465488102941714e-02
-1.339769088598387510e-02
-1.321352875842396468e-02
-1.300163807527574510e-02
-1.276172934901068264e-02
-1.249375210529647846e-02
-1.219789058976120805e-02
-1.187455706402642218e-02
-1.152438286726628104e-02
-1.114820744889108949e-02
-1.074706546941744424e-02
-1.032217227902000427e-02
-9.874907860540727694e-03
-9.406799582403920640e-03
-8.919503991054643366e-03
-8.414787868860702097e-03
-7.894508852006871039e-03
-7.360595820516286150e-03
-6.815029281027186123e-03
-6.259822095889917490e-03
-5.697000681745460239e-03
-5.128587055403578850e-03
-4.556581714472193734e-03
-3.982947680529273261e-03
-3.409595834371197207e-03
-2.838371676875322408e-03
-2.271043633509622298e-03
-1.709293000726562874e-03
-1.154705472566352597e-03
-6.087644887296201702e-04
-7.284627021239084717e-05
4.517834610456093313e-04
9.639711549304299121e-04
1.462675495624334195e-03
1.946965976648671595e-03
2.416020141659817617e-03
2.869119657704481425e-03
3.305645180841009986e-03
3.725070397892012337e-03
4.126955257177294077e-03
4.510938662001712056e-03
4.876730707965138897e-03
5.224104692954583719e-03
5.552889167819326233e-03
5.862960036464633790e-03
6.154232878927194846e-03
6.426655760965247280e-03
6.680202588227706663e-03
6.914867114769574809e-03
7.130657779326102230e-03
7.327593379285572868e-03
7.505699679013449858e-03
7.665006953621759066e-03
7.805548545871716579e-03
7.927360413943424292e-03
8.030481661668668544e-03
8.114955988508002968e-03
8.180834038031253169e-03
8.228176537534801632e-03
8.257058173196664755e-03
8.267572047165713117e-03
8.259834676453959440e-03
8.233991315410487191e-03
8.190221558598668322e-03
8.128745069983116245e-03
8.049827256924289853e-03
7.953784772636071643e-03
7.840990730886805010e-03
7.711879527633131240e-03
7.566951066907366512e-03
7.406774371990805864e-03
7.231990395320603282e-03
7.043314033332323185e-03
6.841535218358329833e-03
6.627519026838733611e-03
6.402204811196733798e-03
6.166604300935124051e-03
5.921798674614715471e-03
5.668934587947908714e-03
5.409219290082953151e-03
5.143914761503914045e-03
4.874330962779123422e-03
4.601818329553622813e-03
4.327759573181316245e-03
4.053560831427454984e-03
3.780642366225152925e-03
3.510428825693673923e-03
3.244339307009995715e-03
2.983777298058096390e-03
2.730120642799072159e-03
2.484711564909216318e-03
2.248846973426485343e-03
2.023769178705370295e-03
1.810657013573007974e-03
1.610617571805214891e-03
1.424678618062556181e-03
1.253781754689218923e-03
1.098776383428582597e-03
9.604145694035058287e-04
8.393467764339026691e-04
7.361185897304680335e-04
6.511683619444062331e-04
5.848258089227298786e-04
5.373115366365776831e-04
5.087374623077524013e-04
4.991081038128689518e-04
5.083226236586483411e-04
5.361777436859836580e-04
5.823712327801056684e-04
6.465059828117395617e-04
7.280946574052647594e-04
8.265647366036324830e-04
9.412639195744545778e-04
1.071465797287027158e-03
1.216375685017349927e-03
1.375136572765258726e-03
1.546835103358706453e-03
1.730507482060972789e-03
1.925145359032495642e-03
2.129701515575915631e-03
2.343095309442957269e-03
2.564218008491721702e-03
2.791937782771071030e-03
3.025104514176249135e-03
3.262554303335841229e-03
3.503113743358020945e-03
3.745603998349871649e-03
3.988844633593587388e-03
4.231657302099347921e-03
4.472869264010080267e-03
4.711316816757616516e-03
4.945848772969911253e-03
5.175329822162018367e-03
5.398643967226258132e-03
5.614698052731732607e-03
5.822425442182902269e-03
6.020789808939388914e-03
6.208789126020498005e-03
6.385459863732676974e-03
6.549881446501424828e-03
6.701180887824301213e-03
6.838537607807120174e-03
6.961188420905021004e-03
7.068432738616824314e-03
7.159637779027574166e-03
7.234243919123987433e-03
7.291769911064666446e-03
7.331818082316732786e-03
7.354079364814942489e-03
7.358338013284668362e-03
7.344475986231643709e-03
7.312476761540045479e-03
7.262428686673414770e-03
7.194527654372115562e-03
7.109078949666066717e-03
7.006498249324184455e-03
6.887311692510621024e-03
6.752154958289019980e-03
6.601771242686899424e-03
6.437008056766541260e-03
6.258812905650152844e-03
6.068227772693665818e-03
5.866382463057319765e-03
5.654486696558352898e-03
5.433821170726555426e-03
5.205727522859448717e-03
4.971597340984329656e-03
4.732860232718408972e-03
4.490971179427261963e-03
4.247397293239201996e-03
4.003604109515192938e-03
3.761041544881089591e-03
3.521129777044636113e-03
3.285245147370426631e-03
3.054706382215459284e-03
2.830761268146075003e-03
2.614573952008119716e-03
2.407213124410571749e-03
2.209641273043036567e-03
2.022705131075011164e-03
1.847127502408461679e-03
1.683500612829164252e-03
1.532281184163476273e-03
1.393787219476118550e-03
1.268196654336553120e-03
1.155547866212302882e-03
1.055742130555836680e-03
9.685480166306650093e-04
8.936076189922278470e-04
8.304445767968752969e-04
7.784738436989127206e-04
7.370130108652638880e-04
7.052950346480019042e-04
6.824821994977329923e-04
6.676810428761340054e-04
6.599581559600285145e-04
6.583564599237659793e-04
6.619117780582626197e-04
6.696693740674001171e-04
6.807002638578498604e-04
6.941169036714982471e-04
7.090881075039798644e-04
7.248527924443491860e-04
7.407324252739926930e-04
7.561418478569597668e-04
7.705983196926015442e-04
7.837285263470248047e-04
7.952735036084288174e-04
8.050912695850990022e-04
8.131571015414314121e-04
8.195614319051273402e-04
8.245053302478172735e-04
8.282936181728704425e-04
8.313258025583949041e-04
8.340847776093456402e-04
8.371235371328907384e-04
8.410501045709766399e-04
8.465108956350928622e-04
8.541728667660003840e-04
8.647046047864933400e-04
8.787568550247402055e-04
8.969426403914600946e-04
9.198175105790705247e-04
9.478601176971900152e-04
9.814536259213210365e-04
1.020868225259918436e-03
1.066245171243191238e-03
1.117582617470545391e-03
1.174723533695976865e-03
1.237346044959867272e-03
1.304956494389427962e-03
1.376885317805918952e-03
1.452285908604016886e-03
1.530136630422337246e-03
1.609245995784423702e-03
1.688261093250338152e-03
1.765679117839880248e-03
1.839861929500046954e-03
1.909053580863403782e-03
1.971400468058858487e-03
2.024973927942820464e-03
2.067794951724396743e-03
2.097860660517921610e-03
2.113172210502325607e-03
2.111763595788347051e-03
2.091731029993715730e-03
2.051262374942975850e-03
1.988666136104771161e-03
1.902399558856749653e-03
1.791095396550762857e-03
1.653586841223864297e-03
1.488930172728826322e-03
1.296424749264722112e-03
1.075629947636216714e-03
8.263787128821234581e-04
5.487873916296489738e-04
2.432617293074685434e-04
-8.950127856265869403e-05
-4.485156842102785198e-04
-8.325131439921855826e-04
-1.239953693541733827e-03
-1.669040625080009778e-03
-2.117739369411732100e-03
-2.583800085051281368e-03
-3.064783780450196400e-03
-3.558091499673579627e-03
-4.060996332129605813e-03
-4.570677581182645832e-03
-5.084256795619421579e-03
-5.598835089517429850e-03
-6.111531164402481987e-03
-6.619519485888653888e-03
-7.120068078834041955e-03
-7.610575391277055526e-03
-8.088605562901337101e-03
-8.551921590044961330e-03
-8.998515960300901631e-03
-9.426638176304798222e-03
-9.834818817314402301e-03
-1.022188966306145086e-02
-1.058699963831353369e-02
-1.092962624851301183e-02
-1.124958238210449837e-02
-1.154701835378458587e-02
-1.182241906335570851e-02
-1.207659636771420825e-02
-1.231067666794262612e-02
-1.252608409151879064e-02
-1.272451928035318695e-02
-1.290793419802373394e-02
-1.307850329120979586e-02
-1.323859151173261556e-02
-1.339071952278423315e-02
-1.353752667395565108e-02
-1.368173238801340293e-02
-1.382609629269611687e-02
-1.397337780377468953e-02
-1.412629578053210995e-02
-1.428748874982887010e-02
-1.445947629975338593e-02
-1.464462218266520017e-02
-1.484509958591920774e-02
-1.506285907037569101e-02
-1.529959960833329920e-02
-1.555674305547289846e-02
-1.583541239786764865e-02
-1.613641400620247426e-02
-1.646022408487099464e-02
-1.680697944379659289e-02
-1.717647261554394386e-02
-1.756815136142810679e-02
-1.798112243549300493e-02
-1.841415946064492784e-02
-1.886571477119784040e-02
-1.933393495696366163e-02
-1.981667978611171763e-02
-2.031154418952932708e-02
-2.081588291481779179e-02
-2.132683748958000627e-02
-2.184136508578311819e-02
-2.235626876538338720e-02
-2.286822888967435588e-02
-2.337383496226666524e-02
-2.386961773918570145e-02
-2.435208123889288576e-02
-2.481773407675069015e-02
-2.526311993663464539e-02
-2.568484686138157100e-02
-2.607961505109815739e-02
-2.644424304230734782e-02
-2.677569199978863460e-02
-2.707108803602177594e-02
-2.732774245407338168e-02
-2.754316989833648435e-02
-2.771510433050507205e-02
-2.784151295905806442e-02
-2.792060803633458765e-02
-2.795085679476888921e-02
-2.793098952586685682e-02
-2.786000588911939982e-02
-2.773717967667461287e-02
-2.756206220408117732e-02
-2.733448431885511856e-02
-2.705455731462191177e-02
-2.672267268927744355e-02
-2.633950108987314492e-02
-2.590599039745363971e-02
-2.542336303625105515e-02
-2.489311250430429820e-02
-2.431699914208940508e-02
-2.369704518016094857e-02
-2.303552894723649019e-02
-2.233497820989894730e-02
-2.159816246313944754e-02
-2.082808414881853060e-02
-2.002796866763162029e-02
-1.920125291993721867e-02
-1.835157221853864901e-02
-1.748274555839113634e-02
-1.659875905687861752e-02
-1.570374726046718655e-02
-1.480197247500149652e-02
-1.389780172961422450e-02
-1.299568160457925843e-02
-1.210011078135306631e-02
-1.121561035758915532e-02
-1.034669202041791324e-02
-9.497824261222809206e-03
-8.673396809219255724e-03
-7.877683532422302334e-03
-7.114804152553113985e-03
-6.388685147308556696e-03
-5.703020238799275977e-03
-5.061231042769588455e-03
-4.466428205214122323e-03
-3.921373790855075571e-03
-3.428445472892715888e-03
-2.989602954444887765e-03
-2.606357445182457856e-03
-2.279744710920038331e-03
-2.010302253849390996e-03
-1.798051291315092438e-03
-1.642483869025964608e-03
-1.542555711197088559e-03
-1.496685159958359695e-03
-1.502758563500102571e-03
-1.558142316665355603e-03
-1.659701646603575559e-03
-1.803826190526240528e-03
-1.986462414660390696e-03
-2.203152475462796193e-03
-2.449079398910865984e-03
-2.719118018764131277e-03
-3.007891219796637004e-03
-3.309830833856499191e-03
-3.619242388396881876e-03
-3.930372920838622053e-03
-4.237480972144026803e-03
-4.534907634978178025e-03
-4.817147790435328224e-03
-5.078920243306184884e-03
-5.315235901173513168e-03
-5.521462703903158402e-03
-5.693386413476780525e-03
-5.827265979783378437e-03
-5.919882731783582090e-03
-5.968582340670335745e-03
-5.971308856508654624e-03
-5.926630014080036188e-03
-5.833753360034510567e-03
-5.692532683969171378e-03
-5.503464538999966633e-03
-5.267674751279346861e-03
-4.986894954001823248e-03
-4.663429443324766839e-03
-4.300112688015976688e-03
-3.900258086982224572e-03
-3.467598811655418778e-03
-3.006221545664232008e-03
-2.520494257035084482e-03
-2.014988974262693633e-03
-1.494401137424480235e-03
-9.634665948748137500e-04
-4.268778604612518237e-04
1.107990046451545079e-04
6.452053281783535653e-04
1.172267040869342690e-03
1.688266974545502572e-03
2.189910697483157809e-03
2.674384660128000576e-03
3.139405482499361705e-03
3.583259412574454732e-03
4.004831132237183372e-03
4.403621190524894397e-03
4.779751599879026279e-03
5.133959367498401073e-03
5.467577974559697206e-03
5.782506979681298516e-03
6.081170111454320057e-03
6.366462516440519505e-03
6.641688003148577511e-03
6.910487423243312673e-03
7.176759454835790128e-03
7.444575049235892424e-03
7.718087229734933545e-03
8.001437894967090153e-03
8.298663332907489296e-03
8.613600370838976616e-03
8.949794999979981264e-03
9.310415222177299832e-03
9.698169956403063924e-03
1.011523568930016229e-02
1.056319252065426872e-02
1.104297105905278388e-02
1.155481129936082769e-02
1.209823467886297910e-02
1.267203011258354745e-02
1.327425451837905938e-02
1.390224821176258910e-02
1.455266519205103935e-02
1.522151805797125959e-02
1.590423696434231995e-02
1.659574191378065250e-02
1.729052712788443913e-02
1.798275625224894647e-02
1.866636686547995527e-02
1.933518230220748757e-02
1.998302888302578087e-02
2.060385644688931400e-02
2.119185995474096723e-02
2.174159974148728858e-02
2.224811815503809423e-02
2.270705020183917330e-02
2.311472598574159168e-02
2.346826265331012837e-02
2.376564394995497875e-02
2.400578539471626485e-02
2.418858369341160205e-02
2.431494884644112148e-02
2.438681799187022645e-02
2.440715027926912417e-02
2.437990234043572665e-02
2.430998437966312015e-02
2.420319729978216358e-02
2.406615146802246544e-02
2.390616826589656019e-02
2.373116592179446566e-02
2.354953135668735528e-02
2.336998012342287115e-02
2.320140687073298652e-02
2.305272894130681177e-02
2.293272596204008751e-02
2.284987831620783824e-02
2.281220767912489969e-02
2.282712267118996649e-02
2.290127285799303108e-02
2.304041406432179653e-02
2.324928795801800563e-02
2.353151871420212926e-02
2.388952922161246759e-02
2.432447908356026242e-02
2.483622636839997316e-02
2.542331459460459714e-02
2.608298604382465469e-02
2.681122208685698602e-02
2.760281073943392574e-02
2.845144105566110512e-02
2.934982371804771215e-02
3.028983639397716393e-02
3.126269219445004799e-02
3.225912894554532062e-02
3.326961664777960959e-02
3.428457997821908465e-02
3.529463242875943707e-02
3.629081835934062916e-02
3.726485884859315201e-02
3.820939727454945867e-02
3.911824014314309317e-02
3.998658889130764921e-02
4.081125820578115210e-02
4.159087654205283896e-02
4.232606478131419048e-02
4.301958903015629110e-02
4.367648400265068676e-02
4.430414379333795505e-02
4.491237709040620668e-02
4.551342460653879513e-02
4.612193686847404495e-02
4.675491119465238765e-02
4.743158720187135025e-02
4.817330085943779400e-02
4.900329766839019857e-02
4.994650632525231976e-02
5.102927470448914010e-02
5.227907078902326726e-02
5.372415155583386281e-02
5.539320348154010837e-02
5.731495892648784396e-02
5.951779289015148716e-02
6.202930517101567370e-02
6.487589328847909176e-02
6.808232162054143888e-02
7.167129252900457381e-02
7.566302521592351005e-02
8.007484806916190245e-02
8.492081023807268592e-02
9.021131790277706064e-02
9.595280036422659808e-02
1.021474110696736909e-01
1.087927680090530341e-01
1.158817373515307475e-01
1.234022639880853062e-01
1.313372518380587772e-01
1.396644960939321389e-01
1.483566691457449960e-01
1.573813609849367690e-01
1.667011742867504920e-01
1.762738738277567496e-01
1.860525889903900665e-01
1.959860674561005045e-01
2.060189775808931589e-01
2.160922564719469918e-01
2.261434999878518259e-01
2.361073906014314050e-01
2.459161584173289727e-01
2.555000704838396031e-01
2.647879430925397792e-01
2.737076715829419582e-01
2.821867720278321556e-01
2.901529291363964536e-01
2.975345447085276374e-01
3.042612810950890978e-01
3.102645942474144269e-01
3.154782512036052311e-01
3.198388272366901597e-01
3.232861781069468754e-01
3.257638834552045171e-01
3.272196577122648553e-01
3.276057253681652348e-01
3.268791581604522656e-01
3.250021721820643972e-01
3.219423832261776863e-01
3.176730196434117692e-01
3.121730922892143045e-01
3.054275215491863427e-01
2.974272222488740236e-01
2.881691473837478812e-01
2.776562921923628746e-01
2.658976604506657626e-01
2.529081950448232030e-01
2.387086753951528639e-01
2.233255841787398777e-01
2.067909462463178860e-01
1.891421424571743393e-01
1.704217013937072145e-01
1.506770717594785869e-01
1.299603781873676367e-01
1.083281630933502909e-01
8.584111710194766709e-02
6.256380018570475987e-02
3.856435567530918512e-02
1.391421873308808753e-02
-1.131217903885555279e-02
-3.703770781122994737e-02
-6.318283957720574606e-02
-8.966594928395155151e-02
-1.164036167897465335e-01
-1.433109294199021999e-01
-1.703017851572001806e-01
-1.972891967420269954e-01
-2.241855969444404295e-01
-2.509031454817609030e-01
-2.773540380997499000e-01
-3.034508183161893635e-01
-3.291066922023438424e-01
-3.542358466732033473e-01
-3.787537714148219159e-01
-4.025775845606660019e-01
-4.256263619530925579e-01
-4.478214697190269766e-01
-4.690868992759162359e-01
-4.893496039980557710e-01
-5.085398361467656780e-01
-5.265914826663483650e-01
-5.434423978687837886e-01
-5.590347308449685748e-01
-5.733152451450896914e-01
-5.862356281106992917e-01
-5.977527867496228442e-01
-6.078291273116852578e-01
-6.164328150693679786e-01
-6.235380110526537178e-01
-6.291250824424233778e-01
-6.331807831951706822e-01
-6.356984016878890476e-01
-6.366778722915245048e-01
-6.361258479359035434e-01
-6.340557311637238236e-01
-6.304876612443042205e-01
-6.254484557247037557e-01
-6.189715046621064864e-01
-6.110966168673773735e-01
-6.018698175990971899e-01
-5.913430978493923185e-01
-5.795741161428860089e-01
-5.666258538870373451e-01
-5.525662263687696196e-01
-5.374676519521811580e-01
-5.214065824850516728e-01
-5.044629986107669328e-01
-4.867198742430283720e-01
-4.682626147155761198e-01
-4.491784738153364320e-01
-4.295559551370010110e-01
-4.094842033800230596e-01
-3.890523917392825215e-01
-3.683491113982542142e-01
-3.474617693208211233e-01
-3.264760005621247796e-01
-3.054751010961430646e-01
-2.845394870514347252e-01
-2.637461859324947144e-01
-2.431683650930809848e-01
-2.228749023252759309e-01
-2.029300027649839910e-01
-1.833928660156393664e-01
-1.643174065567937214e-01
-1.457520299037876055e-01
-1.277394664103246869e-01
-1.103166637094508545e-01
-9.351473812229345317e-02
-7.735898465476746810e-02
-6.186894439946039742e-02
-4.705852757469608516e-02
-3.293618957586209872e-02
-1.950515682949637702e-02
-6.763698760266836744e-03
5.294558606381141903e-03
1.668028211516850434e-02
2.740804929409295862e-02
3.749594001072422550e-02
4.696510778194537550e-02
5.583933673405545167e-02
6.414459015732031089e-02
7.190855673009528826e-02
7.916020025881401190e-02
8.592931865784352030e-02
9.224611765968075694e-02
9.814080429453168886e-02
1.036432048768678726e-01
1.087824116805794772e-01
1.135864620391797558e-01
1.180820530273759550e-01
1.222942941071034212e-01
1.262464998025360774e-01
1.299600234613337013e-01
1.334541328048723108e-01
1.367459271543871313e-01
1.398502956800950214e-01
1.427799153773034180e-01
1.455452868841954628e-01
1.481548057240316962e-01
1.506148662076480516e-01
1.529299946584452008e-01
1.551030083582005670e-01
1.571351962287931836e-01
1.590265171838507741e-01
1.607758118938005798e-01
1.623810235763384346e-01
1.638394234967238683e-01
1.651478369594757967e-01
1.663028655644775700e-01
1.673011019533115762e-01
1.681393333643698140e-01
1.688147306347789478e-01
1.693250198010701202e-01
1.696686336856687849e-01
1.698448414188359068e-01
1.698538542335256973e-01
1.696969064007264882e-01
1.693763106884880187e-01
1.688954881759341387e-01
1.682589725539627434e-01
1.674723898571357228e-01
1.665424146748632206e-01
1.654767044665942100e-01
1.642838139273420373e-01
1.629730915572654981e-01
1.615545609846925357e-01
1.600387897619112709e-01
1.584367484730984377e-01
1.567596631315363032e-01
1.550188638255616258e-01
1.532256327047753219e-01
1.513910541319313796e-01
1.495258698643766038e-01
1.476403418758671371e-01
1.457441252491736006e-01
1.438461533439041595e-01
1.419545371257541488e-01
1.400764801086684108e-01
1.382182103816992635e-01
1.363849304832039089e-01
1.345807856907343669e-01
1.328088508760075226e-01
1.310711358427769646e-01
1.293686085621778836e-01
1.277012355504870966e-01
1.260680381849386134e-01
1.244671635516661351e-01
1.228959682955781257e-01
1.213511135643172006e-01
1.198286691111072194e-01
1.183242242746312123e-01
1.168330037878529404e-01
1.153499861635179508e-01
1.138700224067853706e-01
1.123879527800228650e-01
1.108987197024126903e-01
1.093974747051708885e-01
1.078796776893732878e-01
1.063411868022735435e-01
1.047783375595857797e-01
1.031880101230140262e-01
1.015676837469648292e-01
9.991547772718063769e-02
9.823017852284217366e-02
9.651125294563296653e-02
9.475884761028517678e-02
9.297377494344458149e-02
9.115748655386181343e-02
8.931203471107354575e-02
8.744002320103112791e-02
8.554454864480456888e-02
8.362913385358844431e-02
8.169765458348898779e-02
7.975426143127536949e-02
7.780329858451291714e-02
7.584922097354802883e-02
7.389651157266836912e-02
7.194960048402510022e-02
7.001278744911144936e-02
6.809016909248576110e-02
6.618557224305163245e-02
6.430249460663653438e-02
6.244405369872079586e-02
6.061294493222731117e-02
5.881140935275391141e-02
5.704121149108327959e-02
5.530362753898576678e-02
5.359944387036216090e-02
5.192896560292365599e-02
5.029203481955488858e-02
4.868805790186403470e-02
4.711604112780751891e-02
4.557463372405918395e-02
4.406217723457441643e-02
4.257676008998517031e-02
4.111627619634929121e-02
3.967848619979034985e-02
3.826108012047109430e-02
3.686174007113710016e-02
3.547820174101862928e-02
3.410831344864341530e-02
3.275009153741715445e-02
3.140177104329505697e-02
3.006185066176244799e-02
2.872913129239480431e-02
2.740274728777561397e-02
2.608218995876439641e-02
2.476732301241532305e-02
2.345838961426709862e-02
2.215601113808202474e-02
2.086117763496629987e-02
1.957523033320147932e-02
1.829983664829248555e-02
1.703695830298428485e-02
1.578881321628794465e-02
1.455783197960232311e-02
1.334660983960118952e-02
1.215785528386548880e-02
1.099433610968419441e-02
9.858824239418324115e-03
8.754040206113082589e-03
7.682598585169031838e-03
6.646955258231772301e-03
5.649357585219374513e-03
4.691798492245741192e-03
3.775975209981166127e-03
2.903253586231389557e-03
2.074638436098642184e-03
1.290750549598172975e-03
5.518107700732277502e-04
-1.423686137051693415e-04
-7.923850840257713095e-04
-1.399239676989118882e-03
-1.964323607250549782e-03
-2.489397878803788385e-03
-2.976566381200462623e-03
-3.428243031775247019e-03
-3.847113527920187695e-03
-4.236092459647529569e-03
-4.598276631166811623e-03
-4.936895342862662045e-03
-5.255258700075035767e-03
-5.556704705259883463e-03
-5.844546217266468648e-03
-6.122018635916280475e-03
-6.392229148058333962e-03
-6.658108533927654081e-03
-6.922366266182507569e-03
-7.187449684816639428e-03
-7.455507820485019442e-03
-7.728360468506292880e-03
-8.007472973815198472e-03
-8.293937102603518921e-03
-8.588458167834751508e-03
-8.891348631973945704e-03
-9.202528117763109777e-03
-9.521529772639716893e-03
-9.847512718732989029e-03
-1.017928033460812655e-02
-1.051530396809073099e-02
-1.085375152254254225e-02
-1.119252043465955929e-02
-1.152927435718976122e-02
-1.186148288462282076e-02
-1.218646348839078422e-02
-1.250142517038484516e-02
-1.280351282971345546e-02
-1.308985175941073179e-02
-1.335759145369455961e-02
-1.360394802007717889e-02
-1.382624455465846294e-02
-1.402194886449777307e-02
-1.418870795264625360e-02
-1.432437884708238213e-02
-1.442705530046563094e-02
-1.449509004287023207e-02
-1.452711237169690417e-02
-1.452204088722951376e-02
-1.447909129899365224e-02
-1.439777937242967508e-02
-1.427791907641126103e-02
-1.411961605856563995e-02
-1.392325682852366131e-02
-1.368949383951703277e-02
-1.341922695209181622e-02
-1.311358157009886657e-02
-1.277388402919324949e-02
-1.240163475252883084e-02
-1.199847960623024248e-02
-1.156618003053729374e-02
-1.110658252133164478e-02
-1.062158798423769659e-02
-1.011312139329184449e-02
-9.583102399669923485e-03
-9.033417235260453662e-03
-8.465892323189935786e-03
-7.882269999479690759e-03
-7.284186656145890879e-03
-6.673153634957171287e-03
-6.050540993282220448e-03
-5.417564344125955743e-03
-4.775274802239334350e-03
-4.124552127162793395e-03
-3.466101078426895264e-03
-2.800450820751310133e-03
-2.127957242825916691e-03
-1.448808082551254891e-03
-7.630306107182782942e-04
-7.050163612757396443e-05
6.290404525413272009e-04
1.335981956103054341e-03
2.050818660588241919e-03
2.774139570352667124e-03
3.506609873961504236e-03
4.248953494537585987e-03
5.001935491646762252e-03
5.766344627748206352e-03
6.542976419554403199e-03
7.332616842355157982e-03
8.136027089926230194e-03
8.953929247845533387e-03
9.786993387558066276e-03
1.063582609053144792e-02
1.150096038329195131e-02
1.238284724634726441e-02
1.328184866451319335e-02
1.419823224515765099e-02
1.513216735811320074e-02
1.608372269727359125e-02
1.705286511730085691e-02
1.803945970450090627e-02
1.904327096144966050e-02
2.006396490101340982e-02
2.110111190193675323e-02
2.215419012704531593e-02
2.322258946552251471e-02
2.430561575361784785e-02
2.540249510623274545e-02
2.651237826878960480e-02
2.763434489616539702e-02
2.876740760008239528e-02
2.991051571482075677e-02
3.106255859559268681e-02
3.222236863551013880e-02
3.338872386219454702e-02
3.456035009936371527e-02
3.573592272425019783e-02
3.691406810258855697e-02
3.809336469807627495e-02
3.927234405529246575e-02
4.044949165684363912e-02
4.162324772699402264e-02
4.279200818439924531e-02
4.395412598748754673e-02
4.510791262676456387e-02
4.625164009202838156e-02
4.738354342893605353e-02
4.850182403870201275e-02
4.960465361215572050e-02
5.069017893853975526e-02
5.175652750467138463e-02
5.280181405950269691e-02
5.382414805535577079e-02
5.482164195710932664e-02
5.579242040019510851e-02
5.673463013989171050e-02
5.764645065765906795e-02
5.852610535689791588e-02
5.937187324540642991e-02
6.018210088637288013e-02
6.095521452048585642e-02
6.168973215051663794e-02
6.238427535525854079e-02
6.303758072408092994e-02
6.364851065877408232e-02
6.421606327715423390e-02
6.473938144023048957e-02
6.521776051681743569e-02
6.565065478482265404e-02
6.603768235589374536e-02
6.637862840033087464e-02
6.667344656789216117e-02
6.692225861943898457e-02
6.712535213810898183e-02
6.728317630917701742e-02
6.739633574892212042e-02
6.746558236683840304e-02
6.749180551839398245e-02
6.747602030436951337e-02
6.741935435076597261e-02
6.732303307872528064e-02
6.718836371720297851e-02
6.701671828568188383e-02
6.680951575121940600e-02
6.656820358913456692e-02
6.629423909060606912e-02
6.598907056778084701e-02
6.565411890893660396e-02
6.529075942761670970e-02
6.490030470264650242e-02
6.448398843296727911e-02
6.404295069329443701e-02
6.357822461611101206e-02
6.309072494618635230e-02
6.258123852661416631e-02
6.205041693225191168e-02
6.149877129545036625e-02
6.092666953328131074e-02
6.033433596030621932e-02
5.972185325323368932e-02
5.908916691973209456e-02
5.843609203028956450e-02
5.776232229537506951e-02
5.706744112301876531e-02
5.635093469262531657e-02
5.561220677046412736e-02
5.485059500485393869e-02
5.406538852360341652e-02
5.325584647138994349e-02
5.242121728576169121e-02
5.156075832058154562e-02
5.067375552153698115e-02
4.975954286533120635e-02
4.881752118767463539e-02
4.784717626920040323e-02
4.684809562402512950e-02
4.581998390436309992e-02
4.476267661792251301e-02
4.367615192616994962e-02
4.256054038243541060e-02
4.141613233925745680e-02
4.024338297809790244e-02
3.904291490696001204e-02
3.781551825600720090e-02
3.656214824067124947e-02
3.528392022276598955e-02
3.398210241191371161e-02
3.265810631083789634e-02
3.131347511020208391e-02
2.994987011108368041e-02
2.856905542808238496e-02
2.717288132813843599e-02
2.576326638200475069e-02
2.434217879032836776e-02
2.291161713432934149e-02
2.147359093897337895e-02
2.003010127355807704e-02
1.858312179778327106e-02
1.713458054733105543e-02
1.568634272547115432e-02
1.424019480086283033e-02
1.279783013660122822e-02
1.136083643011457853e-02
9.930685076931703922e-03
8.508722710064378636e-03
7.096164982324308992e-03
5.694092677260705407e-03
4.303450190832062289e-03
2.925046330738277633e-03
1.559557510806246520e-03
2.075330313216819627e-04
-1.130597450873234260e-03
-2.454514534456691231e-03
-3.763998040659019724e-03
-5.058914463210406956e-03
-6.339203166252004203e-03
-7.604861652869004604e-03
-8.855930302281435698e-03
-1.009247669376798183e-02
-1.131458000685628927e-02
-1.252231570033154710e-02
-1.371574085784351728e-02
-1.489488048915325186e-02
-1.605971501532992007e-02
-1.721016923104077417e-02
-1.834610307112217661e-02
-1.946730422076717315e-02
-2.057348288131509786e-02
-2.166426870852837874e-02
-2.273920997606085348e-02
-2.379777516301989637e-02
-2.483935684079189785e-02
-2.586327779578340841e-02
-2.686879936133008268e-02
-2.785513172710981505e-02
-2.882144610463870452e-02
-2.976688848629505460e-02
-3.069059475396109654e-02
-3.159170686183173510e-02
-3.246938978982127910e-02
-3.332284887499456505e-02
-3.415134720619635716e-02
-3.495422270565303607e-02
-3.573090461942057122e-02
-3.648092898494612046e-02
-3.720395276706453536e-02
-3.789976627008198595e-02
-3.856830368642696905e-02
-3.920965138223105745e-02
-3.982405372913561115e-02
-4.041191631869414658e-02
-4.097380644044292669e-02
-4.151045065019869085e-02
-4.202272944598828969e-02
-4.251166900503521029e-02
-4.297843017595743415e-02
-4.342429470230872030e-02
-4.385064888493093310e-02
-4.425896497150057229e-02
-4.465078040294450518e-02
-4.502767535343631111e-02
-4.539124881524810723e-02
-4.574309369447365770e-02
-4.608477120992816173e-02
-4.641778513831266301e-02
-4.674355622594549703e-02
-4.706339729902698360e-02
-4.737848945600687395e-02
-4.768985973068407686e-02
-4.799836076079130875e-02
-4.830465271008979600e-02
-4.860918786694410493e-02
-4.891219824310682335e-02
-4.921368635129739350e-02
-4.951341948304539831e-02
-4.981092758386720942e-02
-5.010550483912086517e-02
-5.039621503660236118e-02
-5.068190069707648876e-02
-5.096119582132196957e-02
-5.123254218251195591e-02
-5.149420892795526783e-02
-5.174431529328724078e-02
-5.198085598428356380e-02
-5.220172898913034987e-02
-5.240476539818581664e-02
-5.258776070299417404e-02
-5.274850713104702049e-02
-5.288482664159134539e-02
-5.299460388297122515e-02
-5.307581870739766505e-02
-5.312657777080250637e-02
-5.314514458026409899e-02
-5.312996762627868186e-02
-5.307970607088423332e-02
-5.299325255933872575e-02
-5.286975287012681685e-02
-5.270862204410936558e-02
-5.250955662452247430e-02
-5.227254287289639922e-02
-5.199786087786739674e-02
-5.168608430752005822e-02
-5.133807594081875314e-02
-5.095497897524108727e-02
-5.053820413896824987e-02
-5.008941298446858287e-02
-4.961049751098634691e-02
-4.910355640528518001e-02
-4.857086825334308577e-02
-4.801486220913580433e-02
-4.743808655400549856e-02
-4.684317561610484154e-02
-4.623281555457958020e-02
-4.560970958572904688e-02
-4.497654315296908956e-02
-4.433594961408603152e-02
-4.369047691340056938e-02
-4.304255586648838422e-02
-4.239447050418144319e-02
-4.174833089079313386e-02
-4.110604888318793865e-02
-4.046931714137891323e-02
-3.983959177361401371e-02
-3.921807880506519850e-02
-3.860572469284221514e-02
-3.800321100396720359e-02
-3.741095330657765589e-02
-3.682910426410462151e-02
-3.625756090059416292e-02
-3.569597573513917654e-02
-3.514377173391417669e-02
-3.460016076953025682e-02
-3.406416516092924257e-02
-3.353464206489633476e-02
-3.301031020610274008e-02
-3.248977850732005096e-02
-3.197157615196194458e-02
-3.145418352662253392e-02
-3.093606364867890895e-02
-3.041569341315596489e-02
-2.989159426421346757e-02
-2.936236174586656297e-02
-2.882669348273953977e-02
-2.828341516206078071e-02
-2.773150406655879030e-02
-2.717010980709606838e-02
-2.659857202025521505e-02
-2.601643470943721184e-02
-2.542345706198042427e-02
-2.481962055783948351e-02
-2.420513239914741030e-02
-2.358042518623136574e-02
-2.294615285998213849e-02
-2.230318312212655960e-02
-2.165258643885082171e-02
-2.099562185124744657e-02
-2.033371986496385411e-02
-1.966846272117765346e-02
-1.900156248841520720e-02
-1.833483728255478826e-02
-1.767018607602746302e-02
-1.700956245675263462e-02
-1.635494785058381681e-02
-1.570832460463241625e-02
-1.507164938751343920e-02
-1.444682734600541245e-02
-1.383568737045495940e-02
-1.323995879258638500e-02
-1.266125000620755767e-02
-1.210102916173872237e-02
-1.156060730034939518e-02
-1.104112407424706968e-02
-1.054353623205046310e-02
-1.006860898576834341e-02
-9.616910342588852467e-03
-9.188808332874253901e-03
-8.784471198759585472e-03
-8.403870343020035036e-03
-8.046785957485926358e-03
-7.712815193656404750e-03
-7.401382566716583136e-03
-7.111752403544072121e-03
-6.843043069823250522e-03
-6.594242544342262397e-03
-6.364225210101085231e-03
-6.151769432922101453e-03
-5.955575681226416701e-03
-5.774284675918411706e-03
-5.606495514206126865e-03
-5.450783256729019831e-03
-5.305715834240435323e-03
-5.169869969570029845e-03
-5.041845886368839097e-03
-4.920280630438033341e-03
-4.803859868463325293e-03
-4.691327996488618528e-03
-4.581496547368417958e-03
-4.473250826390930308e-03
-4.365554736591371020e-03
-4.257453924718699635e-03
-4.148077281995486872e-03
-4.036636801971265134e-03
-3.922426169693162858e-03
-3.804817992680660597e-03
-3.683260059524087315e-03
-3.557270727341522044e-03
-3.426433590835675086e-03
-3.290391762884520895e-03
-3.148841959047203945e-03
-3.001528543267191484e-03
-2.848237826501983597e-03
-2.688792688227633048e-03
-2.523047847573132822e-03
-2.350885811997016541e-03
-2.172213657514590612e-03
-1.986960778452158058e-03
-1.795077595705341349e-03
-1.596535328135250146e-03
-1.391326773502509027e-03
-1.179468151843247967e-03
-9.610018416392689762e-04
-7.359999534860707905e-04
-5.045686536108601487e-04
-2.668530865692210854e-04
-2.304266783043513864e-05
2.266233192303213377e-04
4.818501170501813722e-04
7.422820550491739111e-04
1.007497493800912696e-03
1.277004383780888349e-03
1.550236549622934813e-03
1.826550937588653769e-03
2.105225992728791597e-03
2.385461374864122127e-03
2.666379021414117412e-03
2.947025782464264641e-03
3.226377594041283069e-03
3.503345264279614842e-03
3.776781942900385262e-03
4.045492106853071888e-03
4.308242011332205461e-03
4.563771616049098340e-03
4.810807648511622285e-03
5.048077861968691508e-03
5.274326135676028759e-03
5.488328195446673385e-03
5.688907735943963748e-03
5.874952665119601014e-03
6.045431206519355852e-03
6.199407585976925497e-03
6.336056959187646477e-03
6.454679321464986200e-03
6.554712146033762205e-03
6.635741543499162898e-03
6.697511583018579337e-03
6.739931668050112845e-03
6.763081665831191178e-03
6.767214781567658377e-03
6.752758006721090028e-03
6.720310072852830711e-03
6.670636855107395236e-03
6.604664298053987415e-03
6.523468861670413121e-03
6.428265635883418684e-03
6.320394256759578888e-03
6.201302802441772434e-03
6.072529891624758522e-03
5.935685288435951779e-03
5.792429222956210766e-03
5.644450750827203871e-03
5.493445600807147534e-03
5.341093715439958894e-03
5.189036852826922966e-03
5.038856703666832679e-03
4.892053763105010111e-03
4.750027366439587423e-03
4.614057222485402898e-03
4.485286645984550360e-03
4.364707898521582446e-03
4.253149765893789701e-03
4.151267650587039254e-03
4.059536232782357500e-03
3.978245002974712535e-03
3.907496547862111466e-03
3.847207723394625075e-03
3.797113682237412361e-03
3.756774616989196330e-03
3.725585150463015752e-03
3.702786302624772041e-03
3.687479615769947202e-03
3.678643353698138590e-03
3.675150484163156473e-03
3.675788104272596345e-03
3.679278060848113242e-03
3.684298234818284088e-03
3.689504345574486262e-03
3.693551849210500310e-03
3.695117563173219797e-03
3.692920573328000670e-03
3.685742245491618885e-03
3.672444892223711548e-03
3.651988873760489852e-03
3.623447895284382346e-03
3.586022204678783812e-03
3.539049502928164233e-03
3.482013500901563231e-03
3.414549912419975741e-03
3.336449879951947257e-03
3.247660848804497912e-03
3.148284851646154531e-03
3.038574385270842188e-03
2.918925838428651325e-03
2.789870816717421841e-03
2.652065440681126464e-03
2.506277842562056914e-03
2.353374216186501517e-03
2.194303620073937387e-03
2.030081890779129265e-03
1.861774828756173131e-03
1.690481241909548788e-03
1.517315896103173418e-03
1.343392832427276742e-03
1.169809277427920650e-03
9.976305135298067870e-04
8.278758626119030748e-04
6.615060217139004991e-04
4.994120651942631503e-04
3.424061651306782974e-04
1.912141931093003222e-04
4.647022205623169968e-05
-9.128691129807175997e-05
-2.216150445722432606e-04
-3.441681850785095406e-04
-4.586940721381982432e-04
-5.650300351957565767e-04
-6.630971390436652237e-04
-7.528929661913248781e-04
-8.344831168948187074e-04
-9.079917098048853608e-04
-9.735911557675891448e-04
-1.031491408296970501e-03
-1.081929031021780551e-03
-1.125156264060890544e-03
-1.161430459434993710e-03
-1.191004056690632721e-03
-1.214115401330501587e-03
-1.230980626739547204e-03
-1.241786714280352895e-03
-1.246685997832286397e-03
-1.245792192219198798e-03
-1.239178090009451999e-03
-1.226874970171698380e-03
-1.208873723097917980e-03
-1.185127715794135348e-03
-1.155557277538800517e-03
-1.120055838921336054e-03
-1.078497480831288940e-03
-1.030745735816033333e-03
-9.766635550172981899e-04
-9.161240807691853252e-04
-8.490221164937845118e-04
-7.752859248719390318e-04
-6.948891234174680524e-04
-6.078624265791776095e-04
-5.143049006700199438e-04
-4.143944912766255040e-04
-3.083974833676312623e-04
-1.966767056184326196e-04
-7.969829962302100957e-05
4.196329299844490788e-05
1.676221875131323293e-04
2.964799918222720356e-04
4.276268370892508499e-04
5.600446495497957795e-04
6.926127096585414601e-04
8.241153541646485019e-04
9.532519247653562086e-04
1.078648687662539518e-03
1.198872851699780929e-03
1.312448218451270007e-03
1.417872408356372948e-03
1.513635345869397729e-03
1.598238807287603175e-03
1.670216662220319354e-03
1.728155580459613634e-03
1.770715712825826323e-03
1.796651170893190461e-03
1.804829933086821983e-03
1.794252738965876857e-03
1.764070748131821428e-03
1.713601653672563270e-03
1.642343892506692785e-03
1.549988766882766465e-03
1.436430203498449470e-03
1.301771996452740377e-03
1.146332350622175080e-03
9.706455667101046396e-04
7.754608964188901320e-04
5.617384732868205364e-04
3.306424081201887635e-04
8.353105828368925963e-05
-1.780554168881377146e-04
-4.524100918583078392e-04
-7.376765911379335686e-04
-1.031868526155718408e-03
-1.332890814059890664e-03
-1.638562523730518247e-03
-1.946640979885781372e-03
-2.254846807028084137e-03
-2.560889478275081219e-03
-2.862493067731052779e-03
-3.157421867820862579e-03
-3.443505467054464898e-03
-3.718662910421501391e-03
-3.980925744533137141e-03
-4.228459551598970877e-03
-4.459583631353436148e-03
-4.672788710218912095e-03
-4.866752299743240008e-03
-5.040351603233133790e-03
-5.192673849974291551e-03
-5.323023874060105187e-03
-5.430928883941376489e-03
-5.516140453164211123e-03
-5.578633669665237702e-03
-5.618603541256519431e-03
-5.636458759825484222e-03
-5.632812868295608219e-03
-5.608473141983516194e-03
-5.564427270188418775e-03
-5.501828075437188020e-03
-5.421976542759778320e-03
-5.326303424557620077e-03
-5.216349579218265697e-03
-5.093745517864602980e-03
-4.960190330037606357e-03
-4.817430318745184042e-03
-4.667237616321143721e-03
-4.511389022253268870e-03
-4.351645401522342624e-03
-4.189731847430240054e-03
-4.027318838308980610e-03
-3.866004580611175166e-03
-3.707298741233445213e-03
-3.552607701734033455e-03
-3.403221488475546147e-03
-3.260302483168298852e-03
-3.124875959894004608e-03
-2.997822513039382058e-03
-2.879872310119726674e-03
-2.771601297738971771e-03
-2.673429210143014705e-03
-2.585619399388922914e-03
-2.508280389523720889e-03
-2.441369015962223821e-03
-2.384695059584394754e-03
-2.337927337788129126e-03
-2.300600981374511470e-03
-2.272125857476582200e-03
-2.251795981975572049e-03
-2.238799759103814180e-03
-2.232230957316930567e-03
-2.231100157483499949e-03
-2.234346691922068587e-03
-2.240850897431554811e-03
-2.249446516366621768e-03
-2.258933228050897038e-03
-2.268089107235707336e-03
-2.275682998055639228e-03
-2.280486731736053665e-03
-2.281287100494403929e-03
-2.276897424589640305e-03
-2.266168866200229427e-03
-2.248001311229473088e-03
-2.221353788782947074e-03
-2.185254440660868228e-03
-2.138809947869010474e-03
-2.081214470487090327e-03
-2.011757989992906531e-03
-1.929834130991828775e-03
-1.834947301499053555e-03
-1.726719182296313502e-03
-1.604894594350878998e-03
-1.469346599359096055e-03
-1.320080862820247926e-03
-1.157239207241136589e-03
-9.811023214756043557e-04
-7.920915724951376434e-04
-5.907698292399760510e-04
-3.778412866851023778e-04
-1.541502136180504198e-04
7.932134962300914111e-05
3.214571015176887142e-04
5.710112275635460897e-04
8.266143556432917639e-04
1.086780691969243271e-03
1.349916476197183515e-03
1.614329677177239047e-03
1.878240944017169761e-03
2.139795817297298740e-03
2.397077972588978600e-03
2.648123597544801457e-03
2.890936769317747727e-03
3.123505674275701190e-03
3.343819546051941989e-03
3.549886253904195772e-03
3.739750306583066244e-03
3.911511082434392973e-03
4.063341112357242262e-03
4.193504241362232959e-03
4.300373388177822047e-03
4.382447743022003551e-03
4.438369129414925125e-03
4.466937319807161473e-03
4.467124129199509866e-03
4.438085980548580299e-03
4.379174835386331725e-03
4.289947325495553805e-03
4.170171821850189760e-03
4.019833327424744869e-03
3.839136126290389976e-03
3.628504060868137197e-03
3.388578410351499905e-03
3.120213305795851468e-03
2.824468726661850601e-03
2.502601118472333203e-03
2.156051731150639139e-03
1.786432634004057494e-03
1.395510806028084100e-03
9.851903187695037860e-04
5.574928056604690381e-04
1.145365588827025708e-04
-3.414855484676104541e-04
-8.083290821662332277e-04
-1.283721637257615204e-03
-1.765386719272016595e-03
-2.251067684285027338e-03
-2.738551197067347343e-03
-3.225690217356621224e-03
-3.710425930124262601e-03
-4.190808464885093822e-03
-4.665016106493994306e-03
-5.131372699571221628e-03
-5.588363075644684798e-03
-6.034646341358302149e-03
-6.469066727669022139e-03
-6.890661978784046182e-03
-7.298669127438015686e-03
-7.692527655495366538e-03
-8.071879888092096944e-03
-8.436568832549814004e-03
-8.786633391487656819e-03
-9.122301114918532350e-03
-9.443978510861227027e-03
-9.752239192549506941e-03
-1.004781005330451435e-02
-1.033155559944552888e-02
-1.060446070084610989e-02
-1.086761206838506889e-02
-1.112217870373589934e-02
-1.136939152849622027e-02
-1.161052264947867903e-02
-1.184686436334269483e-02
-1.207970830002528216e-02
-1.231032485964029741e-02
-1.253994330840157295e-02
-1.276973272975328103e-02
-1.300078398138889042e-02
-1.323409297113572330e-02
-1.347054535465090457e-02
-1.371090281832049868e-02
-1.395579105125041228e-02
-1.420568944847396334e-02
-1.446092274159698453e-02
-1.472165438567189441e-02
-1.498788193136847517e-02
-1.525943415676249588e-02
-1.553597010311579853e-02
-1.581697982329772351e-02
-1.610178681895989977e-02
-1.638955205730032935e-02
-1.667927945705560688e-02
-1.696982273069415348e-02
-1.725989355454169566e-02
-1.754807082462056522e-02
-1.783281096848870692e-02
-1.811245912771596717e-02
-1.838526119204466139e-02
-1.864937652801012050e-02
-1.890289136312070864e-02
-1.914383268553836864e-02
-1.937018262146350533e-02
-1.957989323214079716e-02
-1.977090169485312687e-02
-1.994114579569265452e-02
-2.008857972713262718e-02
-2.021119020288653784e-02
-2.030701272823171033e-02
-2.037414812090201921e-02
-2.041077924220677589e-02
-2.041518783399190115e-02
-2.038577153377198539e-02
-2.032106088355276757e-02
-2.021973634292706032e-02
-2.008064514720123150e-02
-1.990281801587735419e-02
-1.968548553698028572e-02
-1.942809405250901789e-02
-1.913032093753355700e-02
-1.879208902527167505e-02
-1.841358007512666761e-02
-1.799524691408020682e-02
-1.753782415348551296e-02
-1.704233722229207479e-02
-1.651010941200483501e-02
-1.594276666203876466e-02
-1.534223996039276589e-02
-1.471076500725650334e-02
-1.405087890922536095e-02
-1.336541375557089018e-02
-1.265748685564647806e-02
-1.193048750076127797e-02
-1.118806021978273162e-02
-1.043408429844735683e-02
-9.672649743645135231e-03
-8.908029603886036263e-03
-8.144648737419024273e-03
-7.387049309628057267e-03
-6.639853054908329867e-03
-5.907720839179761256e-03
-5.195309711876771458e-03
-4.507227825277880691e-03
-3.847987819795868538e-03
-3.221959160071230076e-03
-2.633319899154162435e-03
-2.086008632581684390e-03
-1.583677244853536883e-03
-1.129645031528992176e-03
-7.268550065979898335e-04
-3.778330231875122935e-04
-8.465037767115231109e-05
1.511094013760708816e-04
3.283789841969128706e-04
4.466302700493496335e-04
5.058915773063013543e-04
5.067583963238677693e-04
4.503974957128182915e-04
3.385439590798571051e-04
1.734910275143784265e-04
-4.192736915288008520e-05
-3.043613349049227590e-04
-6.099768945604467979e-04
-9.544947360512983205e-04
-1.333235457854735351e-03
-1.741170871215143431e-03
-2.172980722929900542e-03
-2.623114166793092100e-03
-3.085855130838164716e-03
-3.555390823804713968e-03
-4.025882297517820868e-03
-4.491536187375275851e-03
-4.946676493518551224e-03
-5.385815367743816695e-03
-5.803721759428021737e-03
-6.195486956847746918e-03
-6.556585858473098355e-03
-6.882933043011481462e-03
-7.170932689933816329e-03
-7.417521446739594806e-03
-7.620203622727876949e-03
-7.777077853922152034e-03
-7.886854931323124956e-03
-7.948866277069392347e-03
-7.963062904599277347e-03
-7.930004797226757746e-03
-7.850840749193843671e-03
-7.727278959572169738e-03
-7.561548780520175803e-03
-7.356354172227599214e-03
-7.114819599136234206e-03
-6.840429229726371040e-03
-6.536960372413835527e-03
-6.208412346258275483e-03
-5.858931863189839433e-03
-5.492736265542964152e-03
-5.114035883244764935e-03
-4.726956866833127019e-03
-4.335465914759297976e-03
-3.943298185648082439e-03
-3.553889662911576507e-03
-3.170315323239700570e-03
-2.795234118646171186e-03
-2.430841816019632066e-03
-2.078832693397657076e-03
-1.740370804394822651e-03
-1.416071403059229305e-03
-1.105992902821426862e-03
-8.096395851200185361e-04
-5.259751744563869770e-04
-2.534469799043215297e-04
9.979610542242858367e-06
2.667770287676208781e-04
5.198024147487646102e-04
7.722365422011684410e-04
1.027515808431935440e-03
1.289258480936568071e-03
1.561186664231351559e-03
1.847045339136407826e-03
2.150520054597892996e-03
2.475154817309370165e-03
2.824271738272177926e-03
3.200894096894566724e-03
3.607674262955136782e-03
4.046827969213370388e-03
4.520076277133543152e-03
5.028596449801745957e-03
5.572982841002250241e-03
6.153218629262376810e-03
6.768659187873061513e-03
7.418027552914118784e-03
8.099422184116392490e-03
8.810337107152638875e-03
9.547694189862515265e-03
1.030788717077656645e-02
1.108683670075770629e-02
1.188005551947377871e-02
1.268272261418554488e-02
1.348976523001688133e-02
1.429594701466143335e-02
1.509596088798811735e-02
1.588452471540151636e-02
1.665647814917247532e-02
1.740687870776552043e-02
1.813109516660237411e-02
1.882489648863031051e-02
1.948453446488005586e-02
2.010681831859583921e-02
2.068917974578641378e-02
2.122972689950284458e-02
2.172728618143627763e-02
2.218143076913670769e-02
2.259249515086683702e-02
2.296157514513491246e-02
2.329051322063721563e-02
2.358186905797618818e-02
2.383887586551207416e-02
2.406538293795803043e-02
2.426578549675356689e-02
2.444494297150637610e-02
2.460808717016027894e-02
2.476072203245876027e-02
2.490851689511984490e-02
2.505719531318924623e-02
2.521242160824463396e-02
2.537968754995512458e-02
2.556420146276939045e-02
2.577078219052670108e-02
2.600376019131174846e-02
2.626688809176586786e-02
2.656326290765135059e-02
2.689526181571683452e-02
2.726449339439976707e-02
2.767176573150353230e-02
2.811707272997825829e-02
2.859959960366355650e-02
2.911774803193412781e-02
2.966918141418114357e-02
3.025088999685038998e-02
3.085927534341561390e-02
3.149025338377151734e-02
3.213937462726004085e-02
3.280196008318708029e-02
3.347325086749115830e-02
3.414856914596232224e-02
3.482348794700584199e-02
3.549400698058935433e-02
3.615673135788068093e-02
3.680905011755454537e-02
3.744931121427291787e-02
3.807698959596175770e-02
3.869284506947029412e-02
3.929906659067976260e-02
3.989939972818107999e-02
4.049925444133388452e-02
4.110579010889033741e-02
4.172797547651883876e-02
4.237662127246149407e-02
4.306438367375080289e-02
4.380573701380256757e-02
4.461691489203258032e-02
4.551581901202597646e-02
4.652189581926940293e-02
4.765598120246906932e-02
4.894011431734646145e-02
5.039732176827894233e-02
5.205137417466153271e-02
5.392651741252880299e-02
5.604718124414562880e-02
5.843766853334491501e-02
6.112182854395372539e-02
6.412271811990456760e-02
6.746225488214446786e-02
7.116086659438819462e-02
7.523714122802534210e-02
7.970748199819141511e-02
8.458577212129307632e-02
8.988305356661036027e-02
9.560722410494766621e-02
1.017627568187394749e-01
1.083504460258857688e-01
1.153671831124336300e-01
1.228057656043236301e-01
1.306547423364287919e-01
1.388982971465900496e-01
1.475161730845890862e-01
1.564836386209403907e-01
1.657714967810669515e-01
1.753461377430526880e-01
1.851696347483082761e-01
1.951998827968970951e-01
2.053907790999511263e-01
2.156924435950021424e-01
2.260514776006025683e-01
2.364112581462945728e-01
2.467122651167887593e-01
2.568924380651604888e-01
2.668875592817616660e-01
2.766316594026264064e-01
2.860574416359548122e-01
2.950967205723817877e-01
3.036808715609103926e-01
3.117412865817132395e-01
3.192098325089857691e-01
3.260193077357378955e-01
3.321038934302339984e-01
3.373995957096771470e-01
3.418446752148308065e-01
3.453800611189444258e-01
3.479497464496993375e-01
3.495011622315692956e-01
3.499855282652080679e-01
3.493581785297427689e-01
3.475788596150760634e-01
3.446120010423335267e-01
3.404269563968604362e-01
3.349982147725730774e-01
3.283055822838912285e-01
3.203343334650269325e-01
3.110753328885371150e-01
3.005251273748429930e-01
2.886860094223887563e-01
2.755660526666693921e-01
2.611791202273295309e-01
2.455448468456705446e-01
2.286885958886483716e-01
2.106413922449130172e-01
1.914398320834203859e-01
1.711259705247112350e-01
1.497471880411890555e-01
1.273560364342324058e-01
1.040100651911401164e-01
7.977162879627014425e-02
5.470767552680072532e-02
2.888951824544419220e-02
2.392587437642266449e-03
-2.470383324348588913e-02
-5.231688868578177748e-02
-8.036045114829090674e-02
-1.087454361498788880e-01
-1.373801352746002458e-01
-1.661705656721439994e-01
-1.950208361012147340e-01
-2.238335291354512369e-01
-2.525100989789629269e-01
-2.809512844026244571e-01
-3.090575358865034206e-01
-3.367294559295382350e-01
-3.638682512539098690e-01
-3.903761952581872308e-01
-4.161570990342206011e-01
-4.411167886699791651e-01
-4.651635865119847502e-01
-4.882087936089363200e-01
-5.101671705492644149e-01
-5.309574132259179402e-01
-5.505026201878371328e-01
-5.687307479176374470e-01
-5.855750501025694943e-01
-6.009744970006427600e-01
-6.148741709325551419e-01
-6.272256336555303013e-01
-6.379872616300914512e-01
-6.471245453543362780e-01
-6.546103487976195900e-01
-6.604251255214718119e-01
-6.645570879061005742e-01
-6.670023267412732437e-01
-6.677648784918548408e-01
-6.668567380357057761e-01
-6.642978151676196541e-01
-6.601158339213261117e-01
-6.543461739742324479e-01
-6.470316541968271773e-01
-6.382222591766414377e-01
-6.279748098662162326e-01
-6.163525803377005730e-01
-6.034248632966290327e-01
-5.892664875345813291e-01
-5.739572911473376227e-01
-5.575815549470332089e-01
-5.402274008832838037e-01
-5.219861609903706512e-01
-5.029517225148913973e-01
-4.832198555103972004e-01
-4.628875292225325122e-01
-4.420522238414602567e-01
-4.208112445261840695e-01
-3.992610442993222430e-01
-3.774965625698115113e-01
-3.556105857447316998e-01
-3.336931364675643774e-01
-3.118308973188913535e-01
-2.901066746230637206e-01
-2.685989075274321514e-01
-2.473812270030870397e-01
-2.265220686855223264e-01
-2.060843429396037318e-01
-1.861251648985106366e-01
-1.666956462755294910e-01
-1.478407501682256486e-01
-1.295992092360120085e-01
-1.120035069117599202e-01
-9.507992047353769349e-02
-7.884862408636743314e-02
-6.332384932017569301e-02
-4.851409969850201814e-02
-3.442241555353404980e-02
-2.104668456940175444e-02
-8.379993185172495904e-03
3.588986529034263618e-03
1.487558034397404132e-02
2.549867159524518700e-02
3.548024333148390441e-02
4.484490917683563171e-02
5.361943916447627773e-02
6.183228659530999594e-02
6.951312204791594562e-02
7.669238021348213918e-02
8.340082483798980095e-02
8.966913693219548398e-02
9.552753070201619456e-02
1.010054011943775781e-01
1.061310070978464665e-01
1.109311914758443901e-01
1.154311426843857014e-01
1.196541969622447465e-01
1.236216835882893300e-01
1.273528128221975975e-01
1.308646061405109862e-01
1.341718677975354268e-01
1.372871960470207486e-01
1.402210318574175218e-01
1.429817424017137961e-01
1.455757361905414271e-01
1.480076064191211682e-01
1.502802985890328291e-01
1.523952984439241043e-01
1.543528358491304264e-01
1.561521004086551534e-01
1.577914644165365476e-01
1.592687087479835173e-01
1.605812475334123524e-01
1.617263475861025479e-01
1.627013387296581681e-01
1.635038115894423827e-01
1.641317996764828646e-01
1.645839430328197572e-01
1.648596310636730733e-01
1.649591227391599413e-01
1.648836426079055006e-01
1.646354518709327586e-01
1.642178939292662510e-01
1.636354145123124215e-01
1.628935567903638248e-01
1.619989324284353271e-01
1.609591698958688366e-01
1.597828418255738125e-01
1.584793733094309320e-01
1.570589335040480095e-01
1.555323132023124499e-01
1.539107909667475904e-01
1.522059908071121959e-01
1.504297342738324106e-01
1.485938899988011597e-01
1.467102235461247295e-01
1.447902504560938941e-01
1.428450951704185179e-01
1.408853583946048371e-01
1.389209951622311090e-01
1.369612056222175578e-01
1.350143403492927441e-01
1.330878215434535827e-01
1.311880812661536666e-01
1.293205175306324228e-01
1.274894685269221950e-01
1.256982050386721839e-01
1.239489408516908919e-01
1.222428605137882013e-01
1.205801635292947371e-01
1.189601237722258537e-01
1.173811625966862948e-01
1.158409340901397633e-01
1.143364205438796716e-01
1.128640361198334496e-01
1.114197365676206503e-01
1.099991329567810427e-01
1.085976070923666548e-01
1.072104265016174118e-01
1.058328568915645612e-01
1.044602700398536421e-01
1.030882451916722981e-01
1.017126623528765705e-01
1.003297859234533046e-01
9.893633736201229434e-02
9.752955585978312358e-02
9.610724618037413958e-02
9.466781307689606240e-02
9.321028213313331534e-02
9.173430685419257935e-02
9.024016242430735191e-02
8.872872652653596148e-02
8.720144793849356202e-02
8.566030393202653248e-02
8.410774754790752150e-02
8.254664601008285252e-02
8.098021184279520501e-02
7.941192813107772475e-02
7.784546964213569231e-02
7.628462137458118242e-02
7.473319627572302948e-02
7.319495382121232741e-02
7.167352096547871532e-02
7.017231708837677606e-02
6.869448432344947564e-02
6.724282447962910692e-02
6.581974381176773636e-02
6.442720652300876205e-02
6.306669779027791745e-02
6.173919686512924221e-02
6.044516063830345648e-02
5.918451779624531867e-02
5.795667356705096196e-02
5.676052474140905191e-02
5.559448457008939887e-02
5.445651694154301364e-02
5.334417897638699113e-02
5.225467114303376792e-02
5.118489385136094222e-02
5.013150927261476875e-02
4.909100720915213906e-02
4.805977375637728033e-02
4.703416131089974139e-02
4.601055870283500548e-02
4.498546000033443182e-02
4.395553084433451163e-02
4.291767107060619202e-02
4.186907247443696911e-02
4.080727079137955876e-02
3.973019097349959200e-02
3.863618497660818024e-02
3.752406157086048133e-02
3.639310767136856584e-02
3.524310096134956188e-02
3.407431372379593482e-02
3.288750790869048729e-02
3.168392163547043006e-02
3.046524763791184573e-02
2.923360397550070836e-02
2.799149784523220774e-02
2.674178307559329712e-02
2.548761235962331700e-02
2.423238502905090616e-02
2.297969142546669660e-02
2.173325491331998260e-02
2.049687250766152671e-02
1.927435533523064182e-02
1.806946993354759112e-02
1.688588136051501556e-02
1.572709910118212304e-02
1.459642660163878482e-02
1.349691533350990194e-02
1.243132402284631392e-02
1.140208368975000226e-02
1.041126890629793557e-02
9.460575677454027485e-03
8.551306140442381520e-03
7.684360245738004920e-03
6.860234315947752980e-03
6.079026375313701519e-03
5.340447935556194049e-03
4.643841846643104697e-03
3.988205847438598337e-03
3.372221181611677852e-03
2.794285588052287939e-03
2.252550037703921013e-03
1.744958367186528808e-03
1.269289122462141607e-03
8.231987720384587991e-04
4.042655367354613667e-04
1.003288683543982938e-05
-3.619479365194438591e-04
-7.140770279247643081e-04
-1.048667421591128199e-03
-1.367909635565516500e-03
-1.673839760484392789e-03
-1.968311541486206066e-03
-2.252972753435245837e-03
-2.529246248093577551e-03
-2.798315814941049542e-03
-3.061116893658166142e-03
-3.318332188410891281e-03
-3.570392004814143365e-03
-3.817479249594382413e-03
-4.059538729694080021e-03
-4.296290436061318482e-03
-4.527246435610699817e-03
-4.751730903012394043e-03
-4.968902777665197730e-03
-5.177780484460752647e-03
-5.377268272775598268e-03
-5.566183518258290171e-03
-5.743284423756897170e-03
-5.907297643063171011e-03
-6.056945198361880951e-03
-6.190970215680308315e-03
-6.308161097273559496e-03
-6.407373624790101661e-03
-6.487550596530808171e-03
-6.547738949404240984e-03
-6.587103790754073734e-03
-6.604939391797942823e-03
-6.600677019435194012e-03
-6.573889483566486627e-03
-6.524292531557366812e-03
-6.451743188023706214e-03
-6.356234980852451012e-03
-6.237890606163185893e-03
-6.096952059528959120e-03
-5.933768581162800898e-03
-5.748782817806962799e-03
-5.542515458024994263e-03
-5.315548767724801067e-03
-5.068509513526089395e-03
-4.802051541467362156e-03
-4.516838494400480207e-03
-4.213526967243642375e-03
-3.892750526105577015e-03
-3.555104911123561050e-03
-3.201134681993410107e-03
-2.831321629211707401e-03
-2.446075117958512561e-03
-2.045724608226248079e-03
-1.630514335764617724e-03
-1.200600342686602854e-03
-7.560499190245711367e-04
-2.968433229561811431e-04
1.771222122319875613e-04
6.660263891000398496e-04
1.170117682800313067e-03
1.689703507546136060e-03
2.225138755217501586e-03
2.776813104533997281e-03
3.345137232017680439e-03
3.930528302231216589e-03
4.533395132201564759e-03
5.154123155490236176e-03
5.793059622200807945e-03
6.450499271069474322e-03
7.126670803055615809e-03
7.821724417730803458e-03
8.535720603073214743e-03
9.268620390645312956e-03
1.002027729096775094e-02
1.079043102321356438e-02
1.157870327834083918e-02
1.238459532001067419e-02
1.320748768533991369e-02
1.404664184234900338e-02
1.490120388729894961e-02
1.577021002756642462e-02
1.665259387940099325e-02
1.754719534031865674e-02
1.845277093760110121e-02
1.936800535884454499e-02
2.029152401083724605e-02
2.122190631958706386e-02
2.215769963472027232e-02
2.309743338895114267e-02
2.403963323436613536e-02
2.498283497537948095e-02
2.592559805889019936e-02
2.686651834899581384e-02
2.780424008644907796e-02
2.873746666769073227e-02
2.966497021412951851e-02
3.058559971274593670e-02
3.149828768623692127e-02
3.240205529409018875e-02
3.329601574083671661e-02
3.417937608232384655e-02
3.505143738921857183e-02
3.591159330214811068e-02
3.675932704020256486e-02
3.759420696292643110e-02
3.841588081862631898e-02
3.922406884722893367e-02
4.001855581482575280e-02
4.079918227857635277e-02
4.156583515127957457e-02
4.231843784457595820e-02
4.305694009854870580e-02
4.378130779477226037e-02
4.449151286967047148e-02
4.518752363486872731e-02
4.586929554394366532e-02
4.653676267016769452e-02
4.718982997510589444e-02
4.782836652220680274e-02
4.845219979272178540e-02
4.906111109943267490e-02
4.965483231014249793e-02
5.023304374867082478e-02
5.079537338513170908e-02
5.134139730695410492e-02
5.187064145083097183e-02
5.238258444177461282e-02
5.287666157648893833e-02
5.335226983569390374e-02
5.380877375972314969e-02
5.424551206579226320e-02
5.466180490232799144e-02
5.505696157865469509e-02
5.543028862528733697e-02
5.578109796116374058e-02
5.610871507799050639e-02
5.641248701301378177e-02
5.669179007795822900e-02
5.694603707032743628e-02
5.717468379159047071e-02
5.737723497646794735e-02
5.755324928580108496e-02
5.770234334607823867e-02
5.782419485698363920e-02
5.791854461446902663e-02
5.798519739790765348e-02
5.802402178813308165e-02
5.803494889246495897e-02
5.801797004206935698e-02
5.797313336768714770e-02
5.790053952682797100e-02
5.780033652248139225e-02
5.767271380447066415e-02
5.751789569430350302e-02
5.733613435501303673e-02
5.712770231947286725e-02
5.689288485842514814e-02
5.663197226052753275e-02
5.634525219990940692e-02
5.603300236166788850e-02
5.569548339979477070e-02
5.533293254216064411e-02
5.494555774401012338e-02
5.453353274736060657e-02
5.409699299672290906e-02
5.363603253841508350e-02
5.315070206884126708e-02
5.264100810169899253e-02
5.210691337723756533e-02
5.154833844479023153e-02
5.096516445548343599e-02
5.035723723028930066e-02
4.972437242041605893e-02
4.906636176413355088e-02
4.838298042808399785e-02
4.767399523117370891e-02
4.693917364083965982e-02
4.617829345660193208e-02
4.539115303209265845e-02
4.457758184231538218e-02
4.373745123438622234e-02
4.287068517132231610e-02
4.197727090273394024e-02
4.105726921100065485e-02
4.011082411246801732e-02
3.913817189835262778e-02
3.813964932954336945e-02
3.711570077441114779e-02
3.606688414976415985e-02
3.499387552596020662e-02
3.389747243007919936e-02
3.277859548533034600e-02
3.163828853778880706e-02
3.047771708418686026e-02
2.929816507373511972e-02
2.810102996228300634e-02
2.688781611571496033e-02
2.566012657790614840e-02
2.441965332251354315e-02
2.316816601932046582e-02
2.190749944078088096e-02
2.063953963152602780e-02
1.936620907496105007e-02
1.808945096390834895e-02
1.681121276490490576e-02
1.553342931694373132e-02
1.425800565663963397e-02
1.298679979509511327e-02
1.172160569043008936e-02
1.046413663731852670e-02
9.216009321109559782e-03
7.978728695148384203e-03
6.753673967585276626e-03
5.542085872254279635e-03
4.345055454732940116e-03
3.163514451044389855e-03
1.998227546631758944e-03
8.497864847925505572e-04
-2.813936858476661566e-04
-1.395076365936748003e-03
-2.491202886349264470e-03
-3.569889866069203034e-03
-4.631424308182041823e-03
-5.676256564086281341e-03
-6.704991229663184726e-03
-7.718376044904893055e-03
-8.717288903359503641e-03
-9.702723214010507136e-03
-1.067577164993529192e-02
-1.163760859769490293e-02
-1.258947143129944372e-02
-1.353264088267589274e-02
-1.446842078721561654e-02
-1.539811744679840146e-02
-1.632301888618210850e-02
-1.724437425668414597e-02
-1.816337358803950947e-02
-1.908112831877093254e-02
-1.999865269658818515e-02
-2.091684640626629080e-02
-2.183647858431994257e-02
-2.275817351085054896e-02
-2.368239807964713992e-02
-2.460945133090999132e-02
-2.553945606397071272e-02
-2.647235266425366704e-02
-2.740789537059334924e-02
-2.834565087501002625e-02
-2.928499936204456353e-02
-3.022513791005322636e-02
-3.116508621941392956e-02
-3.210369465457230120e-02
-3.303965442850220063e-02
-3.397150987214505452e-02
-3.489767253787795509e-02
-3.581643698840710627e-02
-3.672599807352469603e-02
-3.762446937171861489e-02
-3.850990272100270756e-02
-3.938030848285976881e-02
-4.023367624258111092e-02
-4.106799576794661205e-02
-4.188127781662371457e-02
-4.267157471852230793e-02
-4.343700033813079064e-02
-4.417574913539269038e-02
-4.488611423059506861e-02
-4.556650420876841301e-02
-4.621545831144739658e-02
-4.683166006596741621e-02
-4.741394907685828747e-02
-4.796133084054907125e-02
-4.847298464401809254e-02
-4.894826932132460146e-02
-4.938672682299180550e-02
-4.978808375978909656e-02
-5.015225080108079436e-02
-5.047931999134738779e-02
-5.076956016487665924e-02
-5.102341056211146669e-02
-5.124147262321616936e-02
-5.142450028464783107e-02
-5.157338884206903035e-02
-5.168916268469202907e-02
-5.177296192872959252e-02
-5.182602833260714636e-02
-5.184969060624308040e-02
-5.184534936012288181e-02
-5.181446195234361979e-02
-5.175852730030627846e-02
-5.167907103024182297e-02
-5.157763104967729578e-02
-5.145574372492222465e-02
-5.131493089529864937e-02
-5.115668779032738617e-02
-5.098247199200353630e-02
-5.079369347660562389e-02
-5.059170592570676195e-02
-5.037779930875462692e-02
-5.015319375398919616e-02
-4.991903467142641548e-02
-4.967638919521501911e-02
-4.942624382100970631e-02
-4.916950320318017736e-02
-4.890699005031012153e-02
-4.863944599488188858e-02
-4.836753336320965407e-02
-4.809183777485368655e-02
-4.781287125888954853e-02
-4.753107592901872208e-02
-4.724682796959146086e-02
-4.696044189828592341e-02
-4.667217490693018056e-02
-4.638223114086962445e-02
-4.609076586776387346e-02
-4.579788937769883189e-02
-4.550367047405651233e-02
-4.520813962767843835e-02
-4.491129156486987906e-02
-4.461308743955359063e-02
-4.431345638614361815e-02
-4.401229648179150189e-02
-4.370947520433311057e-02
-4.340482943560070028e-02
-4.309816498572738991e-02
-4.278925570057302147e-02
-4.247784237228765386e-02
-4.216363140734262493e-02
-4.184629334331921996e-02
-4.152546148222878430e-02
-4.120073058797969062e-02
-4.087165590526529307e-02
-4.053775258135294129e-02
-4.019849556133995444e-02
-3.985332014349794033e-02
-3.950162324610050762e-02
-3.914276549066401933e-02
-3.877607419112329840e-02
-3.840084735696155244e-02
-3.801635861705322805e-02
-3.762186321209342460e-02
-3.721660497791483974e-02
-3.679982431689498429e-02
-3.637076715533293231e-02
-3.592869479600207389e-02
-3.547289450194082011e-02
-3.500269079137242889e-02
-3.451745723904987156e-02
-3.401662869173974202e-02
-3.349971366891307117e-02
-3.296630680073341091e-02
-3.241610110992296928e-02
-3.184889990483227851e-02
-3.126462807434598340e-02
-3.066334257523723253e-02
-3.004524197008362138e-02
-2.941067475071751369e-02
-2.876014626758970419e-02
-2.809432408139246606e-02
-2.741404159571912691e-02
-2.672029983225459801e-02
-2.601426719277329450e-02
-2.529727714866338018e-02
-2.457082376312018715e-02
-2.383655505762019566e-02
-2.309626419896273694e-02
-2.235187857929807689e-02
-2.160544677192095461e-02
-2.085912350775113999e-02
-2.011515279869679346e-02
-1.937584939215034399e-02
-1.864357868062535908e-02
-1.792073535567424714e-02
-1.720972103487821564e-02
-1.651292107198898060e-02
-1.583268079939612397e-02
-1.517128166082180353e-02
-1.453091735985170482e-02
-1.391367044359016238e-02
-1.332148955638391870e-02
-1.275616775249926310e-02
-1.221932200715664628e-02
-1.171237438046099540e-02
-1.123653507446258949e-02
-1.079278750375288649e-02
-1.038187574574024434e-02
-1.000429440757723623e-02
-9.660281234366149480e-03
-9.349812453846200952e-03
-9.072600988426288843e-03
-8.828097617962035737e-03
-8.615495077222581552e-03
-8.433735009294087565e-03
-8.281517797524342098e-03
-8.157315127956015627e-03
-8.059385086974051732e-03
-7.985789721222330204e-03
-7.934414775241991138e-03
-7.902991388407764120e-03
-7.889119458074949492e-03
-7.890292437107794543e-03
-7.903923200284922526e-03
-7.927370688610848454e-03
-7.957966968394011159e-03
-7.993044425215419663e-03
-8.029962702606353170e-03
-8.066135065706704285e-03
-8.099053924212791522e-03
-8.126315101210842065e-03
-8.145640656459099752e-03
-8.154899936076723255e-03
-8.152128675324912116e-03
-8.135545867540665277e-03
-8.103568249100023824e-03
-8.054822278205491307e-03
-7.988153489871601190e-03
-7.902633117516918992e-03
-7.797561981962533584e-03
-7.672471680476131324e-03
-7.527123055402915909e-03
-7.361502103746269191e-03
-7.175813352131959512e-03
-6.970470882692619830e-03
-6.746087211501274397e-03
-6.503460157595753258e-03
-6.243558008574672837e-03
-5.967503081710421285e-03
-5.676554155194300441e-03
-5.372087843898113065e-03
-5.055579351768325555e-03
-4.728582736558050066e-03
-4.392711062304649819e-03
-4.049616693853046873e-03
-3.700971987589783338e-03
-3.348450548674903032e-03
-2.993709461946226710e-03
-2.638372579784477746e-03
-2.284015054398260119e-03
-1.932149355530128967e-03
-1.584212850545406665e-03
-1.241556971908427866e-03
-9.054382053139629341e-04
-5.770108668171269536e-04
-2.573216989557949603e-04
5.269372840417929074e-05
3.522129155564397121e-04
6.405266517591790562e-04
9.170375651577866672e-04
1.181257255511811372e-03
1.432802082157983705e-03
1.671387803478532929e-03
1.896823202860887765e-03
2.109002816995164242e-03
2.307899040986185774e-03
2.493553774296421166e-03
2.666069811731129006e-03
2.825602105546110021e-03
2.972349155923674578e-03
3.106544593907628084e-03
3.228449269104408884e-03
3.338343795891936250e-03
3.436521785485315353e-03
3.523283843001793255e-03
3.598932432500838961e-03
3.663767586802057531e-03
3.718083641911622446e-03
3.762166923345285595e-03
3.796294322423524048e-03
3.820732810024027749e-03
3.835739822043985302e-03
3.841564413005833963e-03
3.838449157769746774e-03
3.826632622579915089e-03
3.806352363223281139e-03
3.777848245133724400e-03
3.741366005720843813e-03
3.697160938070011109e-03
3.645501529128190258e-03
3.586672874648420915e-03
3.520979879292179902e-03
3.448749993806049258e-03
3.370335353985992773e-03
3.286114353011935357e-03
3.196492453718825094e-03
3.101902216237212729e-03
3.002802490380464696e-03
2.899676738750799586e-03
2.793030478382592819e-03
2.683387883524294710e-03
2.571287531121882377e-03
2.457277371294773471e-03
2.341909011187913968e-03
2.225731375010354691e-03
2.109283881291698030e-03
1.993089272188155233e-03
1.877646121547081170e-03
1.763421297814042566e-03
1.650842483267482260e-03
1.540290978746543813e-03
1.432094810205800962e-03
1.326522371176969920e-03
1.223776767707426697e-03
1.123991044186895862e-03
1.027224338350160582e-03
9.334591118374655936e-04
8.425995933702851723e-04
7.544715531010911256e-04
6.688233333510301866e-04
5.853283318711939142e-04
5.035888221331813203e-04
4.231412034422946198e-04
3.434625985073309342e-04
2.639788026583025069e-04
1.840734098309018381e-04
1.030980559362960490e-04
2.038362255846187590e-05
-6.474776650143088466e-05
-1.529700682886493874e-04
-2.449400900179665198e-04
-3.412841466762352519e-04
-4.425845603529487103e-04
-5.493663624525693939e-04
-6.620844356948324926e-04
-7.811111912712484289e-04
-9.067251470604796148e-04
-1.039100536320632052e-03
-1.178298134105993603e-03
-1.324257618667066053e-03
-1.476791402387854025e-03
-1.635580364414098917e-03
-1.800171385103267567e-03
-1.969976860922212011e-03
-2.144276380138470262e-03
-2.322220322429119702e-03
-2.502835676097324089e-03
-2.685033914501678675e-03
-2.867620869653243493e-03
-3.049308568221922779e-03
-3.228728829320976195e-03
-3.404448553611853865e-03
-3.574986504403987811e-03
-3.738831338586040467e-03
-3.894460703976393434e-03
-4.040361104108188342e-03
-4.175048317442476599e-03
-4.297088034356641786e-03
-4.405116497603502393e-03
-4.497860746468929430e-03
-4.574158271179153828e-03
-4.632975715880489551e-03
-4.673426368590231743e-03
-4.694786129772229692e-03
-4.696507829688333600e-03
-4.678233507662965009e-03
-4.639804556923197640e-03
-4.581269462053229671e-03
-4.502889009014114478e-03
-4.405138896080564199e-03
-4.288709637222412781e-03
-4.154503667137646704e-03
-4.003629773412682724e-03
-3.837394744684847689e-03
-3.657292314028877476e-03
-3.464989628052154037e-03
-3.262311320987016858e-03
-3.051221379248802729e-03
-2.833802966098703489e-03
-2.612236483746736664e-03
-2.388776237649567133e-03
-2.165725830580815352e-03
-1.945412751881114106e-03
-1.730162310934053394e-03
-1.522271437684819114e-03
-1.323982599390962668e-03
-1.137458214483085851e-03
-9.647558435485584531e-04
-8.078044341476371855e-04
-6.683820607952112303e-04
-5.480954375950874069e-04
-4.483613800911170942e-04
-3.703905204420181586e-04
-3.151734176763556594e-04
-2.834693080566573378e-04
-2.757976329941676501e-04
-2.924324083456962000e-04
-3.333994828582751303e-04
-3.984767376278131978e-04
-4.871972195749260355e-04
-5.988550806770577247e-04
-7.325143143821821528e-04
-8.870200206423952110e-04
-1.061012144222392992e-03
-1.252941411903375594e-03
-1.461087262290943324e-03
-1.683577562237629187e-03
-1.918409679856056911e-03
-2.163472741620512448e-03
-2.416570723758236765e-03
-2.675446035449733587e-03
-2.937803302871124563e-03
-3.201333080995555098e-03
-3.463735064115487129e-03
-3.722740546668393703e-03
-3.976133993376564785e-03
-4.221773205596363564e-03
-4.457608045547798228e-03
-4.681697415559715400e-03
-4.892224398647365691e-03
-5.087509327455610846e-03
-5.266020773053387526e-03
-5.426384289819578301e-03
-5.567388931774187692e-03
-5.687991519817357441e-03
-5.787318796190665110e-03
-5.864667395787564672e-03
-5.919501828549338270e-03
-5.951450615390620896e-03
-5.960300717487079271e-03
-5.945990433122609782e-03
-5.908601023035206859e-03
-5.848347256787313903e-03
-5.765567106003849883e-03
-5.660710844083206329e-03
-5.534329764944412658e-03
-5.387064779324417935e-03
-5.219635153858767120e-03
-5.032827599888797625e-03
-4.827485835519800331e-03
-4.604500932820791183e-03
-4.364802489817832219e-03
-4.109350761717208735e-03
-3.839129972144962773e-03
-3.555142763634564287e-03
-3.258405857510356367e-03
-2.949946925827889345e-03
-2.630802612696925540e-03
-2.302017636641412717e-03
-1.964645076469367403e-03
-1.619747383926547612e-03
-1.268398213351141883e-03
-9.116848756881812095e-04
-5.507110989872305825e-04
-1.866000489128654934e-04
1.795026339673796816e-04
5.464261475233102208e-04
9.129722588540897061e-04
1.277913665827547056e-03
1.639993249315974079e-03
1.997924422981983954e-03
2.350392694677629849e-03
2.696058525796531623e-03
3.033561736186907599e-03
3.361527404100398547e-03
3.678573458377102420e-03
3.983319762117556485e-03
4.274398792920281950e-03
4.550467856477499046e-03
4.810222633894876976e-03
5.052411954215022677e-03
5.275853560164270491e-03
5.479450720195269166e-03
5.662209289128794336e-03
5.823255071155311949e-03
5.961851002941178333e-03
6.077414046578287835e-03
6.169531276927773915e-03
6.237974800391524188e-03
6.282715232531255016e-03
6.303933388972751857e-03
6.302029761049985843e-03
6.277631617418686152e-03
6.231597277096674777e-03
