1.152388490562466193e-02
1.127505299588543730e-02
1.102384222682576895e-02
1.077140943804802409e-02
1.051893904317578211e-02
1.026763463074672686e-02
1.001870985228319431e-02
9.773378481462128078e-03
9.532843898314501824e-03
9.298288123512630718e-03
9.070860489871069091e-03
8.851666215336459823e-03
8.641755017481045353e-03
8.442109927054618559e-03
8.253636419333798546e-03
8.077152195326158662e-03
7.913377654544558396e-03
7.762927294499396419e-03
7.626302091971261937e-03
7.503883167403633744e-03
7.395926669668708223e-03
7.302560117081698110e-03
7.223780309178221178e-03
7.159452746081245572e-03
7.109312700499895513e-03
7.072967895877293673e-03
7.049902829751476113e-03
7.039484649692956918e-03
7.040970629237266153e-03
7.053517040019039765e-03
7.076189298796350599e-03
7.107973411863254508e-03
7.147788498024364341e-03
7.194500147233240731e-03
7.246934435404912660e-03
7.303892532629053039e-03
7.364165634515555323e-03
7.426549892528341336e-03
7.489861335741667542e-03
7.552950350888634236e-03
7.614715689091516686e-03
7.674117693456993482e-03
7.730190591872554938e-03
7.782053636537496037e-03
7.828921008985766095e-03
7.870110282308087971e-03
7.905049326990062561e-03
7.933281575830525983e-03
7.954469551269513147e-03
7.968396618330930714e-03
7.974966962038422882e-03
7.974203768095629655e-03
7.966245686395869233e-03
7.951341563653265346e-03
7.929843604773844506e-03
7.902199097018424920e-03
7.868940735481420173e-03
7.830675744232303004e-03
7.788074007993440843e-03
7.741855380767837143e-03
7.692776399435976610e-03
7.641616537736030564e-03
7.589164328484677632e-03
7.536203456761082081e-03
7.483499151923084583e-03
7.431785010662593852e-03
7.381750503284565355e-03
7.334029378631522558e-03
7.289189048795460465e-03
7.247721235112327548e-03
7.210033939965808554e-03
7.176444878074452263e-03
7.147176546515287762e-03
7.122352800574019600e-03
7.101997190686221671e-03
7.086033013956580077e-03
7.074285040946815852e-03
7.066482860736526123e-03
7.062265804244302093e-03
7.061189410615010577e-03
7.062733240450326175e-03
7.066309943313809662e-03
7.071275412575986526e-03
7.076939855447956368e-03
7.082579629173258937e-03
7.087449543856827634e-03
7.090795561681222797e-03
7.091867609093295728e-03
7.089932247064615473e-03
7.084285123768155508e-03
7.074262864783586319e-03
7.059254314554238609e-03
7.038710894104394794e-03
7.012155897830989193e-03
6.979192654590136817e-03
6.939511343015501189e-03
6.892894378931001265e-03
6.839220350215780876e-03
6.778466332424826733e-03
6.710708642479966922e-03
6.636121994343820857e-03
6.554977088946615724e-03
6.467636656680484861e-03
6.374550004930073371e-03
6.276246242126470865e-03
6.173326230865520958e-03
6.066453390492196167e-03
5.956343539552997127e-03
5.843753957977213323e-03
5.729471803611522682e-03
5.614302070160723419e-03
5.499055305023878640e-03
5.384535290244953261e-03
5.271526847108962306e-03
5.160784017074162254e-03
5.053018707627515878e-03
4.948890081350150634e-03
4.848994803374922710e-03
4.753858274468773792e-03
4.663926991096512681e-03
4.579562273806552647e-03
4.501035252983412449e-03
4.428523292666393038e-03
4.362107884211472754e-03
4.301774091418601384e-03
4.247411417236641486e-03
4.198816164802956184e-03
4.155695250222662084e-03
4.117671345189640592e-03
4.084289324038906446e-03
4.055023841428790840e-03
4.029288001506020796e-03
4.006442817995540910e-03
3.985807518018360043e-03
3.966670402590850679e-03
3.948300083747975642e-03
3.929956978004347720e-03
3.910904814316165483e-03
3.890422085788151907e-03
3.867813168196600204e-03
3.842418959323764746e-03
3.813626921531723408e-03
3.780880331174183047e-03
3.743686670268503002e-03
3.701624904853409361e-03
3.654351661901609170e-03
3.601606233259093716e-03
3.543214265472949438e-03
3.479090138521014324e-03
3.409238018001972941e-03
3.333751487515006044e-03
3.252811928521515735e-03
3.166685556318783387e-03
3.075719247046243467e-03
2.980335201533844923e-03
2.881024448279535279e-03
2.778339521873614531e-03
2.672886218965730282e-03
2.565314612895940993e-03
2.456309497507172448e-03
2.346580476028621055e-03
2.236851665032867087e-03
2.127851377422170821e-03
2.020301761599536863e-03
1.914908652128050667e-03
1.812351694244429112e-03
1.713274985550821815e-03
1.618278303415498576e-03
1.527909051669388424e-03
1.442655016321608063e-03
1.362937973286115160e-03
1.289108367068895642e-03
1.221441016148315951e-03
1.160131919956225140e-03
1.105296191752806745e-03
1.056967121458524030e-03
1.015096346516117937e-03
9.795551968433333090e-04
9.501370773056521009e-04
9.265608874273859085e-04
9.084753713902710267e-04
8.954643897014401754e-04
8.870529504103315342e-04
8.827138949564900233e-04
8.818751667328710627e-04
8.839275674279601508e-04
8.882328253865744930e-04
8.941319072220078532e-04
9.009533949861244471e-04
9.080217986679020624e-04
9.146658096447572153e-04
9.202262297613952478e-04
9.240635248188668917e-04
9.255649288956919497e-04
9.241509712874001114e-04
9.192813222271222461e-04
9.104599699307026677e-04
8.972396289518284234e-04
8.792252879474504691e-04
8.560768641480367589e-04
8.275111010515102169e-04
7.933025651961857130e-04
7.532837584054523621e-04
7.073443747178611738e-04
6.554297586922640858e-04
5.975386143820429589e-04
5.337200685118963575e-04
4.640700772568041106e-04
3.887272330408861830e-04
3.078681280884396358e-04
2.217023633068322089e-04
1.304672962405741953e-04
3.442257964183458144e-05
-6.615540610853626411e-05
-1.709790628724023567e-04
-2.797549696479955826e-04
-3.921890921323310970e-04
-5.079916844936720926e-04
-6.268817684076670622e-04
-7.485911986499744564e-04
-8.728681397888866890e-04
-9.994800233097741061e-04
-1.128215795179005011e-03
-1.258887522213407700e-03
-1.391331287880541012e-03
-1.525407358564287528e-03
-1.660999620991521469e-03
-1.798014372366462874e-03
-1.936378337277800624e-03
-2.076036090212199977e-03
-2.216946858092397072e-03
-2.359080816227463167e-03
-2.502414821822558037e-03
-2.646927822639230914e-03
-2.792595896215799636e-03
-2.939387119013440932e-03
-3.087256278279185313e-03
-3.236139511189617401e-03
-3.385949064054449755e-03
-3.536568258521525284e-03
-3.687846686229272891e-03
-3.839595790048428922e-03
-3.991584900818200693e-03
-4.143537867099019410e-03
-4.295130388910902049e-03
-4.445987986879938215e-03
-4.595684787139992997e-03
-4.743743187575606007e-03
-4.889634363916075567e-03
-5.032779741256277958e-03
-5.172553361313135534e-03
-5.308285239609478352e-03
-5.439265535474640742e-03
-5.564749773422737224e-03
-5.683964845618848932e-03
-5.796115781699040688e-03
-5.900393335887375509e-03
-5.995982166589474381e-03
-6.082069634663700777e-03
-6.157855025321635686e-03
-6.222559100888026135e-03
-6.275433898143481862e-03
-6.315772647538322321e-03
-6.342919590138219356e-03
-6.356279701824022778e-03
-6.355328067610434978e-03
-6.339618757721954614e-03
-6.308793198727962077e-03
-6.262587815200770618e-03
-6.200840781575893412e-03
-6.123497961605396320e-03
-6.030617642776802539e-03
-5.922374190040788876e-03
-5.799060493032541855e-03
-5.661089076271868387e-03
-5.508991879852067480e-03
-5.343418729107225068e-03
-5.165134361537448461e-03
-4.975014060848118036e-03
-4.774037970846372117e-03
-4.563284087143557911e-03
-4.343919988556480503e-03
-4.117193365693562132e-03
-3.884421427023246071e-03
-3.646979400631960612e-03
-3.406288110367220075e-03
-3.163800888034409495e-03
-2.920989889956840998e-03
-2.679331989562864016e-03
-2.440294468131317101e-03
-2.205320561621318225e-03
-1.975815163560940956e-03
-1.753130761489684122e-03
-1.538553882464623306e-03
-1.333292095228621674e-03
-1.138461844478385124e-03
-9.550771754065450056e-04
-7.840396291947347718e-04
-6.261292975444312679e-04
-4.819972781626877755e-04
-3.521595336397381391e-04
-2.369922601715873417e-04
-1.367288996579025335e-04
-5.145880004379590225e-05
1.887249139071777703e-05
7.446123388909245107e-05
1.156418281001773377e-04
1.428815578588163817e-04
1.567737600250166611e-04
1.580295480030306635e-04
1.474681353942584319e-04
1.260058268438058230e-04
9.464398515647819967e-05
5.445595584321452810e-05
6.573200512082059038e-06
-4.782926891452109566e-05
-1.075478453370542949e-04
-1.713655801426125622e-04
-2.380675885627841039e-04
-3.064562654132852977e-04
-3.753662613151768240e-04
-4.436789435567258921e-04
-5.103362071423758577e-04
-5.743534088120821630e-04
-6.348313275686466670e-04
-6.909670246964490009e-04
-7.420633378923833980e-04
-7.875369852246430014e-04
-8.269251981143601509e-04
-8.598907555011481687e-04
-8.862253941851767208e-04
-9.058514891388266084e-04
-9.188221008250016877e-04
-9.253192556640092454e-04
-9.256506240947497046e-04
-9.202445388357311006e-04
-9.096434877413069964e-04
-8.944961159846568245e-04
-8.755478805970535669e-04
-8.536304493055418526e-04
-8.296500404075117822e-04
-8.045747691048326213e-04
-7.794212076292982797e-04
-7.552403453217649025e-04
-7.331030629100227089e-04
-7.140854373696603908e-04
-6.992539108758676200e-04
-6.896505850754314475e-04
-6.862787953424272442e-04
-6.900891915627098807e-04
-7.019664146851068310e-04
-7.227166749691802490e-04
-7.530561515708478811e-04
-7.936005744560648478e-04
-8.448560139305786448e-04
-9.072110011028633502e-04
-9.809300864540662114e-04
-1.066148855724696233e-03
-1.162870515178434727e-03
-1.270964078639349234e-03
-1.390164092871776615e-03
-1.520072021510997110e-03
-1.660159197734571148e-03
-1.809771307766253404e-03
-1.968134321738720157e-03
-2.134361881296470680e-03
-2.307463887346288076e-03
-2.486356421349876326e-03
-2.669872669415335447e-03
-2.856774805160200957e-03
-3.045766653555296351e-03
-3.235507021590036062e-03
-3.424623533959487206e-03
-3.611726781790478274e-03
-3.795424639392541450e-03
-3.974336558954202556e-03
-4.147107746247149715e-03
-4.312423009693001734e-03
-4.469020037892922070e-03
-4.615702150421977130e-03
-4.751350198758918716e-03
-4.874933633522177991e-03
-4.985520524206640998e-03
-5.082286448006823575e-03
-5.164522167370504124e-03
-5.231640008357268078e-03
-5.283178864890912714e-03
-5.318807851139648393e-03
-5.338328495478858286e-03
-5.341675517356070033e-03
-5.328916206865630910e-03
-5.300248272356058304e-03
-5.255996400194472805e-03
-5.196607502656775367e-03
-5.122644711127705315e-03
-5.034780176199937438e-03
-4.933786835432271006e-03
-4.820529171648564766e-03
-4.695953162929309907e-03
-4.561075460251819667e-03
-4.416972013814077398e-03
-4.264766288500116721e-03
-4.105617121546556447e-03
-3.940706408876303891e-03
-3.771226760904090522e-03
-3.598369348613322805e-03
-3.423311960918159775e-03
-3.247207475309795213e-03
-3.071172861656797613e-03
-2.896278811898358833e-03
-2.723540131068126827e-03
-2.553907022912385322e-03
-2.388257295381393357e-03
-2.227389588128489244e-03
-2.072017727866339032e-03
-1.922766192180437811e-03
-1.780166748344813111e-03
-1.644656233637831503e-03
-1.516575603197966660e-03
-1.396170116992374085e-03
-1.283590641086380197e-03
-1.178896152282090607e-03
-1.082057186562148526e-03
-9.929603978962528183e-04
-9.114139100843332217e-04
-8.371535158570080288e-04
-7.698496208863596542e-04
-7.091147414694871009e-04
-6.545115414040167607e-04
-6.055612366078038907e-04
-5.617521722519345020e-04
-5.225485936489561228e-04
-4.873993459992246192e-04
-4.557465365630207228e-04
-4.270338664007328981e-04
-4.007146181660012287e-04
-3.762591917703658534e-04
-3.531620444817684928e-04
-3.309480174587351039e-04
-3.091779122084692411e-04
-2.874532528081434656e-04
-2.654201901125285198e-04
-2.427725636028928841e-04
-2.192539956621091120e-04
-1.946590731811513998e-04
-1.688336560215539890e-04
-1.416741743093435154e-04
-1.131261498025982646e-04
-8.318187045066953965e-05
-5.187729480727297922e-05
-1.928824956848863601e-05
1.447394571008575153e-05
4.926744760147791003e-05
8.492521362738988423e-05
1.212606978061491007e-04
1.580736935030333770e-04
1.951563108397243618e-04
2.322989600905420388e-04
2.692961639323454321e-04
3.059521362292699580e-04
3.420860756798482566e-04
3.775369635143445207e-04
4.121678246239130036e-04
4.458694120485174814e-04
4.785632719501474517e-04
5.102039427842394378e-04
5.407804480795928891e-04
5.703170033767129528e-04
5.988728457883396149e-04
6.265412126141167324e-04
6.534476222938490802e-04
6.797472585104579086e-04
7.056216122570741671e-04
7.312744637865467839e-04
7.569272426329388178e-04
7.828138449381897689e-04
8.091749677664522231e-04
8.362521147087087882e-04
8.642813119965884507e-04
8.934867491744361142e-04
9.240743525146190469e-04
9.562254623828958609e-04
9.900907331720928094e-04
1.025784306042594116e-03
1.063378442430678271e-03
1.102898705635932440e-03
1.144319801439523014e-03
1.187562105207519425e-03
1.232488987988594482e-03
1.278905008164330642e-03
1.326555090230765880e-03
1.375124578997145722e-03
1.424240299865585499e-03
1.473472557631089284e-03
1.522338160846990274e-03
1.570304339676778039e-03
1.616793600680124831e-03
1.661189397276831205e-03
1.702842601808997802e-03
1.741078587171821217e-03
1.775205008311744491e-03
1.804520041020178569e-03
1.828320932654593127e-03
1.845912846159593465e-03
1.856617852015491222e-03
1.859783818757348431e-03
1.854793256982877015e-03
1.841071867904917319e-03
1.818096663152974322e-03
1.785403686875442885e-03
1.742594955524291505e-03
1.689344735099381715e-03
1.625405042748292658e-03
1.550610168958552670e-03
1.464880252791730042e-03
1.368223837379545921e-03
1.260739350319344367e-03
1.142615526831293905e-03
1.014130738834469322e-03
8.756512232279216844e-04
7.276282764218487556e-04
5.705944353525817898e-04
4.051587080280687637e-04
2.320009666027535958e-04
5.186549376263541877e-05
-1.344461040399839644e-04
-3.260826311903148580e-04
-5.221514682725119077e-04
-7.217271133696378117e-04
-9.238600199789897974e-04
-1.127585417238560718e-03
-1.331932225539335119e-03
-1.535931836273774333e-03
-1.738626619973057110e-03
-1.939078107642949571e-03
-2.136374616599858757e-03
-2.329638434613306042e-03
-2.518032304985878909e-03
-2.700765241462047342e-03
-2.877097625538888384e-03
-3.046345479768829481e-03
-3.207883915348887748e-03
-3.361149714685453087e-03
-3.505643153033575956e-03
-3.640928948003157618e-03
-3.766636491200508509e-03
-3.882459309211307164e-03
-3.988153843999950147e-03
-4.083537616789235068e-03
-4.168486847652709201e-03
-4.242933621873622857e-03
-4.306862714352347084e-03
-4.360308092316904360e-03
-4.403349230496955702e-03
-4.436107338580240131e-03
-4.458741583264205603e-03
-4.471445356632623713e-03
-4.474442711342001278e-03
-4.467985017074902095e-03
-4.452347901628605706e-03
-4.427828451544444169e-03
-4.394742849201333477e-03
-4.353424393631701722e-03
-4.304221895319889843e-03
-4.247498480322246979e-03
-4.183630805200819029e-03
-4.113008674272874109e-03
-4.036034885232075119e-03
-3.953125412426700472e-03
-3.864709827082470246e-03
-3.771231815079339848e-03
-3.673149819528322493e-03
-3.570937668132662633e-03
-3.465085113373610106e-03
-3.356098250151633849e-03
-3.244499668049360269e-03
-3.130828272041091473e-03
-3.015638664504516689e-03
-2.899500171560058862e-03
-2.782995280188258359e-03
-2.666717597171643604e-03
-2.551269142081293018e-03
-2.437257074078632516e-03
-2.325289818304688682e-03
-2.215972624872129815e-03
-2.109902529106085205e-03
-2.007662815228617587e-03
-1.909817011133713811e-03
-1.816902560795986268e-03
-1.729424232199163565e-03
-1.647847314640312096e-03
-1.572590820712667327e-03
-1.504020726665671222e-03
-1.442443436264928113e-03
-1.388099633563232536e-03
-1.341158634366349661e-03
-1.301713315490553953e-03
-1.269775894869381184e-03
-1.245274619053973438e-03
-1.228051406173910880e-03
-1.217860745813501098e-03
-1.214369758389354436e-03
-1.217159571844757737e-03
-1.225728036702092467e-03
-1.239493942228346492e-03
-1.257802557615487994e-03
-1.279932524238888529e-03
-1.305104202489713221e-03
-1.332489246886494824e-03
-1.361221384119816599e-03
-1.390408235962085686e-03
-1.419144054488786534e-03
-1.446523255197838462e-03
-1.471654505670251306e-03
-1.493675187353118560e-03
-1.511765944137166869e-03
-1.525165207583477301e-03
-1.533183359915512353e-03
-1.535216337360438684e-03
-1.530758348240146907e-03
-1.519413570691311756e-03
-1.500906536160557993e-03
-1.475091000908161556e-03
-1.441957123039840256e-03
-1.401636676646585275e-03
-1.354406251213080559e-03
-1.300688286198725023e-03
-1.241049787059281175e-03
-1.176198701213399672e-03
-1.106978042300787437e-03
-1.034357582164898608e-03
-9.594231740342572127e-04
-8.833640525006885647e-04
-8.074580285648768566e-04
-7.330548021754987884e-04
-6.615575285218246214e-04
-5.944030353804115666e-04
-5.330409248793599800e-04
-4.789117310480669131e-04
-4.334246628380042810e-04
-3.979350307998008379e-04
-3.737219597575218107e-04
-3.619665709660839525e-04
-3.637311187222682404e-04
-3.799393082481062212e-04
-4.113582889448382852e-04
-4.585826148255273712e-04
-5.220203637814900587e-04
-6.018818558530498542e-04
-6.981711127890756399e-04
-8.106802693320009669e-04
-9.389871593960003732e-04
-1.082456146281905078e-03
-1.240242287373231672e-03
-1.411298843326165261e-03
-1.594388027845888975e-03
-1.788095091575906542e-03
-1.990845301799194778e-03
-2.200923855486780403e-03
-2.416498347990974141e-03
-2.635643597014569739e-03
-2.856368414741525599e-03
-3.076643936760274384e-03
-3.294433105197410502e-03
-3.507720861621172609e-03
-3.714544633312544079e-03
-3.913024585630928490e-03
-4.101393118260467444e-03
-4.278023246718774472e-03
-4.441455278950094329e-03
-4.590421381476645322e-03
-4.723867630296924545e-03
-4.840973100224266537e-03
-4.941165719879524881e-03
-5.024134413845695972e-03
-5.089837426750163686e-03
-5.138506643033377563e-03
-5.170647640239298647e-03
-5.187035478274260036e-03
-5.188706156629343570e-03
-5.176943951852172425e-03
-5.153264536491155602e-03
-5.119394231824263113e-03
-5.077245639343710114e-03
-5.028889926100738560e-03
-4.976526155229422411e-03
-4.922448069211888232e-03
-4.869008871809047019e-03
-4.818584514566160402e-03
-4.773535945863195684e-03
-4.736170999661865923e-03
-4.708706466465338580e-03
-4.693230928237069298e-03
-4.691669010287275246e-03
-4.705747492529684280e-03
-4.736964048631796265e-03
-4.786558898383450750e-03
-4.855490009050408493e-03
-4.944412247503290024e-03
-5.053660825980677701e-03
-5.183239393652623594e-03
-5.332813045579021943e-03
-5.501706388843437788e-03
-5.688906771098509348e-03
-5.893072696526561322e-03
-6.112547436454267118e-03
-6.345377654658868050e-03
-6.589336773173442262e-03
-6.841952894777116219e-03
-7.100540962213113677e-03
-7.362238563559447488e-03
-7.624045073743025008e-03
-7.882863530693388909e-03
-8.135544637292799891e-03
-8.378932337519878759e-03
-8.609910337013184853e-03
-8.825448777750962218e-03
-9.022650476097716921e-03
-9.198796176583182507e-03
-9.351387961066666421e-03
-9.478190239090763733e-03
-9.577267894006969567e-03
-9.647020757106194652e-03
-9.686214045016102239e-03
-9.694004282795976729e-03
-9.669960314206242635e-03
-9.614079094089410943e-03
-9.526795928344244588e-03
-9.408989067996737996e-03
-9.261978553208026835e-03
-9.087519286779864244e-03
-8.887788336971352496e-03
-8.665366753900846999e-03
-8.423215966817221290e-03
-8.164649137576050764e-03
-7.893297863087426688e-03
-7.613074577838900917e-03
-7.328131188561594171e-03
-7.042814419811884580e-03
-6.761618568495980815e-03
-6.489136096009906138e-03
-6.230006777254620647e-03
-5.988866078483289987e-03
-5.770293354040073423e-03
-5.578760506296383606e-03
-5.418581728872550428e-03
-5.293864946648495391e-03
-5.208465551617430349e-03
-5.165942922383526086e-03
-5.169520310402601557e-03
-5.222048368983819161e-03
-5.325972844868073937e-03
-5.483306714548186536e-03
-5.695607026160504419e-03
-5.963956635611269638e-03
-6.288950957134373243e-03
-6.670689788986797382e-03
-7.108774254904927023e-03
-7.602308736237670984e-03
-8.149907693154743310e-03
-8.749707186232053013e-03
-9.399380905239099540e-03
-1.009616033397723461e-02
-1.083685884256166063e-02
-1.161789921129829754e-02
-1.243534434827978444e-02
-1.328493066919034932e-02
-1.416210379601604182e-02
-1.506205613942281953e-02
-1.597976590222445481e-02
-1.691003709057133444e-02
-1.784754006769479623e-02
-1.878685239117021052e-02
-1.972249941700374501e-02
-2.064899433902561351e-02
-2.156087742596655629e-02
-2.245275405660487889e-02
-2.331933134654889592e-02
-2.415545313253717949e-02
-2.495613312190579636e-02
-2.571658608356346826e-02
-2.643225682943732557e-02
-2.709884706878661759e-02
-2.771233997960410519e-02
-2.826902245714397674e-02
-2.876550497048613667e-02
-2.919873920679713283e-02
-2.956603338401995670e-02
-2.986506532722518759e-02
-3.009389331983543595e-02
-3.025096473184048923e-02
-3.033512263902440539e-02
-3.034561038548465317e-02
-3.028207405326948862e-02
-3.014456298446669194e-02
-2.993352840259701220e-02
-2.964982002005009387e-02
-2.929468078393571845e-02
-2.886973967858373624e-02
-2.837700257653672301e-02
-2.781884101697695844e-02
-2.719797910409936514e-02
-2.651747829378018131e-02
-2.578072006257762713e-02
-2.499138643854941638e-02
-2.415343833024654122e-02
-2.327109158050107846e-02
-2.234879086633271769e-02
-2.139118125380075688e-02
-2.040307749094674022e-02
-1.938943112516272257e-02
-1.835529544376944197e-02
-1.730578842446561100e-02
-1.624605370727007919e-02
-1.518121980990745981e-02
-1.411635784315975854e-02
-1.305643795646686464e-02
-1.200628472789446420e-02
-1.097053195420877487e-02
-9.953577198464692508e-03
-8.959536381427156068e-03
-7.992199054943338252e-03
-7.054984664783340610e-03
-6.150900385138297934e-03
-5.282501100959511794e-03
-4.451851984894163346e-03
-3.660494233893053177e-03
-2.909414541704132429e-03
-2.199018760672209315e-03
-1.529110363194750724e-03
-8.988740971036185759e-04
-3.068653226916143932e-04
2.489946573219881218e-04
7.714167939255056616e-04
1.263735883495719064e-03
1.729895201959492489e-03
2.174424260214992237e-03
2.602409464569320485e-03
3.019457776717732796e-03
3.431653578006238145e-03
3.845508949345873700e-03
4.267907646123010601e-03
4.706043276841272160e-03
5.167352169276731577e-03
5.659441582830156831e-03
6.190013952939886141e-03
6.766787925692531978e-03
7.397417068339529229e-03
8.089407176759081178e-03
8.850033116820693949e-03
9.686256268397964303e-03
1.060464347231729158e-02
1.161128874770405578e-02
1.271173856369195096e-02
1.391092191383156047e-02
1.521308606395204571e-02
1.662173887907755776e-02
1.813959878992973604e-02
1.976855299372569028e-02
2.150962476151828742e-02
2.336295035901297945e-02
2.532776613487456793e-02
2.740240604527250864e-02
2.958431001575442462e-02
3.187004303664349447e-02
3.425532512156038989e-02
3.673507179845170167e-02
3.930344476151954869e-02
4.195391230228560225e-02
4.467931876940563207e-02
4.747196227647886707e-02
5.032367985929615817e-02
5.322593884677226383e-02
5.616993351728843259e-02
5.914668567653706688e-02
6.214714788858863304e-02
6.516230799485116243e-02
6.818329358790223282e-02
7.120147495909484592e-02
7.420856504264683462e-02
7.719671514056145045e-02
8.015860495202538349e-02
8.308752568191302146e-02
8.597745500677422825e-02
8.882312280960613649e-02
9.162006684347148711e-02
9.436467735563228154e-02
9.705423009590131989e-02
9.968690719018979962e-02
1.022618055542895699e-01
1.047789327362127765e-01
1.072391902162780214e-01
1.096443444268633272e-01
1.119969859283230090e-01
1.143004773325133755e-01
1.165588908165799825e-01
1.187769361311793032e-01
1.209598801834193826e-01
1.231134595316951547e-01
1.252437870909478002e-01
1.273572545384096810e-01
1.294604318737754001e-01
1.315599657519971599e-01
1.336624781842390697e-01
1.357744671878455267e-01
1.379022109391987716e-01
1.400516769331204281e-01
1.422284375961134772e-01
1.444375936053582110e-01
1.466837060730876718e-01
1.489707387044040265e-01
1.513020107372377576e-01
1.536801613557769730e-01
1.561071259510947440e-01
1.585841246015445571e-01
1.611116627213303176e-01
1.636895437684606769e-01
1.663168935425698436e-01
1.689921954737038379e-01
1.717133362101487537e-01
1.744776603796974468e-01
1.772820333590504338e-01
1.801229108623400577e-01
1.829964137806521507e-01
1.858984067779777538e-01
1.888245790685817993e-01
1.917705257567454968e-01
1.947318279900589200e-01
1.977041303628746804e-01
2.006832140514266394e-01
2.036650642222671004e-01
2.066459303125951774e-01
2.096223779905735107e-01
2.125913319238700860e-01
2.155501084051894833e-01
2.184964373982550556e-01
2.214284736498366435e-01
2.243447967906804785e-01
2.272444006213405199e-01
2.301266721189131337e-01
2.329913608219992271e-01
2.358385396757300412e-01
2.386685584756975120e-01
2.414819913346284708e-01
2.442795799299649351e-01
2.470621742506277363e-01
2.498306727932769478e-01
2.525859642131509375e-01
2.553288724733007165e-01
2.580601075626159369e-01
2.607802237756590702e-01
2.634895874736387644e-01
2.661883560947813088e-01
2.688764698699512845e-01
2.715536576511255462e-01
2.742194578301234142e-01
2.768732550636249234e-01
2.795143331140323983e-01
2.821419435988820057e-01
2.847553902748997667e-01
2.873541278860088366e-01
2.899378740548583244e-01
2.925067324759955123e-01
2.950613250119237807e-01
2.976029300248323461e-01
3.001336236918312195e-01
3.026564208909878761e-01
3.051754116705022168e-01
3.076958893646260518e-01
3.102244658522170795e-01
3.127691695849197373e-01
3.153395217961069141e-01
3.179465863927547487e-01
3.206029891219667194e-01
3.233229017512407322e-01
3.261219873226707255e-01
3.290173028872860339e-01
3.320271567221311226e-01
3.351709174319291162e-01
3.384687729578043647e-01
3.419414384607735724e-01
3.456098126173255958e-01
3.494945828567722068e-01
3.536157808666804403e-01
3.579922907164169166e-01
3.626413129085567233e-01
3.675777886338961187e-01
3.728137895240644650e-01
3.783578790884767340e-01
3.842144530605635100e-01
3.903830665891414586e-01
3.968577572168462408e-01
4.036263730477704370e-01
4.106699164235692034e-01
4.179619137358180914e-01
4.254678224365107675e-01
4.331444864814636420e-01
4.409396516380589270e-01
4.487915518397114778e-01
4.566285777803352208e-01
4.643690381374149800e-01
4.719210236766206990e-01
4.791823833183866399e-01
4.860408205220523858e-01
4.923741172174844194e-01
4.980504910850984679e-01
5.029290908640963176e-01
5.068606325780663502e-01
5.096881779939876900e-01
5.112480549310508549e-01
5.113709170546240079e-01
5.098829390775527770e-01
5.066071412539735475e-01
5.013648351347427257e-01
4.939771807076013266e-01
4.842668431698685660e-01
4.720597357015012818e-01
4.571868330680031733e-01
4.394860392432387575e-01
4.188040908912943339e-01
3.949984772583811643e-01
3.679393560684831033e-01
3.375114442899541101e-01
3.036158617605222987e-01
2.661719058538418725e-01
2.251187348614751560e-01
1.804169382430549085e-01
1.320499724306744005e-01
8.002544152961431345e-02
2.437620346852273356e-02
-3.483871664661724460e-02
-9.753342250153908266e-02
-1.635946664390813265e-01
-2.328816059731299848e-01
-3.052258070481069785e-01
-3.804315020459090313e-01
-4.582761075611069268e-01
-5.385110043059968543e-01
-6.208625787163658538e-01
-7.050335226907437081e-01
-7.907043850954614816e-01
-8.775353658117979183e-01
-9.651683399098727190e-01
-1.053229096889817251e+00
-1.141329777326628658e+00
-1.229071486575377570e+00
-1.316047062826812608e+00
-1.401843974995487629e+00
-1.486047323588431279e+00
-1.568242916580442348e+00
-1.648020390902984689e+00
-1.724976349175712853e+00
-1.798717480700911420e+00
-1.868863635711490945e+00
-1.935050821819909173e+00
-1.996934092139795336e+00
-2.054190295477244632e+00
-2.106520660172289006e+00
-2.153653184848151270e+00
-2.195344810930890400e+00
-2.231383354314355749e+00
-2.261589175953051090e+00
-2.285816573660018669e+00
-2.303954880789276682e+00
-2.315929260171130988e+00
-2.321701185256228150e+00
-2.321268603560618260e+00
-2.314665781254633625e+00
-2.301962830974533691e+00
-2.283264928459981302e+00
-2.258711226972751618e+00
-2.228473481934878375e+00
-2.192754400928752290e+00
-2.151785737494062545e+00
-2.105826149820611892e+00
-2.055158847777354136e+00
-2.000089053934562600e+00
-1.940941306062169414e+00
-1.878056630150671813e+00
-1.811789614140394633e+00
-1.742505413336809195e+00
-1.670576718845967701e+00
-1.596380720488142391e+00
-1.520296095281418181e+00
-1.442700051760563040e+00
-1.363965459597930474e+00
-1.284458092312157795e+00
-1.204534009248153792e+00
-1.124537101008235451e+00
-1.044796820135365678e+00
-9.656261164222855742e-01
-8.873195935380258081e-01
-8.101519005944990415e-01
-7.343763694156175692e-01
-6.602239051713454376e-01
-5.879021350431367088e-01
-5.175948162028505273e-01
-4.494615015145591030e-01
-3.836374582295968838e-01
-3.202338323359413819e-01
-2.593380480575432356e-01
-2.010144300655124783e-01
-1.453050330430501469e-01
-9.223066157003299848e-02
-4.179206140671459790e-02
6.028738261720516418e-03
5.126695339113306049e-02
9.397346680286025600e-02
1.342131664212109221e-01
1.720632232422509011e-01
2.076113323776091479e-01
2.409539402866779367e-01
2.721944804230994608e-01
3.014416385682660571e-01
3.288076682402062412e-01
3.544067748859160427e-01
3.783535859006100233e-01
4.007617218580976082e-01
4.217424822299714604e-01
4.414036569085317274e-01
4.598484725429842768e-01
4.771746805710551653e-01
4.934737915435867261e-01
5.088304580068044869e-01
5.233220062145228502e-01
5.370181146610409906e-01
5.499806354764993355e-01
5.622635528686359407e-01
5.739130710035652561e-01
5.849678222373740910e-01
5.954591852703002841e-01
6.054117014381793505e-01
6.148435767804982799e-01
6.237672564465808200e-01
6.321900578200155829e-01
6.401148483106603448e-01
6.475407537211304021e-01
6.544638834897982260e-01
6.608780592556278144e-01
6.667755339982993634e-01
6.721476896636140452e-01
6.769857020931278058e-01
6.812811632791914151e-01
6.850266519698899881e-01
6.882162451848198303e-01
6.908459642991839900e-01
6.929141510138993043e-01
6.944217697647809828e-01
6.953726346075537190e-01
6.957735601132764014e-01
6.956344369863671773e-01
6.949682346774064268e-01
6.937909342003624191e-01
6.921213956241007992e-01
6.899811655964511736e-01
6.873942312591455606e-01
6.843867274480268659e-01
6.809866048088089041e-01
6.772232667108860626e-01
6.731271832037296621e-01
6.687294903497634779e-01
6.640615831781361278e-01
6.591547104094854781e-01
6.540395786454354932e-01
6.487459733708766940e-01
6.433024034748933140e-01
6.377357753772525673e-01
6.320711021348578429e-01
6.263312518925779893e-01
6.205367393763019379e-01
6.147055631468277825e-01
6.088530902701304592e-01
6.029919894018449522e-01
5.971322120325120997e-01
5.912810210416820089e-01
5.854430646536494809e-01
5.796204932310814462e-01
5.738131155611988499e-01
5.680185906523348427e-01
5.622326506558233961e-01
5.564493498869650390e-01
5.506613346638810080e-01
5.448601284858258786e-01
5.390364269185443646e-01
5.331803965286165958e-01
5.272819722794850339e-01
5.213311479553826011e-01
5.153182545692129857e-01
5.092342220052754609e-01
5.030708195142150618e-01
4.968208712976763808e-01
4.904784439408272356e-01
4.840390030107876718e-01
4.774995368019601671e-01
4.708586459548804171e-01
4.641165982067071982e-01
4.572753482550496740e-01
4.503385232525788373e-01
4.433113753287111769e-01
4.362007028365831318e-01
4.290147425839688777e-01
4.217630360358300412e-01
4.144562724646875806e-01
4.071061127643579858e-01
3.997249976158617768e-01
3.923259440490615146e-01
3.849223344817961356e-01
3.775277023518935349e-01
3.701555184814737665e-01
3.628189821688114214e-01
3.555308206663847503e-01
3.483031006748179559e-01
3.411470550315272021e-01
3.340729275137672150e-01
3.270898381696245028e-01
3.202056712132347327e-01
3.134269870226045196e-01
3.067589593020306205e-01
3.002053380763265444e-01
2.937684384986286590e-01
2.874491551442288073e-01
2.812470009543495131e-01
2.751601695932685554e-01
2.691856195451595157e-01
2.633191778505473146e-01
2.575556611966909326e-01
2.518890117938185624e-01
2.463124452573372258e-01
2.408186074231786489e-01
2.353997371662015226e-01
2.300478321599153664e-01
2.247548143690785427e-01
2.195126923252343765e-01
2.143137175389880356e-01
2.091505321582036170e-01
2.040163054765564143e-01
1.989048570919373371e-01
1.938107648335667399e-01
1.887294559370166214e-01
1.836572800919925030e-01
1.785915636786213345e-01
1.735306445031075118e-01
1.684738870177736325e-01
1.634216780934873992e-01
1.583754041251174138e-01
1.533374100738933987e-01
1.483109418723820017e-01
1.433000735325782871e-01
1.383096206197071132e-01
1.333450420955235860e-01
1.284123324831809854e-01
1.235179066430664580e-01
1.186684793335657795e-01
1.138709418989196365e-01
1.091322383985326022e-01
1.044592434289819682e-01
9.985864367405894448e-02
9.533682543334576209e-02
9.089976973441332708e-02
8.655295696794343407e-02
8.230128240033272868e-02
7.814898385120287727e-02
7.409958248881584608e-02
7.015583750977150146e-02
6.631971509511050411e-02
6.259237194528201320e-02
5.897415324716374224e-02
5.546460481583073698e-02
5.206249868610746817e-02
4.876587152228954725e-02
4.557207475514330614e-02
4.247783522616639662e-02
3.947932508394037809e-02
3.657223936772038830e-02
3.375187979540406752e-02
3.101324295454291682e-02
2.835111137755963809e-02
2.576014576912249998e-02
2.323497665500413867e-02
2.077029398001323593e-02
1.836093302363595026e-02
1.600195531983238106e-02
1.368872319299658039e-02
1.141696679340615736e-02
9.182842770928702908e-03
6.982983711626766093e-03
4.814537704544099954e-03
2.675197622544129347e-03
5.632200045400356835e-04
-1.522566534160189975e-03
-3.582763263564779470e-03
-5.617413283220329054e-03
-7.626022926966473728e-03
-9.607592025359167759e-03
-1.156065210325378165e-02
-1.348331178664457890e-02
-1.537330814822854101e-02
-1.722806314525003601e-02
-1.904474387488132303e-02
-2.082032547329481370e-02
-2.255165545419992451e-02
-2.423551835540350627e-02
-2.586869946884759811e-02
-2.744804663358852564e-02
-2.897052900352441521e-02
-3.043329183929139106e-02
-3.183370652165977421e-02
-3.316941498751539014e-02
-3.443836809784604769e-02
-3.563885729572471850e-02
-3.676953929747848321e-02
-3.782945360444817801e-02
-3.881803271226970387e-02
-3.973510506181640589e-02
-4.058089102102786089e-02
-4.135599200163000977e-02
-4.206137325855886094e-02
-4.269834087757870544e-02
-4.326851353969737857e-02
-4.377378959756417914e-02
-4.421631036912371249e-02
-4.459842039708442063e-02
-4.492262527497840191e-02
-4.519154811465147387e-02
-4.540788535605328607e-02
-4.557436269410065216e-02
-4.569369194875239071e-02
-4.576852949553705113e-02
-4.580143712882622786e-02
-4.579484581951070304e-02
-4.575102291943519695e-02
-4.567204328513686795e-02
-4.555976481936787476e-02
-4.541580854388325983e-02
-4.524154347668285503e-02
-4.503807644867683507e-02
-4.480624684333702618e-02
-4.454662625940541271e-02
-4.425952286826134729e-02
-4.394499027475333441e-02
-4.360284059489406144e-02
-4.323266144211258821e-02
-4.283383634454279720e-02
-4.240556815136141411e-02
-4.194690497051652839e-02
-4.145676813151049495e-02
-4.093398163463136258e-02
-4.037730250660471337e-02
-3.978545158004812704e-02
-3.915714422945140716e-02
-3.849112042862474353e-02
-3.778617385261702488e-02
-3.704117940021097594e-02
-3.625511886629945862e-02
-3.542710438718939259e-02
-3.455639938620903157e-02
-3.364243671297718896e-02
-3.268483387144259511e-02
-3.168340521509804136e-02
-3.063817092359925540e-02
-2.954936281678281762e-02
-2.841742705381955156e-02
-2.724302379526168105e-02
-2.602702390020809192e-02
-2.477050283776182499e-02
-2.347473213397418754e-02
-2.214116840752033272e-02
-2.077144038487440530e-02
-1.936733415550039722e-02
-1.793077693284448812e-02
-1.646381962521633463e-02
-1.496861857833187495e-02
-1.344741675385989314e-02
-1.190252463343102231e-02
-1.033630113751322910e-02
-8.751134947677315784e-03
-7.149426319822517820e-03
-5.533569693529094731e-03
-3.905937303246116536e-03
-2.268863945458704252e-03
-6.246331397701592944e-04
1.024535349852040162e-03
2.676496372353948019e-03
4.329188691551586268e-03
5.980642673406434337e-03
7.628986328984236481e-03
9.272449669527796368e-03
1.090936759035387831e-02
1.253818121109111748e-02
1.415743779863744105e-02
1.576578937095883537e-02
1.736199009452558603e-02
1.894489260130590227e-02
2.051344341234032087e-02
2.206667749235432033e-02
2.360371216743395797e-02
2.512374054682796690e-02
2.662602454893784470e-02
2.810988768705454180e-02
2.957470772741212575e-02
3.101990938376287740e-02
3.244495705702198085e-02
3.384934786534120332e-02
3.523260494523839520e-02
3.659427111648930198e-02
3.793390299827438528e-02
3.925106565193483416e-02
4.054532765668990985e-02
4.181625684799163828e-02
4.306341659261172378e-02
4.428636258284776583e-02
4.548464028473916260e-02
4.665778289998973732e-02
4.780530987920728059e-02
4.892672593622311716e-02
5.002152053658759367e-02
5.108916782966288483e-02
5.212912699192526894e-02
5.314084288655639837e-02
5.412374706973117899e-02
5.507725907151406197e-02
5.600078784014222988e-02
5.689373339271611846e-02
5.775548863131919897e-02
5.858544115210263109e-02
5.938297525383821190e-02
6.014747389698109348e-02
6.087832068669230684e-02
6.157490181292531867e-02
6.223660794583130845e-02
6.286283606419255932e-02
6.345299122600203678e-02
6.400648822340225530e-02
6.452275309980366746e-02
6.500122461126024709e-02
6.544135553588803500e-02
6.584261391962448196e-02
6.620448412715727871e-02
6.652646784086284348e-02
6.680808490054115922e-02
6.704887404770767945e-02
6.724839356057944750e-02
6.740622177996588582e-02
6.752195753968089076e-02
6.759522047003312106e-02
6.762565120418148612e-02
6.761291146244588490e-02
6.755668406379929103e-02
6.745667284826600829e-02
6.731260248144692315e-02
6.712421815847509354e-02
6.689128517607192959e-02
6.661358845960506370e-02
6.629093189429201283e-02
6.592313763679058525e-02
6.551004527808709788e-02
6.505151089579426504e-02
6.454740601880984419e-02
6.399761638707932021e-02
6.340204071855426449e-02
6.276058928309284635e-02
6.207318243181512984e-02
6.133974894008051293e-02
6.056022441602805506e-02
5.973454949944200648e-02
5.886266807926927164e-02
5.794452543733362437e-02
5.698006636137372544e-02
5.596923326854456177e-02
5.491196433788270159e-02
5.380819175254016040e-02
5.265784001790663887e-02
5.146082435606619265e-02
5.021704930863078731e-02
4.892640751332561627e-02
4.758877872162715211e-02
4.620402912409099505e-02
4.477201097658776302e-02
4.329256260334739953e-02
4.176550881835910944e-02
4.019066182995791742e-02
3.856782260130463963e-02
3.689678276874519547e-02
3.517732713419328971e-02
3.340923680620612457e-02
3.159229296718291807e-02
2.972628125765576154e-02
2.781099688280749480e-02
2.584625037600777470e-02
2.383187407000627450e-02
2.176772926984055917e-02
1.965371407362366193e-02
1.748977184561645304e-02
1.527590030244375258e-02
1.301216113412101416e-02
1.069869018087808536e-02
8.335707952636989618e-03
5.923530579192466325e-03
3.462581039671742186e-03
9.534005504761902108e-04
-1.603340032814285551e-03
-4.206828868172781191e-03
-6.856101896415377553e-03
-9.550031992854476209e-03
-1.228731854064895115e-02
-1.506647762575117483e-02
-1.788583296258372535e-02
-2.074350770280863898e-02
-2.363741726187818318e-02
-2.656526335878075726e-02
-2.952452928842606850e-02
-3.251247669987427508e-02
-3.552614396477323661e-02
-3.856234612455986671e-02
-4.161767662460297973e-02
-4.468851094858882628e-02
-4.777101211960600030e-02
-5.086113813774871539e-02
-5.395465140826997269e-02
-5.704713013249143594e-02
-6.013398174335523455e-02
-6.321045823118004447e-02
-6.627167325784825980e-02
-6.931262118037118114e-02
-7.232819762963309251e-02
-7.531322170728860232e-02
-7.826245950542125296e-02
-8.117064891217345979e-02
-8.403252536655962668e-02
-8.684284841739703387e-02
-8.959642888749734524e-02
-9.228815640078030791e-02
-9.491302698767244139e-02
-9.746617047076165663e-02
-9.994287755223758840e-02
-1.023386261043563172e-01
-1.046491065419629107e-01
-1.068702460630310963e-01
-1.089982313717286072e-01
-1.110295297447718987e-01
-1.129609082331845399e-01
-1.147894507562063349e-01
-1.165125729602771443e-01
-1.181280345973823864e-01
-1.196339493793172198e-01
-1.210287921403305350e-01
-1.223114033164101055e-01
-1.234809905884402537e-01
-1.245371278084335676e-01
-1.254797511259508058e-01
-1.263091524138388599e-01
-1.270259700268662195e-01
-1.276311770702995008e-01
-1.281260672818291535e-01
-1.285122386812458106e-01
-1.287915751988048252e-01
-1.289662265004128949e-01
-1.290385862762471747e-01
-1.290112692136931027e-01
-1.288870868046954332e-01
-1.286690224441675856e-01
-1.283602060158848257e-01
-1.279638882112035525e-01
-1.274834148969165859e-01
-1.269222017775983036e-01
-1.262837097118452712e-01
-1.255714207671750904e-01
-1.247888153910173686e-01
-1.239393508013511280e-01
-1.230264408913568502e-01
-1.220534377377388152e-01
-1.210236149243116149e-01
-1.199401527084030944e-01
-1.188061252351829827e-01
-1.176244897798976313e-01
-1.163980780616623162e-01
-1.151295896800285379e-01
-1.138215875197715193e-01
-1.124764952330613160e-01
-1.110965966386616433e-01
-1.096840368807091431e-01
-1.082408253607399368e-01
-1.067688402243458234e-01
-1.052698342154669425e-01
-1.037454417774756193e-01
-1.021971871771591295e-01
-1.006264935213966039e-01
-9.903469241120967104e-02
-9.742303407199519316e-02
-9.579269778203135244e-02
-9.414480242998368720e-02
-9.248041696387429567e-02
-9.080057056969079166e-02
-8.910626252381262380e-02
-8.739847146812562695e-02
-8.567816404147182707e-02
-8.394630279245739179e-02
-8.220385327861706726e-02
-8.045179020832465833e-02
-7.869110266524556585e-02
-7.692279842794955136e-02
-7.514790723849938681e-02
-7.336748320983368932e-02
-7.158260623272828804e-02
-6.979438257076135688e-02
-6.800394465263545629e-02
-6.621245007544300509e-02
-6.442107995612181282e-02
-6.263103675304039497e-02
-6.084354157659149082e-02
-5.905983112897603832e-02
-5.728115434524767846e-02
-5.550876888793070119e-02
-5.374393745979372944e-02
-5.198792416706698311e-02
-5.024199092602601308e-02
-4.850739399963259479e-02
-4.678538070081288830e-02
-4.507718632494826100e-02
-4.338403134448380605e-02
-4.170711892641014440e-02
-4.004763267877645833e-02
-3.840673468773372207e-02
-3.678556394994010603e-02
-3.518523487969707486e-02
-3.360683613923988455e-02
-3.205142962772827148e-02
-3.052004950792578525e-02
-2.901370139016036520e-02
-2.753336151697582598e-02
-2.607997589609735434e-02
-2.465445927132440401e-02
-2.325769394033357432e-02
-2.189052838946448087e-02
-2.055377566060239206e-02
-1.924821144136165674e-02
-1.797457179549806841e-02
-1.673355054610016837e-02
-1.552579635007114538e-02
-1.435190940904022307e-02
-1.321243790028490961e-02
-1.210787415977306394e-02
-1.103865053084899378e-02
-1.000513508762019589e-02
-9.007627307195703592e-03
-8.046353601254743054e-03
-7.121462955259975566e-03
-6.233022756519043112e-03
-5.381014783488357461e-03
-4.565331628887169500e-03
-3.785773575170695016e-03
-3.042045985461298667e-03
-2.333757349877367635e-03
-1.660418129583684805e-03
-1.021440403911683375e-03
-4.161383891339400019e-04
1.562700031790648330e-04
6.966606609117538063e-04
1.205999651373341900e-03
1.685338631716105408e-03
2.135809121464270731e-03
2.558615713417186632e-03
2.955028401909762584e-03
3.326373791855196087e-03
3.674025639820805312e-03
3.999394528340914287e-03
4.303916930926623627e-03
4.589043719086945486e-03
4.856228286922328538e-03
5.106914448461967806e-03
5.342524313940257008e-03
5.564446161938596015e-03
5.774022691201572723e-03
5.972539649009683468e-03
6.161215043578575044e-03
6.341189155032617500e-03
6.513515482123712584e-03
6.679152749033055031e-03
6.838958061679511341e-03
6.993681392273046367e-03
7.143961476075359578e-03
7.290323171607666908e-03
7.433176359343665607e-03
7.572816389885155854e-03
7.709426078351005497e-03
7.843079269367770473e-03
7.973745893686965541e-03
8.101298427023112883e-03
8.225519713577248218e-03
8.346112022411806067e-03
8.462707186561495287e-03
8.574877653612754044e-03
8.682148384639497979e-03
8.784009344160700547e-03
8.879928321036132180e-03
8.969363953838307979e-03
9.051778850444548025e-03
9.126652449150170904e-03
9.193493529250027982e-03
9.251852069531827857e-03
9.301330358608360035e-03
9.341593118451781835e-03
9.372376595914938893e-03
9.393496351870552971e-03
9.404853701080385930e-03
9.406440700291991350e-03
9.398343590819639715e-03
9.380744637072049516e-03
9.353922448015245319e-03
9.318250588423877476e-03
9.274194671166902798e-03
9.222307943585259307e-03
9.163225454925452013e-03
9.097656847849820705e-03
9.026378038461303419e-03
8.950221790617491138e-03
8.870067347552133483e-03
8.786829383492959084e-03
8.701446435053125303e-03
8.614868982583850573e-03
8.528047374747386306e-03
8.441919813267051778e-03
8.357400591237110557e-03
8.275368724423434394e-03
8.196657266088732199e-03
8.122043360001860585e-03
8.052239285952488348e-03
7.987884519207979345e-03
7.929539027994939038e-03
7.877677834448397129e-03
7.832686951273046608e-03
7.794860678460403119e-03
7.764400366494917174e-03
7.741414602826310852e-03
7.725920801366393219e-03
7.717848113851418987e-03
7.717041610381277644e-03
7.723267642844472772e-03
7.736220297583795528e-03
7.755528788260440676e-03
7.780765581643468015e-03
7.811455165119908332e-03
7.847083295549402149e-03
7.887106498126955981e-03
7.930961694614841601e-03
7.978075764360598524e-03
8.027874877022127612e-03
8.079793378422071501e-03
8.133282120640687035e-03
8.187816112111889755e-03
8.242901293978937075e-03
8.298080418791231941e-03
8.352937848327772127e-03
8.407103266730062488e-03
8.460254243007414923e-03
8.512117592907328736e-03
8.562469545516593339e-03
8.611134780985334886e-03
8.657984255921333250e-03
8.702932003183547205e-03
8.745931022020047435e-03
8.786968214986347336e-03
8.826058549589108071e-03
8.863238644707295208e-03
8.898559856420447042e-03
8.932081047846865060e-03
8.963861167106700056e-03
8.993951857299729499e-03
9.022390221044262679e-03
9.049191892490315858e-03
9.074344605109405104e-03
9.097802409520636471e-03
9.119480703811386896e-03
9.139252055119763407e-03
9.156943083321071250e-03
9.172332378412400428e-03
9.185149638638904004e-03
9.195075995017730139e-03
9.201745564637075700e-03
9.204748254102303878e-03
9.203633741317720010e-03
9.197916595407293339e-03
9.187082606925165568e-03
9.170596075400824082e-03
9.147908016406360379e-03
9.118465182585782508e-03
9.081719709675825300e-03
9.037139326594553074e-03
8.984217878128584675e-03
8.922485958389200431e-03
8.851521597250753409e-03
8.770960753971383111e-03
8.680507442000200830e-03
8.579943281767324348e-03
8.469136373702229256e-03
8.348049244037284919e-03
8.216745816158383189e-03
8.075397172845085250e-03
7.924286063306881442e-03
7.763810019830972263e-03
7.594482971586592919e-03
7.416935403331782403e-03
7.231912855464144897e-03
7.040272922376863453e-03
6.842980621923406247e-03
6.641102269427319287e-03
6.435797854426488808e-03
6.228312024885244644e-03
6.019963733906659974e-03
5.812134720157804968e-03
5.606256860957063888e-03
5.403798711716925433e-03
5.206251260114936816e-03
5.015113139424696477e-03
4.831875460895668217e-03
4.658006419699245101e-03
4.494935940711979917e-03
4.344040472227474539e-03
4.206628239375558020e-03
4.083924966601973003e-03
3.977060462649465757e-03
3.887056080605828280e-03
3.814813265917203419e-03
3.761103271518677349e-03
3.726558225053574775e-03
3.711663685016646733e-03
3.716752753676124364e-03
3.742001734541620245e-03
3.787427421030030612e-03
3.852886119260309338e-03
3.938074297334514390e-03
4.042530878347360031e-03
4.165641180477901162e-03
4.306642445915038683e-03
4.464630783628456209e-03
4.638569499667706021e-03
4.827298718203329973e-03
5.029546149163665117e-03
5.243938860401598130e-03
5.469015872417169570e-03
5.703241567427776160e-03
5.945019494639761613e-03
6.192706602521015798e-03
6.444627710431155392e-03
6.699090062415054454e-03
6.954397606738015047e-03
7.208865160488998891e-03
7.460832063528148594e-03
7.708675270749925854e-03
7.950821811257934371e-03
8.185760375641400188e-03
8.412052017647071028e-03
8.628339795058278389e-03
8.833357380220332664e-03
9.025936547662257586e-03
9.205013445606145470e-03
9.369633621080125305e-03
9.518955895992520580e-03
9.652254989209355790e-03
9.768923006446666654e-03
9.868469677598986842e-03
9.950521499055748481e-03
1.001481985226607488e-02
1.006121811603176604e-02
1.008967788536610337e-02
1.010026438385121413e-02
1.009314110134485257e-02
1.006856384014344526e-02
1.002687420905760442e-02
9.968492740135141347e-03
9.893911664753269816e-03
9.803687467240503398e-03
9.698433381483266211e-03
