1.027055113818626936e-01
1.027154286240654635e-01
1.027253415537490999e-01
1.027352501705196541e-01
1.027451544739837602e-01
1.027550544637485658e-01
1.027649501394217318e-01
1.027748415006113775e-01
1.027847285469260658e-01
1.027946112779748317e-01
1.028044896933672930e-01
1.028143637927135118e-01
1.028242335756240078e-01
1.028340990417098144e-01
1.028439601905824785e-01
1.028538170218541159e-01
1.028636695351373975e-01
1.028735177300455078e-01
1.028833616061922557e-01
1.028932011631919496e-01
1.029030364006593562e-01
1.029128673182097553e-01
1.029226939154589821e-01
1.029325161920233850e-01
1.029423341475197706e-01
1.029521477815654451e-01
1.029619570937782697e-01
1.029717620837766606e-01
1.029815627511794784e-01
1.029913590956060970e-01
1.030011511166764038e-01
1.030109388140107718e-01
1.030207221872300183e-01
1.030305012359554739e-01
1.030402759598089690e-01
1.030500463584127779e-01
1.030598124313896746e-01
1.030695741783629327e-01
1.030793315989563669e-01
1.030890846927943472e-01
1.030988334595017569e-01
1.031085778987039653e-01
1.031183180100268826e-01
1.031280537930969743e-01
1.031377852475411500e-01
1.031475123729868187e-01
1.031572351690618894e-01
1.031669536353947703e-01
1.031766677716143554e-01
1.031863775773500108e-01
1.031960830522316019e-01
1.032057841958894523e-01
1.032154810079543711e-01
1.032251734880576394e-01
1.032348616358311350e-01
1.032445454509072352e-01
1.032542249329188588e-01
1.032639000814995212e-01
1.032735708962833343e-01
1.032832373769049517e-01
1.032928995229995262e-01
1.033025573342027520e-01
1.033122108101507952e-01
1.033218599504804186e-01
1.033315047548288290e-01
1.033411452228337607e-01
1.033507813541334752e-01
1.033604131483667338e-01
1.033700406051728388e-01
1.033796637241915645e-01
1.033892825050632125e-01
1.033988969474285702e-01
1.034085070509289661e-01
1.034181128152062562e-01
1.034277142399027821e-01
1.034373113246613157e-01
1.034469040691251424e-01
1.034564924729380747e-01
1.034660765357444251e-01
1.034756562571889776e-01
1.034852316369170300e-01
1.034948026745743654e-01
1.035043693698073086e-01
1.035139317222627531e-01
1.035234897315880503e-01
1.035330433974310932e-01
1.035425927194403156e-01
1.035521376972646096e-01
1.035616783305533806e-01
1.035712146189565197e-01
1.035807465621244039e-01
1.035902741597079790e-01
1.035997974113587045e-01
1.036093163167284559e-01
1.036188308754695808e-01
1.036283410872349542e-01
1.036378469516779088e-01
1.036473484684522911e-01
1.036568456372124192e-01
1.036663384576131386e-01
1.036758269293098222e-01
1.036853110519583565e-01
1.036947908252151829e-01
1.037042662487373118e-01
1.037137373221822950e-01
1.037232040452081561e-01
1.037326664174733626e-01
1.037421244386368402e-01
1.037515781083580280e-01
1.037610274262968230e-01
1.037704723921136496e-01
1.037799130054694458e-01
1.037893492660255934e-01
1.037987811734439741e-01
1.038082087273869275e-01
1.038176319275171539e-01
1.038270507734978115e-01
1.038364652649925168e-01
1.038458754016652885e-01
1.038552811831806449e-01
1.038646826092035624e-01
1.038740796793995863e-01
1.038834723934347060e-01
1.038928607509754104e-01
1.039022447516886882e-01
1.039116243952419860e-01
1.039209996813032083e-01
1.039303706095407037e-01
1.039397371796233205e-01
1.039490993912204064e-01
1.039584572440017118e-01
1.039678107376375005e-01
1.039771598717985357e-01
1.039865046461559556e-01
1.039958450603813839e-01
1.040051811141469024e-01
1.040145128071249953e-01
1.040238401389885353e-01
1.040331631094108394e-01
1.040424817180656686e-01
1.040517959646272694e-01
1.040611058487704299e-01
1.040704113701704514e-01
1.040797125285030794e-01
1.040890093234444896e-01
1.040983017546713574e-01
1.041075898218608575e-01
1.041168735246906091e-01
1.041261528628387167e-01
1.041354278359838265e-01
1.041446984438050838e-01
1.041539646859821200e-01
1.041632265621949965e-01
1.041724840721242745e-01
1.041817372154510007e-01
1.041909859918567632e-01
1.042002304010235941e-01
1.042094704426339558e-01
1.042187061163707268e-01
1.042279374219172300e-01
1.042371643589572322e-01
1.042463869271749721e-01
1.042556051262551187e-01
1.042648189558828820e-01
1.042740284157439579e-01
1.042832335055245280e-01
1.042924342249111902e-01
1.043016305735910282e-01
1.043108225512516252e-01
1.043200101575809946e-01
1.043291933922675663e-01
1.043383722550002418e-01
1.043475467454683947e-01
1.043567168633618286e-01
1.043658826083707220e-01
1.043750439801856694e-01
1.043842009784977515e-01
1.043933536029985898e-01
1.044025018533802779e-01
1.044116457293353256e-01
1.044207852305567702e-01
1.044299203567380790e-01
1.044390511075732053e-01
1.044481774827565601e-01
1.044572994819829570e-01
1.044664171049476398e-01
1.044755303513462824e-01
1.044846392208749614e-01
1.044937437132302110e-01
1.045028438281089961e-01
1.045119395652086558e-01
1.045210309242269320e-01
1.045301179048619689e-01
1.045392005068123270e-01
1.045482787297770944e-01
1.045573525734558307e-01
1.045664220375486092e-01
1.045754871217558502e-01
1.045845478257783900e-01
1.045936041493175372e-01
1.046026560920750720e-01
1.046117036537532324e-01
1.046207468340546592e-01
1.046297856326824649e-01
1.046388200493401782e-01
1.046478500837318415e-01
1.046568757355618856e-01
1.046658970045352133e-01
1.046749138903571436e-01
1.046839263927334396e-01
1.046929345113702670e-01
1.047019382459742493e-01
1.047109375962524125e-01
1.047199325619122545e-01
1.047289231426616757e-01
1.047379093382090204e-01
1.047468911482630355e-01
1.047558685725328703e-01
1.047648416107282293e-01
1.047738102625591639e-01
1.047827745277361416e-01
1.047917344059700329e-01
1.048006898969722073e-01
1.048096410004544232e-01
1.048185877161288831e-01
1.048275300437081919e-01
1.048364679829053570e-01
1.048454015334338851e-01
1.048543306950077275e-01
1.048632554673412931e-01
1.048721758501494489e-01
1.048810918431474920e-01
1.048900034460511083e-01
1.048989106585764414e-01
1.049078134804401347e-01
1.049167119113591784e-01
1.049256059510509514e-01
1.049344955992332074e-01
1.049433808556241438e-01
1.049522617199424024e-01
1.049611381919069580e-01
1.049700102712372851e-01
1.049788779576532466e-01
1.049877412508751495e-01
1.049966001506238006e-01
1.050054546566203811e-01
1.050143047685865028e-01
1.050231504862442211e-01
1.050319918093159804e-01
1.050408287375246136e-01
1.050496612705933974e-01
1.050584894082460946e-01
1.050673131502068980e-01
1.050761324962003890e-01
1.050849474459515237e-01
1.050937579991856885e-01
1.051025641556287138e-01
1.051113659150068602e-01
1.051201632770467631e-01
1.051289562414754464e-01
1.051377448080203642e-01
1.051465289764093869e-01
1.051553087463708153e-01
1.051640841176333940e-01
1.051728550899262982e-01
1.051816216629790635e-01
1.051903838365216559e-01
1.051991416102844856e-01
1.052078949839983374e-01
1.052166439573944123e-01
1.052253885302043834e-01
1.052341287021603539e-01
1.052428644729948015e-01
1.052515958424406206e-01
1.052603228102312466e-01
1.052690453761005035e-01
1.052777635397825901e-01
1.052864773010121630e-01
1.052951866595242814e-01
1.053038916150544346e-01
1.053125921673386117e-01
1.053212883161132735e-01
1.053299800611152831e-01
1.053386674020819341e-01
1.053473503387510057e-01
1.053560288708606379e-01
1.053647029981493732e-01
1.053733727203562259e-01
1.053820380372206406e-01
1.053906989484825751e-01
1.053993554538824040e-01
1.054080075531608762e-01
1.054166552460591572e-01
1.054252985323187730e-01
1.054339374116817080e-01
1.054425718838903486e-01
1.054512019486874980e-01
1.054598276058163198e-01
1.054684488550203386e-01
1.054770656960434955e-01
1.054856781286301476e-01
1.054942861525250547e-01
1.055028897674734345e-01
1.055114889732209210e-01
1.055200837695135507e-01
1.055286741560977626e-01
1.055372601327203008e-01
1.055458416991283260e-01
1.055544188550693457e-01
1.055629916002912561e-01
1.055715599345423555e-01
1.055801238575714146e-01
1.055886833691275645e-01
1.055972384689603388e-01
1.056057891568197155e-01
1.056143354324560746e-01
1.056228772956201573e-01
1.056314147460630515e-01
1.056399477835362893e-01
1.056484764077917915e-01
1.056570006185819366e-01
1.056655204156595196e-01
1.056740357987777379e-01
1.056825467676901220e-01
1.056910533221505355e-01
1.056995554619132444e-01
1.057080531867328616e-01
1.057165464963643331e-01
1.057250353905629520e-01
1.057335198690843581e-01
1.057419999316845799e-01
1.057504755781200900e-01
1.057589468081477496e-01
1.057674136215248084e-01
1.057758760180089047e-01
1.057843339973580793e-01
1.057927875593308309e-01
1.058012367036860468e-01
1.058096814301830585e-01
1.058181217385814610e-01
1.058265576286412935e-01
1.058349891001230531e-01
1.058434161527876116e-01
1.058518387863962296e-01
1.058602570007106253e-01
1.058686707954928918e-01
1.058770801705056080e-01
1.058854851255117968e-01
1.058938856602748141e-01
1.059022817745583489e-01
1.059106734681264789e-01
1.059190607407437257e-01
1.059274435921749302e-01
1.059358220221853636e-01
1.059441960305406855e-01
1.059525656170069857e-01
1.059609307813507845e-01
1.059692915233390320e-01
1.059776478427391089e-01
1.059859997393187842e-01
1.059943472128462572e-01
1.060026902630901019e-01
1.060110288898192810e-01
1.060193630928031872e-01
1.060276928718115880e-01
1.060360182266146950e-01
1.060443391569831362e-01
1.060526556626879002e-01
1.060609677435003090e-01
1.060692753991919896e-01
1.060775786295350409e-01
1.060858774343020061e-01
1.060941718132658029e-01
1.061024617661997654e-01
1.061107472928775886e-01
1.061190283930733974e-01
1.061273050665616918e-01
1.061355773131173325e-01
1.061438451325155546e-01
1.061521085245319684e-01
1.061603674889426002e-01
1.061686220255237817e-01
1.061768721340522054e-01
1.061851178143049246e-01
1.061933590660594090e-01
1.062015958890935030e-01
1.062098282831854812e-01
1.062180562481140206e-01
1.062262797836580897e-01
1.062344988895970732e-01
1.062427135657107724e-01
1.062509238117794186e-01
1.062591296275836178e-01
1.062673310129043230e-01
1.062755279675228898e-01
1.062837204912211453e-01
1.062919085837813193e-01
1.063000922449860441e-01
1.063082714746183266e-01
1.063164462724615345e-01
1.063246166382993685e-01
1.063327825719158348e-01
1.063409440730953004e-01
1.063491011416224236e-01
1.063572537772822235e-01
1.063654019798600664e-01
1.063735457491417208e-01
1.063816850849134132e-01
1.063898199869617173e-01
1.063979504550736227e-01
1.064060764890365218e-01
1.064141980886381400e-01
1.064223152536665495e-01
1.064304279839102252e-01
1.064385362791579193e-01
1.064466401391986894e-01
1.064547395638220095e-01
1.064628345528177422e-01
1.064709251059761386e-01
1.064790112230878383e-01
1.064870929039437725e-01
1.064951701483352331e-01
1.065032429560538035e-01
1.065113113268913864e-01
1.065193752606401617e-01
1.065274347570926705e-01
1.065354898160418423e-01
1.065435404372809813e-01
1.065515866206036832e-01
1.065596283658039461e-01
1.065676656726761012e-01
1.065756985410148683e-01
1.065837269706153556e-01
1.065917509612730601e-01
1.065997705127838535e-01
1.066077856249439265e-01
1.066157962975498169e-01
1.066238025303984094e-01
1.066318043232868662e-01
1.066398016760127382e-01
1.066477945883738954e-01
1.066557830601686380e-01
1.066637670911956548e-01
1.066717466812541204e-01
1.066797218301434869e-01
1.066876925376636642e-01
1.066956588036148817e-01
1.067036206277976740e-01
1.067115780100128947e-01
1.067195309500617306e-01
1.067274794477457434e-01
1.067354235028668136e-01
1.067433631152272105e-01
1.067512982846294811e-01
1.067592290108764913e-01
1.067671552937714680e-01
1.067750771331180681e-01
1.067829945287202126e-01
1.067909074803821412e-01
1.067988159879083576e-01
1.068067200511036152e-01
1.068146196697730421e-01
1.068225148437220856e-01
1.068304055727565122e-01
1.068382918566824075e-01
1.068461736953062180e-01
1.068540510884347094e-01
1.068619240358749667e-01
1.068697925374343660e-01
1.068776565929207001e-01
1.068855162021420946e-01
1.068933713649069805e-01
1.069012220810241359e-01
1.069090683503026440e-01
1.069169101725518933e-01
1.069247475475816472e-01
1.069325804752020437e-01
1.069404089552235260e-01
1.069482329874568982e-01
1.069560525717132560e-01
1.069638677078039862e-01
1.069716783955408368e-01
1.069794846347359163e-01
1.069872864252016387e-01
1.069950837667507787e-01
1.070028766591964164e-01
1.070106651023519928e-01
1.070184490960312956e-01
1.070262286400484597e-01
1.070340037342179251e-01
1.070417743783544234e-01
1.070495405722730331e-01
1.070573023157891795e-01
1.070650596087185796e-01
1.070728124508772555e-01
1.070805608420814792e-01
1.070883047821478140e-01
1.070960442708931565e-01
1.071037793081347500e-01
1.071115098936901849e-01
1.071192360273773431e-01
1.071269577090144115e-01
1.071346749384198549e-01
1.071423877154124155e-01
1.071500960398111407e-01
1.071577999114354113e-01
1.071654993301048853e-01
1.071731942956395678e-01
1.071808848078597970e-01
1.071885708665862580e-01
1.071962524716398718e-01
1.072039296228418370e-01
1.072116023200136853e-01
1.072192705629772813e-01
1.072269343515547813e-01
1.072345936855686327e-01
1.072422485648415469e-01
1.072498989891964988e-01
1.072575449584567547e-01
1.072651864724459281e-01
1.072728235309878958e-01
1.072804561339067986e-01
1.072880842810271101e-01
1.072957079721735263e-01
1.073033272071710759e-01
1.073109419858451208e-01
1.073185523080212450e-01
1.073261581735253656e-01
1.073337595821836632e-01
1.073413565338226378e-01
1.073489490282690667e-01
1.073565370653500467e-01
1.073641206448929936e-01
1.073716997667256423e-01
1.073792744306759916e-01
1.073868446365723178e-01
1.073944103842431608e-01
1.074019716735173796e-01
1.074095285042240416e-01
1.074170808761924639e-01
1.074246287892522828e-01
1.074321722432334675e-01
1.074397112379662511e-01
1.074472457732810610e-01
1.074547758490086991e-01
1.074623014649801894e-01
1.074698226210268198e-01
1.074773393169800584e-01
1.074848515526716647e-01
1.074923593279337175e-01
1.074998626425986287e-01
1.075073614964990737e-01
1.075148558894680750e-01
1.075223458213389466e-01
1.075298312919452659e-01
1.075373123011209298e-01
1.075447888487000847e-01
1.075522609345172381e-01
1.075597285584071472e-01
1.075671917202048744e-01
1.075746504197458431e-01
1.075821046568657818e-01
1.075895544314006552e-01
1.075969997431866637e-01
1.076044405920602576e-01
1.076118769778580814e-01
1.076193089004170850e-01
1.076267363595744680e-01
1.076341593551677356e-01
1.076415778870346840e-01
1.076489919550133317e-01
1.076564015589419332e-01
1.076638066986589926e-01
1.076712073740032638e-01
1.076786035848138062e-01
1.076859953309299706e-01
1.076933826121913851e-01
1.077007654284380112e-01
1.077081437795100460e-01
1.077155176652479923e-01
1.077228870854926440e-01
1.077302520400850311e-01
1.077376125288663639e-01
1.077449685516781858e-01
1.077523201083623317e-01
1.077596671987609833e-01
1.077670098227165446e-01
1.077743479800716969e-01
1.077816816706693992e-01
1.077890108943528880e-01
1.077963356509657467e-01
1.078036559403517947e-01
1.078109717623551289e-01
1.078182831168200684e-01
1.078255900035912096e-01
1.078328924225133295e-01
1.078401903734314826e-01
1.078474838561910426e-01
1.078547728706376607e-01
1.078620574166172102e-01
1.078693374939758420e-01
1.078766131025600261e-01
1.078838842422164546e-01
1.078911509127921109e-01
1.078984131141341868e-01
1.079056708460901376e-01
1.079129241085077379e-01
1.079201729012349703e-01
1.079274172241199842e-01
1.079346570770111507e-01
1.079418924597570634e-01
1.079491233722065652e-01
1.079563498142087491e-01
1.079635717856129856e-01
1.079707892862688673e-01
1.079780023160262503e-01
1.079852108747352407e-01
1.079924149622461527e-01
1.079996145784095640e-01
1.080068097230763718e-01
1.080140003960976258e-01
1.080211865973245700e-01
1.080283683266086564e-01
1.080355455838015455e-01
1.080427183687551473e-01
1.080498866813215109e-01
1.080570505213529903e-01
1.080642098887021479e-01
1.080713647832217544e-01
1.080785152047648162e-01
1.080856611531845896e-01
1.080928026283344834e-01
1.080999396300681564e-01
1.081070721582395172e-01
1.081142002127027241e-01
1.081213237933121296e-01
1.081284428999223224e-01
1.081355575323880852e-01
1.081426676905644646e-01
1.081497733743067430e-01
1.081568745834703832e-01
1.081639713179109868e-01
1.081710635774844470e-01
1.081781513620469481e-01
1.081852346714548690e-01
1.081923135055648383e-01
1.081993878642337342e-01
1.082064577473186712e-01
1.082135231546769855e-01
1.082205840861661938e-01
1.082276405416440629e-01
1.082346925209685395e-01
1.082417400239978483e-01
1.082487830505903942e-01
1.082558216006048318e-01
1.082628556739001074e-01
1.082698852703355002e-01
1.082769103897705670e-01
1.082839310320651421e-01
1.082909471970792403e-01
1.082979588846730706e-01
1.083049660947070642e-01
1.083119688270418046e-01
1.083189670815380562e-01
1.083259608580568190e-01
1.083329501564592595e-01
1.083399349766067110e-01
1.083469153183607842e-01
1.083538911815832562e-01
1.083608625661361263e-01
1.083678294718815605e-01
1.083747918986818354e-01
1.083817498463994500e-01
1.083887033148971252e-01
1.083956523040377901e-01
1.084025968136845819e-01
1.084095368437008183e-01
1.084164723939500391e-01
1.084234034642960337e-01
1.084303300546027998e-01
1.084372521647344462e-01
1.084441697945552480e-01
1.084510829439295776e-01
1.084579916127220156e-01
1.084648958007973646e-01
1.084717955080206353e-01
1.084786907342570328e-01
1.084855814793719564e-01
1.084924677432310136e-01
1.084993495257000340e-01
1.085062268266450136e-01
1.085130996459321012e-01
1.085199679834276260e-01
1.085268318389981113e-01
1.085336912125103026e-01
1.085405461038311398e-01
1.085473965128277429e-01
1.085542424393673849e-01
1.085610838833175606e-01
1.085679208445458482e-01
1.085747533229200062e-01
1.085815813183078904e-01
1.085884048305776062e-01
1.085952238595973840e-01
1.086020384052356624e-01
1.086088484673610327e-01
1.086156540458422110e-01
1.086224551405480937e-01
1.086292517513477718e-01
1.086360438781105303e-01
1.086428315207057932e-01
1.086496146790031092e-01
1.086563933528721521e-01
1.086631675421827342e-01
1.086699372468048486e-01
1.086767024666087794e-01
1.086834632014650054e-01
1.086902194512441994e-01
1.086969712158172147e-01
1.087037184950550711e-01
1.087104612888289135e-01
1.087171995970100807e-01
1.087239334194700369e-01
1.087306627560804123e-01
1.087373876067129624e-01
1.087441079712396230e-01
1.087508238495324964e-01
1.087575352414638097e-01
1.087642421469059706e-01
1.087709445657315532e-01
1.087776424978133677e-01
1.087843359430243489e-01
1.087910249012376540e-01
1.087977093723266064e-01
1.088043893561646408e-01
1.088110648526253582e-01
1.088177358615825263e-01
1.088244023829099683e-01
1.088310644164816876e-01
1.088377219621718683e-01
1.088443750198547361e-01
1.088510235894046690e-01
1.088576676706961566e-01
1.088643072636039100e-01
1.088709423680027516e-01
1.088775729837676148e-01
1.088841991107735857e-01
1.088908207488958474e-01
1.088974378980097080e-01
1.089040505579905865e-01
1.089106587287139855e-01
1.089172624100556153e-01
1.089238616018912975e-01
1.089304563040970203e-01
1.089370465165489799e-01
1.089436322391235668e-01
1.089502134716972825e-01
1.089567902141467398e-01
1.089633624663486899e-01
1.089699302281799814e-01
1.089764934995175738e-01
1.089830522802385238e-01
1.089896065702200267e-01
1.089961563693393753e-01
1.090027016774740148e-01
1.090092424945015986e-01
1.090157788202998773e-01
1.090223106547467402e-01
1.090288379977202293e-01
1.090353608490984838e-01
1.090418792087597261e-01
1.090483930765823867e-01
1.090549024524449934e-01
1.090614073362262681e-01
1.090679077278049608e-01
1.090744036270599598e-01
1.090808950338702510e-01
1.090873819481149171e-01
1.090938643696732352e-01
1.091003422984245658e-01
1.091068157342483524e-01
1.091132846770240666e-01
1.091197491266313185e-01
1.091262090829497600e-01
1.091326645458590844e-01
1.091391155152391101e-01
1.091455619909697805e-01
1.091520039729311914e-01
1.091584414610035358e-01
1.091648744550671318e-01
1.091713029550024222e-01
1.091777269606899331e-01
1.091841464720103294e-01
1.091905614888443593e-01
1.091969720110729097e-01
1.092033780385769509e-01
1.092097795712375363e-01
1.092161766089358582e-01
1.092225691515532338e-01
1.092289571989710495e-01
1.092353407510707752e-01
1.092417198077339502e-01
1.092480943688421829e-01
1.092544644342772903e-01
1.092608300039212277e-01
1.092671910776560618e-01
1.092735476553639423e-01
1.092798997369271580e-01
1.092862473222281083e-01
1.092925904111493318e-01
1.092989290035734640e-01
1.093052630993833207e-01
1.093115926984618291e-01
1.093179178006920410e-01
1.093242384059570915e-01
1.093305545141402962e-01
1.093368661251250956e-01
1.093431732387950550e-01
1.093494758550338092e-01
1.093557739737251316e-01
1.093620675947529208e-01
1.093683567180011446e-01
1.093746413433538955e-01
1.093809214706955024e-01
1.093871970999104187e-01
1.093934682308832645e-01
1.093997348634987432e-01
1.094059969976416413e-01
1.094122546331967455e-01
1.094185077700489117e-01
1.094247564080830099e-01
1.094310005471839237e-01
1.094372401872366063e-01
1.094434753281261774e-01
1.094497059697378955e-01
1.094559321119571021e-01
1.094621537546692919e-01
1.094683708977601255e-01
1.094745835411154028e-01
1.094807916846210483e-01
1.094869953281630004e-01
1.094931944716273226e-01
1.094993891149001336e-01
1.095055792578676773e-01
1.095117649004163779e-01
1.095179460424327289e-01
1.095241226838032933e-01
1.095302948244147451e-01
1.095364624641538831e-01
1.095426256029076312e-01
1.095487842405630241e-01
1.095549383770071522e-01
1.095610880121271197e-01
1.095672331458101140e-01
1.095733737779434475e-01
1.095795099084145435e-01
1.095856415371108811e-01
1.095917686639200500e-01
1.095978912887297096e-01
1.096040094114275887e-01
1.096101230319014713e-01
1.096162321500392112e-01
1.096223367657288006e-01
1.096284368788583569e-01
1.096345324893160389e-01
1.096406235969901721e-01
1.096467102017692208e-01
1.096527923035417185e-01
1.096588699021963098e-01
1.096649429976217505e-01
1.096710115897068516e-01
1.096770756783406048e-01
1.096831352634121959e-01
1.096891903448109357e-01
1.096952409224261904e-01
1.097012869961473819e-01
1.097073285658640429e-01
1.097133656314658173e-01
1.097193981928424183e-01
1.097254262498836980e-01
1.097314498024795221e-01
1.097374688505199231e-01
1.097434833938950444e-01
1.097494934324951960e-01
1.097554989662108127e-01
1.097614999949324682e-01
1.097674965185508611e-01
1.097734885369568564e-01
1.097794760500414302e-01
1.097854590576956141e-01
1.097914375598105091e-01
1.097974115562772301e-01
1.098033810469870031e-01
1.098093460318311787e-01
1.098153065107012327e-01
1.098212624834888212e-01
1.098272139500857253e-01
1.098331609103838924e-01
1.098391033642753395e-01
1.098450413116522084e-01
1.098509747524066965e-01
1.098569036864310705e-01
1.098628281136176665e-01
1.098687480338589872e-01
1.098746634470476602e-01
1.098805743530763407e-01
1.098864807518378089e-01
1.098923826432250117e-01
1.098982800271309651e-01
1.099041729034488657e-01
1.099100612720720210e-01
1.099159451328938636e-01
1.099218244858079646e-01
1.099276993307080202e-01
1.099335696674878932e-01
1.099394354960415571e-01
1.099452968162631661e-01
1.099511536280470131e-01
1.099570059312875714e-01
1.099628537258794947e-01
1.099686970117175616e-01
1.099745357886965508e-01
1.099803700567113240e-01
1.099861998156568266e-01
1.099920250654280590e-01
1.099978458059200914e-01
1.100036620370281742e-01
1.100094737586476273e-01
1.100152809706739093e-01
1.100210836730026037e-01
1.100268818655293634e-01
1.100326755481499247e-01
1.100384647207600930e-01
1.100442493832557989e-01
1.100500295355330421e-01
1.100558051774878920e-01
1.100615763090165566e-01
1.100673429300153133e-01
1.100731050403805089e-01
1.100788626400086290e-01
1.100846157287962424e-01
1.100903643066400983e-01
1.100961083734370155e-01
1.101018479290838958e-01
1.101075829734777800e-01
1.101133135065157781e-01
1.101190395280950696e-01
1.101247610381129172e-01
1.101304780364667224e-01
1.101361905230539701e-01
1.101418984977722143e-01
1.101476019605191481e-01
1.101533009111925476e-01
1.101589953496903140e-01
1.101646852759105566e-01
1.101703706897515234e-01
1.101760515911115873e-01
1.101817279798892046e-01
1.101873998559830259e-01
1.101930672192918403e-01
1.101987300697145206e-01
1.102043884071500779e-01
1.102100422314976624e-01
1.102156915426565631e-01
1.102213363405262075e-01
1.102269766250061622e-01
1.102326123959961324e-01
1.102382436533959204e-01
1.102438703971054812e-01
1.102494926270249087e-01
1.102551103430544355e-01
1.102607235450943773e-01
1.102663322330451334e-01
1.102719364068072971e-01
1.102775360662815590e-01
1.102831312113687207e-01
1.102887218419697363e-01
1.102943079579857405e-01
1.102998895593180623e-01
1.103054666458681971e-01
1.103110392175378485e-01
1.103166072742289144e-01
1.103221708158434317e-01
1.103277298422835895e-01
1.103332843534516328e-01
1.103388343492499590e-01
1.103443798295811046e-01
1.103499207943477028e-01
1.103554572434524983e-01
1.103609891767982770e-01
1.103665165942879639e-01
1.103720394958245254e-01
1.103775578813110392e-01
1.103830717506507492e-01
1.103885811037470521e-01
1.103940859405035529e-01
1.103995862608240230e-01
1.104050820646123310e-01
1.104105733517724980e-01
1.104160601222087118e-01
1.104215423758253267e-01
1.104270201125268497e-01
1.104324933322179403e-01
1.104379620348033691e-01
1.104434262201880734e-01
1.104488858882771568e-01
1.104543410389759450e-01
1.104597916721898748e-01
1.104652377878244940e-01
1.104706793857854613e-01
1.104761164659785466e-01
1.104815490283096308e-01
1.104869770726848166e-01
1.104924005990103181e-01
1.104978196071925156e-01
1.105032340971379146e-01
1.105086440687532562e-01
1.105140495219455038e-01
1.105194504566217872e-01
1.105248468726894584e-01
1.105302387700560496e-01
1.105356261486293290e-01
1.105410090083171759e-01
1.105463873490275944e-01
1.105517611706687692e-01
1.105571304731491206e-01
1.105624952563772079e-01
1.105678555202618124e-01
1.105732112647118820e-01
1.105785624896365588e-01
1.105839091949451652e-01
1.105892513805472044e-01
1.105945890463523595e-01
1.105999221922704945e-01
1.106052508182116118e-01
1.106105749240859082e-01
1.106158945098036639e-01
1.106212095752753949e-01
1.106265201204117421e-01
1.106318261451235963e-01
1.106371276493219730e-01
1.106424246329180128e-01
1.106477170958230088e-01
1.106530050379484625e-01
1.106582884592060001e-01
1.106635673595074837e-01
1.106688417387649281e-01
1.106741115968905564e-01
1.106793769337967720e-01
1.106846377493961170e-01
1.106898940436012863e-01
1.106951458163252799e-01
1.107003930674812509e-01
1.107056357969825600e-01
1.107108740047427625e-01
1.107161076906756081e-01
1.107213368546949434e-01
1.107265614967148787e-01
1.107317816166497881e-01
1.107369972144142123e-01
1.107422082899228305e-01
1.107474148430905164e-01
1.107526168738322547e-01
1.107578143820632938e-01
1.107630073676991456e-01
1.107681958306555442e-01
1.107733797708484458e-01
1.107785591881940146e-01
1.107837340826086231e-01
1.107889044540088658e-01
1.107940703023116147e-01
1.107992316274339084e-01
1.108043884292930492e-01
1.108095407078065475e-01
1.108146884628921497e-01
1.108198316944678380e-01
1.108249704024518584e-01
1.108301045867626788e-01
1.108352342473190033e-01
1.108403593840397577e-01
1.108454799968440485e-01
1.108505960856511624e-01
1.108557076503805527e-01
1.108608146909518949e-01
1.108659172072851418e-01
1.108710151993004822e-01
1.108761086669183549e-01
1.108811976100594898e-01
1.108862820286447837e-01
1.108913619225953134e-01
1.108964372918324059e-01
1.109015081362777350e-01
1.109065744558532657e-01
1.109116362504811576e-01
1.109166935200838061e-01
1.109217462645838426e-01
1.109267944839041065e-01
1.109318381779676871e-01
1.109368773466979097e-01
1.109419119900182382e-01
1.109469421078523865e-01
1.109519677001243182e-01
1.109569887667581911e-01
1.109620053076784268e-01
1.109670173228097523e-01
1.109720248120771302e-01
1.109770277754057871e-01
1.109820262127211576e-01
1.109870201239489262e-01
1.109920095090150410e-01
1.109969943678456722e-01
1.110019747003671980e-01
1.110069505065063022e-01
1.110119217861899876e-01
1.110168885393455207e-01
1.110218507659003762e-01
1.110268084657822507e-01
1.110317616389191603e-01
1.110367102852393845e-01
1.110416544046714249e-01
1.110465939971439497e-01
1.110515290625859602e-01
1.110564596009267907e-01
1.110613856120959975e-01
1.110663070960234144e-01
1.110712240526392086e-01
1.110761364818738245e-01
1.110810443836579842e-01
1.110859477579227983e-01
1.110908466045995996e-01
1.110957409236199567e-01
1.111006307149157435e-01
1.111055159784191115e-01
1.111103967140625454e-01
1.111152729217787793e-01
1.111201446015008393e-01
1.111250117531620424e-01
1.111298743766960528e-01
1.111347324720368679e-01
1.111395860391187762e-01
1.111444350778763857e-01
1.111492795882446649e-01
1.111541195701588602e-01
1.111589550235545232e-01
1.111637859483675245e-01
1.111686123445340263e-01
1.111734342119905378e-01
1.111782515506739427e-01
1.111830643605214441e-01
1.111878726414705365e-01
1.111926763934590057e-01
1.111974756164249012e-01
1.112022703103066473e-01
1.112070604750429736e-01
1.112118461105729289e-01
1.112166272168358810e-01
1.112214037937713923e-01
1.112261758413192886e-01
1.112309433594197289e-01
1.112357063480131913e-01
1.112404648070404595e-01
1.112452187364426776e-01
1.112499681361613091e-01
1.112547130061380951e-01
1.112594533463150542e-01
1.112641891566344826e-01
1.112689204370391066e-01
1.112736471874719718e-01
1.112783694078764568e-01
1.112830870981963149e-01
1.112878002583756742e-01
1.112925088883590652e-01
1.112972129880913097e-01
1.113019125575174934e-01
1.113066075965830209e-01
1.113112981052336442e-01
1.113159840834154618e-01
1.113206655310749055e-01
1.113253424481587400e-01
1.113300148346141188e-01
1.113346826903885978e-01
1.113393460154300241e-01
1.113440048096865781e-01
1.113486590731067316e-01
1.113533088056393588e-01
1.113579540072337226e-01
1.113625946778394327e-01
1.113672308174064457e-01
1.113718624258851209e-01
1.113764895032262336e-01
1.113811120493809065e-01
1.113857300643005532e-01
1.113903435479369347e-01
1.113949525002422142e-01
1.113995569211689157e-01
1.114041568106699798e-01
1.114087521686987076e-01
1.114133429952088028e-01
1.114179292901543716e-01
1.114225110534898810e-01
1.114270882851702144e-01
1.114316609851505602e-01
1.114362291533864124e-01
1.114407927898335704e-01
1.114453518944482496e-01
1.114499064671869849e-01
1.114544565080066857e-01
1.114590020168646639e-01
1.114635429937186478e-01
1.114680794385267404e-01
1.114726113512474609e-01
1.114771387318397033e-01
1.114816615802627919e-01
1.114861798964763562e-01
1.114906936804403309e-01
1.114952029321149701e-01
1.114997076514608054e-01
1.115042078384386876e-01
1.115087034930098281e-01
1.115131946151357023e-01
1.115176812047781185e-01
1.115221632618993708e-01
1.115266407864620724e-01
1.115311137784292250e-01
1.115355822377642608e-01
1.115400461644309726e-01
1.115445055583936390e-01
1.115489604196168855e-01
1.115534107480656706e-01
1.115578565437052722e-01
1.115622978065014120e-01
1.115667345364201868e-01
1.115711667334280677e-01
1.115755943974919701e-01
1.115800175285792117e-01
1.115844361266575130e-01
1.115888501916948577e-01
1.115932597236596047e-01
1.115976647225206120e-01
1.116020651882470849e-01
1.116064611208085755e-01
1.116108525201749552e-01
1.116152393863164838e-01
1.116196217192038376e-01
1.116239995188080814e-01
1.116283727851007102e-01
1.116327415180535659e-01
1.116371057176389486e-01
1.116414653838296023e-01
1.116458205165986178e-01
1.116501711159195581e-01
1.116545171817663745e-01
1.116588587141134625e-01
1.116631957129356340e-01
1.116675281782081447e-01
1.116718561099066948e-01
1.116761795080074560e-01
1.116804983724870720e-01
1.116848127033225335e-01
1.116891225004912197e-01
1.116934277639708567e-01
1.116977284937395315e-01
1.117020246897756364e-01
1.117063163520580771e-01
1.117106034805662035e-01
1.117148860752797124e-01
1.117191641361786753e-01
1.117234376632436355e-01
1.117277066564554694e-01
1.117319711157954698e-01
1.117362310412453597e-01
1.117404864327872088e-01
1.117447372904034342e-01
1.117489836140768134e-01
1.117532254037904849e-01
1.117574626595280035e-01
1.117616953812733266e-01
1.117659235690108277e-01
1.117701472227253107e-01
1.117743663424019818e-01
1.117785809280264636e-01
1.117827909795847535e-01
1.117869964970632651e-01
1.117911974804488284e-01
1.117953939297287452e-01
1.117995858448907892e-01
1.118037732259232059e-01
1.118079560728146155e-01
1.118121343855541239e-01
1.118163081641312534e-01
1.118204774085358871e-01
1.118246421187583800e-01
1.118288022947894061e-01
1.118329579366200144e-01
1.118371090442416699e-01
1.118412556176462680e-01
1.118453976568261343e-01
1.118495351617740663e-01
1.118536681324832915e-01
1.118577965689474679e-01
1.118619204711606696e-01
1.118660398391173455e-01
1.118701546728124441e-01
1.118742649722413440e-01
1.118783707373998404e-01
1.118824719682841584e-01
1.118865686648909535e-01
1.118906608272172976e-01
1.118947484552606370e-01
1.118988315490188623e-01
1.119029101084903083e-01
1.119069841336737398e-01
1.119110536245684490e-01
1.119151185811741583e-01
1.119191790034909789e-01
1.119232348915193548e-01
1.119272862452601602e-01
1.119313330647146998e-01
1.119353753498847220e-01
1.119394131007724058e-01
1.119434463173803601e-01
1.119474749997117352e-01
1.119514991477700561e-01
1.119555187615592362e-01
1.119595338410835778e-01
1.119635443863479379e-01
1.119675503973576597e-01
1.119715518741185162e-01
1.119755488166367247e-01
1.119795412249189465e-01
1.119835290989722870e-01
1.119875124388042403e-01
1.119914912444227861e-01
1.119954655158363899e-01
1.119994352530540305e-01
1.120034004560850754e-01
1.120073611249393780e-01
1.120113172596271245e-01
1.120152688601589452e-01
1.120192159265458592e-01
1.120231584587993157e-01
1.120270964569312078e-01
1.120310299209539423e-01
1.120349588508804256e-01
1.120388832467240081e-01
1.120428031084985399e-01
1.120467184362183150e-01
1.120506292298980577e-01
1.120545354895529921e-01
1.120584372151988001e-01
1.120623344068516075e-01
1.120662270645279290e-01
1.120701151882448343e-01
1.120739987780197955e-01
1.120778778338707288e-01
1.120817523558159806e-01
1.120856223438743554e-01
1.120894877980651155e-01
1.120933487184079674e-01
1.120972051049230617e-01
1.121010569576308818e-01
1.121049042765524112e-01
1.121087470617090909e-01
1.121125853131227645e-01
1.121164190308157754e-01
1.121202482148109664e-01
1.121240728651316243e-01
1.121278929818015496e-01
1.121317085648450007e-01
1.121355196142866800e-01
1.121393261301517341e-01
1.121431281124658091e-01
1.121469255612550509e-01
1.121507184765460630e-01
1.121545068583659627e-01
1.121582907067423113e-01
1.121620700217031280e-01
1.121658448032768346e-01
1.121696150514923523e-01
1.121733807663791577e-01
1.121771419479671295e-01
1.121808985962865490e-01
1.121846507113681418e-01
1.121883982932430912e-01
1.121921413419429830e-01
1.121958798574998473e-01
1.121996138399462273e-01
1.122033432893150690e-01
1.122070682056397067e-01
1.122107885889539330e-01
1.122145044392920538e-01
1.122182157566888189e-01
1.122219225411795335e-01
1.122256247928000022e-01
1.122293225115865434e-01
1.122330156975760024e-01
1.122367043508057383e-01
1.122403884713135541e-01
1.122440680591377665e-01
1.122477431143170945e-01
1.122514136368907567e-01
1.122550796268984852e-01
1.122587410843805256e-01
1.122623980093775675e-01
1.122660504019308003e-01
1.122696982620819822e-01
1.122733415898733988e-01
1.122769803853477938e-01
1.122806146485482992e-01
1.122842443795184914e-01
1.122878695783023489e-01
1.122914902449443225e-01
1.122951063794894316e-01
1.122987179819831954e-01
1.123023250524716327e-01
1.123059275910013172e-01
1.123095255976193363e-01
1.123131190723733047e-01
1.123167080153113506e-01
1.123202924264821018e-01
1.123238723059346439e-01
1.123274476537185207e-01
1.123310184698837755e-01
1.123345847544809650e-01
1.123381465075611596e-01
1.123417037291759291e-01
1.123452564193773012e-01
1.123488045782178313e-01
1.123523482057505740e-01
1.123558873020290699e-01
1.123594218671074424e-01
1.123629519010402866e-01
1.123664774038826975e-01
1.123699983756903248e-01
1.123735148165192627e-01
1.123770267264260631e-01
1.123805341054677498e-01
1.123840369537018602e-01
1.123875352711863757e-01
1.123910290579797772e-01
1.123945183141411008e-01
1.123980030397297852e-01
1.124014832348057408e-01
1.124049588994293358e-01
1.124084300336614384e-01
1.124118966375633605e-01
1.124153587111968028e-01
1.124188162546239239e-01
1.124222692679073959e-01
1.124257177511103489e-01
1.124291617042964264e-01
1.124326011275297160e-01
1.124360360208748605e-01
1.124394663843970021e-01
1.124428922181617968e-01
1.124463135222353027e-01
1.124497302966840223e-01
1.124531425415749714e-01
1.124565502569756237e-01
1.124599534429538972e-01
1.124633520995781538e-01
1.124667462269171997e-01
1.124701358250403543e-01
1.124735208940173953e-01
1.124769014339185441e-01
1.124802774448145221e-01
1.124836489267765083e-01
1.124870158798761399e-01
1.124903783041855954e-01
1.124937361997775526e-01
1.124970895667251614e-01
1.125004384051020712e-01
1.125037827149824171e-01
1.125071224964408478e-01
1.125104577495524699e-01
1.125137884743928895e-01
1.125171146710381570e-01
1.125204363395648222e-01
1.125237534800498790e-01
1.125270660925707655e-01
1.125303741772054750e-01
1.125336777340325001e-01
1.125369767631308332e-01
1.125402712645799108e-01
1.125435612384596135e-01
1.125468466848502797e-01
1.125501276038327614e-01
1.125534039954883408e-01
1.125566758598987305e-01
1.125599431971460868e-01
1.125632060073130797e-01
1.125664642904828372e-01
1.125697180467390840e-01
1.125729672761659195e-01
1.125762119788479981e-01
1.125794521548704741e-01
1.125826878043190565e-01
1.125859189272798988e-01
1.125891455238397093e-01
1.125923675940857377e-01
1.125955851381057193e-01
1.125987981559879031e-01
1.126020066478210374e-01
1.126052106136943426e-01
1.126084100536974275e-01
1.126116049679203590e-01
1.126147953564536897e-01
1.126179812193884577e-01
1.126211625568162011e-01
1.126243393688288325e-01
1.126275116555187500e-01
1.126306794169787961e-01
1.126338426533023684e-01
1.126370013645833640e-01
1.126401555509161101e-01
1.126433052123954615e-01
1.126464503491167030e-01
1.126495909611755636e-01
1.126527270486683274e-01
1.126558586116917782e-01
1.126589856503431158e-01
1.126621081647199568e-01
1.126652261549203615e-01
1.126683396210428206e-01
1.126714485631863105e-01
1.126745529814503072e-01
1.126776528759347168e-01
1.126807482467400284e-01
1.126838390939672724e-01
1.126869254177179647e-01
1.126900072180940932e-01
1.126930844951980759e-01
1.126961572491327196e-01
1.126992254800013721e-01
1.127022891879078531e-01
1.127053483729564126e-01
1.127084030352517863e-01
1.127114531748992926e-01
1.127144987920047359e-01
1.127175398866743505e-01
1.127205764590147874e-01
1.127236085091331691e-01
1.127266360371370346e-01
1.127296590431344087e-01
1.127326775272337461e-01
1.127356914895439738e-01
1.127387009301745041e-01
1.127417058492352353e-01
1.127447062468365374e-01
1.127477021230891968e-01
1.127506934781044579e-01
1.127536803119940922e-01
1.127566626248703713e-01
1.127596404168459826e-01
1.127626136880340718e-01
1.127655824385482564e-01
1.127685466685026255e-01
1.127715063780116850e-01
1.127744615671904121e-01
1.127774122361542564e-01
1.127803583850191943e-01
1.127833000139017439e-01
1.127862371229188393e-01
1.127891697121878034e-01
1.127920977818263198e-01
1.127950213319526135e-01
1.127979403626854227e-01
1.128008548741439993e-01
1.128037648664479697e-01
1.128066703397174325e-01
1.128095712940728745e-01
1.128124677296351991e-01
1.128153596465258507e-01
1.128182470448667318e-01
1.128211299247801891e-01
1.128240082863889160e-01
1.128268821298160224e-01
1.128297514551850900e-01
1.128326162626201168e-01
1.128354765522456143e-01
1.128383323241865382e-01
1.128411835785683576e-01
1.128440303155170132e-01
1.128468725351589180e-01
1.128497102376209427e-01
1.128525434230304575e-01
1.128553720915152908e-01
1.128581962432037983e-01
1.128610158782247935e-01
1.128638309967075343e-01
1.128666415987816946e-01
1.128694476845774758e-01
1.128722492542255096e-01
1.128750463078568717e-01
1.128778388456031095e-01
1.128806268675961177e-01
1.128834103739681932e-01
1.128861893648521464e-01
1.128889638403812873e-01
1.128917338006893839e-01
1.128944992459106483e-01
1.128972601761797367e-01
1.129000165916317217e-01
1.129027684924021196e-01
1.129055158786269469e-01
1.129082587504427332e-01
1.129109971079864522e-01
1.129137309513955217e-01
1.129164602808077483e-01
1.129191850963613963e-01
1.129219053981951326e-01
1.129246211864480681e-01
1.129273324612597024e-01
1.129300392227699235e-01
1.129327414711190081e-01
1.129354392064476770e-01
1.129381324288971505e-01
1.129408211386091071e-01
1.129435053357256274e-01
1.129461850203892226e-01
1.129488601927428337e-01
1.129515308529299017e-01
1.129541970010943114e-01
1.129568586373803363e-01
1.129595157619326939e-01
1.129621683748965461e-01
1.129648164764174983e-01
1.129674600666416423e-01
1.129700991457155551e-01
1.129727337137862164e-01
1.129753637710010500e-01
1.129779893175078959e-01
1.129806103534550382e-01
1.129832268789911082e-01
1.129858388942651670e-01
1.129884463994267479e-01
1.129910493946258698e-01
1.129936478800129956e-01
1.129962418557390325e-01
1.129988313219552759e-01
1.130014162788134519e-01
1.130039967264657164e-01
1.130065726650647112e-01
1.130091440947634390e-01
1.130117110157152771e-01
1.130142734280740469e-01
1.130168313319940693e-01
1.130193847276300956e-01
1.130219336151373488e-01
1.130244779946714823e-01
1.130270178663885933e-01
1.130295532304452094e-01
1.130320840869982191e-01
1.130346104362048298e-01
1.130371322782226795e-01
1.130396496132098361e-01
1.130421624413248533e-01
1.130446707627266456e-01
1.130471745775745024e-01
1.130496738860281430e-01
1.130521686882477589e-01
1.130546589843940686e-01
1.130571447746282210e-01
1.130596260591117952e-01
1.130621028380068421e-01
1.130645751114758985e-01
1.130670428796819310e-01
1.130695061427883091e-01
1.130719649009588185e-01
1.130744191543576194e-01
1.130768689031493995e-01
1.130793141474993324e-01
1.130817548875730633e-01
1.130841911235366953e-01
1.130866228555568176e-01
1.130890500838004492e-01
1.130914728084350673e-01
1.130938910296286071e-01
1.130963047475493782e-01
1.130987139623661208e-01
1.131011186742480329e-01
1.131035188833647148e-01
1.131059145898861418e-01
1.131083057939827191e-01
1.131106924958251991e-01
1.131130746955847921e-01
1.131154523934331801e-01
1.131178255895425172e-01
1.131201942840853736e-01
1.131225584772347775e-01
1.131249181691641598e-01
1.131272733600474228e-01
1.131296240500589828e-01
1.131319702393737137e-01
1.131343119281669057e-01
1.131366491166142102e-01
1.131389818048916945e-01
1.131413099931757732e-01
1.131436336816433186e-01
1.131459528704716194e-01
1.131482675598384224e-01
1.131505777499218629e-01
1.131528834409005341e-01
1.131551846329535010e-01
1.131574813262602314e-01
1.131597735210005395e-01
1.131620612173546009e-01
1.131643444155029932e-01
1.131666231156267383e-01
1.131688973179072605e-01
1.131711670225263311e-01
1.131734322296660544e-01
1.131756929395089373e-01
1.131779491522379028e-01
1.131802008680363320e-01
1.131824480870880500e-01
1.131846908095772847e-01
1.131869290356887214e-01
1.131891627656075455e-01
1.131913919995193862e-01
1.131936167376103725e-01
1.131958369800670910e-01
1.131980527270765452e-01
1.132002639788260712e-01
1.132024707355034354e-01
1.132046729972968069e-01
1.132068707643947569e-01
1.132090640369862455e-01
1.132112528152606212e-01
1.132134370994076766e-01
1.132156168896176068e-01
1.132177921860810094e-01
1.132199629889888565e-01
1.132221292985325506e-01
1.132242911149038966e-01
1.132264484382950465e-01
1.132286012688985821e-01
1.132307496069074049e-01
1.132328934525148184e-01
1.132350328059145289e-01
1.132371676673006172e-01
1.132392980368675389e-01
1.132414239148101937e-01
1.132435453013238141e-01
1.132456621966040217e-01
1.132477746008467151e-01
1.132498825142482235e-01
1.132519859370053061e-01
1.132540848693151109e-01
1.132561793113751741e-01
1.132582692633834764e-01
1.132603547255384285e-01
1.132624356980388713e-01
1.132645121810840899e-01
1.132665841748736885e-01
1.132686516796076459e-01
1.132707146954863298e-01
1.132727732227105377e-01
1.132748272614814422e-01
1.132768768120005348e-01
1.132789218744695570e-01
1.132809624490905276e-01
1.132829985360658681e-01
1.132850301355984163e-01
1.132870572478914262e-01
1.132890798731485404e-01
1.132910980115738181e-01
1.132931116633716789e-01
1.132951208287468758e-01
1.132971255079045364e-01
1.132991257010501074e-01
1.133011214083894103e-01
1.133031126301286828e-01
1.133050993664745376e-01
1.133070816176339063e-01
1.133090593838140259e-01
1.133110326652225081e-01
1.133130014620673393e-01
1.133149657745568667e-01
1.133169256028997984e-01
1.133188809473052588e-01
1.133208318079828025e-01
1.133227781851423033e-01
1.133247200789939957e-01
1.133266574897484752e-01
1.133285904176166425e-01
1.133305188628097732e-01
1.133324428255396282e-01
1.133343623060183714e-01
1.133362773044585686e-01
1.133381878210732163e-01
1.133400938560756854e-01
1.133419954096796523e-01
1.133438924820992094e-01
1.133457850735487965e-01
1.133476731842433111e-01
1.133495568143980115e-01
1.133514359642285169e-01
1.133533106339508212e-01
1.133551808237812791e-01
1.133570465339365924e-01
1.133589077646337678e-01
1.133607645160902150e-01
1.133626167885236485e-01
1.133644645821521441e-01
1.133663078971942212e-01
1.133681467338687049e-01
1.133699810923947393e-01
1.133718109729918155e-01
1.133736363758798132e-01
1.133754573012789590e-01
1.133772737494098543e-01
1.133790857204934610e-01
1.133808932147511300e-01
1.133826962324045590e-01
1.133844947736758479e-01
1.133862888387874995e-01
1.133880784279623771e-01
1.133898635414236911e-01
1.133916441793950541e-01
1.133934203421004816e-01
1.133951920297644328e-01
1.133969592426118250e-01
1.133987219808678254e-01
1.134004802447578369e-01
1.134022340345076513e-01
1.134039833503433514e-01
1.134057281924914229e-01
1.134074685611786842e-01
1.134092044566323565e-01
1.134109358790799521e-01
1.134126628287493166e-01
1.134143853058685869e-01
1.134161033106661914e-01
1.134178168433708361e-01
1.134195259042115600e-01
1.134212304934177906e-01
1.134229306112193025e-01
1.134246262578462727e-01
1.134263174335291974e-01
1.134280041384989612e-01
1.134296863729868654e-01
1.134313641372245440e-01
1.134330374314440060e-01
1.134347062558776625e-01
1.134363706107582581e-01
1.134380304963188563e-01
1.134396859127928675e-01
1.134413368604139799e-01
1.134429833394162007e-01
1.134446253500338841e-01
1.134462628925017730e-01
1.134478959670549292e-01
1.134495245739287478e-01
1.134511487133589014e-01
1.134527683855813956e-01
1.134543835908326109e-01
1.134559943293493578e-01
1.134576006013687799e-01
1.134592024071284094e-01
1.134607997468661672e-01
1.134623926208203071e-01
1.134639810292294576e-01
1.134655649723325527e-01
1.134671444503687482e-01
1.134687194635774915e-01
1.134702900121985908e-01
1.134718560964722706e-01
1.134734177166391578e-01
1.134749748729402680e-01
1.134765275656169220e-01
1.134780757949107460e-01
1.134796195610637409e-01
1.134811588643181296e-01
1.134826937049164541e-01
1.134842240831015758e-01
1.134857499991166890e-01
1.134872714532053628e-01
1.134887884456114715e-01
1.134903009765791948e-01
1.134918090463530871e-01
1.134933126551780913e-01
1.134948118032994557e-01
1.134963064909628450e-01
1.134977967184142567e-01
1.134992824859000493e-01
1.135007637936669284e-01
1.135022406419619739e-01
1.135037130310324882e-01
1.135051809611260926e-01
1.135066444324906998e-01
1.135081034453745835e-01
1.135095580000264059e-01
1.135110080966951901e-01
1.135124537356302504e-01
1.135138949170812622e-01
1.135153316412982616e-01
1.135167639085315483e-01
1.135181917190317413e-01
1.135196150730498205e-01
1.135210339708371263e-01
1.135224484126452910e-01
1.135238583987261962e-01
1.135252639293320431e-01
1.135266650047153797e-01
1.135280616251290592e-01
1.135294537908262541e-01
1.135308415020604839e-01
1.135322247590856148e-01
1.135336035621558742e-01
1.135349779115258501e-01
1.135363478074505467e-01
1.135377132501853154e-01
1.135390742399857988e-01
1.135404307771080562e-01
1.135417828618084379e-01
1.135431304943436415e-01
1.135444736749706834e-01
1.135458124039468858e-01
1.135471466815299590e-01
1.135484765079778496e-01
1.135498018835487538e-01
1.135511228085011037e-01
1.135524392830936646e-01
1.135537513075855071e-01
1.135550588822361179e-01
1.135563620073053170e-01
1.135576606830532714e-01
1.135589549097404533e-01
1.135602446876276261e-01
1.135615300169759423e-01
1.135628108980469009e-01
1.135640873311022925e-01
1.135653593164041436e-01
1.135666268542147722e-01
1.135678899447968293e-01
1.135691485884132018e-01
1.135704027853270681e-01
1.135716525358018841e-01
1.135728978401013972e-01
1.135741386984896462e-01
1.135753751112309473e-01
1.135766070785898946e-01
1.135778346008313039e-01
1.135790576782201716e-01
1.135802763110217301e-01
1.135814904995014890e-01
1.135827002439252359e-01
1.135839055445591467e-01
1.135851064016696194e-01
1.135863028155233434e-01
1.135874947863872997e-01
1.135886823145287883e-01
1.135898654002154284e-01
1.135910440437151170e-01
1.135922182452960422e-01
1.135933880052266837e-01
1.135945533237758959e-01
1.135957142012128523e-01
1.135968706378070042e-01
1.135980226338281357e-01
1.135991701895463085e-01
1.136003133052319036e-01
1.136014519811556212e-01
1.136025862175884943e-01
1.136037160148018893e-01
1.136048413730674500e-01
1.136059622926571394e-01
1.136070787738432397e-01
1.136081908168983107e-01
1.136092984220951341e-01
1.136104015897067554e-01
1.136115003200065393e-01
1.136125946132681835e-01
1.136136844697656356e-01
1.136147698897731484e-01
1.136158508735653772e-01
1.136169274214173103e-01
1.136179995336042414e-01
1.136190672104017696e-01
1.136201304520858130e-01
1.136211892589325673e-01
1.136222436312185474e-01
1.136232935692205737e-01
1.136243390732156605e-01
1.136253801434811417e-01
1.136264167802946284e-01
1.136274489839340512e-01
1.136284767546775903e-01
1.136295000928037313e-01
1.136305189985913205e-01
1.136315334723194681e-01
1.136325435142674922e-01
1.136335491247150165e-01
1.136345503039419280e-01
1.136355470522283778e-01
1.136365393698548221e-01
1.136375272571021333e-01
1.136385107142514339e-01
1.136394897415841515e-01
1.136404643393819636e-01
1.136414345079269084e-01
1.136424002475013850e-01
1.136433615583880979e-01
1.136443184408700013e-01
1.136452708952303547e-01
1.136462189217527785e-01
1.136471625207212538e-01
1.136481016924199977e-01
1.136490364371335188e-01
1.136499667551465337e-01
1.136508926467439673e-01
1.136518141122110359e-01
1.136527311518332889e-01
1.136536437658965115e-01
1.136545519546868083e-01
1.136554557184905334e-01
1.136563550575942633e-01
1.136572499722849350e-01
1.136581404628497355e-01
1.136590265295760738e-01
1.136599081727516086e-01
1.136607853926642486e-01
1.136616581896021799e-01
1.136625265638538246e-01
1.136633905157078961e-01
1.136642500454533439e-01
1.136651051533794227e-01
1.136659558397757341e-01
1.136668021049321020e-01
1.136676439491386414e-01
1.136684813726857590e-01
1.136693143758640834e-01
1.136701429589644791e-01
1.136709671222780466e-01
1.136717868660961084e-01
1.136726021907102230e-01
1.136734130964122402e-01
1.136742195834942321e-01
1.136750216522485063e-01
1.136758193029676067e-01
1.136766125359443547e-01
1.136774013514717935e-01
1.136781857498432441e-01
1.136789657313523605e-01
1.136797412962931297e-01
1.136805124449597609e-01
1.136812791776466297e-01
1.136820414946483337e-01
1.136827993962597483e-01
1.136835528827759845e-01
1.136843019544923339e-01
1.136850466117044073e-01
1.136857868547080236e-01
1.136865226837993348e-01
1.136872540992748259e-01
1.136879811014312458e-01
1.136887036905656068e-01
1.136894218669751433e-01
1.136901356309573674e-01
1.136908449828101242e-01
1.136915499228314114e-01
1.136922504513194349e-01
1.136929465685726226e-01
1.136936382748896246e-01
1.136943255705693545e-01
1.136950084559110313e-01
1.136956869312141377e-01
1.136963609967784339e-01
1.136970306529039021e-01
1.136976958998907883e-01
1.136983567380395327e-01
1.136990131676508392e-01
1.136996651890256199e-01
1.137003128024651061e-01
1.137009560082708065e-01
1.137015948067444243e-01
1.137022291981878985e-01
1.137028591829033208e-01
1.137034847611930050e-01
1.137041059333595838e-01
1.137047226997059957e-01
1.137053350605354285e-01
1.137059430161512646e-01
1.137065465668570946e-01
1.137071457129567170e-01
1.137077404547541248e-01
1.137083307925535053e-01
1.137089167266592954e-01
1.137094982573760710e-01
1.137100753850086576e-01
1.137106481098620336e-01
1.137112164322414271e-01
1.137117803524523574e-01
1.137123398708004968e-01
1.137128949875917117e-01
1.137134457031321044e-01
1.137139920177279717e-01
1.137145339316858045e-01
1.137150714453122324e-01
1.137156045589141212e-01
1.137161332727985169e-01
1.137166575872727153e-01
1.137171775026443177e-01
1.137176930192211610e-01
1.137182041373112629e-01
1.137187108572228350e-01
1.137192131792642141e-01
1.137197111037439173e-01
1.137202046309706005e-01
1.137206937612531693e-01
1.137211784949007098e-01
1.137216588322225302e-01
1.137221347735281607e-01
1.137226063191273673e-01
1.137230734693301659e-01
1.137235362244467529e-01
1.137239945847875605e-01
1.137244485506632014e-01
1.137248981223844546e-01
1.137253433002623354e-01
1.137257840846080392e-01
1.137262204757330392e-01
1.137266524739489748e-01
1.137270800795676662e-01
1.137275032929011137e-01
1.137279221142614843e-01
1.137283365439611116e-01
1.137287465823126065e-01
1.137291522296287605e-01
1.137295534862226010e-01
1.137299503524073219e-01
1.137303428284962697e-01
1.137307309148029993e-01
1.137311146116413013e-01
1.137314939193251467e-01
1.137318688381687287e-01
1.137322393684864485e-01
1.137326055105929157e-01
1.137329672648029200e-01
1.137333246314314178e-01
1.137336776107935599e-01
1.137340262032047744e-01
1.137343704089806701e-01
1.137347102284370082e-01
1.137350456618898137e-01
1.137353767096552087e-01
1.137357033720494681e-01
1.137360256493890331e-01
1.137363435419904423e-01
1.137366570501703866e-01
1.137369661742457239e-01
1.137372709145334643e-01
1.137375712713508125e-01
1.137378672450150702e-01
1.137381588358437612e-01
1.137384460441545619e-01
1.137387288702652322e-01
1.137390073144936842e-01
1.137392813771579969e-01
1.137395510585764574e-01
1.137398163590674222e-01
1.137400772789494419e-01
1.137403338185412338e-01
1.137405859781615985e-01
1.137408337581295309e-01
1.137410771587641783e-01
1.137413161803848827e-01
1.137415508233110828e-01
1.137417810878624119e-01
1.137420069743586282e-01
1.137422284831197394e-01
1.137424456144658924e-01
1.137426583687174420e-01
1.137428667461949511e-01
1.137430707472192187e-01
1.137432703721112243e-01
1.137434656211920442e-01
1.137436564947829493e-01
1.137438429932053213e-01
1.137440251167806254e-01
1.137442028658304793e-01
1.137443762406766812e-01
1.137445452416411540e-01
1.137447098690460151e-01
1.137448701232135623e-01
1.137450260044662737e-01
1.137451775131267662e-01
1.137453246495178510e-01
1.137454674139625199e-01
1.137456058067839865e-01
1.137457398283055893e-01
1.137458694788507502e-01
1.137459947587430159e-01
1.137461156683060998e-01
1.137462322078638399e-01
1.137463443777402550e-01
1.137464521782595439e-01
1.137465556097460861e-01
1.137466546725244276e-01
1.137467493669192392e-01
1.137468396932553721e-01
1.137469256518578997e-01
1.137470072430520618e-01
1.137470844671632647e-01
1.137471573245170953e-01
1.137472258154391541e-01
1.137472899402551529e-01
1.137473496992909699e-01
1.137474050928726499e-01
1.137474561213263485e-01
1.137475027849783882e-01
1.137475450841552022e-01
1.137475830191832793e-01
1.137476165903892195e-01
1.137476457980996641e-01
1.137476706426413103e-01
1.137476911243409800e-01
1.137477072435256475e-01
1.137477190005223848e-01
1.137477263956583745e-01
1.137477294292609103e-01
1.137477281016573832e-01
1.137477224131752812e-01
1.137477123641420923e-01
1.137476979548854572e-01
1.137476791857331138e-01
1.137476560570129525e-01
1.137476285690530026e-01
1.137475967221813905e-01
1.137475605167263537e-01
1.137475199530162406e-01
1.137474750313794969e-01
1.137474257521446513e-01
1.137473721156403300e-01
1.137473141221952005e-01
1.137472517721380694e-01
1.137471850657979372e-01
1.137471140035039574e-01
1.137470385855853805e-01
1.137469588123714848e-01
1.137468746841916456e-01
1.137467862013753217e-01
1.137466933642520411e-01
1.137465961731514846e-01
1.137464946284034856e-01
1.137463887303379606e-01
1.137462784792849652e-01
1.137461638755746379e-01
1.137460449195372009e-01
1.137459216115029592e-01
1.137457939518023015e-01
1.137456619407656300e-01
1.137455255787235275e-01
1.137453848660066741e-01
1.137452398029459438e-01
1.137450903898723220e-01
1.137449366271168771e-01
1.137447785150107749e-01
1.137446160538852502e-01
1.137444492440716493e-01
1.137442780859014430e-01
1.137441025797061300e-01
1.137439227258173341e-01
1.137437385245668037e-01
1.137435499762864261e-01
1.137433570813082689e-01
1.137431598399645111e-01
1.137429582525874561e-01
1.137427523195094770e-01
1.137425420410630578e-01
1.137423274175807519e-01
1.137421084493951268e-01
1.137418851368388745e-01
1.137416574802447011e-01
1.137414254799453683e-01
1.137411891362736932e-01
1.137409484495624928e-01
1.137407034201447092e-01
1.137404540483534510e-01
1.137402003345218682e-01
1.137399422789832359e-01
1.137396798820708432e-01
1.137394131441180900e-01
1.137391420654584318e-01
1.137388666464253795e-01
1.137385868873525968e-01
1.137383027885738446e-01
1.137380143504228974e-01
1.137377215732335856e-01
1.137374244573398363e-01
1.137371230030756325e-01
1.137368172107749986e-01
1.137365070807720563e-01
1.137361926134009826e-01
1.137358738089959548e-01
1.137355506678912470e-01
1.137352231904211614e-01
1.137348913769200415e-01
1.137345552277223421e-01
1.137342147431625733e-01
1.137338699235752315e-01
1.137335207692949518e-01
1.137331672806563554e-01
1.137328094579942162e-01
1.137324473016433912e-01
1.137320808119387794e-01
1.137317099892153766e-01
1.137313348338082064e-01
1.137309553460522232e-01
1.137305715262824785e-01
1.137301833748340513e-01
1.137297908920421041e-01
1.137293940782419382e-01
1.137289929337689381e-01
1.137285874589585716e-01
1.137281776541463479e-01
1.137277635196678738e-01
1.137273450558587695e-01
1.137269222630546694e-01
1.137264951415912495e-01
1.137260636918042689e-01
1.137256279140295562e-01
1.137251878086029122e-01
1.137247433758602072e-01
1.137242946161373947e-01
1.137238415297705113e-01
1.137233841170956078e-01
1.137229223784487625e-01
1.137224563141661787e-01
1.137219859245840736e-01
1.137215112100387338e-01
1.137210321708665151e-01
1.137205488074039123e-01
1.137200611199874339e-01
1.137195691089535887e-01
1.137190727746389546e-01
1.137185721173801928e-01
1.137180671375140339e-01
1.137175578353772087e-01
1.137170442113064478e-01
1.137165262656384956e-01
1.137160039987101107e-01
1.137154774108581068e-01
1.137149465024192563e-01
1.137144112737304424e-01
1.137138717251285902e-01
1.137133278569506939e-01
1.137127796695338172e-01
1.137122271632149823e-01
1.137116703383312249e-01
1.137111091952196784e-01
1.137105437342174619e-01
1.137099739556616945e-01
1.137093998598894956e-01
1.137088214472379843e-01
1.137082387180443910e-01
1.137076516726459458e-01
1.137070603113799205e-01
1.137064646345836844e-01
1.137058646425946201e-01
1.137052603357500552e-01
1.137046517143873031e-01
1.137040387788436774e-01
1.137034215294564776e-01
1.137027999665631006e-01
1.137021740905010403e-01
1.137015439016077212e-01
1.137009094002205678e-01
1.137002705866770463e-01
1.136996274613146646e-01
1.136989800244709303e-01
1.136983282764833930e-01
1.136976722176895188e-01
1.136970118484267600e-01
1.136963471690325689e-01
1.136956781798444949e-01
1.136950048812001152e-01
1.136943272734370486e-01
1.136936453568929556e-01
1.136929591319055799e-01
1.136922685988126513e-01
1.136915737579519414e-01
1.136908746096612494e-01
1.136901711542783605e-01
1.136894633921410602e-01
1.136887513235871061e-01
1.136880349489542696e-01
1.136873142685803639e-01
1.136865892828032437e-01
1.136858599919607915e-01
1.136851263963909175e-01
1.136843884964315737e-01
1.136836462924206981e-01
1.136828997846961870e-01
1.136821489735958951e-01
1.136813938594576079e-01
1.136806344426190968e-01
1.136798707234181055e-01
1.136791027021922945e-01
1.136783303792792410e-01
1.136775537550164944e-01
1.136767728297416874e-01
1.136759876037924805e-01
1.136751980775065063e-01
1.136744042512214253e-01
1.136736061252748703e-01
1.136728037000045016e-01
1.136719969757479382e-01
1.136711859528427571e-01
1.136703706316265772e-01
1.136695510124370034e-01
1.136687270956116547e-01
1.136678988814881636e-01
1.136670663704041351e-01
1.136662295626971325e-01
1.136653884587046776e-01
1.136645430587643335e-01
1.136636933632135804e-01
1.136628393723898428e-01
1.136619810866305175e-01
1.136611185062729873e-01
1.136602516316545936e-01
1.136593804631126359e-01
1.136585050009844416e-01
1.136576252456073521e-01
1.136567411973186670e-01
1.136558528564557136e-01
1.136549602233557776e-01
1.136540632983561033e-01
1.136531620817938515e-01
1.136522565740061969e-01
1.136513467753302725e-01
1.136504326861031838e-01
1.136495143066619945e-01
1.136485916373438376e-01
1.136476646784858741e-01
1.136467334304252785e-01
1.136457978934992397e-01
1.136448580680449183e-01
1.136439139543994337e-01
1.136429655528997940e-01
1.136420128638829657e-01
1.136410558876858878e-01
1.136400946246454713e-01
1.136391290750986410e-01
1.136381592393822110e-01
1.136371851178329534e-01
1.136362067107876683e-01
1.136352240185830725e-01
1.136342370415558967e-01
1.136332457800429269e-01
1.136322502343809077e-01
1.136312504049065003e-01
1.136302462919563799e-01
1.136292378958671662e-01
1.136282252169754925e-01
1.136272082556179092e-01
1.136261870121309803e-01
1.136251614868511728e-01
1.136241316801150369e-01
1.136230975922591369e-01
1.136220592236199256e-01
1.136210165745338146e-01
1.136199696453372432e-01
1.136189184363666643e-01
1.136178629479585311e-01
1.136168031804493106e-01
1.136157391341754974e-01
1.136146708094735447e-01
1.136135982066797945e-01
1.136125213261305472e-01
1.136114401681621866e-01
1.136103547331111102e-01
1.136092650213137295e-01
1.136081710331063171e-01
1.136070727688251597e-01
1.136059702288065437e-01
1.136048634133867141e-01
1.136037523229019436e-01
1.136026369576885187e-01
1.136015173180827814e-01
1.136003934044210878e-01
1.135992652170397105e-01
1.135981327562748250e-01
1.135969960224625652e-01
1.135958550159389818e-01
1.135947097370400838e-01
1.135935601861018801e-01
1.135924063634602826e-01
1.135912482694511200e-01
1.135900859044101929e-01
1.135889192686731497e-01
1.135877483625756384e-01
1.135865731864533351e-01
1.135853937406418879e-01
1.135842100254768894e-01
1.135830220412938907e-01
1.135818297884284150e-01
1.135806332672159580e-01
1.135794324779920289e-01
1.135782274210920401e-01
1.135770180968514176e-01
1.135758045056056015e-01
1.135745866476900040e-01
1.135733645234400513e-01
1.135721381331911417e-01
1.135709074772786459e-01
1.135696725560377679e-01
1.135684333698036841e-01
1.135671899189115430e-01
1.135659422036963961e-01
1.135646902244932671e-01
1.135634339816371380e-01
1.135621734754630047e-01
1.135609087063057798e-01
1.135596396745004039e-01
1.135583663803817894e-01
1.135570888242848769e-01
1.135558070065446762e-01
1.135545209274962108e-01
1.135532305874744213e-01
1.135519359868142203e-01
1.135506371258504926e-01
1.135493340049181510e-01
1.135480266243520803e-01
1.135467149844870682e-01
1.135453990856579165e-01
1.135440789281994683e-01
1.135427545124465532e-01
1.135414258387340697e-01
1.135400929073968751e-01
1.135387557187698127e-01
1.135374142731877117e-01
1.135360685709853046e-01
1.135347186124972818e-01
1.135333643980582646e-01
1.135320059280029159e-01
1.135306432026659262e-01
1.135292762223819030e-01
1.135279049874853702e-01
1.135265294983107687e-01
1.135251497551925670e-01
1.135237657584652199e-01
1.135223775084632236e-01
1.135209850055210468e-01
1.135195882499731301e-01
1.135181872421539562e-01
1.135167819823979934e-01
1.135153724710396828e-01
1.135139587084135065e-01
1.135125406948539195e-01
1.135111184306954041e-01
1.135096919162723872e-01
1.135082611519193374e-01
1.135068261379706955e-01
1.135053868747608191e-01
1.135039433626240518e-01
1.135024956018946818e-01
1.135010435929069833e-01
1.134995873359951613e-01
1.134981268314934205e-01
1.134966620797359937e-01
1.134951930810570858e-01
1.134937198357909016e-01
1.134922423442716322e-01
1.134907606068333991e-01
1.134892746238103239e-01
1.134877843955365284e-01
1.134862899223462313e-01
1.134847912045736235e-01
1.134832882425528405e-01
1.134817810366180318e-01
1.134802695871034439e-01
1.134787538943433094e-01
1.134772339586719164e-01
1.134757097804235393e-01
1.134741813599324939e-01
1.134726486975331655e-01
1.134711117935598979e-01
1.134695706483469652e-01
1.134680252622285723e-01
1.134664756355388826e-01
1.134649217686120592e-01
1.134633636617823627e-01
1.134618013153839561e-01
1.134602347297509611e-01
1.134586639052174994e-01
1.134570888421177481e-01
1.134555095407858843e-01
1.134539260015561407e-01
1.134523382247627499e-01
1.134507462107399028e-01
1.134491499598217629e-01
1.134475494723424377e-01
1.134459447486360906e-01
1.134443357890368015e-01
1.134427225938786504e-01
1.134411051634956619e-01
1.134394834982219435e-01
1.134378575983916726e-01
1.134362274643390955e-01
1.134345930963984728e-01
1.134329544949041202e-01
1.134313116601903815e-01
1.134296645925915725e-01
1.134280132924420093e-01
1.134263577600760353e-01
1.134246979958280360e-01
1.134230340000323550e-01
1.134213657730233915e-01
1.134196933151356279e-01
1.134180166267035883e-01
1.134163357080618106e-01
1.134146505595449023e-01
1.134129611814874428e-01
1.134112675742240534e-01
1.134095697380893969e-01
1.134078676734182056e-01
1.134061613805452812e-01
1.134044508598055223e-01
1.134027361115339250e-01
1.134010171360654573e-01
1.133992939337350597e-01
1.133975665048777004e-01
1.133958348498283891e-01
1.133940989689222328e-01
1.133923588624944218e-01
1.133906145308801877e-01
1.133888659744148042e-01
1.133871131934335863e-01
1.133853561882719602e-01
1.133835949592653936e-01
1.133818295067494375e-01
1.133800598310597402e-01
1.133782859325320608e-01
1.133765078115023112e-01
1.133747254683064448e-01
1.133729389032804152e-01
1.133711481167602869e-01
1.133693531090821660e-01
1.133675538805822003e-01
1.133657504315966069e-01
1.133639427624616031e-01
1.133621308735133920e-01
1.133603147650882326e-01
1.133584944375224945e-01
1.133566698911526172e-01
1.133548411263150535e-01
1.133530081433463677e-01
1.133511709425832348e-01
1.133493295243623300e-01
1.133474838890203840e-01
1.133456340368941967e-01
1.133437799683205821e-01
1.133419216836364096e-01
1.133400591831785764e-01
1.133381924672841184e-01
1.133363215362901272e-01
1.133344463905337635e-01
1.133325670303523131e-01
1.133306834560831866e-01
1.133287956680638225e-01
1.133269036666317980e-01
1.133250074521247180e-01
1.133231070248802569e-01
1.133212023852362693e-01
1.133192935335307489e-01
1.133173804701017723e-01
1.133154631952874442e-01
1.133135417094258968e-01
1.133116160128552902e-01
1.133096861059138122e-01
1.133077519889396922e-01
1.133058136622712014e-01
1.133038711262467496e-01
1.133019243812047189e-01
1.132999734274835885e-01
1.132980182654218931e-01
1.132960588953581954e-01
1.132940953176311411e-01
1.132921275325794869e-01
1.132901555405420868e-01
1.132881793418578920e-01
1.132861989368659644e-01
1.132842143259054773e-01
1.132822255093157010e-01
1.132802324874360583e-01
1.132782352606060833e-01
1.132762338291654625e-01
1.132742281934539935e-01
1.132722183538115990e-01
1.132702043105783124e-01
1.132681860640942784e-01
1.132661636146997525e-01
1.132641369627351707e-01
1.132621061085411496e-01
1.132600710524584164e-01
1.132580317948277543e-01
1.132559883359900155e-01
1.132539406762862327e-01
1.132518888160574944e-01
1.132498327556450274e-01
1.132477724953901421e-01
1.132457080356342599e-01
1.132436393767189409e-01
1.132415665189858422e-01
1.132394894627766907e-01
1.132374082084332823e-01
1.132353227562975517e-01
1.132332331067116143e-01
1.132311392600177102e-01
1.132290412165581767e-01
1.132269389766754480e-01
1.132248325407120421e-01
1.132227219090106846e-01
1.132206070819142540e-01
1.132184880597657123e-01
1.132163648429081182e-01
1.132142374316846278e-01
1.132121058264384805e-01
1.132099700275130683e-01
1.132078300352520051e-01
1.132056858499990021e-01
1.132035374720979787e-01
1.132013849018930207e-01
1.131992281397284222e-01
1.131970671859485883e-01
1.131949020408981044e-01
1.131927327049217086e-01
1.131905591783643611e-01
1.131883814615711470e-01
1.131861995548873040e-01
1.131840134586582919e-01
1.131818231732297647e-01
1.131796286989475014e-01
1.131774300361575031e-01
1.131752271852059927e-01
1.131730201464393737e-01
1.131708089202041884e-01
1.131685935068471593e-01
1.131663739067151342e-01
1.131641501201550992e-01
1.131619221475142351e-01
1.131596899891399166e-01
1.131574536453797547e-01
1.131552131165815406e-01
1.131529684030932598e-01
1.131507195052630921e-01
1.131484664234394255e-01
1.131462091579708562e-01
1.131439477092061746e-01
1.131416820774944210e-01
1.131394122631848437e-01
1.131371382666270103e-01
1.131348600881707384e-01
1.131325777281660533e-01
1.131302911869632027e-01
1.131280004649126564e-01
1.131257055623651475e-01
1.131234064796716177e-01
1.131211032171832165e-01
1.131187957752513573e-01
1.131164841542276756e-01
1.131141683544640286e-01
1.131118483763125654e-01
1.131095242201256013e-01
1.131071958862557708e-01
1.131048633750560001e-01
1.131025266868793955e-01
1.131001858220793410e-01
1.130978407810094982e-01
1.130954915640238201e-01
1.130931381714765510e-01
1.130907806037221575e-01
1.130884188611152863e-01
1.130860529440108342e-01
1.130836828527639476e-01
1.130813085877300089e-01
1.130789301492646781e-01
1.130765475377238510e-01
1.130741607534636317e-01
1.130717697968403185e-01
1.130693746682105011e-01
1.130669753679309081e-01
1.130645718963585178e-01
1.130621642538505583e-01
1.130597524407645632e-01
1.130573364574582740e-01
1.130549163042897376e-01
1.130524919816172369e-01
1.130500634897992629e-01
1.130476308291945842e-01
1.130451940001622885e-01
1.130427530030617689e-01
1.130403078382526266e-01
1.130378585060947266e-01
1.130354050069482391e-01
1.130329473411735564e-01
1.130304855091312510e-01
1.130280195111821456e-01
1.130255493476873124e-01
1.130230750190080596e-01
1.130205965255060285e-01
1.130181138675431796e-01
1.130156270454817508e-01
1.130131360596842577e-01
1.130106409105134935e-01
1.130081415983325288e-01
1.130056381235047674e-01
1.130031304863939462e-01
1.130006186873640933e-01
1.129981027267795285e-01
1.129955826050049600e-01
1.129930583224053736e-01
1.129905298793460883e-01
1.129879972761927143e-01
1.129854605133111117e-01
1.129829195910673767e-01
1.129803745098279383e-01
1.129778252699595725e-01
1.129752718718293608e-01
1.129727143158047453e-01
1.129701526022534597e-01
1.129675867315435150e-01
1.129650167040432834e-01
1.129624425201214560e-01
1.129598641801470710e-01
1.129572816844895133e-01
1.129546950335185845e-01
1.129521042276044468e-01
1.129495092671176232e-01
1.129469101524289421e-01
1.129443068839094816e-01
1.129416994619306253e-01
1.129390878868640757e-01
1.129364721590817994e-01
1.129338522789560539e-01
1.129312282468594580e-01
1.129286000631649078e-01
1.129259677282456187e-01
1.129233312424751112e-01
1.129206906062271559e-01
1.129180458198757869e-01
1.129153968837953714e-01
1.129127437983604848e-01
1.129100865639460077e-01
1.129074251809270846e-01
1.129047596496792483e-01
1.129020899705783093e-01
1.128994161440003974e-01
1.128967381703219613e-01
1.128940560499197276e-01
1.128913697831707419e-01
1.128886793704523828e-01
1.128859848121422649e-01
1.128832861086183775e-01
1.128805832602589737e-01
1.128778762674426395e-01
1.128751651305483494e-01
1.128724498499555223e-01
1.128697304260439099e-01
1.128670068591935555e-01
1.128642791497847936e-01
1.128615472981982226e-01
1.128588113048148295e-01
1.128560711700159480e-01
1.128533268941831896e-01
1.128505784776984572e-01
1.128478259209439449e-01
1.128450692243021941e-01
1.128423083881561484e-01
1.128395434128891400e-01
1.128367742988848482e-01
1.128340010465273546e-01
1.128312236562010740e-01
1.128284421282907124e-01
1.128256564631813924e-01
1.128228666612585418e-01
1.128200727229078243e-01
1.128172746485151812e-01
1.128144724384668035e-01
1.128116660931492432e-01
1.128088556129493991e-01
1.128060409982545309e-01
1.128032222494521897e-01
1.128003993669302735e-01
1.127975723510770967e-01
1.127947412022812929e-01
1.127919059209318009e-01
1.127890665074179483e-01
1.127862229621294787e-01
1.127833752854565108e-01
1.127805234777895238e-01
1.127776675395194134e-01
1.127748074710374360e-01
1.127719432727352089e-01
1.127690749450047658e-01
1.127662024882385150e-01
1.127633259028292950e-01
1.127604451891703607e-01
1.127575603476553279e-01
1.127546713786781174e-01
1.127517782826330112e-01
1.127488810599146657e-01
1.127459797109180567e-01
1.127430742360385763e-01
1.127401646356720466e-01
1.127372509102147757e-01
1.127343330600635019e-01
1.127314110856153379e-01
1.127284849872677713e-01
1.127255547654186785e-01
1.127226204204663518e-01
1.127196819528095001e-01
1.127167393628472208e-01
1.127137926509789861e-01
1.127108418176046983e-01
1.127078868631246344e-01
1.127049277879395017e-01
1.127019645924503405e-01
1.126989972770586212e-01
1.126960258421661337e-01
1.126930502881751117e-01
1.126900706154881221e-01
1.126870868245081619e-01
1.126840989156386585e-01
1.126811068892834278e-01
1.126781107458466741e-01
1.126751104857329905e-01
1.126721061093474557e-01
1.126690976170955233e-01
1.126660850093830352e-01
1.126630682866162220e-01
1.126600474492017029e-01
1.126570224975464857e-01
1.126539934320579667e-01
1.126509602531438753e-01
1.126479229612123295e-01
1.126448815566718359e-01
1.126418360399312896e-01
1.126387864113999882e-01
1.126357326714875207e-01
1.126326748206039063e-01
1.126296128591595946e-01
1.126265467875654236e-01
1.126234766062326337e-01
1.126204023155728123e-01
1.126173239159979356e-01
1.126142414079203680e-01
1.126111547917528627e-01
1.126080640679084643e-01
1.126049692368006755e-01
1.126018702988433873e-01
1.125987672544509349e-01
1.125956601040380423e-01
1.125925488480197245e-01
1.125894334868114133e-01
1.125863140208288732e-01
1.125831904504882436e-01
1.125800627762060802e-01
1.125769309983993549e-01
1.125737951174854701e-01
1.125706551338821609e-01
1.125675110480075791e-01
1.125643628602802232e-01
1.125612105711189803e-01
1.125580541809430846e-01
1.125548936901722419e-01
1.125517290992265607e-01
1.125485604085265379e-01
1.125453876184930591e-01
1.125422107295474677e-01
1.125390297421115793e-01
1.125358446566075560e-01
1.125326554734580181e-01
1.125294621930860023e-01
1.125262648159150586e-01
1.125230633423691812e-01
1.125198577728727112e-01
1.125166481078503922e-01
1.125134343477274257e-01
1.125102164929294296e-01
1.125069945438823688e-01
1.125037685010126659e-01
1.125005383647472573e-01
1.124973041355135928e-01
1.124940658137395383e-01
1.124908233998533069e-01
1.124875768942835697e-01
1.124843262974593583e-01
1.124810716098101071e-01
1.124778128317656389e-01
1.124745499637562346e-01
1.124712830062126606e-01
1.124680119595660999e-01
1.124647368242481793e-01
1.124614576006909422e-01
1.124581742893268482e-01
1.124548868905887455e-01
1.124515954049098432e-01
1.124482998327238220e-01
1.124450001744647654e-01
1.124416964305671174e-01
1.124383886014657247e-01
1.124350766875958918e-01
1.124317606893933952e-01
1.124284406072943721e-01
1.124251164417354176e-01
1.124217881931535851e-01
1.124184558619863439e-01
1.124151194486716215e-01
1.124117789536476925e-01
1.124084343773532474e-01
1.124050857202275044e-01
1.124017329827099870e-01
1.123983761652406765e-01
1.123950152682600123e-01
1.123916502922088501e-01
1.123882812375284063e-01
1.123849081046603693e-01
1.123815308940468854e-01
1.123781496061305035e-01
1.123747642413542441e-01
1.123713748001615859e-01
1.123679812829964653e-01
1.123645836903031797e-01
1.123611820225264429e-01
1.123577762801114405e-01
1.123543664635037742e-01
1.123509525731494069e-01
1.123475346094947591e-01
1.123441125729867512e-01
1.123406864640726643e-01
1.123372562832002652e-01
1.123338220308177787e-01
1.123303837073737765e-01
1.123269413133173023e-01
1.123234948490978713e-01
1.123200443151654571e-01
1.123165897119704354e-01
1.123131310399635985e-01
1.123096682995962103e-01
1.123062014913200068e-01
1.123027306155872374e-01
1.122992556728505537e-01
1.122957766635630239e-01
1.122922935881781742e-01
1.122888064471498776e-01
1.122853152409323679e-01
1.122818199699802955e-01
1.122783206347486712e-01
1.122748172356929641e-01
1.122713097732691567e-01
1.122677982479336478e-01
1.122642826601432386e-01
1.122607630103551329e-01
1.122572392990270618e-01
1.122537115266171587e-01
1.122501796935840152e-01
1.122466438003865835e-01
1.122431038474841769e-01
1.122395598353366358e-01
1.122360117644041477e-01
1.122324596351472331e-01
1.122289034480268705e-01
1.122253432035045101e-01
1.122217789020419632e-01
1.122182105441015126e-01
1.122146381301458440e-01
1.122110616606380867e-01
1.122074811360418284e-01
1.122038965568210728e-01
1.122003079234401707e-01
1.121967152363638753e-01
1.121931184960573008e-01
1.121895177029859636e-01
1.121859128576157688e-01
1.121823039604130240e-01
1.121786910118445085e-01
1.121750740123774043e-01
1.121714529624792400e-01
1.121678278626179609e-01
1.121641987132619145e-01
1.121605655148798369e-01
1.121569282679408669e-01
1.121532869729145454e-01
1.121496416302709132e-01
1.121459922404804271e-01
1.121423388040139052e-01
1.121386813213426092e-01
1.121350197929382592e-01
1.121313542192729773e-01
1.121276846008193856e-01
1.121240109380505501e-01
1.121203332314400503e-01
1.121166514814618820e-01
1.121129656885904990e-01
1.121092758533007994e-01
1.121055819760680694e-01
1.121018840573679981e-01
1.120981820976766768e-01
1.120944760974706411e-01
1.120907660572267733e-01
1.120870519774223584e-01
1.120833338585350697e-01
1.120796117010429138e-01
1.120758855054243414e-01
1.120721552721581499e-01
1.120684210017234284e-01
1.120646826945997099e-01
1.120609403512669855e-01
1.120571939722055793e-01
1.120534435578962457e-01
1.120496891088200858e-01
1.120459306254587145e-01
1.120421681082942322e-01
1.120384015578091697e-01
1.120346309744864599e-01
1.120308563588094386e-01
1.120270777112619409e-01
1.120232950323281351e-01
1.120195083224925225e-01
1.120157175822400486e-01
1.120119228120560334e-01
1.120081240124262273e-01
1.120043211838368385e-01
1.120005143267745196e-01
1.119967034417262974e-01
1.119928885291796433e-01
1.119890695896224725e-01
1.119852466235431443e-01
1.119814196314303928e-01
1.119775886137733822e-01
1.119737535710617210e-01
1.119699145037853505e-01
1.119660714124346423e-01
1.119622242975003429e-01
1.119583731594736425e-01
1.119545179988462175e-01
1.119506588161101185e-01
1.119467956117578405e-01
1.119429283862822533e-01
1.119390571401766427e-01
1.119351818739347248e-01
1.119313025880506601e-01
1.119274192830190529e-01
1.119235319593348266e-01
1.119196406174932656e-01
1.119157452579901402e-01
1.119118458813216505e-01
1.119079424879844131e-01
1.119040350784754750e-01
1.119001236532922577e-01
1.118962082129326546e-01
1.118922887578949338e-01
1.118883652886776825e-01
1.118844378057799044e-01
1.118805063097009778e-01
1.118765708009406556e-01
1.118726312799990519e-01
1.118686877473766966e-01
1.118647402035744809e-01
1.118607886490936704e-01
1.118568330844359054e-01
1.118528735101032845e-01
1.118489099265982528e-01
1.118449423344236859e-01
1.118409707340828341e-01
1.118369951260793083e-01
1.118330155109170804e-01
1.118290318891004831e-01
1.118250442611341544e-01
1.118210526275231487e-01
1.118170569887728810e-01
1.118130573453891691e-01
1.118090536978782329e-01
1.118050460467466534e-01
1.118010343925014277e-01
1.117970187356499140e-01
1.117929990766997200e-01
1.117889754161588700e-01
1.117849477545357906e-01
1.117809160923393108e-01
1.117768804300786761e-01
1.117728407682634789e-01
1.117687971074037695e-01
1.117647494480099590e-01
1.117606977905928611e-01
1.117566421356636364e-01
1.117525824837338616e-01
1.117485188353154607e-01
1.117444511909208016e-01
1.117403795510625436e-01
1.117363039162537625e-01
1.117322242870078808e-01
1.117281406638386682e-01
1.117240530472602550e-01
1.117199614377871603e-01
1.117158658359342777e-01
1.117117662422168617e-01
1.117076626571505277e-01
1.117035550812512240e-01
1.116994435150351905e-01
1.116953279590191250e-01
1.116912084137200584e-01
1.116870848796554100e-01
1.116829573573429324e-01
1.116788258473007805e-01
1.116746903500474564e-01
1.116705508661019058e-01
1.116664073959834080e-01
1.116622599402116861e-01
1.116581084993068657e-01
1.116539530737894748e-01
1.116497936641804301e-01
1.116456302710010368e-01
1.116414628947728777e-01
1.116372915360179241e-01
1.116331161952584805e-01
1.116289368730172954e-01
1.116247535698175058e-01
1.116205662861825820e-01
1.116163750226363272e-01
1.116121797797029330e-01
1.116079805579069800e-01
1.116037773577734371e-01
1.115995701798277034e-01
1.115953590245954419e-01
1.115911438926025928e-01
1.115869247843754852e-01
1.115827017004407812e-01
1.115784746413254619e-01
1.115742436075568972e-01
1.115700085996627483e-01
1.115657696181710373e-01
1.115615266636100916e-01
1.115572797365085717e-01
1.115530288373955264e-01
1.115487739668002826e-01
1.115445151252524858e-01
1.115402523132821982e-01
1.115359855314198012e-01
1.115317147801960090e-01
1.115274400601418553e-01
1.115231613717886927e-01
1.115188787156682071e-01
1.115145920923124034e-01
1.115103015022535921e-01
1.115060069460244024e-01
1.115017084241578388e-01
1.114974059371872661e-01
1.114930994856463686e-01
1.114887890700692746e-01
1.114844746909904871e-01
1.114801563489449254e-01
1.114758340444678697e-01
1.114715077780949609e-01
1.114671775503622148e-01
1.114628433618059244e-01
1.114585052129626469e-01
1.114541631043692305e-01
1.114498170365629398e-01
1.114454670100813588e-01
1.114411130254624877e-01
1.114367550832445902e-01
1.114323931839664023e-01
1.114280273281670758e-01
1.114236575163860266e-01
1.114192837491630728e-01
1.114149060270383934e-01
1.114105243505525422e-01
1.114061387202464337e-01
1.114017491366613433e-01
1.113973556003389070e-01
1.113929581118211221e-01
1.113885566716502351e-01
1.113841512803687983e-01
1.113797419385197246e-01
1.113753286466462322e-01
1.113709114052919003e-01
1.113664902150006547e-01
1.113620650763167685e-01
1.113576359897848894e-01
1.113532029559499703e-01
1.113487659753573528e-01
1.113443250485526698e-01
1.113398801760818735e-01
1.113354313584911659e-01
1.113309785963270820e-01
1.113265218901364623e-01
1.113220612404664522e-01
1.113175966478646417e-01
1.113131281128789812e-01
1.113086556360577961e-01
1.113041792179498141e-01
1.112996988591040959e-01
1.112952145600699799e-01
1.112907263213971515e-01
1.112862341436355457e-01
1.112817380273354029e-01
1.112772379730472549e-01
1.112727339813219668e-01
1.112682260527108058e-01
1.112637141877653446e-01
1.112591983870375029e-01
1.112546786510794222e-01
1.112501549804434803e-01
1.112456273756823460e-01
1.112410958373489245e-01
1.112365603659964119e-01
1.112320209621783379e-01
1.112274776264485787e-01
1.112229303593613577e-01
1.112183791614712314e-01
1.112138240333331446e-01
1.112092649755023754e-01
1.112047019885345489e-01
1.112001350729856508e-01
1.111955642294120000e-01
1.111909894583702346e-01
1.111864107604172841e-01
1.111818281361104249e-01
1.111772415860072666e-01
1.111726511106657517e-01
1.111680567106441558e-01
1.111634583865010878e-01
1.111588561387954338e-01
1.111542499680863716e-01
1.111496398749333148e-01
1.111450258598959406e-01
1.111404079235341902e-01
1.111357860664082819e-01
1.111311602890787814e-01
1.111265305921066010e-01
1.111218969760530279e-01
1.111172594414796683e-01
1.111126179889484616e-01
1.111079726190217359e-01
1.111033233322622632e-01
1.110986701292331486e-01
1.110940130104978718e-01
1.110893519766201765e-01
1.110846870281641391e-01
1.110800181656941693e-01
1.110753453897749543e-01
1.110706687009715560e-01
1.110659880998493554e-01
1.110613035869739557e-01
1.110566151629113485e-01
1.110519228282277476e-01
1.110472265834897415e-01
1.110425264292641684e-01
1.110378223661181302e-01
1.110331143946189508e-01
1.110284025153341764e-01
1.110236867288316720e-01
1.110189670356796082e-01
1.110142434364464747e-01
1.110095159317010388e-01
1.110047845220123452e-01
1.110000492079496470e-01
1.109953099900825024e-01
1.109905668689807889e-01
1.109858198452147587e-01
1.109810689193549138e-01
1.109763140919720198e-01
1.109715553636371754e-01
1.109667927349217431e-01
1.109620262063972795e-01
1.109572557786356051e-01
1.109524814522087482e-01
1.109477032276890429e-01
1.109429211056490311e-01
1.109381350866615185e-01
1.109333451712996715e-01
1.109285513601369760e-01
1.109237536537472368e-01
1.109189520527045641e-01
1.109141465575833735e-01
1.109093371689583857e-01
1.109045238874045852e-01
1.108997067134972203e-01
1.108948856478118999e-01
1.108900606909244829e-01
1.108852318434111889e-01
1.108803991058485011e-01
1.108755624788131666e-01
1.108707219628821683e-01
1.108658775586327805e-01
1.108610292666425967e-01
1.108561770874894742e-01
1.108513210217515199e-01
1.108464610700070907e-01
1.108415972328347793e-01
1.108367295108134837e-01
1.108318579045224211e-01
1.108269824145411558e-01
1.108221030414495573e-01
1.108172197858277030e-01
1.108123326482559068e-01
1.108074416293147180e-01
1.108025467295849359e-01
1.107976479496476097e-01
1.107927452900840937e-01
1.107878387514759921e-01
1.107829283344052146e-01
1.107780140394539620e-01
1.107730958672046712e-01
1.107681738182400288e-01
1.107632478931430131e-01
1.107583180924969490e-01
1.107533844168854809e-01
1.107484468668925581e-01
1.107435054431024080e-01
1.107385601460995489e-01
1.107336109764688048e-01
1.107286579347951938e-01
1.107237010216640255e-01
1.107187402376608870e-01
1.107137755833716569e-01
1.107088070593824636e-01
1.107038346662796297e-01
1.106988584046497692e-01
1.106938782750797740e-01
1.106888942781567853e-01
1.106839064144681944e-01
1.106789146846016147e-01
1.106739190891448954e-01
1.106689196286860660e-01
1.106639163038133228e-01
1.106589091151152088e-01
1.106538980631804614e-01
1.106488831485981095e-01
1.106438643719574039e-01
1.106388417338478730e-01
1.106338152348593368e-01
1.106287848755819203e-01
1.106237506566060957e-01
1.106187125785226683e-01
1.106136706419227206e-01
1.106086248473976685e-01
1.106035751955392193e-01
1.105985216869393856e-01
1.105934643221904573e-01
1.105884031018849883e-01
1.105833380266157684e-01
1.105782690969758231e-01
1.105731963135584139e-01
1.105681196769570385e-01
1.105630391877654023e-01
1.105579548465774331e-01
1.105528666539873084e-01
1.105477746105894832e-01
1.105426787169785652e-01
1.105375789737494535e-01
1.105324753814973249e-01
1.105273679408175641e-01
1.105222566523059030e-01
1.105171415165583093e-01
1.105120225341710838e-01
1.105068997057408603e-01
1.105017730318644809e-01
1.104966425131390512e-01
1.104915081501619684e-01
1.104863699435308655e-01
1.104812278938435977e-01
1.104760820016982420e-01
1.104709322676931393e-01
1.104657786924268942e-01
1.104606212764984025e-01
1.104554600205068376e-01
1.104502949250516369e-01
1.104451259907325150e-01
1.104399532181493948e-01
1.104347766079024212e-01
1.104295961605920307e-01
1.104244118768188676e-01
1.104192237571837848e-01
1.104140318022879125e-01
1.104088360127325891e-01
1.104036363891193612e-01
1.103984329320499558e-01
1.103932256421263775e-01
1.103880145199508250e-01
1.103827995661258166e-01
1.103775807812540366e-01
1.103723581659384473e-01
1.103671317207822189e-01
1.103619014463888270e-01
1.103566673433620804e-01
1.103514294123060235e-01
1.103461876538248954e-01
1.103409420685231290e-01
1.103356926570053798e-01
1.103304394198766220e-01
1.103251823577420937e-01
1.103199214712072551e-01
1.103146567608778300e-01
1.103093882273597920e-01
1.103041158712593783e-01
1.102988396931831039e-01
1.102935596937377472e-01
1.102882758735302393e-01
1.102829882331678307e-01
1.102776967732580216e-01
1.102724014944085201e-01
1.102671023972272429e-01
1.102617994823223702e-01
1.102564927503023456e-01
1.102511822017759185e-01
1.102458678373520462e-01
1.102405496576398941e-01
1.102352276632488776e-01
1.102299018547885645e-01
1.102245722328688005e-01
1.102192387980996946e-01
1.102139015510915920e-01
1.102085604924550322e-01
1.102032156228007626e-01
1.101978669427398361e-01
1.101925144528835138e-01
1.101871581538433204e-01
1.101817980462310304e-01
1.101764341306587236e-01
1.101710664077386881e-01
1.101656948780835310e-01
1.101603195423060538e-01
1.101549404010192523e-01
1.101495574548364276e-01
1.101441707043711304e-01
1.101387801502371616e-01
1.101333857930485854e-01
1.101279876334197300e-01
1.101225856719652146e-01
1.101171799092998949e-01
1.101117703460387787e-01
1.101063569827970268e-01
1.101009398201899941e-01
1.100955188588332301e-01
1.100900940993424781e-01
1.100846655423336762e-01
1.100792331884230674e-01
1.100737970382270892e-01
1.100683570923624705e-01
1.100629133514461205e-01
1.100574658160952124e-01
1.100520144869271272e-01
1.100465593645594264e-01
1.100411004496099077e-01
1.100356377426965765e-01
1.100301712444376884e-01
1.100247009554517347e-01
1.100192268763574011e-01
1.100137490077735536e-01
1.100082673503193081e-01
1.100027819046139888e-01
1.099972926712771554e-01
1.099917996509284929e-01
1.099863028441878804e-01
1.099808022516754885e-01
1.099752978740117793e-01
1.099697897118174644e-01
1.099642777657134363e-01
1.099587620363208229e-01
1.099532425242610023e-01
1.099477192301556022e-01
1.099421921546264447e-01
1.099366612982956432e-01
1.099311266617854776e-01
1.099255882457185196e-01
1.099200460507175903e-01
1.099145000774057052e-01
1.099089503264061296e-01
1.099033967983424204e-01
1.098978394938383563e-01
1.098922784135178826e-01
1.098867135580051807e-01
1.098811449279245706e-01
1.098755725239005665e-01
1.098699963465578078e-01
1.098644163965212112e-01
1.098588326744159294e-01
1.098532451808673094e-01
1.098476539165008786e-01
1.098420588819423310e-01
1.098364600778175409e-01
1.098308575047526742e-01
1.098252511633740630e-01
1.098196410543082202e-01
1.098140271781818389e-01
1.098084095356217788e-01
1.098027881272551354e-01
1.097971629537091848e-01
1.097915340156114389e-01
1.097859013135895900e-01
1.097802648482715526e-01
1.097746246202854076e-01
1.097689806302594578e-01
1.097633328788221868e-01
1.097576813666022583e-01
1.097520260942284470e-01
1.097463670623297083e-01
1.097407042715352332e-01
1.097350377224744211e-01
1.097293674157768933e-01
1.097236933520725072e-01
1.097180155319913974e-01
1.097123339561638794e-01
1.097066486252204348e-01
1.097009595397918091e-01
1.096952667005089838e-01
1.096895701080031205e-01
1.096838697629055892e-01
1.096781656658479681e-01
1.096724578174620712e-01
1.096667462183799346e-01
1.096610308692338581e-01
1.096553117706563774e-01
1.096495889232801946e-01
1.096438623277381647e-01
1.096381319846633229e-01
1.096323978946888711e-01
1.096266600584482609e-01
1.096209184765752215e-01
1.096151731497037179e-01
1.096094240784679791e-01
1.096036712635024973e-01
1.095979147054419317e-01
1.095921544049210522e-01
1.095863903625747399e-01
1.095806225790380839e-01
1.095748510549463678e-01
1.095690757909350971e-01
1.095632967876399577e-01
1.095575140456967883e-01
1.095517275657415662e-01
1.095459373484104770e-01
1.095401433943399283e-01
1.095343457041666052e-01
1.095285442785274149e-01
1.095227391180594589e-01
1.095169302234000885e-01
1.095111175951868215e-01
1.095053012340573284e-01
1.094994811406494878e-01
1.094936573156013310e-01
1.094878297595510974e-01
1.094819984731371931e-01
1.094761634569981629e-01
1.094703247117727457e-01
1.094644822380998472e-01
1.094586360366185812e-01
1.094527861079682557e-01
1.094469324527883730e-01
1.094410750717185327e-01
1.094352139653985007e-01
1.094293491344681402e-01
1.094234805795674947e-01
1.094176083013366912e-01
1.094117323004160230e-01
1.094058525774459778e-01
1.093999691330672375e-01
1.093940819679206922e-01
1.093881910826473708e-01
1.093822964778884549e-01
1.093763981542853758e-01
1.093704961124797453e-01
1.093645903531133279e-01
1.093586808768279850e-01
1.093527676842657170e-01
1.093468507760686631e-01
1.093409301528791566e-01
1.093350058153396698e-01
1.093290777640929246e-01
1.093231459997817817e-01
1.093172105230492963e-01
1.093112713345387177e-01
1.093053284348934201e-01
1.092993818247570137e-01
1.092934315047732613e-01
1.092874774755861894e-01
1.092815197378400049e-01
1.092755582921789842e-01
1.092695931392475978e-01
1.092636242796904966e-01
1.092576517141525677e-01
1.092516754432787951e-01
1.092456954677142461e-01
1.092397117881040991e-01
1.092337244050936018e-01
1.092277333193281408e-01
1.092217385314533523e-01
1.092157400421151087e-01
1.092097378519594625e-01
1.092037319616326052e-01
1.091977223717809087e-01
1.091917090830509113e-01
1.091856920960893318e-01
1.091796714115431388e-01
1.091736470300594258e-01
1.091676189522853557e-01
1.091615871788682163e-01
1.091555517104554618e-01
1.091495125476946715e-01
1.091434696912335633e-01
1.091374231417200913e-01
1.091313728998022647e-01
1.091253189661282735e-01
1.091192613413464879e-01
1.091132000261054447e-01
1.091071350210538471e-01
1.091010663268405650e-01
1.090949939441145933e-01
1.090889178735251069e-01
1.090828381157213367e-01
1.090767546713526381e-01
1.090706675410685472e-01
1.090645767255186555e-01
1.090584822253527764e-01
1.090523840412209455e-01
1.090462821737733096e-01
1.090401766236602371e-01
1.090340673915322633e-01
1.090279544780400900e-01
1.090218378838345853e-01
1.090157176095668395e-01
1.090095936558880541e-01
1.090034660234496522e-01
1.089973347129031128e-01
1.089911997249000813e-01
1.089850610600923558e-01
1.089789187191319425e-01
1.089727727026709725e-01
1.089666230113616324e-01
1.089604696458562477e-01
1.089543126068072548e-01
1.089481518948672706e-01
1.089419875106890645e-01
1.089358194549254477e-01
1.089296477282293285e-01
1.089234723312537678e-01
1.089172932646519931e-01
1.089111105290772735e-01
1.089049241251829753e-01
1.088987340536225756e-01
1.088925403150497045e-01
1.088863429101181307e-01
1.088801418394817755e-01
1.088739371037947268e-01
1.088677287037112251e-01
1.088615166398856499e-01
1.088553009129725330e-01
1.088490815236265591e-01
1.088428584725024961e-01
1.088366317602552646e-01
1.088304013875399379e-01
1.088241673550116861e-01
1.088179296633257770e-01
1.088116883131376722e-01
1.088054433051029307e-01
1.087991946398772503e-01
1.087929423181164534e-01
1.087866863404765155e-01
1.087804267076135090e-01
1.087741634201836449e-01
1.087678964788432734e-01
1.087616258842488276e-01
1.087553516370568935e-01
1.087490737379242095e-01
1.087427921875075837e-01
1.087365069864639489e-01
1.087302181354503211e-01
1.087239256351237998e-01
1.087176294861416231e-01
1.087113296891612235e-01
1.087050262448400612e-01
1.086987191538356795e-01
1.086924084168057053e-01
1.086860940344079457e-01
1.086797760073003327e-01
1.086734543361409372e-01
1.086671290215878993e-01
1.086608000642994287e-01
1.086544674649339293e-01
1.086481312241499297e-01
1.086417913426060838e-01
1.086354478209610730e-01
1.086291006598735925e-01
1.086227498600024627e-01
1.086163954220066424e-01
1.086100373465451602e-01
1.086036756342772108e-01
1.085973102858621142e-01
1.085909413019592734e-01
1.085845686832282025e-01
1.085781924303285823e-01
1.085718125439201764e-01
1.085654290246628045e-01
1.085590418732163415e-01
1.085526510902406899e-01
1.085462566763959330e-01
1.085398586323422648e-01
1.085334569587399350e-01
1.085270516562493043e-01
1.085206427255308442e-01
1.085142301672451376e-01
1.085078139820527809e-01
1.085013941706143847e-01
1.084949707335906705e-01
1.084885436716424151e-01
1.084821129854305483e-01
1.084756786756161107e-01
1.084692407428602678e-01
1.084627991878242409e-01
1.084563540111692509e-01
1.084499052135566716e-01
1.084434527956478628e-01
1.084369967581042538e-01
1.084305371015872876e-01
1.084240738267584353e-01
1.084176069342791954e-01
1.084111364248111359e-01
1.084046622990159359e-01
1.083981845575553160e-01
1.083917032010910525e-01
1.083852182302849632e-01
1.083787296457989491e-01
1.083722374482950085e-01
1.083657416384352506e-01
1.083592422168819375e-01
1.083527391842974280e-01
1.083462325413440674e-01
1.083397222886842426e-01
1.083332084269803958e-01
1.083266909568949971e-01
1.083201698790906553e-01
1.083136451942300210e-01
1.083071169029757724e-01
1.083005850059906849e-01
1.082940495039376311e-01
1.082875103974795250e-01
1.082809676872792670e-01
1.082744213739998407e-01
1.082678714583042573e-01
1.082613179408555559e-01
1.082547608223168034e-01
1.082482001033511498e-01
1.082416357846217175e-01
1.082350678667917121e-01
1.082284963505243253e-01
1.082219212364827349e-01
1.082153425253302437e-01
1.082087602177302238e-01
1.082021743143461306e-01
1.081955848158415584e-01
1.081889917228801290e-01
1.081823950361255893e-01
1.081757947562417554e-01
1.081691908838924854e-01
1.081625834197416647e-01
1.081559723644531790e-01
1.081493577186909971e-01
1.081427394831191158e-01
1.081361176584015871e-01
1.081294922452025326e-01
1.081228632441861570e-01
1.081162306560166236e-01
1.081095944813581511e-01
1.081029547208749858e-01
1.080963113752314020e-01
1.080896644450917848e-01
1.080830139311205890e-01
1.080763598339823384e-01
1.080697021543416680e-01
1.080630408928632130e-01
1.080563760502116777e-01
1.080497076270517248e-01
1.080430356240480172e-01
1.080363600418652870e-01
1.080296808811683357e-01
1.080229981426220065e-01
1.080163118268911288e-01
1.080096219346405456e-01
1.080029284665351835e-01
1.079962314232400383e-01
1.079895308054201475e-01
1.079828266137406456e-01
1.079761188488666673e-01
1.079694075114632917e-01
1.079626926021956951e-01
1.079559741217291507e-01
1.079492520707288905e-01
1.079425264498601045e-01
1.079357972597879134e-01
1.079290645011774658e-01
1.079223281746939656e-01
1.079155882810025752e-01
1.079088448207684292e-01
1.079020977946567456e-01
1.078953472033328115e-01
1.078885930474619143e-01
1.078818353277093134e-01
1.078750740447402545e-01
1.078683091992200249e-01
1.078615407918138841e-01
1.078547688231871332e-01
1.078479932940050734e-01
1.078412142049330474e-01
1.078344315566364259e-01
1.078276453497806070e-01
1.078208555850310307e-01
1.078140622630530676e-01
1.078072653845121159e-01
1.078004649500735601e-01
1.077936609604027568e-01
1.077868534161649655e-01
1.077800423180253764e-01
1.077732276666490546e-01
1.077664094627010377e-01
1.077595877068462799e-01
1.077527623997497075e-01
1.077459335420762193e-01
1.077391011344906863e-01
1.077322651776580070e-01
1.077254256722431497e-01
1.077185826189109852e-01
1.077117360183264677e-01
1.077048858711545237e-01
1.076980321780600519e-01
1.076911749397079648e-01
1.076843141567632445e-01
1.076774498298908866e-01
1.076705819597557900e-01
1.076637105470228256e-01
1.076568355923568782e-01
1.076499570964227909e-01
1.076430750598853653e-01
1.076361894834092503e-01
1.076293003676590671e-01
1.076224077132994367e-01
1.076155115209949109e-01
1.076086117914100138e-01
1.076017085252092415e-01
1.075948017230570902e-01
1.075878913856180008e-01
1.075809775135563584e-01
1.075740601075364511e-01
1.075671391682225253e-01
1.075602146962788136e-01
1.075532866923694236e-01
1.075463551571583659e-01
1.075394200913096648e-01
1.075324814954872338e-01
1.075255393703548751e-01
1.075185937165763911e-01
1.075116445348155286e-01
1.075046918257360207e-01
1.074977355900016418e-01
1.074907758282761250e-01
1.074838125412232032e-01
1.074768457295065260e-01
1.074698753937896739e-01
1.074629015347361716e-01
1.074559241530094328e-01
1.074489432492728713e-01
1.074419588241898316e-01
1.074349708784235746e-01
1.074279794126373477e-01
1.074209844274943426e-01
1.074139859236576816e-01
1.074069839017904177e-01
1.073999783625554927e-01
1.073929693066158209e-01
1.073859567346342747e-01
1.073789406472737129e-01
1.073719210451968831e-01
1.073648979290664635e-01
1.073578712995451045e-01
1.073508411572953319e-01
1.073438075029796573e-01
1.073367703372605508e-01
1.073297296608003992e-01
1.073226854742614783e-01
1.073156377783060361e-01
1.073085865735962791e-01
1.073015318607942886e-01
1.072944736405620769e-01
1.072874119135616144e-01
1.072803466804548300e-01
1.072732779419035831e-01
1.072662056985696638e-01
1.072591299511147650e-01
1.072520507002005380e-01
1.072449679464885092e-01
1.072378816906401910e-01
1.072307919333170545e-01
1.072236986751804733e-01
1.072166019168917933e-01
1.072095016591122635e-01
1.072023979025030910e-01
1.071952906477254552e-01
1.071881798954404524e-01
1.071810656463091510e-01
1.071739479009925777e-01
1.071668266601517178e-01
1.071597019244474730e-01
1.071525736945407037e-01
1.071454419710922285e-01
1.071383067547628937e-01
1.071311680462133931e-01
1.071240258461043093e-01
1.071168801550961280e-01
1.071097309738492515e-01
1.071025783030240403e-01
1.070954221432807579e-01
1.070882624952795154e-01
1.070810993596803679e-01
1.070739327371433292e-01
1.070667626283282742e-01
1.070595890338949252e-01
1.070524119545028935e-01
1.070452313908117487e-01
1.070380473434810187e-01
1.070308598131701205e-01
1.070236688005384296e-01
1.070164743062452239e-01
1.070092763309496153e-01
1.070020748753106182e-01
1.069948699399870945e-01
1.069876615256378505e-01
1.069804496329215815e-01
1.069732342624969273e-01
1.069660154150224862e-01
1.069587930911568147e-01
1.069515672915584137e-01
1.069443380168855762e-01
1.069371052677965395e-01
1.069298690449494160e-01
1.069226293490022212e-01
1.069153861806128730e-01
1.069081395404391233e-01
1.069008894291385570e-01
1.068936358473686482e-01
1.068863787957868294e-01
1.068791182750504359e-01
1.068718542858167336e-01
1.068645868287428080e-01
1.068573159044855919e-01
1.068500415137019766e-01
1.068427636570487282e-01
1.068354823351824884e-01
1.068281975487598567e-01
1.068209092984373360e-01
1.068136175848713038e-01
1.068063224087180130e-01
1.067990237706335499e-01
1.067917216712739037e-01
1.067844161112950219e-01
1.067771070913527826e-01
1.067697946121029390e-01
1.067624786742011889e-01
1.067551592783031189e-01
1.067478364250642048e-01
1.067405101151397556e-01
1.067331803491849002e-01
1.067258471278546977e-01
1.067185104518041661e-01
1.067111703216882812e-01
1.067038267381618943e-01
1.066964797018797872e-01
1.066891292134966862e-01
1.066817752736671926e-01
1.066744178830457968e-01
1.066670570422869474e-01
1.066596927520449684e-01
1.066523250129740585e-01
1.066449538257283614e-01
1.066375791909618953e-01
1.066302011093285540e-01
1.066228195814820784e-01
1.066154346080760984e-01
1.066080461897641746e-01
1.066006543271997564e-01
1.065932590210361131e-01
1.065858602719263887e-01
1.065784580805236165e-01
1.065710524474806631e-01
1.065636433734502286e-01
1.065562308590849577e-01
1.065488149050374395e-01
1.065413955119601380e-01
1.065339726805054343e-01
1.065265464113254873e-01
1.065191167050722476e-01
1.065116835623976521e-01
1.065042469839535683e-01
1.064968069703917525e-01
1.064893635223638918e-01
1.064819166405216039e-01
1.064744663255163537e-01
1.064670125779994952e-01
1.064595553986221882e-01
1.064520947880354812e-01
1.064446307468902148e-01
1.064371632758371600e-01
1.064296923755269492e-01
1.064222180466100898e-01
1.064147402897369366e-01
1.064072591055577471e-01
1.063997744947226543e-01
1.063922864578817629e-01
1.063847949956850114e-01
1.063773001087822967e-01
1.063698017978233351e-01
1.063623000634577181e-01
1.063547949063349263e-01
1.063472863271043289e-01
1.063397743264151846e-01
1.063322589049166267e-01
1.063247400632577194e-01
1.063172178020874159e-01
1.063096921220545582e-01
1.063021630238078774e-01
1.062946305079960352e-01
1.062870945752675267e-01
1.062795552262706944e-01
1.062720124616537004e-01
1.062644662820645819e-01
1.062569166881512650e-01
1.062493636805615649e-01
1.062418072599432411e-01
1.062342474269439424e-01
1.062266841822112617e-01
1.062191175263927229e-01
1.062115474601356691e-01
1.062039739840873465e-01
1.061963970988948486e-01
1.061888168052051995e-01
1.061812331036653539e-01
1.061736459949222250e-01
1.061660554796226702e-01
1.061584615584134778e-01
1.061508642319412832e-01
1.061432635008526665e-01
1.061356593657940828e-01
1.061280518274118900e-01
1.061204408863524046e-01
1.061128265432618734e-01
1.061052087987864184e-01
1.060975876535720647e-01
1.060899631082647399e-01
1.060823351635103162e-01
1.060747038199545550e-01
1.060670690782431064e-01
1.060594309390215095e-01
1.060517894029352481e-01
1.060441444706297087e-01
1.060364961427501806e-01
1.060288444199418284e-01
1.060211893028497609e-01
1.060135307921190040e-01
1.060058688883944861e-01
1.059982035923210247e-01
1.059905349045433820e-01
1.059828628257062644e-01
1.059751873564543229e-01
1.059675084974320558e-01
1.059598262492838644e-01
1.059521406126539833e-01
1.059444515881864390e-01
1.059367591765252165e-01
1.059290633783142588e-01
1.059213641941973566e-01
1.059136616248180784e-01
1.059059556708198402e-01
1.058982463328458495e-01
1.058905336115392171e-01
1.058828175075429562e-01
1.058750980214999138e-01
1.058673751540527841e-01
1.058596489058441781e-01
1.058519192775166790e-01
1.058441862697127173e-01
1.058364498830746125e-01
1.058287101182446288e-01
1.058209669758648774e-01
1.058132204565773865e-01
1.058054705610239898e-01
1.057977172898464380e-01
1.057899606436864398e-01
1.057822006231856071e-01
1.057744372289854684e-01
1.057666704617273995e-01
1.057589003220526236e-01
1.057511268106023361e-01
1.057433499280175798e-01
1.057355696749393004e-01
1.057277860520083046e-01
1.057199990598653161e-01
1.057122086991509752e-01
1.057044149705057834e-01
1.056966178745701590e-01
1.056888174119844370e-01
1.056810135833888137e-01
1.056732063894234019e-01
1.056653958307281760e-01
1.056575819079430684e-01
1.056497646217078729e-01
1.056419439726622583e-01
1.056341199614458659e-01
1.056262925886982673e-01
1.056184618550588955e-01
1.056106277611670863e-01
1.056027903076621061e-01
1.055949494951830964e-01
1.055871053243690599e-01
1.055792577958588746e-01
1.055714069102912378e-01
1.055635526683047637e-01
1.055556950705379277e-01
1.055478341176291357e-01
1.055399698102167244e-01
1.055321021489389471e-01
1.055242311344340572e-01
1.055163567673401970e-01
1.055084790482954255e-01
1.055005979779377184e-01
1.054927135569049823e-01
1.054848257858350125e-01
1.054769346653654793e-01
1.054690401961339841e-01
1.054611423787780167e-01
1.054532412139350117e-01
1.054453367022422788e-01
1.054374288443370444e-01
1.054295176408564239e-01
1.054216030924374908e-01
1.054136851997171942e-01
1.054057639633324134e-01
1.053978393839199168e-01
1.053899114621164174e-01
1.053819801985585725e-01
1.053740455938829285e-01
1.053661076487259207e-01
1.053581663637239846e-01
1.053502217395134444e-01
1.053422737767306244e-01
1.053343224760118491e-01
1.053263678379933316e-01
1.053184098633112992e-01
1.053104485526018819e-01
1.053024839065010987e-01
1.052945159256448715e-01
1.052865446106690250e-01
1.052785699622092730e-01
1.052705919809012181e-01
1.052626106673804213e-01
1.052546260222823049e-01
1.052466380462423051e-01
1.052386467398958581e-01
1.052306521038783027e-01
1.052226541388249503e-01
1.052146528453710150e-01
1.052066482241516554e-01
1.051986402758019329e-01
1.051906290009569506e-01
1.051826144002517283e-01
1.051745964743212303e-01
1.051665752238003931e-01
1.051585506493240285e-01
1.051505227515268509e-01
1.051424915310435887e-01
1.051344569885089425e-01
1.051264191245575297e-01
1.051183779398239537e-01
1.051103334349428597e-01
1.051022856105488512e-01
1.050942344672764900e-01
1.050861800057603795e-01
1.050781222266351095e-01
1.050700611305351861e-01
1.050619967180950465e-01
1.050539289899490580e-01
1.050458579467315606e-01
1.050377835890767692e-01
1.050297059176187736e-01
1.050216249329917056e-01
1.050135406358296414e-01
1.050054530267666292e-01
1.049973621064366897e-01
1.049892678754737879e-01
1.049811703345118891e-01
1.049730694841849582e-01
1.049649653251268910e-01
1.049568578579716249e-01
1.049487470833530417e-01
1.049406330019049122e-01
1.049325156142609933e-01
1.049243949210550281e-01
1.049162709229206625e-01
1.049081436204915563e-01
1.049000130144013138e-01
1.048918791052835392e-01
1.048837418937717814e-01
1.048756013804995890e-01
1.048674575661005109e-01
1.048593104512079988e-01
1.048511600364554069e-01
1.048430063224760345e-01
1.048348493099031387e-01
1.048266889993698936e-01
1.048185253915094872e-01
1.048103584869551075e-01
1.048021882863399146e-01
1.047940147902970964e-01
1.047858379994598410e-01
1.047776579144612946e-01
1.047694745359345758e-01
1.047612878645127754e-01
1.047530979008290675e-01
1.047449046455167093e-01
1.047367080992089722e-01
1.047285082625391411e-01
1.047203051361405429e-01
1.047120987206464904e-01
1.047038890166903657e-01
1.046956760249055235e-01
1.046874597459253736e-01
1.046792401803832984e-01
1.046710173289126383e-01
1.046627911921467757e-01
1.046545617707190373e-01
1.046463290652628053e-01
1.046380930764115036e-01
1.046298538047985838e-01
1.046216112510575807e-01
1.046133654158220155e-01
1.046051162997254785e-01
1.045968639034015046e-01
1.045886082274836010e-01
1.045803492726052747e-01
1.045720870394000468e-01
1.045638215285014799e-01
1.045555527405431229e-01
1.045472806761586354e-01
1.045390053359816912e-01
1.045307267206459778e-01
1.045224448307851828e-01
1.045141596670330492e-01
1.045058712300233755e-01
1.044975795203900854e-01
1.044892845387671160e-01
1.044809862857883631e-01
1.044726847620877364e-01
1.044643799682991453e-01
1.044560719050565828e-01
1.044477605729941250e-01
1.044394459727459173e-01
1.044311281049460777e-01
1.044228069702287931e-01
1.044144825692282647e-01
1.044061549025787766e-01
1.043978239709146411e-01
1.043894897748701978e-01
1.043811523150798143e-01
1.043728115921778304e-01
1.043644676067985722e-01
1.043561203595764070e-01
1.043477698511457302e-01
1.043394160821409650e-01
1.043310590531965620e-01
1.043226987649470694e-01
1.043143352180271460e-01
1.043059684130714926e-01
1.042975983507148374e-01
1.042892250315919506e-01
1.042808484563376020e-01
1.042724686255866173e-01
1.042640855399739191e-01
1.042556992001344718e-01
1.042473096067033506e-01
1.042389167603156724e-01
1.042305206616066099e-01
1.042221213112113493e-01
1.042137187097651879e-01
1.042053128579034232e-01
1.041969037562614636e-01
1.041884914054747174e-01
1.041800758061787596e-01
1.041716569590092900e-01
1.041632348646020778e-01
1.041548095235929478e-01
1.041463809366178495e-01
1.041379491043128713e-01
1.041295140273142267e-01
1.041210757062581843e-01
1.041126341417810824e-01
1.041041893345193425e-01
1.040957412851095110e-01
1.040872899941882590e-01
1.040788354623923967e-01
1.040703776903588729e-01
1.040619166787247196e-01
1.040534524281270939e-01
1.040449849392031667e-01
1.040365142125902059e-01
1.040280402489256878e-01
1.040195630488471717e-01
1.040110826129923560e-01
1.040025989419990776e-01
1.039941120365052568e-01
1.039856218971489527e-01
1.039771285245683768e-01
1.039686319194018382e-01
1.039601320822877428e-01
1.039516290138647187e-01
1.039431227147715325e-01
1.039346131856471456e-01
1.039261004271306299e-01
1.039175844398611548e-01
1.039090652244779867e-01
1.039005427816204474e-01
1.038920171119280256e-01
1.038834882160403622e-01
1.038749560945972511e-01
1.038664207482386109e-01
1.038578821776045824e-01
1.038493403833354034e-01
1.038407953660714228e-01
1.038322471264530450e-01
1.038236956651208409e-01
1.038151409827155480e-01
1.038065830798780842e-01
1.037980219572494922e-01
1.037894576154709259e-01
1.037808900551835944e-01
1.037723192770288738e-01
1.037637452816483202e-01
1.037551680696836287e-01
1.037465876417766192e-01
1.037380039985692781e-01
1.037294171407036614e-01
1.037208270688219636e-01
1.037122337835665042e-01
1.037036372855797833e-01
1.036950375755044396e-01
1.036864346539832921e-01
1.036778285216592294e-01
1.036692191791753342e-01
1.036606066271747173e-01
1.036519908663006279e-01
1.036433718971964540e-01
1.036347497205056117e-01
1.036261243368717527e-01
1.036174957469386676e-01
1.036088639513502441e-01
1.036002289507505086e-01
1.035915907457836405e-01
1.035829493370940130e-01
1.035743047253261800e-01
1.035656569111249037e-01
1.035570058951351124e-01
1.035483516780018876e-01
1.035396942603704490e-01
1.035310336428862110e-01
1.035223698261947961e-01
1.035137028109420487e-01
1.035050325977740215e-01
1.034963591873369199e-01
1.034876825802771572e-01
1.034790027772413551e-01
1.034703197788763018e-01
1.034616335858289937e-01
1.034529441987465798e-01
1.034442516182763755e-01
1.034355558450659185e-01
1.034268568797629129e-01
1.034181547230151738e-01
1.034094493754707939e-01
1.034007408377780185e-01
1.033920291105853567e-01
1.033833141945413869e-01
1.033745960902948680e-01
1.033658747984947252e-01
1.033571503197901059e-01
1.033484226548303381e-01
1.033396918042649298e-01
1.033309577687435421e-01
1.033222205489160578e-01
1.033134801454326096e-01
1.033047365589435107e-01
1.032959897900992963e-01
1.032872398395507374e-01
1.032784867079488411e-01
1.032697303959447810e-01
1.032609709041898693e-01
1.032522082333356683e-01
1.032434423840339066e-01
1.032346733569364933e-01
1.032259011526955317e-01
1.032171257719633750e-01
1.032083472153926124e-01
1.031995654836360132e-01
1.031907805773465414e-01
1.031819924971772995e-01
1.031732012437815288e-01
1.031644068178126511e-01
1.031556092199242131e-01
1.031468084507700111e-01
1.031380045110040361e-01
1.031291974012805424e-01
1.031203871222539925e-01
1.031115736745790851e-01
1.031027570589106990e-01
1.030939372759039213e-01
1.030851143262140612e-01
1.030762882104966222e-01
1.030674589294073434e-01
1.030586264836022281e-01
1.030497908737375429e-01
1.030409521004697626e-01
1.030321101644555704e-01
1.030232650663518434e-01
1.030144168068157229e-01
1.030055653865046134e-01
1.029967108060761694e-01
1.029878530661881980e-01
1.029789921674988395e-01
1.029701281106664007e-01
1.029612608963494519e-01
1.029523905252068688e-01
1.029435169978977910e-01
1.029346403150815797e-01
1.029257604774178742e-01
1.029168774855665214e-01
1.029079913401876323e-01
1.028991020419416091e-01
1.028902095914891318e-01
1.028813139894910744e-01
1.028724152366086442e-01
1.028635133335032842e-01
1.028546082808366458e-01
1.028457000792706993e-01
1.028367887294677624e-01
1.028278742320903327e-01
1.028189565878011719e-01
1.028100357972632634e-01
1.028011118611398267e-01
1.027921847800943034e-01
1.027832545547903570e-01
1.027743211858919287e-01
1.027653846740632509e-01
1.027564450199687923e-01
1.027475022242732433e-01
1.027385562876415720e-01
1.027296072107389269e-01
1.027206549942307479e-01
1.027116996387827524e-01
1.027027411450608940e-01
1.026937795137313758e-01
1.026848147454606924e-01
1.026758468409156161e-01
1.026668758007631549e-01
1.026579016256704974e-01
1.026489243163050680e-01
1.026399438733345409e-01
1.026309602974268820e-01
1.026219735892503482e-01
1.026129837494733910e-01
1.026039907787648087e-01
1.025949946777936911e-01
1.025859954472294333e-01
1.025769930877417774e-01
1.025679876000007013e-01
1.025589789846764882e-01
1.025499672424396713e-01
1.025409523739610890e-01
1.025319343799118710e-01
1.025229132609633831e-01
1.025138890177872963e-01
1.025048616510555871e-01
1.024958311614404954e-01
1.024867975496145250e-01
1.024777608162504156e-01
1.024687209620211426e-01
1.024596779875999869e-01
1.024506318936604793e-01
1.024415826808764141e-01
1.024325303499217937e-01
1.024234749014709261e-01
1.024144163361984244e-01
1.024053546547792071e-01
1.023962898578884007e-01
1.023872219462014510e-01
1.023781509203940537e-01
1.023690767811422653e-01
1.023599995291224474e-01
1.023509191650112810e-01
1.023418356894857661e-01
1.023327491032231668e-01
1.023236594069010658e-01
1.023145666011972404e-01
1.023054706867897873e-01
1.022963716643570664e-01
1.022872695345777017e-01
1.022781642981306360e-01
1.022690559556950207e-01
1.022599445079502845e-01
1.022508299555760503e-01
1.022417122992522465e-01
1.022325915396591345e-01
1.022234676774773088e-01
1.022143407133876414e-01
1.022052106480712680e-01
1.021960774822095741e-01
1.021869412164842644e-01
1.021778018515773212e-01
1.021686593881709904e-01
1.021595138269477815e-01
1.021503651685905373e-01
1.021412134137823224e-01
1.021320585632064792e-01
1.021229006175466830e-01
1.021137395774868728e-01
1.021045754437113623e-01
1.020954082169048677e-01
1.020862378977523827e-01
1.020770644869391508e-01
1.020678879851507487e-01
1.020587083930730998e-01
1.020495257113925025e-01
1.020403399407955325e-01
1.020311510819690570e-01
1.020219591356001515e-01
1.020127641023761689e-01
1.020035659829848090e-01
1.019943647781140356e-01
1.019851604884520896e-01
1.019759531146875037e-01
1.019667426575090879e-01
1.019575291176058746e-01
1.019483124956671732e-01
1.019390927923825296e-01
1.019298700084417808e-01
1.019206441445350830e-01
1.019114152013528701e-01
1.019021831795858812e-01
1.018929480799251885e-01
1.018837099030620724e-01
1.018744686496881602e-01
1.018652243204953151e-01
1.018559769161756223e-01
1.018467264374214032e-01
1.018374728849253258e-01
1.018282162593803358e-01
1.018189565614797260e-01
1.018096937919170386e-01
1.018004279513862048e-01
1.017911590405814193e-01
1.017818870601972375e-01
1.017726120109284649e-01
1.017633338934702397e-01
1.017540527085179364e-01
1.017447684567672206e-01
1.017354811389140912e-01
1.017261907556548939e-01
1.017168973076862104e-01
1.017076007957048445e-01
1.016983012204078496e-01
1.016889985824925846e-01
1.016796928826566859e-01
1.016703841215981369e-01
1.016610723000152816e-01
1.016517574186067696e-01
1.016424394780715418e-01
1.016331184791088166e-01
1.016237944224181039e-01
1.016144673086992190e-01
1.016051371386523239e-01
1.015958039129778723e-01
1.015864676323766647e-01
1.015771282975497930e-01
1.015677859091985991e-01
1.015584404680247715e-01
1.015490919747303045e-01
1.015397404300175527e-01
1.015303858345891486e-01
1.015210281891480854e-01
1.015116674943977310e-01
1.015023037510417447e-01
1.014929369597840636e-01
1.014835671213289714e-01
1.014741942363810157e-01
1.014648183056451047e-01
1.014554393298264939e-01
1.014460573096306883e-01
1.014366722457634290e-01
1.014272841389308177e-01
1.014178929898392062e-01
1.014084987991952375e-01
1.013991015677058599e-01
1.013897012960783134e-01
1.013802979850200875e-01
1.013708916352389355e-01
1.013614822474430133e-01
1.013520698223407679e-01
1.013426543606409658e-01
1.013332358630527480e-01
1.013238143302855471e-01
1.013143897630491425e-01
1.013049621620536189e-01
1.012955315280093527e-01
1.012860978616270252e-01
1.012766611636177483e-01
1.012672214346930499e-01
1.012577786755648190e-01
1.012483328869452359e-01
1.012388840695467307e-01
1.012294322240820527e-01
1.012199773512642564e-01
1.012105194518066464e-01
1.012010585264228324e-01
1.011915945758266738e-01
1.011821276007322662e-01
1.011726576018540658e-01
1.011631845799068480e-01
1.011537085356056936e-01
1.011442294696659333e-01
1.011347473828032584e-01
1.011252622757336794e-01
1.011157741491734569e-01
1.011062830038391425e-01
1.010967888404475934e-01
1.010872916597160415e-01
1.010777914623620932e-01
1.010682882491037021e-01
1.010587820206591270e-01
1.010492727777469457e-01
1.010397605210860417e-01
1.010302452513956589e-01
1.010207269693954024e-01
1.010112056758051408e-01
1.010016813713451173e-01
1.009921540567358667e-01
1.009826237326982290e-01
1.009730903999533080e-01
1.009635540592225683e-01
1.009540147112278352e-01
1.009444723566913504e-01
1.009349269963357304e-01
1.009253786308839107e-01
1.009158272610591323e-01
1.009062728875848858e-01
1.008967155111850228e-01
1.008871551325837002e-01
1.008775917525054355e-01
1.008680253716750658e-01
1.008584559908176914e-01
1.008488836106588293e-01
1.008393082319243711e-01
1.008297298553405691e-01
1.008201484816340227e-01
1.008105641115315948e-01
1.008009767457604122e-01
1.007913863850480179e-01
1.007817930301223158e-01
1.007721966817115705e-01
1.007625973405443104e-01
1.007529950073493830e-01
1.007433896828558856e-01
1.007337813677932903e-01
1.007241700628913883e-01
1.007145557688802623e-01
1.007049384864903557e-01
1.006953182164524452e-01
1.006856949594976125e-01
1.006760687163572310e-01
1.006664394877629376e-01
1.006568072744466330e-01
1.006471720771405787e-01
1.006375338965772859e-01
1.006278927334896406e-01
1.006182485886109035e-01
1.006086014626746961e-01
1.005989513564150145e-01
1.005892982705661604e-01
1.005796422058627820e-01
1.005699831630397917e-01
1.005603211428323651e-01
1.005506561459760945e-01
