1.460272746600412008e-04
1.721376105933419961e-03
3.317673747328059829e-03
2.332460842758212350e-03
7.390669392812289958e-04
-1.319937894867174695e-03
-3.640879037338826634e-05
4.700895199142607643e-04
-2.841546930110127288e-03
-3.233633721563578933e-03
-2.650956946883774833e-03
-1.344349437435138133e-03
-6.182828952475297006e-04
1.591660598857634655e-03
9.493807058567026169e-04
-6.213063913542997332e-04
-1.296836067236513661e-04
2.357033460494603518e-03
3.099382468269685532e-03
1.089894807638591744e-03
3.402274384946008933e-04
-1.412717635002761060e-03
-1.262848092363770070e-03
3.204154988539137990e-04
2.557825607062527750e-04
-1.289915053069277690e-04
-5.889406036529421223e-04
-2.569966973494831972e-03
-3.255633459883699229e-03
7.727119484891551999e-04
4.536264972356713297e-03
7.479164033669456063e-03
7.979035922229368166e-03
-2.293982032820572614e-03
-5.412606787181168701e-03
-5.404912281907338183e-03
-5.514029205688793407e-03
-3.464873164383334460e-03
-1.840192949181826279e-03
-2.284216107770897179e-03
-2.761196616374886077e-03
4.541715670978161475e-04
4.681615522604010496e-03
6.167936492467811921e-03
5.268153795476598900e-03
4.609750660981647152e-03
3.292520743764093885e-03
2.230506643008791767e-03
6.466846188201886853e-04
-8.686917670841268983e-04
-2.181304683947747191e-03
-3.909928677478655655e-03
-5.435810466463092232e-03
-7.034196944686938423e-03
-8.652009561243088898e-03
-8.536600462463026298e-03
1.641466614388057419e-03
8.093151968398193050e-03
7.859775064933859773e-03
8.345103076993719976e-03
5.333805750329591484e-03
1.449029305017600052e-03
-5.643415677547417627e-04
-4.321941338633861988e-04
-9.583014751895394629e-04
-2.067588711414277292e-03
-1.867288199502051748e-03
-1.980531222721575776e-03
-1.435984578639730924e-03
-1.239775493783346278e-03
-2.082219865964080128e-03
-6.255817952761381017e-05
-8.783929504466757646e-04
-3.041395795292151268e-03
-4.729251192563022239e-04
3.150071025244309628e-03
2.936791226511670759e-03
1.019239885789186917e-03
7.512383833178798171e-04
6.032579978361401595e-04
2.859384324024492104e-03
1.563624299206689593e-03
3.745309819187952766e-04
1.124033610004884038e-03
-7.568169866799543191e-04
-2.348701212734797573e-03
-3.769451939893121283e-03
-2.983914463248697052e-03
-1.906855595278792890e-03
-1.673881309084757464e-03
-3.556883251353919716e-04
-1.344087063628136229e-04
9.304631622204354068e-04
1.876212165661793026e-03
1.881968622888318537e-03
1.636494370286629323e-03
1.806882927867022471e-03
8.992725861480647693e-04
7.500082528665037024e-04
1.490924093375802775e-03
1.245771964430630527e-03
5.585934601768576891e-04
-1.263281454540961506e-03
-1.566329751486933864e-03
-1.364017469872195109e-03
-9.061738659867566142e-04
-7.420759553426290334e-04
-1.258697972223206266e-03
-1.304603153067412143e-03
-1.392859635946287582e-03
-1.869845483814390431e-03
-4.749490150196507884e-04
2.316763300233857636e-03
3.597001295006614901e-03
3.101886235068109388e-04
-1.441380912824946842e-03
6.303185969540592553e-04
1.793330650258903895e-03
8.235603587969852687e-04
5.041630444467357249e-06
8.584415905835347024e-04
1.854014440152631756e-03
5.501360813644121757e-04
-2.894569063394761711e-03
-1.598763996881856801e-03
-1.140896147338067848e-04
-5.382611871929971620e-04
-3.124901925057403749e-03
-3.232540826675699575e-03
4.336728873742493485e-04
2.309691428266489981e-03
1.564839833886684690e-03
1.487979851212816330e-03
3.275437009457400541e-04
-1.491480087079632267e-05
6.718209332563904092e-04
2.956731928149122432e-04
-9.633482372624153824e-04
-1.416432097442124486e-03
3.017550685493650912e-04
6.564822327557950053e-04
1.741983563883649959e-03
3.044062766136119112e-03
5.265191713046610267e-04
-5.472374050828708982e-04
-2.593488644464853792e-04
5.448904063467653949e-04
-1.569767021610119851e-03
-3.622097105726683822e-03
-3.077956721093315015e-03
-1.358067821629012567e-03
-4.808094649663646834e-04
1.514460660059626989e-03
1.562579024340067860e-03
-6.481548118742396728e-04
5.254012939216338779e-04
1.266997840445824005e-03
1.268719439099537730e-03
3.725729705452377610e-04
1.469174507403429994e-03
3.937167752441063547e-03
2.729560976963940101e-03
-1.792592888586678600e-04
-2.503652858216315162e-03
-4.236773134075997801e-03
-1.543416531225135641e-03
-7.954299216198295556e-04
-1.785897597760013411e-03
-2.459834822711560055e-03
-1.663145154785819783e-03
-5.198151236756340474e-04
-6.063662845481973974e-04
1.687892400901664595e-03
1.726544713359982192e-03
3.404575164276898470e-03
5.105296027577363623e-03
3.206169800994767942e-03
-5.982448088270740563e-04
-1.432290840813986053e-03
-3.596722215172564775e-03
-7.287964417704987426e-04
1.465827484212068720e-03
3.236473532813664410e-04
-1.483281076799323334e-03
-1.589927540431119871e-03
6.925512999000152121e-04
5.646157752719489342e-04
-1.120726522434339987e-03
-2.739495100274197143e-03
-1.743794346860684605e-03
6.074791698687832808e-04
3.154983259360601448e-04
1.473641741730943953e-03
2.685313267519948838e-03
1.640014202701107820e-03
-6.152093690683724594e-04
1.871448675183519909e-05
3.173113864076097107e-04
5.674108689612550197e-04
1.669584417185161632e-03
-1.421115578556587759e-03
-1.992797203328037278e-03
1.148212888961920884e-04
3.806654149402236893e-05
-5.127189423645072894e-04
7.964458557398921505e-04
-7.063555346391906485e-04
-1.288534466425173908e-03
-1.937444697587479290e-03
-2.107012562629913266e-03
-9.420177703882649713e-04
1.191630195755966504e-03
1.939495519986751204e-03
2.294112989647404018e-03
2.471374580551039674e-03
-2.295164696853051103e-04
-2.119965275158499848e-03
-1.210480841145454827e-03
2.942337207450378654e-03
4.049074458055416242e-03
1.907402904964913869e-03
-1.103871069076677513e-03
-2.156728555436109550e-03
-1.173226482410440457e-03
-2.194366772863224051e-03
-2.694747173646545001e-03
-1.055996207059232842e-03
-5.323876520514591020e-04
-5.526030871738675521e-04
8.383633530055791504e-04
8.742567217670104297e-04
2.136387033051543281e-03
1.412567218177199170e-03
-2.342347067394927145e-04
-3.668279828949268153e-04
-9.736078049665208801e-04
-2.298824436824023877e-04
1.772390984209925896e-04
8.467406200442641022e-04
1.306771497080869279e-03
-2.901883754547745099e-04
-1.826087942301613367e-03
1.899632097761706339e-04
1.620342050066090689e-03
-1.442677353527925532e-04
1.446628859437746597e-03
4.377735674890351181e-04
1.904046394666937645e-04
-4.342106522002619416e-05
-1.609521560865575162e-03
-4.994029351262656204e-04
-1.845716498562635470e-03
-2.680468376411828876e-03
-1.702507820415321421e-03
-9.591548512950419858e-04
4.057935029970944924e-04
1.263951600365322480e-03
2.769822427500919990e-03
1.488315642507430977e-03
-5.381067549327558496e-04
-3.715733191274322045e-04
2.157016874338512497e-03
1.700519628189699423e-03
-1.312354682420135542e-03
1.918634969041276049e-03
4.459732411899254394e-03
1.043275738721723958e-03
-2.009287055870085260e-03
-2.192106247540111762e-03
-2.945700964328618575e-03
-3.275806893244094607e-03
-2.174655758908554219e-03
-2.128673974613414909e-03
-3.014937694346435902e-03
-1.034941314952744383e-03
3.652695320295269981e-03
6.165093843402799818e-03
2.383965647563714499e-03
-1.892968050838260549e-03
8.055392952106392186e-04
1.312128204267334246e-03
-2.394272183220890957e-04
-3.642822755124173030e-04
7.564357799680013900e-04
1.414581872751892065e-03
5.147287808670654484e-04
-4.384356201440288881e-04
-1.456089349324459154e-03
-7.046887240002322429e-04
-1.064339605776682155e-03
-5.137184386535715045e-04
-1.895074624816766532e-03
-2.538994980240824421e-03
-1.590987472064355141e-03
-1.236075288111098455e-03
1.002410423709191017e-05
1.801270249631801773e-03
2.565550734094535802e-03
1.633826275641805286e-03
6.082639587770353583e-04
9.157249925679184031e-04
-9.251887680662086895e-04
7.319320005099191721e-04
2.809152022176482529e-03
2.050718127579312985e-03
1.892800178304361548e-03
2.617780160172357689e-04
-1.112347595495719868e-03
-1.571807489555294242e-03
-1.982426285264477211e-03
-2.896202090446644162e-03
-3.020697921710350977e-03
-1.809750154698248946e-03
-7.234726983831376581e-05
-8.885674285353812717e-04
1.069581275118128370e-03
1.224447796209700854e-03
1.720827141309383326e-03
4.354922766183026966e-04
-1.702571325039577014e-03
1.999406956912140685e-04
3.859172178848022453e-03
2.254029208744148978e-03
2.580426887816417419e-04
1.212827945161756025e-03
1.590006663625162997e-03
1.828626471315259903e-03
-2.217266450854288654e-04
-3.803077862573322424e-03
-4.634376476116322530e-03
-3.147833868111745738e-03
9.052760335289212546e-05
-3.493350322224776042e-04
-1.946004052070263559e-03
-1.811668195014932157e-04
1.995225252642261055e-03
1.024849659738808708e-03
-5.503198505034570098e-04
-3.514018000922017933e-04
1.849063491658352017e-03
2.137933287574376919e-03
1.156282439549017639e-03
2.266410803604534431e-03
1.480515446023888786e-03
-2.464546514251100031e-05
1.501363982379594906e-03
1.248132202071540811e-03
-1.941892569629996785e-03
-2.516589711512735514e-03
-8.724986953156678698e-04
-3.502104971608293628e-03
-4.222033387631535413e-03
-8.026631487706525989e-04
1.522891059903552996e-03
-1.244776637255968002e-03
4.859957444756345937e-04
3.192074911787282435e-03
3.812600447144084970e-03
6.616376199554236618e-04
-1.538697868346558832e-03
-8.147825846224547282e-04
2.269214675971913727e-04
1.724662612967355763e-03
2.290118186300755046e-03
1.146644280174200945e-03
-6.475070756111092445e-04
-2.332386655613177123e-03
5.239218235138351411e-04
-4.513986573406003448e-04
-1.714728232071311385e-03
-2.453362491405139834e-03
-1.381497249398219067e-03
-2.235042784917542873e-03
-1.567665803516293420e-03
1.174022858181198890e-03
1.356464391621499703e-03
9.025081440307643112e-04
1.572342052180790298e-03
2.059006185653124328e-03
1.799264891851314659e-03
1.429416804039083553e-03
1.105519656378765262e-03
1.994408035136671165e-04
2.001833056838861534e-04
-3.179974898871510119e-04
-8.085666963751618908e-04
-1.646601898442423247e-03
-1.378540053476349147e-03
-7.387622862742804707e-05
2.196670047754443588e-04
-1.316391698930071026e-03
-2.439527862587144869e-03
-2.728490881128607659e-03
-1.600822276724146644e-03
4.643799162352554247e-04
2.228922131770767409e-03
3.981373490779821153e-03
4.635311683908297647e-03
2.643134769613725722e-03
2.680602448568781323e-04
-3.129065756998335862e-03
-4.526438504466869135e-03
-2.122308828365665825e-03
1.616328435258347152e-03
2.549593565891808411e-03
3.601430957003492811e-04
3.860240173787220534e-04
1.415302055867181767e-03
-1.413308602331177395e-03
-1.197901960342658608e-03
-3.299541082128926725e-04
-1.491829475501691695e-03
-2.164747381336467030e-03
-1.192208146017716521e-03
3.012094610423589488e-04
7.370835117364268104e-04
-8.540267717154553448e-04
-4.119242774035779004e-04
3.976178380533169562e-03
2.000683779193861839e-03
-1.866337905034805159e-03
-1.190496313938543870e-03
3.267629266235510394e-03
3.247821381527510667e-03
1.607485067324854536e-03
-1.104127796717612776e-03
-1.301133149574887522e-03
-7.490343058509894847e-04
-6.094190623858427355e-04
-2.808637741737025212e-03
-3.625550712385355520e-03
-3.149421053884025618e-03
-1.310912260708494521e-03
-1.789516084206512777e-05
3.253063352949415402e-03
7.674354179424045484e-03
5.710528126185214493e-03
1.735215034350176587e-03
-7.838038680161227550e-04
-1.875006092981726076e-03
-2.770152943092329175e-03
-3.764211621058919082e-03
-5.127929956100782567e-03
-1.155832444641712422e-03
-3.469002610805760942e-06
-1.260132419600357243e-03
-8.366079212739033644e-04
3.306853369828571419e-04
5.449025893741574374e-04
2.528571054750878601e-03
5.024339761235427186e-03
9.572019639216315049e-04
-1.401034111499861647e-04
-5.315912747504343718e-05
7.768844442572152547e-04
1.881507739136686246e-03
7.832926426078111416e-04
1.710296756802982300e-04
5.810510223080106538e-04
-5.131109344591149035e-04
-2.438719373718109193e-03
-3.301396478626316376e-03
-1.659353260095610327e-03
-9.443219297963574479e-04
-1.830229975993256757e-03
-1.316873128992684895e-03
2.503045515170913490e-04
2.382900197916503794e-03
2.310979458786935857e-03
1.694493981106917537e-03
8.227834506933722706e-04
9.018767576765920630e-04
-6.610146175326806416e-05
4.128737614562363374e-05
-9.221105380755464595e-06
-5.329560826313462212e-04
-9.258304559536551393e-04
-1.646342271830791675e-03
5.160199309891784838e-04
1.608237311889631300e-03
7.380287972685068039e-04
-6.886898806103223256e-04
-1.561719968137510522e-03
-1.524827896162037023e-03
-2.044947538117756168e-03
-1.378483678039409783e-03
1.306481574255780259e-03
2.875564602714191214e-03
2.939119037922197954e-03
1.713342983469911922e-03
-1.050038637703122396e-03
-1.182846669530339574e-03
-2.003251658510637676e-03
-2.872799821349494593e-03
-7.229450012012242442e-04
1.093934193297450060e-03
2.805078320412300119e-04
3.376375956018301018e-03
4.242845360912628205e-03
2.389566962939654315e-04
-1.673719434734754433e-03
-3.389985107399172328e-04
1.275423652508189763e-03
6.599194402461350337e-04
-1.640143036934155110e-03
-4.156968913840155926e-03
-4.345874792316554817e-03
-2.398995397381300729e-03
-9.406090801458019072e-04
4.642035726269292187e-04
2.865495032524491368e-03
5.178819523972156766e-03
5.555941222944831871e-03
1.383236950557976659e-03
-2.326201536882849773e-03
-1.323769535536356394e-03
-1.888631204325257442e-03
5.370270530844940826e-04
7.523728452721420608e-04
-9.408178914957465158e-04
-1.939825682518305817e-03
-1.611529545300440869e-03
1.607865733994069506e-03
1.515484214347023522e-03
-1.820908390260220612e-03
-3.132707324628703025e-03
1.124213717424683102e-04
2.299733980745686309e-04
-2.382968090625901814e-04
-2.788307329711621572e-04
9.623609412936403587e-04
9.702054309100567944e-04
1.130476543916955661e-04
1.485823337147072678e-03
1.599899300479350498e-03
1.063585858632287153e-03
1.072037422000150179e-03
6.627490820735604249e-04
-8.404622945602264073e-04
-1.608145123062360710e-04
6.273430053587373666e-04
6.658473784377978190e-04
-5.981313957831807613e-04
-2.491719360792794390e-03
-2.501522472428424886e-03
-1.306027977327232784e-03
-1.705560344140759788e-03
7.570756418732656234e-05
3.507677582879624618e-04
-1.045838264701382013e-03
3.072670741794053051e-04
2.733935529367923032e-03
5.935076652707914260e-04
-3.105975184512497263e-04
2.771124377571148635e-03
2.514168167218799356e-03
4.409435633081625495e-04
-9.708556384386593486e-05
1.318424694794255664e-04
-2.477248506798583713e-04
2.943814251800630044e-04
-6.692460829758458893e-04
-2.654303511013773181e-03
-2.110181225521244076e-03
-1.879733056423926697e-03
-2.197286520099015188e-03
-1.453910202638682625e-03
5.943698902379390041e-04
2.277564229399801497e-04
2.854101495259530816e-04
2.377583610169461351e-03
3.218009950036326925e-03
2.095928320928801269e-03
-1.948217213796354669e-04
1.572552685092818233e-05
1.796790225953728967e-03
2.212889840706146194e-03
2.938966967222482875e-04
-2.044584581600392744e-03
-1.522515741428607421e-03
-1.272375765184909210e-03
-1.522508148521473873e-04
2.388180389341308923e-04
-2.299422777745671869e-03
-2.936549809896070017e-03
-1.868736654626506396e-04
-1.097761404721529126e-03
-9.570830838101635190e-04
7.200274334909547303e-05
1.830652865481160584e-03
3.092918624315950556e-03
3.241250705488916625e-03
1.806655000374054630e-03
6.040483584333208259e-04
-6.924681665469638401e-04
-1.496453534932542292e-03
-1.527495817563704695e-03
-2.029259263450799208e-03
-1.036401196405663380e-03
1.897931441759423367e-03
4.483902365764279654e-03
3.680908452556495847e-03
-9.433755206084669127e-04
-4.159587214757205255e-03
-5.146511265314301226e-03
-4.286980521981043589e-03
-2.712045332859220389e-03
-1.389206952233230236e-03
1.466184739713261931e-03
3.975566963899931049e-03
5.168079747643188580e-03
2.685306245770197747e-03
-5.267178384471614909e-05
-1.064640118685186758e-04
4.027512675554157772e-04
-3.660148829839592879e-04
-1.378075519754064747e-03
1.127296063039773559e-03
2.501056444937929581e-03
8.287686034443308720e-04
-4.708879281670675298e-04
-2.101026242246161260e-03
-2.320207182166581644e-03
-9.050619956022974092e-04
-2.046044186141049957e-03
-2.443312171253371294e-03
-9.189909778049814692e-04
6.667449082460885114e-04
9.235166736531610172e-04
1.827414084927766287e-03
2.309580365285425051e-03
1.915610247187973098e-03
1.413707997768004878e-03
-1.631918727294588050e-03
-2.333391944493778090e-03
-7.642966597187958162e-05
7.170567533236279654e-04
-7.136183066124757082e-04
-5.518573429881168564e-04
1.363082802310569162e-04
-1.930690122981533176e-05
3.106336527449599094e-03
3.570941783763394248e-03
1.693600618624525487e-03
-8.259321950356329680e-04
-3.041279974415071665e-03
-3.689585376077443059e-03
-3.784569666804980369e-03
-3.870512114729846281e-03
-2.040664445245832584e-03
1.633789454905123844e-03
3.115332851324106866e-03
4.007386533200706612e-03
1.935795303129424693e-03
-3.006775555943360084e-04
-7.409152840519448379e-05
2.934039657522927863e-03
1.850287850450267873e-03
6.148565550092918849e-04
-5.107457494961465186e-04
-1.584013759942283581e-03
-2.519560981281457248e-03
-1.100721799226817574e-03
-2.284180756607192934e-03
-1.564332466854381634e-03
1.448816474021349639e-03
1.505180354526809228e-03
1.143433061986534084e-03
6.206058573700448449e-04
-1.019575854914711284e-03
-4.535144925078241507e-04
4.616947901479707224e-04
-1.240849715310863742e-04
3.705546699988090812e-04
7.182253071200058207e-04
-1.829322628011233491e-03
-3.454966558634723402e-03
-9.488863228295594393e-04
1.576141152726038934e-03
2.144226994889085990e-03
2.899148148933362867e-03
2.322262523429060796e-03
4.083538772582006454e-03
3.158041543720868996e-03
-2.856746705874248660e-04
-4.544216865453649078e-03
-6.681253914773979501e-03
-5.119253861002874724e-03
-2.385483823850292548e-03
-1.756749638253969582e-03
-7.016169867147957658e-04
3.162463672940089409e-03
3.670869592442276008e-03
1.058095611031092042e-03
4.255387728270383033e-04
3.497076116640758688e-03
3.732635731380502375e-03
2.348957317488505579e-03
8.437260741806552628e-04
-2.218786655264369176e-04
-1.066129497683045027e-03
-3.138801216953923667e-03
-3.469434857101222867e-03
-2.138706598197363373e-03
-2.902414710290125623e-04
-7.375004162148886006e-04
-7.906079887669927898e-04
-3.766637206275539625e-05
4.174080195327841076e-04
2.421814306929953239e-04
9.416899342192964345e-04
8.207609358710914746e-04
3.224270135217938409e-04
1.415755767455635595e-03
1.948978654362326342e-03
1.142248674527541249e-03
-2.594022545089678770e-04
-1.968575265262902541e-03
-1.407102507771647781e-03
3.447121958217867939e-04
1.144486671325338966e-03
8.414286933355242691e-04
8.204080942405137314e-04
-2.688718484257567954e-04
-1.170068146349558793e-03
-2.139531305091045815e-03
-1.894698509796627654e-03
-1.582638835230147341e-03
-2.047427917648955622e-04
1.919729243425408476e-04
3.586834587233492157e-06
3.863952663243828923e-04
8.102783362699456961e-04
2.749481173137640743e-04
-1.000669307066250638e-04
2.616049433734867532e-03
4.314163711499684022e-03
2.846978796790551949e-03
1.673478714747018460e-04
-4.158835089958640412e-04
-2.473347087497926745e-03
-2.869866802439346304e-03
-1.983229711628647050e-03
-1.105768806423904028e-03
3.056406365612239062e-04
-5.562676309070276222e-04
-1.150370001765054200e-03
-2.589850311153802688e-03
-1.555926873117518617e-03
3.597091182950615772e-03
5.515722944838169321e-03
2.646603824927315669e-03
-1.985439118576431093e-03
-2.761477414993737320e-03
-4.710902347016269662e-04
1.656072344154562023e-03
1.308101567337310476e-03
-4.661620951096607070e-04
-1.239078728153426021e-03
2.035306271847439705e-04
6.594449512499995841e-04
2.939087539896394468e-04
-1.937181602436676992e-03
-2.335553099247461573e-03
1.741158468121444848e-03
2.723585330326242643e-03
-3.858667909414665188e-04
-3.388132254808289348e-03
-2.840766217482517883e-03
-6.385874166219872652e-04
2.543888860223933544e-03
1.450518638121969578e-03
7.345088749126154823e-04
-1.066476225338874309e-03
-1.005547775430938292e-03
6.413700527604501364e-04
1.136355535439341003e-03
1.687616885608595211e-03
1.803895348755249961e-03
2.195470477934345459e-03
9.619979113543802255e-04
7.684667909906232452e-04
3.005084465949940684e-07
-1.432568253305471382e-03
-2.395769924296492492e-03
-3.576798118599029859e-03
-3.666737862300044077e-03
-1.494258205037262170e-03
-4.502451909659925273e-04
5.135437991248205554e-04
3.204777641249611153e-04
-2.673347792984439577e-04
3.025347388539962202e-03
4.250255987964485921e-03
1.880891294186577212e-03
-2.737833489239612211e-04
-5.467013166234070947e-04
1.656191683017337350e-03
5.174221074167524885e-04
-1.693358809207166828e-03
-7.194274390056900042e-04
3.787627924665545529e-04
-3.806175809074125371e-04
-2.357550737609920332e-04
-5.290792542807093435e-04
-1.213007575775204312e-03
-4.054399033329272699e-03
-3.938623331368077546e-03
-1.079592287678162203e-03
1.569619210051681523e-03
4.720619904650791461e-03
3.130026389341786838e-03
1.463843341038856055e-03
-8.142880183273466192e-04
-2.579782671809561622e-03
-7.452540492870056736e-04
8.884677516318822662e-04
2.617816727112998090e-03
2.886604464768756546e-03
7.290229883354965197e-04
4.542367523525991311e-05
-6.170885353079640914e-04
-4.303655112924565512e-04
-1.620858670856224933e-03
-6.148561394209524269e-04
-2.529468062419223864e-03
-3.622399946920527337e-03
-1.818200143235254454e-03
3.931939837822360281e-04
1.906884467532466484e-03
1.017999158096785563e-03
2.744074761596335902e-03
2.496355702304463298e-03
5.742379300374079922e-04
9.437323969414801970e-04
1.013910497737354399e-03
-1.191237709399799909e-03
-2.759814673182652174e-03
-3.063373074141956774e-03
-2.383883997342082454e-03
-1.304268943488584055e-03
-1.015511707704817900e-03
-5.725396413610938469e-04
2.034816368999162010e-03
4.691258638147821278e-03
5.121487115244642042e-03
3.483693366345872854e-03
1.913055969786687681e-03
-5.299014078585644207e-05
-1.655893845193600082e-03
-2.284253044800293227e-03
-3.605333978787463468e-03
-5.288795817976192637e-03
-5.462409354817127603e-03
-2.085448692781336801e-03
2.623596950904152902e-03
2.335556392753877948e-03
4.894157818649761803e-04
-8.981042820305056853e-05
-9.747593937121176862e-05
1.433293876981472014e-03
3.769263147104233869e-03
5.237613585073339940e-03
5.971540039934867053e-03
1.960513626197962073e-03
-4.111409481587175417e-03
-4.539339176429892271e-03
-2.306978629689286717e-03
-1.467351704778349598e-03
-1.033907196212819355e-03
-3.673110079424066546e-03
-2.732421606211333804e-03
6.070662453001753593e-05
3.963376844341262063e-04
2.976810096603269527e-03
3.050826900540130285e-03
-1.617023796653663161e-04
-8.783392167086023512e-04
1.494635094143488161e-03
2.513634875036996254e-03
3.268847336473396526e-04
-5.101689107207467259e-04
4.380472572636753175e-04
4.051418703379713188e-04
-1.386732392847140347e-03
-1.434977413050311443e-03
2.638746135725544058e-04
1.285036451491111242e-03
1.202138751455394386e-03
-2.426437170532390114e-04
-2.985791318352522088e-03
-4.354451194512038922e-03
-3.035874374050617774e-03
-1.490136949911756437e-04
7.505951532197931413e-04
1.294456543777971038e-03
2.496696869686996535e-03
2.306510102248564981e-03
2.164177092222040102e-03
-6.319283272018035458e-04
4.194889836714497613e-05
2.807832544954108871e-03
1.991079639543249288e-03
-6.274028112102027384e-04
-3.854153684724546513e-04
-4.150398003630595412e-04
-3.458677703984643428e-04
-1.945466297130610993e-03
-1.179648429646777729e-03
-1.635424368368152944e-03
-2.158751737401272842e-03
-9.724045264773350985e-04
-2.531956899521263602e-04
-1.820735349243737203e-04
2.908902917682730364e-04
-6.761841426208504893e-04
8.772724520575965555e-04
3.114493931503524785e-03
1.908108634613384352e-03
6.039538435652842038e-04
1.475342159368587701e-03
1.451074764422079786e-03
-1.016517064895438183e-03
3.071373567524944862e-04
1.284126741446452863e-03
-1.605973963330893910e-03
-2.412613522898949484e-03
-9.699798852020457152e-04
-1.674348753062595988e-03
-2.039059188978638477e-03
-9.347895931240262366e-04
-5.751364578539281281e-04
3.467402207978168829e-04
1.466109110707741097e-03
1.809970799424701071e-03
1.470704355585230943e-03
-2.292511067340009551e-04
-1.079873639848708379e-03
-1.021848815144154547e-03
1.207324201411295915e-03
2.121087770779372418e-03
6.543337103428062754e-04
-3.105471612769026332e-04
1.022762539686038674e-03
1.246463218666717934e-03
2.970911067233564760e-04
8.491642457005420686e-04
6.897486710421090426e-04
-2.088602256583350653e-03
-2.522707776664180786e-03
-3.423921172369812343e-03
-4.084417838999744588e-03
-1.649807832221873325e-03
7.929251714322257168e-04
2.758329328715206866e-03
3.002804658755444701e-03
2.726070140017803917e-03
1.448854433905119371e-03
-6.997897945073131617e-04
2.213052657625250337e-04
6.745558185120562782e-04
-2.840288295554138078e-04
3.704700643953839044e-04
6.323690550635756909e-04
-1.233379341501191309e-04
-1.137812017410795443e-03
-1.333827257883906390e-03
-1.144822416767898388e-03
-8.352449727460929457e-04
-4.269470605318925039e-05
-1.288547422922268300e-03
-3.724140772881109722e-03
-2.349400017917129338e-04
3.634324766397408184e-03
2.949780718737536871e-03
-5.494401620639140037e-05
-1.019082198049625241e-03
-9.357330149564124181e-04
-3.571714124313284415e-04
-9.229687873883862933e-04
2.724779271291866232e-03
2.951969230976818868e-03
2.021121947808173815e-03
1.106550311880180517e-03
2.977422001539166982e-04
-1.243949328059151078e-03
-1.770988493859286398e-03
-7.589952128350984425e-04
-1.495968167880386756e-03
-1.617630140573174087e-03
-1.191325114480462242e-03
-1.200790058025964134e-04
-1.346276120698295742e-03
-1.544352276549371865e-03
-7.354801601174548297e-04
2.135070692103418176e-03
2.481120471045037464e-03
6.013183584891101333e-04
1.218827774263393868e-03
6.621596534009809455e-04
1.665371647898863808e-03
7.034087987418328591e-04
-7.153049766502645075e-04
-1.387617909838792908e-03
-7.183074862277306644e-04
8.247281297044436327e-04
7.978150989709483030e-04
5.823511091963087284e-04
-8.690523703208926981e-04
-9.273465105338442663e-04
-7.629037521070719313e-04
-1.378247810762330081e-03
-2.541133828829537662e-03
-1.718890844621537685e-03
-1.711458699198493928e-03
-1.043410324208219339e-03
2.979009613086452610e-03
2.359723949660020963e-03
1.142944977812627430e-03
2.590851591364559670e-03
2.008596092779051882e-03
1.390740335328308425e-03
1.135236353518112188e-04
-1.859727052452315533e-03
-4.658946908556050454e-04
7.127754776369960542e-04
-3.918989291639659363e-04
-5.597256545902319793e-05
-2.031690442035462112e-04
7.557794791648415281e-04
-1.603442841649454619e-04
-2.106948445709980189e-03
-3.921056428842745190e-03
-3.357204154969582223e-03
-1.207652239164642332e-03
1.594966112467237308e-03
1.838467752153176643e-03
-3.267139763569438214e-04
1.202647161545820388e-03
3.525733534665098298e-03
5.416450452313793795e-03
1.218895602567204037e-03
-3.130541728821207084e-03
-1.850394729767112839e-03
1.075272261552121271e-03
1.361308475920367661e-03
-8.447339923298132283e-04
-6.536724947561035979e-04
-2.818872881212335161e-05
-1.509747141497830465e-04
-2.491511651093345544e-03
-4.533716394796508120e-03
-2.829493915739214258e-03
-1.242008943679287882e-03
1.879129139392107014e-04
1.420860599579958300e-03
1.800806935355202211e-03
1.268788481258124141e-03
6.615558469591140394e-04
3.231997979542568060e-03
5.491167606584803143e-03
4.683274290713591512e-03
-1.441068074152951784e-04
-2.948459038202517167e-03
-2.436657737473771346e-03
-1.905135227589121018e-03
-3.836721664434142223e-04
-2.088618539778549967e-03
-2.532935952435785235e-03
-4.232048734701435947e-04
-1.166914984142319736e-03
2.185441127312561741e-04
-1.205079711634582086e-04
-5.323401433735386974e-04
3.435759949242661045e-05
1.417222068014282891e-03
1.016560852848414839e-03
1.879768413584280082e-03
1.865396887155022472e-03
9.661266903559252977e-04
3.928561496295412004e-04
-1.086813766920995301e-03
-7.382747570859322754e-04
-4.032286102345771124e-04
9.798649902987290831e-04
-2.514560840248366755e-04
-1.216287462766079422e-04
6.252133085161172815e-04
-2.688336181955449451e-04
-3.065138929202965677e-03
-2.061269871134731313e-03
-1.308645866397707041e-03
-1.034366062381909205e-03
5.245546485027343612e-04
1.318710350778989904e-03
2.501199314241316952e-03
2.014358822875334659e-03
3.840518988987198356e-04
-9.619421987112858428e-04
-2.595617275411223057e-03
-3.766895351335557791e-04
2.339775762975459823e-03
2.180083863943236590e-03
1.398456433597564715e-03
8.603797964385483414e-04
2.181239186773103675e-03
-2.035323491280222573e-03
-2.710837478205185749e-03
-1.295728633036630174e-03
1.527117020928699890e-04
-2.631639663031050923e-04
-6.169392335491404727e-04
-3.549126265775977718e-03
-2.686748896019191223e-03
1.028954352055747512e-03
3.307876362508871404e-03
2.154443548783470299e-03
-7.617303228361924170e-04
-8.711829456865660248e-04
1.053770517552920756e-03
1.644439658618755814e-03
4.284554312374753114e-04
2.879964848123760073e-04
1.967936075846720822e-03
1.178813278985781001e-03
-4.140265258897301561e-04
-1.290660515934955680e-03
-3.784138910597261915e-04
2.046418924467582933e-04
-7.279301539980091197e-04
-2.208858300919591070e-03
-3.863610506268052181e-03
-2.097122078831693652e-03
-1.541004034603449344e-03
-1.172790487629471684e-03
2.168948690132942517e-03
4.011604953394460812e-03
1.398007971321972012e-03
-1.169771117284903366e-03
-4.324029593180316131e-04
1.502919525696048454e-03
4.179969585233964113e-03
5.589138162583453216e-03
2.474653171771713442e-03
-2.002163736711506849e-04
-4.201644610330027008e-03
-4.590294675371046386e-03
-2.989666108465991162e-03
-1.476724764425229068e-03
-1.203581986006923036e-03
3.521191486304390324e-04
-1.445123847797319741e-03
-7.813340500930646625e-05
4.541430288308405524e-04
1.808835037065607268e-03
1.683501837110712137e-03
9.851857174355599291e-04
1.081474789552997438e-03
1.357390406458940709e-03
4.349622907289505715e-04
-3.064190891144171966e-03
-1.668898732000660213e-03
-5.722560288415872581e-04
1.594438266798882354e-03
1.013912158382687667e-03
3.332348981591395573e-03
1.993537242898396795e-03
-1.159822645390535959e-03
-1.071973822358861283e-03
-1.068611310735893306e-03
-2.174033281730587772e-03
-1.584413025729484092e-03
-1.823363484295151661e-03
-1.893463273179042498e-03
-1.856758304720418839e-03
1.280627523748016422e-03
2.424478265689549231e-03
1.204620795088757416e-03
-1.235628131920456880e-03
-5.651792749383178441e-04
2.185050195409177567e-03
2.755930195306952653e-03
4.187372758613043013e-03
1.102566547244768734e-03
-1.486413054433278862e-04
6.622318106881678506e-04
6.989996613590754217e-04
-3.186320648296958515e-03
-3.002959663122247141e-03
-1.130711272196580118e-03
-1.770053964336074917e-03
-2.851763116741266608e-03
-1.375977394177247499e-03
-1.499451717878340059e-03
1.026684834660502969e-03
2.527196342002859843e-03
1.012257948843329992e-03
9.040811597595638065e-04
2.657767902476440049e-03
2.453818173764066475e-03
5.892543622138298864e-04
-3.534607227001129639e-04
-2.219117397981819860e-03
-1.390327689958232703e-04
1.145105901521885784e-03
1.474485810517705458e-03
1.003988221041302161e-03
5.252926257682529143e-05
-1.962588257795746909e-03
-3.472099026955855275e-03
-4.721528815129391078e-03
-2.736698497667513184e-03
-3.289603911762791887e-04
2.750731640773793150e-03
1.414294997448579212e-03
1.404785772638416329e-03
9.802769313417812342e-04
3.420705675643483448e-03
1.307289048400914243e-03
-1.202025189981318883e-03
-8.867741637915993198e-04
1.179585255792872482e-03
1.309673803980321467e-03
3.755358930422798575e-04
-2.465449738085427872e-06
-5.034428288420232222e-04
-1.050461594356552619e-03
-1.874633046024218406e-03
-1.069253943748537045e-03
-3.859396893001498016e-04
-1.111644850433434134e-03
-4.055623231412799467e-04
9.196638332660319465e-04
3.814696615708417318e-04
-3.749942331894649383e-04
6.074286917051437097e-04
4.087460123989004619e-04
6.910691737335175827e-04
9.836929644700374582e-04
-8.599604752202328478e-04
-7.283046575880878625e-04
-1.036197343481374671e-06
8.595937643502178519e-04
-2.848089883838364738e-04
-1.144632720983308890e-03
1.947060823221802598e-03
4.880559025885674272e-03
2.942879171113255317e-03
-9.404908988854493532e-04
-4.290730885807042712e-03
-6.752557313027831264e-03
-3.990004652674910765e-03
-6.572970721833960254e-04
2.568728415497323770e-03
3.033905553614717806e-03
1.441988002829502425e-03
-1.507063164671238993e-03
-2.071197836442204010e-03
-7.949621488210244832e-04
3.589633664241913269e-03
5.157368832384334918e-03
1.469016113661983760e-03
2.853628080339485045e-04
-4.206709403601571967e-04
-7.115769346469373244e-04
-6.643178959904122785e-04
9.175885716661517780e-05
-3.656932238058259194e-04
-1.975026900834157655e-03
-8.542658901635553827e-04
4.790410546376075180e-04
-1.243440731793332482e-03
-2.562326128619477235e-03
-1.682439140382561244e-03
-4.573114163285061338e-04
-2.711886226837959706e-04
1.467622525624007017e-03
1.405349778063256149e-03
1.683601380194764624e-03
2.307165144965791885e-03
3.125781450357061758e-03
3.236917198649773893e-04
-2.593794947943315818e-03
-3.343879116782180402e-03
1.271785725478951972e-03
3.315031515355705127e-03
2.024503944061166461e-03
6.139213315673246142e-04
-2.117651065720494059e-03
-2.628279308403380383e-03
-3.770656013576481787e-03
-3.347833006370848439e-03
-1.743968784534252704e-03
2.089972696546840442e-04
1.989971668428557397e-03
1.704807734781465080e-03
1.269098758929433808e-03
1.824668710120354873e-03
1.294099286557873945e-03
1.243212263230450291e-03
-2.919675618403023282e-04
6.542106455793332770e-04
1.313062781292780295e-03
4.237875899585684478e-04
3.724552976649629340e-04
3.298937770420090187e-04
-1.760267064122803026e-03
-2.005885214394213106e-03
-2.005650241979527008e-03
-7.587987519924474598e-04
-3.115026163798063821e-06
-2.463276206776650410e-04
-4.605364677843263536e-04
-1.745086877287960886e-03
1.488754087008329697e-04
9.308151358515665257e-04
2.569576004189126107e-03
1.084057689212045974e-03
-1.861998944729595894e-03
4.282797264672654099e-04
1.984172831922177173e-03
9.521564867253760498e-04
-8.607465291232301637e-04
2.320116707981915386e-03
2.844653791921222113e-03
-5.222353081870713658e-04
-7.659761455897694336e-04
-1.234408694297516170e-03
-2.206942352067570775e-03
-2.418299512127788150e-03
-3.940675837811324043e-03
-3.334746749128480146e-03
5.653556065404235966e-04
5.436832847502856255e-04
2.227911833578710568e-04
1.239083560886248235e-03
2.320787742103631521e-03
4.164089447021877138e-03
2.714691324480968983e-03
7.608439439490608230e-04
4.550772357179817210e-04
-4.219125009722203540e-05
-2.441013056816166479e-03
-9.939091028251568778e-04
7.231650368513815440e-04
3.870265602222096503e-05
1.141865574294543715e-03
1.353687038734713690e-03
-2.307282896609038660e-03
-3.813420132343317386e-03
-2.468685837749641336e-03
-1.686383962929823834e-03
-1.388563883743196021e-04
6.120447244579558209e-04
1.911399901933662129e-03
1.599999320858260486e-03
2.681141119888570592e-04
2.474080536504009650e-03
2.857571445060162925e-03
3.299524476509808468e-04
-8.569690267240788559e-04
-1.180216015178845151e-03
-9.605964585764589000e-04
5.548528819868600581e-04
-1.823331699463106442e-03
-1.067438537825667229e-03
1.012017827851786726e-03
1.549229899209536966e-03
-7.826381849609374049e-04
-5.838016968679772805e-04
-1.140307927804526692e-03
-1.455912248805120998e-03
-1.442666521501183166e-03
-1.619190536685595223e-03
1.005177781786289028e-03
1.939442649382258892e-03
3.455969730043462456e-04
1.170172496318794579e-03
1.255698909647920544e-03
1.086759295662117044e-03
-2.458619713118252378e-04
-1.631459577730480569e-04
1.452479813829564729e-03
2.412775310568568941e-03
1.888410206920795040e-03
1.024775817636381465e-03
-2.089526535674954451e-03
-3.871756029510528205e-03
-4.701283794425760963e-03
-2.354543882095219524e-03
9.782187962244861829e-04
-3.908211173974716988e-04
-3.890202235902821522e-04
1.419955049077318903e-03
2.580257269421363988e-03
2.166266964193344115e-03
7.801450920759576361e-04
-1.586325242305618036e-03
-8.228972972688410048e-04
1.380277832506915468e-03
-4.838554621143730753e-04
-1.090387602938210380e-03
1.222587022155012656e-03
1.556199393269667780e-03
1.422552797677389957e-03
-1.031234556576329445e-04
2.875726327256885516e-05
-6.156988259497261744e-04
2.720806639521659897e-04
-7.834252317427930611e-04
-1.596432801775228083e-03
-3.017143082603458704e-03
-2.829392423442058345e-03
-1.246287108349535726e-03
-6.089619309967097237e-04
1.169102520131133248e-03
3.120023975161769457e-03
1.367120334309458252e-03
-1.267492672307398175e-03
-1.371584663116394605e-03
4.754060313838469050e-04
3.820392142612680057e-03
6.504340923923123720e-03
6.342906446215419367e-03
-1.159714874120131587e-03
-4.036118181820408553e-03
-3.909305107823338871e-03
-2.710150761028852929e-03
-2.975664144786404047e-03
-8.247217078445002927e-04
-1.445799123695066992e-04
-2.060509559088154544e-03
-1.883830263758398335e-03
-2.523164738264587967e-04
1.444701820871184669e-03
1.367979953695697788e-03
2.259930949756453443e-03
2.896158213362663714e-03
2.050082988988647433e-03
4.749207603195256411e-04
2.930947171541937058e-04
-3.434071465340819609e-04
-5.372482407274068025e-04
-6.103490219521163877e-04
-8.801738024683055002e-04
-8.937985223480792970e-04
2.696536803986459684e-04
-1.186675872244583437e-04
-3.486909982880673610e-04
-1.747525946921089056e-03
7.807331236920234552e-04
-1.540392468787939693e-03
-1.759854512194682650e-03
2.148029897822399410e-04
1.275741629947435085e-03
-6.874979687426054965e-06
-1.558434796363312351e-03
-2.463143769846446460e-04
1.402378832857668596e-03
1.757564989839619429e-03
2.677769669849915969e-03
2.031417019044248588e-03
-6.577572113034761518e-04
-8.952013371058533872e-05
1.082303656979387079e-03
-2.693026014181822006e-04
-1.484473712358932301e-03
-2.147215693941220954e-04
1.767424827029996865e-03
1.014475627013055768e-03
-3.471661104453629791e-03
-3.369751529630435252e-03
-1.788942466740993257e-03
-2.586634567287309557e-03
-2.982864182048681253e-04
3.293590582645028030e-04
1.425192494215991737e-03
3.292653321311922801e-03
1.964918638106113915e-03
9.512504169958051290e-04
-3.616565086311531677e-04
2.139908377941457471e-03
2.190454042287804434e-03
-6.783477612657712753e-04
-9.827580023057073001e-04
2.040354362111165246e-04
-9.300862275841879304e-04
-4.043476680778970364e-04
-1.853887501360935650e-03
-3.252993294431000444e-03
-1.797443462605443883e-03
-6.194199079641918553e-04
2.128791085388551151e-04
9.450906839334487133e-04
1.827020230131035051e-03
6.664002035059385983e-04
-1.225164897941316946e-03
-7.153275844885868470e-04
2.720057918504808353e-03
2.721209205438993983e-03
1.911013537569212052e-03
-9.227066626783324808e-04
5.955262045444181362e-06
8.768238314644159444e-05
-1.642190964179202810e-03
-2.196132436269989264e-03
-1.246911366891390819e-04
6.056030846007743658e-05
-1.581559166992126900e-03
-4.200031120444164528e-04
1.001180204937695021e-03
-1.389470989144963274e-03
8.623440760441388635e-05
2.733186788065258745e-03
5.387627179039802816e-03
2.775033973797755640e-03
1.993936863527482565e-03
3.958817797846004433e-04
-1.286594643128432733e-03
-4.275498846821155705e-03
-7.013473564809817075e-03
-7.908254495177171814e-03
-2.435141999067892693e-03
1.295436272049050241e-03
1.451745067217181853e-03
2.013987111462709791e-03
2.998540438314898759e-03
3.194397753603747843e-03
2.594574907566676858e-03
8.628935340506606756e-04
-7.818641612172200011e-05
-1.900786106545714565e-05
6.044934795892109016e-04
1.168947769906111779e-03
1.781587990063138952e-03
6.910456686876509814e-04
-5.194809228053339986e-04
1.092035897605051582e-03
1.440836859523213264e-03
-2.489370859573824743e-03
-4.857236682172370694e-03
-3.165252567850229421e-03
-2.680189422013793624e-03
-1.782717232708815177e-03
-1.733153327533191405e-03
3.454274769539374297e-04
2.155573526720303695e-03
2.171667715976263041e-03
2.534173342068142716e-03
2.178743761660075200e-03
3.394111187950955583e-03
1.596818591370048048e-03
2.844548269777364639e-04
-1.627847758796095593e-03
-3.243864348569639247e-03
3.006709113713864050e-04
5.991933161833861484e-04
-5.238474918822139158e-04
4.453551783219591217e-04
1.235815598760390144e-03
1.117920074169687864e-03
-3.215381623037502894e-03
-3.915657876930587512e-03
-2.579786008111170301e-03
-2.318294404178215459e-03
-2.266721079972328860e-03
2.724356027010763461e-04
3.414330624115002009e-03
4.499686255220400506e-03
5.277178399755264905e-03
1.827732555683925621e-03
-7.893943446067419167e-04
1.087039448501530984e-03
5.665517481452655643e-04
-1.173392527352015453e-03
8.079193980113206391e-05
-1.643422670359045035e-04
-2.286695928965321381e-03
-3.001934235632002131e-03
-2.530257280983791521e-03
-1.084293057784605505e-03
-1.614377666824707820e-03
-3.476981147038026802e-04
2.529281526528073722e-03
2.258627336979555835e-03
1.715701981598051571e-03
1.183576824058620806e-03
-1.228046894327196933e-04
-1.921608110218598784e-03
-7.284977265178679351e-04
3.777132549767813407e-04
1.521073170637511239e-03
6.887855027726045003e-04
4.464422616084124155e-04
1.683768246094132252e-03
1.328024871050846817e-03
-1.855113739271365509e-03
-2.681340241720198917e-03
-1.142156114372355627e-03
3.830937404730726958e-05
5.920802728729895404e-04
-3.926358204763566120e-05
-7.220276444064929874e-04
-2.294500332273616272e-03
-3.144798333854458266e-03
-7.404046532718453182e-04
3.331890925169893932e-03
3.361899498739431922e-03
2.328481234591863163e-03
1.520095348945480753e-03
-9.939251705712675005e-04
-1.515153891187075511e-03
-1.398095891491722914e-03
-1.251544477529155592e-03
-6.333474163406011340e-04
1.340524391334731820e-03
2.030320242604815965e-03
2.445956236728249848e-03
1.604461802965134005e-03
1.955412880974104878e-04
-1.092980947525579605e-03
-6.546226935450124304e-04
-2.216828573495507708e-03
-2.324278155382871434e-03
5.052766340991084719e-05
3.046359658416502962e-04
-2.487362375841599502e-03
-2.827862851711294805e-03
-7.006885953338530537e-04
-4.877371965140455784e-05
1.292194366326315184e-03
4.722654781288818972e-03
3.855705251796522504e-03
1.298120819797281321e-03
-1.880675328248743563e-03
-2.335166121745842639e-03
-1.462938632482580197e-03
-5.209480335508753215e-04
9.017827621902643059e-04
1.529249751961683345e-03
1.453376434256259788e-03
1.984445869178824880e-03
2.299171428778505784e-03
8.181085621304440888e-04
2.467557385910893082e-04
-1.421674391685029187e-03
-2.814776899612789381e-03
-5.586212279260579193e-03
-7.089516784039896075e-03
-7.401858406028899234e-05
2.592912081956279171e-03
8.794419942046709671e-04
-5.049271610727272715e-04
4.058523331347408791e-04
2.825983902274800674e-03
3.820940070487843093e-03
1.046940653623767417e-03
-3.876693445781650375e-04
1.726720323313333735e-04
1.828241466268111775e-03
9.040806404736671884e-04
-4.554538527411159651e-05
7.479021538087679642e-04
1.372384365916143453e-03
-1.927539565884020230e-03
-2.537644919571670037e-03
-5.583540062373260320e-04
-1.425295042432156998e-03
-1.562111495611379552e-03
2.660256996787922957e-05
2.313728539891171405e-04
-2.057687384486692802e-03
1.523258376225553306e-04
8.987390239215708489e-04
-4.281847919277732145e-04
9.123605361315406106e-04
2.801983976387022526e-03
1.448596420833433984e-03
-3.760496226900675223e-04
-8.149146630933496761e-04
-6.054542967667635688e-04
-4.866237529214625284e-04
-4.366189404607235657e-04
-1.312921371761044897e-04
-1.654010221283466514e-04
2.357783862458645747e-04
1.643005956532733237e-04
2.337584172850938288e-04
2.904829760485034694e-04
3.294221520688691662e-04
7.999765260154667384e-04
4.707969234351979337e-04
3.983540887344664042e-04
4.190478511383557330e-04
-8.610651379357542594e-05
-3.587655460322509201e-04
-5.504978010352370001e-04
-1.111396566332224127e-03
-1.721509542149616189e-03
-1.596423556784124908e-03
-2.540339903797609201e-03
-2.081884036984550396e-03
2.860775315606287929e-03
2.396158603863282090e-03
1.579565339071593508e-03
8.788795520211485721e-04
-1.275368900824836224e-05
2.399911001336450713e-03
2.749933984224346099e-03
6.955837376077030499e-04
-1.212779228966285152e-03
1.825077379338653190e-04
-4.648408753686335515e-05
-8.706036222615496463e-04
-3.539154996649985282e-03
-2.421422394269139369e-03
-1.636914050584787608e-03
-2.542906518794752109e-03
-2.667811519455367576e-03
9.288602258085009063e-04
3.107386668836426523e-03
3.155235075433198040e-03
2.340938680303838310e-03
1.773718144706595097e-03
5.694363810976753228e-04
1.213946613287432023e-04
-3.251891836839322474e-04
-1.629088235374694668e-04
-4.723427838091736513e-04
-9.682055626465695033e-04
-4.545834145224859381e-04
-7.898608692662567165e-04
-4.756451506127119897e-04
4.544787532080112556e-06
-2.872692672213607518e-04
4.210997957270025741e-06
1.031433469302913238e-04
1.546558318365805359e-04
3.092902800533273589e-04
2.649461050044350048e-04
2.932481122612669143e-05
-8.076000662718490445e-05
-3.557812219367428560e-04
-1.603421075245483105e-05
-2.646340396829427780e-04
-3.215408411982904283e-04
-6.294654866758432393e-04
-5.666469833548630009e-04
-1.270151855420953218e-04
7.819432165552258772e-05
3.449276031829706657e-04
3.493812517031005360e-04
9.786291310043535897e-04
1.279137277422324115e-03
1.357216219533722212e-03
1.770931515110801347e-03
1.244564887445154776e-03
1.097972072838169751e-03
6.738285894490092564e-04
-5.208436759717708546e-04
-1.741458909189070800e-03
-2.680043751434134543e-03
-3.614844732031662587e-03
-4.036019796517751994e-03
-2.952065124512086650e-03
-1.334927519066496891e-03
-1.515365252974701154e-03
1.506351697334719656e-03
4.183111674861843265e-03
2.804403541509035980e-03
1.727862177034777394e-03
2.692085599888406622e-03
4.812433086031424681e-03
4.579946556288033536e-03
-1.086050281111915509e-03
-2.931831336834533116e-03
-1.947284666690336482e-03
-2.797230933363372644e-03
-1.455646606636189526e-03
3.056222453606913681e-04
1.106015049716078030e-04
-1.965003996444419920e-03
-2.932504845297049210e-03
-1.466371231779064208e-03
2.650171534465067900e-04
1.633661773180617631e-03
2.024009560534077712e-03
2.356151671192479105e-03
-1.020674418193692626e-03
-1.682448500512479352e-03
1.150360521940882235e-03
3.217059342605502539e-04
-3.411609810078422003e-04
-6.735312619981626665e-05
2.298749752539040302e-04
8.517010011221268695e-04
4.146078073846071925e-04
2.760203790181937596e-04
2.631245394624222127e-04
1.116124665844990494e-03
1.438761931415743350e-03
6.003145985492486974e-04
-1.108981083380737413e-03
-2.475016376312209714e-03
-2.425539754669056407e-03
-1.706900085780949528e-03
-4.418873671615593680e-04
4.966103652743452529e-04
1.620537829263319057e-03
1.162495382121963780e-03
1.329030479742445564e-03
5.163945691338490875e-04
-1.962993767186075201e-03
-4.204507504681663337e-03
-7.991078354471848125e-04
1.752115062112896910e-03
3.040300244570396174e-03
2.032453859827070258e-03
1.646702620173200442e-03
8.173251608297711981e-04
-1.996041752903720320e-03
4.289652538694862480e-05
1.244678226629947811e-03
4.857968477923901461e-04
-2.450125180207009517e-03
-3.513100674479067986e-03
-7.928982940663780159e-04
9.052217891475538344e-04
1.048425891824899484e-03
6.307435890301126783e-04
-1.793319616956558791e-03
-1.897620722646085802e-04
2.476310736899971394e-03
1.871374723098516261e-03
1.908094524630843478e-03
5.568890028654668433e-04
-8.062706246974488437e-05
5.856852267657426453e-04
2.643099432309066357e-04
-1.484934629651086298e-03
-2.791072148027365016e-03
-4.811718768344143936e-03
-2.897400470156972444e-04
-2.586609968798136896e-04
-2.156158981291076207e-03
-2.952671159786682611e-03
5.361508711749297159e-04
2.181140970143990131e-03
4.079530678731502040e-03
2.966986771249272362e-03
2.572328547905831844e-03
2.474354118200616185e-03
2.526694570191396171e-03
1.332724479486945132e-03
-1.156718899743799153e-03
-1.043794472554139714e-03
-2.684357690096375072e-03
-3.270048717960123870e-03
-2.892484565649666283e-03
-2.658354766365007404e-04
-1.114884843557936408e-03
9.008232401745348058e-04
3.843061593310393050e-04
-1.335829210207737901e-03
8.942873833327729793e-04
1.250965481621024028e-03
-1.320164669847332089e-04
-6.753549757301767487e-04
-1.002189642340809133e-03
9.518198557869878126e-05
3.365054851121630341e-03
4.670462315795420420e-03
9.402010682173012664e-04
-2.353202952756344290e-03
-2.330293294814167211e-03
3.823587060178003892e-04
2.113320275941338484e-03
1.161750162343900037e-04
-1.934422298194012763e-03
-2.333137170287859653e-03
-1.647843541496671034e-03
-1.041160731177843057e-03
1.698493434661196063e-04
-1.287099337166944637e-03
-5.885735090799974539e-04
1.142086100724441430e-03
1.255189051348190327e-03
4.522270630560932571e-04
1.560589166847290788e-03
1.290063039289449445e-03
-9.211952067418440002e-04
-8.457156285565567953e-06
1.594891876619069625e-03
6.138858215271539981e-05
-6.387915956909238511e-05
1.321586912837954342e-03
2.627276797493995324e-03
-3.668820818072220498e-05
-1.563996282369360755e-03
-2.495677597559592484e-03
-1.691905512426285273e-03
-7.530470743914152981e-04
-8.127057833425537382e-04
-8.576553582849625983e-04
-1.236845668444523779e-03
-1.220669019780077063e-03
9.975777318260235348e-04
2.959042895950114715e-03
1.293930640772627660e-03
-3.460934334485342347e-04
6.232291134924629241e-04
2.245344822586390308e-04
1.041094193070703526e-03
1.536079604058034368e-03
-1.315273458828210718e-04
-6.120788440425009884e-04
-9.759934809957453812e-04
7.654142787959103628e-04
2.019367795125325926e-04
-1.983405839409467324e-04
8.255097383724347955e-04
-6.391888992262590536e-04
-2.692398883500888695e-03
-4.946819686259041650e-03
-2.884785530607007504e-03
-6.795312689490567472e-04
2.434455866639086532e-04
2.420609904993559474e-03
3.494528808218825850e-03
1.853056538623843287e-03
3.948951664664458912e-03
4.308567846319421787e-03
-8.895887520834692540e-04
-2.673829988499674438e-03
-3.080851862472719447e-03
1.176455205160032271e-03
5.133369131567493485e-03
1.835160285943029847e-03
-3.771122707546205668e-03
-4.597309093892350436e-03
-2.853186246782510403e-03
-3.787198064194770893e-03
-8.838551521816427354e-04
1.795415367770328372e-04
1.062205751189312670e-03
-2.298213993465815811e-04
7.232066184380385194e-04
4.069589581986254520e-03
4.462054366377390252e-03
1.126164485467169530e-03
9.111023749428599685e-04
2.848292971068865174e-04
-1.846793149986951680e-03
-2.458429969051040623e-03
-1.421618568620370768e-03
1.551041909047198375e-03
1.415417330302618350e-03
-1.215076086640063009e-03
-2.966647222744913867e-03
7.173308958522245881e-06
2.765573196493677135e-04
-1.134705879907975271e-04
-1.699240075985888020e-03
-1.497608119237092738e-03
4.292116759456082774e-04
2.190440078036375200e-03
6.187134968370257141e-05
-5.315099471036124380e-04
7.889076267699495675e-04
1.149345966336948226e-04
5.404971018217223037e-04
3.003973064623012296e-03
3.138737435567114635e-05
-1.527855179840803546e-03
8.847924110949878258e-04
2.335016418617301068e-03
1.995621203340550501e-03
-5.400833510487217749e-05
-3.281032009225571394e-03
-2.269779680240472872e-03
-7.560860804133688867e-04
-3.322149135576246779e-04
-5.975197451089399574e-04
-3.277386519867860754e-03
-2.763180020575809782e-03
-1.517966163239218517e-04
2.092618125096130152e-03
2.577304775218718091e-03
4.640343561429110565e-03
3.836553935257729260e-03
1.059253500167914698e-03
-2.647214262072679694e-03
-2.271298982079145157e-03
4.877338354839619219e-04
2.737565715886249550e-04
1.317357370688891161e-04
-1.002071278461981766e-03
-2.347093034327168894e-03
-2.497887163497200871e-03
4.234855909457672842e-04
1.137208942354562017e-03
7.841862926173111085e-04
-2.079456092355518992e-03
-2.177921348239080998e-03
8.836497272593944394e-04
2.309849604808150280e-03
1.266115302050923068e-03
2.248424079642023180e-03
5.841989322593139824e-04
-6.323385564955708461e-04
-3.071730368078115676e-04
-1.788125151004422942e-03
8.683615016984395224e-04
3.153424026977602601e-04
-4.319930047487226645e-04
1.476968930429798255e-03
6.436678218881486868e-04
2.078227870840161032e-04
-2.041612761155587067e-04
-5.088654187077740876e-05
-4.671252505556636571e-04
-1.514381854537830445e-03
-1.110752374602303394e-03
-1.590818717041826008e-03
-1.465402754369979875e-03
3.055192870284339796e-04
1.917338671608610507e-04
1.617257951940008845e-04
2.034744688236207397e-03
1.222501209767106432e-03
-1.218181829443144631e-03
-1.638591445749737040e-03
2.386890668454771589e-03
4.125945077068544908e-03
2.338387351907843074e-03
5.744694080521221667e-05
-5.951059224935579574e-04
-9.992293149806775240e-04
-2.344273046022473392e-04
-1.942619113572168410e-03
-3.186665212004023695e-03
-2.078396914927956463e-03
-3.730667615675772528e-04
-1.793059359405694067e-03
-2.876737912533196880e-03
-2.597142396609825477e-03
3.777424100037617659e-04
4.167742462318445133e-03
3.673367213667777346e-03
2.776053620340229820e-03
4.872856366011982070e-03
3.414004966775790063e-03
-1.771226363536013452e-03
-8.089349885595561312e-04
-1.700494723854173310e-03
-8.670445583182199729e-04
2.248920906034268617e-04
-5.043349759946160176e-04
-1.164269988725982275e-03
-4.654557055145901439e-04
-1.377446273815938075e-03
-3.648748477595199768e-03
-3.500001461965020037e-03
-1.855449179599016115e-04
2.631582483065202788e-03
1.911831936093173366e-03
2.706730776157759231e-04
1.549127474423963625e-03
1.501749389605628714e-03
-1.068282089766899251e-03
-1.718358525566236706e-03
-2.870644721064719322e-04
1.240303118743440102e-03
1.935282351960773001e-03
2.078952940641667219e-03
2.247626189465299750e-03
-6.522262584516104814e-04
-3.004669451652826860e-03
2.645170916760162405e-05
1.226726354454763966e-03
7.141524787110118191e-04
-1.838703614651927788e-03
-7.925333912111803087e-04
9.656657582732901778e-04
1.114466705537532062e-04
-2.081224766346883095e-03
-4.165933234467546209e-03
-3.763433428820928475e-03
-1.227842117794386480e-03
1.721031457492832283e-03
3.517133004927217900e-03
1.672566974910296702e-03
1.163412588779087287e-03
1.301052494389978416e-03
1.529417919706864849e-04
7.949060836327838126e-04
4.770106382431728732e-04
1.762736112834321954e-03
2.155114232716810740e-03
2.645894632113125929e-03
2.440054616015358230e-04
-2.710075717497582339e-03
-3.420482372738369980e-03
-9.181990658569452995e-04
-1.748235409980058910e-04
-2.942912630067368723e-03
-2.870368034223862337e-03
-2.131662059827935454e-03
-7.474676244009529572e-04
5.135501522444112926e-04
1.046458007341305842e-03
1.931484575132372738e-03
2.419945879921044617e-03
2.524378700403441273e-03
2.252831449082482850e-03
1.912783429755346041e-03
1.958932690366418580e-03
5.537665173866097076e-04
-1.731090040104782141e-04
-1.750331684762004196e-03
-3.562193563964284951e-03
-4.065626256995492731e-03
-1.855712924702956597e-03
-2.421391628329293711e-04
3.794531926689485857e-04
-1.747229890465089351e-03
2.279141856926626897e-05
1.504828268535470925e-03
3.441346651308510671e-04
-2.273229728327431036e-05
1.082358963088320743e-03
3.100323566548345879e-03
1.637473613987408191e-03
5.991610014253176598e-05
1.859901129702751970e-04
1.502491289655444925e-04
2.188563269852922700e-03
1.655127235701581677e-03
3.024917754103362017e-04
-8.850463081915396811e-04
-3.517113383784065388e-03
-4.468345889502866632e-03
-2.130499627280835022e-03
-1.903350652141620704e-03
-3.246744241844209348e-04
1.043503135245262134e-03
1.411412817387517607e-03
2.590058842659172592e-03
1.816901097832170856e-03
-6.705003365557267632e-06
1.377657165974950160e-03
1.569556300934770322e-04
5.885206773229097101e-04
9.791943402895004252e-04
-9.722732540502758859e-04
-8.486045102694555770e-04
2.810300621289783243e-04
1.967476360281858287e-03
-3.465664078356618097e-04
-2.812617654376860753e-03
-3.093598584640120525e-03
-9.742986300500615631e-04
-4.110144788291846143e-05
-1.733673288191961859e-03
-2.296892437448697956e-03
1.568715459118218310e-03
3.393945090611886692e-03
3.110483328287420510e-03
1.094750543126790524e-03
-1.529938718460527401e-03
2.990022779284551724e-06
2.505718506819996222e-03
1.702425385563605597e-03
-5.977817865630289306e-04
-1.381253701690800121e-03
-8.945104192003727370e-05
-1.514175195921315178e-03
-1.909103522081175052e-03
6.378945659555421577e-04
7.142702118797807868e-04
2.337593482273413268e-04
-8.694588908831520080e-04
-5.195802114697289443e-04
-1.059409714646238326e-03
-2.472432722794124134e-04
8.085734341767054781e-04
-6.190235611374816807e-05
1.652696025917401845e-04
1.925273830477221846e-03
6.225313984001687104e-04
-9.460982052170880676e-05
-1.609227589676132109e-03
-8.751872273342789325e-04
-7.933986747192361662e-04
4.701003044905821505e-04
2.617833129783893667e-03
2.916405146133664150e-03
2.300893330066147192e-03
-7.273698032005109382e-04
-2.927816363326147132e-03
-2.270317626573487100e-03
-2.206935261086533616e-03
-2.517033130740805019e-03
-2.207874404810025205e-03
-1.278713221404292368e-04
1.367598585493460606e-03
3.277894206987418471e-03
3.238530746925349577e-03
2.473793214219164715e-04
-1.067282933163249273e-03
-2.142443055384858326e-04
3.791069516357835605e-04
-6.661507474464142342e-04
-6.286600872097683392e-04
6.005334607153902000e-04
9.780899623689598248e-04
2.262176301687957025e-03
2.844559998972994146e-03
2.638541884505640929e-03
9.478520025313360393e-04
-1.849370290090911282e-03
-5.057513745203408122e-03
-5.523298826299467487e-03
-4.041423848743026966e-03
-2.302331817015057947e-03
-9.103699541638885905e-04
7.647155371215826839e-04
6.147115048818608098e-04
2.331308973933095014e-03
2.429414154726946933e-03
5.500340274998003799e-03
4.523898309838327893e-03
2.991931365026131908e-03
1.939027161290501422e-03
-6.646207574065668162e-04
-3.499428775019260748e-03
-3.874187476720207871e-03
-2.907107690833584269e-03
-2.773814938020158390e-03
-9.040126579065259609e-04
1.629157899883784894e-03
1.484015661439425354e-03
-2.356268261851808261e-04
-8.808399298791375715e-04
-2.270679150761940315e-04
-1.720523736156093827e-04
-6.198497268871318733e-04
-2.384416201093799911e-03
-3.282782051871330079e-04
3.357621583209192181e-03
2.658245345439219816e-03
1.616091191749995928e-03
-6.265424188369383366e-04
-2.810306596712526441e-03
2.708792305116901594e-04
1.900589699343840921e-03
2.056281009544683701e-03
2.376177119459179678e-03
6.685110627263983994e-04
-1.913021683076581835e-03
-2.848386765329381093e-03
-1.451916755281134437e-03
-3.937258619434791992e-04
7.122445747670313933e-04
-4.877619252561639709e-04
-9.985449032349372287e-04
-1.783154215518897336e-03
-8.967552813790054386e-04
-8.118960879064844940e-04
1.040210353116363803e-03
2.959803704211162474e-03
1.570478973952995662e-03
-8.582340229407860264e-04
2.310601322130824420e-04
2.070333718560923592e-03
1.127988398061591626e-03
-4.810984819952762725e-04
-1.813926908402536562e-04
3.355157108659070344e-04
1.494354667791894195e-04
2.995292516840485189e-05
-1.549146140770707425e-04
-1.589169026690791372e-03
-1.014504991148121099e-03
-2.326869049100174086e-03
-2.234580303595504105e-03
-2.010356236698574404e-03
-1.087029022668561246e-03
8.007823584509891511e-04
-5.195709001576095579e-05
-3.621565438620346651e-05
3.372627651534332131e-03
4.284674753270686746e-03
3.192330114005672258e-03
2.085917367067375693e-03
1.096424409989444661e-03
-2.875479186099271639e-03
-1.659078018026612566e-03
1.608699882939381874e-03
1.492189703874661133e-03
-4.284233813133054083e-04
-1.349313732698659979e-03
-3.645370299662500316e-03
-2.354279480488890349e-03
-2.873141774912536545e-03
-2.189429384938935876e-03
-2.767417461021924509e-03
2.664247926984747005e-04
1.571625430637284184e-03
2.831180683126138971e-03
4.964736423016369304e-03
4.920129499998070373e-03
3.757968636080714561e-03
-9.785902505603210743e-04
-2.750563599424532719e-03
-2.805477571366881556e-03
-1.628918344975155029e-03
-1.077304392498475627e-03
-8.648590245067542051e-04
-3.918047662382693856e-04
2.326152151170386706e-03
2.572266232247380751e-03
5.266915808864791387e-04
-1.326956317789288603e-03
-1.405931669564199462e-03
-3.759338472019635273e-03
-3.726709269858593729e-03
-6.057539142893186238e-04
5.123442195903511916e-04
2.470965277239317755e-03
4.140872492995995025e-03
7.198174799653703822e-04
-1.012845132015537672e-03
-2.478164337784893520e-04
1.056495691951478281e-03
1.072295079815425338e-03
1.306095320385852352e-03
8.028747542908439483e-04
1.151085166860651179e-04
-6.638796045986486568e-05
-2.812588537239191916e-04
-6.373408844043101419e-06
6.048618941305728395e-05
-2.757589284977938343e-03
-2.126526276658351287e-03
-5.508318868025121728e-04
-1.437210962931085960e-03
-1.464546745194744834e-03
1.786190671622938904e-03
2.658800015267242123e-03
9.999588071189478584e-04
-2.420975113312391711e-03
-1.489669554065398919e-03
1.212452134059405651e-03
1.119523436433668374e-03
3.764918017466793113e-04
6.657869977523580814e-04
6.122078716202150519e-04
1.581012263708952807e-03
-8.664344242893949784e-04
4.237324943767120547e-04
5.489494214912941971e-04
1.168661053400134450e-03
2.841951649275579377e-04
-8.913982923748614692e-04
1.459719252355614217e-03
-4.274812165730266654e-04
-2.552554081994864305e-03
-4.101909753637588904e-03
-2.871227363733431029e-03
-3.026233513048789785e-04
-2.670791588177702774e-04
3.908012355816287771e-04
1.166268834839463220e-03
1.549537154462865378e-03
1.019877779884665074e-03
1.023154445242366924e-03
-2.209686352508488747e-04
-3.986137409311694187e-04
1.708662167088669621e-03
1.798123317919881172e-03
3.475229915048123029e-03
5.134476572245255319e-03
2.558203731834354615e-03
-4.362592002093083725e-03
-5.822632591335216365e-03
-3.609885400746327792e-03
-1.638365485375902581e-03
-7.550964802789537824e-04
-7.206792052525691755e-04
-1.276290176551179078e-03
-1.686791930825058293e-03
-5.905398904252769738e-04
1.555566393118921293e-03
3.387407819194954324e-03
2.476654572359181759e-03
2.193459380146301190e-03
4.120896771818217171e-04
9.534262312732866024e-04
-3.008088096580216822e-04
-4.535680495047667189e-04
-4.243978326509163378e-04
-1.284844291036635593e-03
1.693428121092783230e-04
1.502966727709941028e-03
1.357872431764351904e-03
-2.394450172006852887e-04
-9.605720802596177769e-04
-4.108830340949080548e-03
-4.581371968224189073e-03
-2.603834660768375095e-03
8.441781903943100258e-04
2.346026207601424520e-03
1.535573016755857265e-03
9.387954416097069998e-04
-4.405564924114919404e-04
5.036018532726743106e-04
3.346480402983405527e-03
4.130866368652078013e-03
3.148173641412529630e-03
5.156750459831263220e-04
-9.214274834345897221e-04
-2.451404671366290595e-03
-2.319293416213150365e-03
-3.503286219382388544e-03
-3.028813530977946932e-03
-3.571949396959440189e-04
6.328830107821556503e-04
1.913320857161704934e-04
-3.553136545444207303e-04
6.321054467936639085e-04
1.594415893400138659e-03
2.350053362339500369e-03
1.041838598865713322e-03
-3.709568258479132522e-04
-1.453841648611511926e-03
-1.923879779164845575e-03
6.392999163102552852e-04
2.248996202125762810e-03
5.996478315209220235e-04
-8.123021618020157854e-04
7.515895006182200452e-04
7.125463289373011079e-04
-6.551065241172211392e-06
4.431999393073676415e-04
-5.021557063784151849e-04
-1.120674553125600549e-03
-1.340724762772178597e-04
-1.285525933330561310e-03
-2.354669147819785265e-03
-4.315276289445452683e-03
-2.336311772218529776e-03
1.853455390847285255e-03
4.385292247347544192e-03
2.906355826719156897e-03
-5.266394616398513157e-04
-3.669621506973755592e-04
1.279116931540677992e-03
2.280926505682768623e-03
1.551000797112356234e-03
5.720887215634716267e-04
-1.084365570981119756e-04
-5.699977315329654267e-04
7.756904726638255004e-04
3.237293264714560196e-04
-1.715652307655888198e-03
-2.226891885713401867e-03
-1.898802102550541408e-03
-2.322054393496292453e-03
-3.088263943573498795e-03
-1.484800948069921276e-03
2.010557486814820282e-03
1.437996900534318102e-03
1.526497953387988488e-03
1.057963785011778977e-03
7.983712827094020890e-04
2.579532870834044898e-03
2.125711533345714995e-03
4.972256377566073009e-04
-7.917787784205386741e-04
-1.297586575919435067e-03
-2.102367496440515383e-03
-1.844163256736749924e-03
9.970309466004348507e-04
3.524338997739137093e-03
4.224763382757961046e-03
-9.959301696125563274e-04
-3.552599213986475709e-03
-3.389330800803004931e-03
-4.401775585706142573e-03
-2.384102381343261579e-03
-1.206571536180198797e-03
1.828265623135031130e-03
3.009861369212098355e-03
2.283736233123919226e-03
-4.169049118151336563e-04
-2.939668322691167939e-04
2.544983123769226432e-03
2.473912136926518721e-03
-9.724288404408590585e-04
-1.992005235336451099e-04
4.124274852673266885e-03
2.152188053044590613e-03
-8.712822967072079809e-04
-1.695138722014042200e-03
-5.813224367763332023e-04
-5.347606980614547870e-04
-2.567216811709936014e-03
-3.861307678648679374e-03
-3.260515007747000378e-03
-1.572967203930842684e-03
-1.114426549588986475e-03
8.762935583440151948e-05
2.186705430531376768e-03
3.665352183194332727e-03
4.535085567167981314e-03
1.754912546095227814e-03
-1.310839237090962372e-03
-2.370501150496313013e-03
9.988592123528988547e-05
3.348675689410261259e-03
3.707474664984565342e-03
-4.885764226249885730e-05
-3.189235598229497089e-03
-3.567555921078408455e-03
-1.314356131906285188e-03
2.501016240907948541e-04
4.152904541006989005e-04
-1.971673711563644987e-03
-4.082785547491769168e-03
-2.469362993359688462e-03
2.194734314786967160e-04
2.708077639587487713e-03
3.867636534105079425e-03
3.168126372896483064e-03
2.046519438976920902e-03
-1.284822195284645143e-03
-2.227647280512687431e-03
4.366805605600470024e-04
1.495038965835806697e-03
2.275107466127455381e-03
1.950698676335415683e-03
-2.149593800901497022e-03
-3.398571699438087280e-03
-8.193754122992455338e-04
2.140128412595007027e-03
2.952300424833563010e-03
4.712960441124856999e-04
-5.063535223554843125e-03
-5.617110566842711469e-03
-2.600060765417381778e-03
9.126249054348062415e-04
1.858104357948509771e-03
2.523130785192953789e-03
7.748659688174943435e-04
1.501419872644039208e-03
7.397248826967260226e-04
1.237365583346649017e-03
8.549193047537233334e-04
1.953967381154253589e-04
9.270828869280680696e-04
4.451135769846337013e-04
8.771619729321821933e-04
1.152279785552212448e-03
-1.164478657331450380e-03
-3.460056736103396535e-03
-2.648562575128325311e-03
-9.683094837997995811e-04
-2.472503129353793763e-03
-3.723359982997422914e-03
-3.570216910418044093e-04
3.451107032693364642e-03
3.983082217314743226e-03
1.084889027653205016e-04
-1.227798936641940871e-03
1.103516057873426886e-03
2.413003022087663665e-03
7.346846779709228798e-04
1.403594594957318200e-03
2.407866330614166078e-03
2.173490864955517944e-03
-1.499867640816455886e-03
-2.889064298411528776e-03
-8.544768761165682461e-04
-1.123186875097574892e-03
-1.636055371742178030e-03
-2.767281954438001196e-03
-7.608164199998962863e-04
-8.882747482269320318e-05
-1.397572566106150159e-03
-5.932611526811094925e-04
1.847963384200010774e-03
3.929187796353450848e-03
3.351035049180560270e-03
5.614590282748499559e-04
-1.092839155085025731e-03
-8.599898816029046336e-04
-1.192954607698613412e-03
-2.866096537474997069e-03
-1.159457260874402615e-03
1.019322944729942520e-03
3.206986520436889108e-03
1.587189411346464621e-03
2.114436958393625231e-03
5.267113537638060290e-04
8.105833892619704502e-04
-2.080615999048911159e-04
-3.859592314882776768e-03
-5.052034409796464509e-03
-4.020574445521162346e-03
-2.362117675112558254e-03
4.704275664197635643e-04
3.043896917761977888e-03
3.922119132813248199e-03
1.507573709593512104e-03
1.207618618915835612e-03
1.904833681902407867e-05
1.021012731904356961e-03
2.845232931074429417e-03
2.423008343694366303e-03
-1.045510084248169134e-03
-3.494439026568426504e-03
-2.396669252655833464e-03
-1.642826278915357182e-03
1.280697171175380423e-03
1.714769661499652683e-03
1.106706335348541957e-03
7.563254159400810634e-04
-2.148310528311136221e-03
-3.237784581125976394e-03
-2.251705320885082941e-03
3.184755300825144794e-04
2.313209100178631114e-03
-4.017874860073522222e-04
-2.045174565168485009e-04
6.136341947349811246e-04
1.289964272725734789e-03
1.673257672076441200e-03
1.154429284989147951e-03
-8.761615269771265164e-04
-1.824290101611484530e-03
-1.086657888655423243e-05
2.735329103250382522e-03
1.384600527096247011e-03
6.783562779434769039e-04
9.408170602312462480e-04
3.701315249071818452e-04
-1.297395042639509126e-03
-5.227422894914324734e-03
-6.773534292585908084e-03
-2.802822523560372092e-03
5.187026092524397395e-04
1.912374124295657639e-03
5.133248157428802610e-03
4.010320627705558916e-03
9.043132499682042438e-04
-6.218389582854351536e-04
-1.908851657892817735e-03
1.477785922012313409e-03
2.657973801346638024e-03
-8.175235644234129953e-05
5.280863421921570822e-04
2.281101608981052006e-03
-1.923163809125598856e-03
-3.017299143448834604e-03
-1.243375141548155914e-03
-1.418327861553781702e-03
-1.180982719617039043e-03
3.130214851873021429e-04
-2.012522523303376856e-04
5.837630746724860233e-04
4.934471265633363565e-04
-4.268851915233043399e-05
-7.388375551692376222e-04
8.343909978921455013e-04
-8.224646517132688187e-04
1.460125030594704122e-03
1.121585202080747565e-03
3.006101067638720318e-04
-1.151728209461824921e-03
-1.788434660383565961e-04
3.263613084747773530e-04
2.051131118947078190e-03
3.024340270340113504e-03
1.738225379714187970e-03
-4.081341180451468920e-04
-2.616170818654601701e-03
-3.617906618364093163e-03
-3.963809341364907257e-03
-2.666237310228937278e-03
-1.931591145926960266e-03
7.708683232204840887e-04
2.022822188416958759e-03
2.522515025133750897e-03
2.196200032423972076e-03
2.482086134585043732e-03
2.206494669769340500e-03
2.006843123886321682e-03
-1.010253024913079648e-03
-4.113087832066010356e-03
-2.910377735748913633e-03
7.163612235482257149e-04
2.124983439509054144e-03
2.308197805223597982e-03
1.946460907738066688e-03
1.105687825868976017e-03
-9.107559973501981598e-04
-3.879837542249538803e-03
-3.756359860225781579e-03
-1.825453366025027663e-03
-7.338668045283435869e-04
3.931041967725420767e-04
7.627861422513382023e-04
2.491097286225560023e-03
2.513459956166744745e-03
1.432913669780128563e-03
9.246546615384774407e-04
-2.368603465575327364e-03
-3.561950692355964586e-03
-1.277933974520006769e-03
2.048777879602832301e-03
3.527884385305069762e-03
2.103374242696324711e-03
2.216397602524325730e-03
-1.299329428797662634e-03
-2.226414220870177337e-05
-9.326906384581239509e-04
-3.217681397914574568e-03
-2.695309453162690865e-03
-2.801230805239895202e-03
-2.536074703156043081e-03
4.797186342378237899e-04
1.761262296351556560e-03
1.856106072162125396e-03
1.303002374592728734e-03
6.265379186638087971e-04
-2.779345093803424569e-04
1.514817897183121315e-03
2.344472318205631338e-03
2.341041684312845841e-03
2.679974418911031196e-03
1.159609346983620252e-03
-1.995649943621764007e-03
-3.519774626674626074e-03
-7.609464120306170653e-04
-1.747131109824170666e-03
-9.194475890259769680e-04
-1.864180286806724858e-03
-2.051463225364879434e-03
6.044340234901163667e-04
1.488746179128138314e-03
1.186389219609031278e-04
-1.640765675861479821e-04
7.855707308077690930e-04
6.564876745819742153e-05
2.697320570801437379e-04
3.295948247117529931e-04
7.015424525156736812e-04
1.382025223564196286e-03
1.144641268269086043e-03
2.271321941667640322e-03
2.161871201626804333e-03
-5.599350408391388315e-04
-2.991356317991729005e-03
-1.914755988992182609e-03
-5.076382477267388558e-05
-5.629758354924557740e-04
-4.957796587835628689e-04
-3.134377772315833505e-03
-4.578963113818067081e-03
-7.672554717894121152e-04
2.145044893025528556e-03
1.968711453384430852e-03
1.848755507410480923e-03
1.102625883986301783e-03
-2.067091285767308755e-04
1.929377757766806032e-03
4.476580878353796783e-03
1.782217484388190368e-03
-3.852334785280065160e-04
-3.977600120785933203e-04
-2.136365414712463467e-03
-2.474337777797778505e-03
-7.322859412172415695e-04
7.161744887805344701e-04
8.740267267807624949e-04
-1.096541477847138733e-03
-2.819774190010514853e-03
-2.367270496336182101e-03
-1.767220889928818473e-03
-2.915402844292824987e-04
5.067485176448430131e-04
1.673714491308777056e-03
3.037170999143027055e-03
3.662045173228694467e-03
3.069742916047661641e-03
1.697867515627127840e-04
-1.246006838706087460e-03
-2.833487729129017564e-04
-1.384059585899401678e-03
-1.505952589896044627e-03
-1.411037170638438027e-03
-2.001746328142510554e-03
-1.572859852536334516e-03
-8.466962596440704304e-04
1.603686515767788938e-03
2.944227668522972872e-03
1.875953193019709239e-03
3.110058910900054350e-04
-1.818044761899761811e-03
-1.677854013473862975e-03
-1.319408284905847174e-03
-5.144496073633854496e-05
-1.462598484484353093e-03
-1.523294391058226073e-03
1.187811020605697258e-03
3.802246653875714436e-03
2.974369235240967475e-03
3.730056091695666074e-04
-6.473297213919236364e-05
2.222626788805143281e-03
1.677262777522653360e-03
-4.039835101074257121e-04
-2.578197451892331668e-03
-8.101967442564049927e-04
-2.200293704162927053e-03
-3.159812528455535965e-03
-5.472422061190056284e-04
-3.638221515482856130e-04
2.521467291945703616e-04
5.441987301302177968e-05
-3.622194003418120517e-04
-1.006003939359976845e-03
-3.549975339673055010e-04
3.113939455502207163e-03
2.377518326144043102e-03
1.852966569600920628e-03
3.071546551245212756e-04
-4.456892382013108705e-04
9.477780075496024682e-04
1.872856014348915502e-03
-8.931132492363876713e-04
-1.258947631972015145e-03
1.624484330716967091e-04
-2.804003760123325835e-04
-4.245838672313718629e-04
-2.514404020962023815e-03
-3.130116420496221671e-03
-9.709952684723171818e-04
-1.435801190537902951e-03
-3.809832580971374283e-03
-1.423537098798543241e-03
2.624265298657208964e-03
4.461658763995445323e-03
2.793828747105354948e-03
2.864797830265955036e-03
2.873373944774102948e-03
3.127327186996889385e-03
1.924305922782914603e-03
-9.351998451393188274e-04
-2.311416017257211450e-03
-1.517548190500463785e-03
-3.059949399876309324e-03
-3.204172119366025234e-03
-3.245263384421492436e-03
-2.027591067817046712e-03
5.472202125607272209e-04
2.299498079466427876e-03
1.211572601149280915e-03
-1.522749830652975764e-03
9.406026693164019079e-04
2.782759649011776713e-03
1.999173987575252401e-03
-5.174953649886343456e-04
3.952003587107592950e-04
1.199650246491624876e-03
9.507744184665829334e-04
-2.211826023873160463e-03
-6.855334851254413350e-04
-2.906584629060831020e-04
-4.313386483075044376e-04
1.176478250721816471e-03
1.030169400634534495e-03
-3.924514046702450541e-04
-1.226069131383757159e-03
-2.337484496762390687e-03
-7.648256921450680493e-04
5.760401144761899552e-05
-1.158190071258293668e-03
-6.580590905256043831e-04
-4.834831070516838617e-04
9.841898340669892001e-04
2.000612009949343136e-03
1.115265381132945566e-03
9.831387079977883716e-04
-3.361162082397195407e-04
8.023822966002356943e-05
1.015098939932442728e-03
1.994456175439761596e-03
1.305246295172341571e-03
7.281225162075663764e-04
-1.630247242630485831e-03
-2.331455257734230298e-03
-9.927835503201803882e-04
-2.839792308085939843e-04
-1.345874786014386549e-03
-5.840350143599261183e-04
1.098951889258272706e-04
-8.428790816745147449e-04
-5.882967804151934942e-04
8.357886243011295249e-04
1.261592144266969430e-03
6.627749115460689674e-04
2.221522311537132977e-03
4.258830301233078753e-04
-2.451132629757271468e-03
-9.292000806356859885e-04
1.319849121412257527e-03
4.751338495948827061e-04
4.432279489216961742e-05
1.251255403172401226e-03
-1.673928632048714456e-04
-2.211876154965881046e-03
2.471864720455238458e-05
3.065896927556446827e-03
2.224007596812163992e-03
-1.227711504446760441e-03
-4.632916871311761400e-03
-4.868414157465632275e-03
-1.092415832719644984e-03
1.285508236314057825e-03
2.502643475243085044e-03
2.793216738235861172e-03
1.773782884565775018e-03
-2.018824766780748497e-03
-1.516999792434123306e-03
-6.569771962550598329e-04
3.015109491648106099e-03
2.930602588119436865e-03
-4.788705018651747986e-04
3.717197430162513458e-04
8.454950054685583674e-04
1.786365321805158737e-03
-2.683240128755960251e-03
-3.032979515156853691e-03
1.265288391878543984e-03
3.681316675294649208e-04
-2.590111662250389486e-03
-1.261314393135506712e-03
-7.306375419955078460e-04
-1.494795633430960830e-03
-1.294067536315752099e-03
1.223841392311751913e-03
2.992139810939372941e-03
1.252786336035290613e-03
2.252096679908661796e-03
1.250442025872590575e-03
-5.409985281226365513e-04
-1.605320045606729255e-03
6.438894104219159906e-04
1.167189769834959352e-03
-3.395171263081038097e-05
-1.424455824635528301e-03
9.820830109558583137e-04
8.078488922055343958e-04
-1.292897812627492957e-03
-2.363581090107657462e-03
-2.791608445286965830e-03
-3.410944427540368515e-03
-2.148325755396025220e-03
2.158593446008999337e-05
3.648608825388622266e-03
5.308430442257582385e-03
3.243236363181431579e-03
2.564570233318551936e-04
-4.093087074530999455e-04
-2.856086977013061901e-03
-1.135372186696398302e-03
1.832641392327990495e-03
1.279222074321528747e-03
1.272013067014104125e-03
1.442788238772880561e-03
-2.617947480761671276e-04
-2.388086764412250713e-03
-7.343282869741723107e-04
-1.164325172781502989e-03
-2.667222867102433601e-03
-2.086422836158694904e-03
-3.752017198319749797e-04
-9.191425662329271535e-04
-6.881743284076687365e-04
-4.975941928870492080e-06
2.029534147014500772e-03
4.328835150485740683e-03
4.123811497374767036e-03
2.607460976564835754e-03
-2.526976818147785419e-04
-1.287708390710722494e-03
-2.974225350590645536e-03
-2.139695653571777913e-03
7.338892142455162321e-04
-4.704858137766416461e-04
-1.480479740763702154e-03
3.131223074297356281e-04
5.168243221529003140e-04
-2.110744352370578255e-04
-7.390073024929222790e-04
-9.896775395064380098e-04
-1.116141377302694288e-04
-1.444515814793841503e-04
-1.445421781910108828e-03
2.059345713928938939e-04
9.376339022407971556e-04
5.307720116430548942e-04
7.362028418699310094e-04
1.609052913454777451e-03
5.907313128867769728e-04
1.204625438901392410e-03
3.906838561773958666e-04
-1.727709272761759375e-03
1.412483905967236528e-04
1.965427043551178348e-03
2.598920496814617880e-03
-1.809627561614615232e-04
-1.123589280839443422e-03
-1.080969192626144403e-03
-2.272752415983278484e-03
-1.263451301375308677e-03
-2.234878070331987668e-03
-2.641443146016267916e-03
-1.602571649082487528e-03
1.163983168579227996e-03
2.287941572764018439e-03
1.609879266022373225e-03
1.567618545744165143e-03
7.847859464735929425e-04
6.299215801333125659e-04
7.904174655142613259e-04
6.456374122167736398e-04
1.251543671178696965e-03
1.545185967197854277e-04
-3.662791603472891110e-04
-1.077977807319446899e-03
3.127750532773605503e-04
-4.504122183980653897e-04
-8.960680590711107146e-04
-1.131213176776445532e-03
-2.009838722515489180e-03
-2.081982934300871495e-03
-2.631372100021463645e-03
1.029559248731963045e-04
2.257095574353255689e-03
7.290103498560863635e-04
1.107207344334345351e-03
-7.981915914287882833e-04
-6.503270834970992318e-04
2.203590327210397295e-03
2.287756595789310413e-03
2.797312415419204827e-03
2.171257564498230500e-03
1.979253162759314968e-04
7.659108451420474544e-04
8.831441087076912725e-04
-1.534871699557378106e-03
-1.401949166588818251e-03
-2.323922852571496875e-03
-3.928145514870761551e-03
-3.080176712738508411e-03
-1.663456031315661008e-03
-2.001410408800488594e-03
1.075436098211686323e-03
2.373409822323648347e-03
1.895540057713830271e-03
1.632623558494486699e-03
-2.393025741773467750e-04
8.610031654212441359e-04
2.795037206684481811e-03
3.722682381257428567e-03
-3.387754211411923757e-04
-1.322106474588261894e-03
1.408721196177173721e-04
8.266255499338109403e-04
-2.787209132887801151e-03
-2.310811168844188052e-03
2.833359035373870637e-04
7.500787133950847022e-04
-5.607790331326109861e-04
-2.976932098609418216e-03
-2.758564884700336669e-03
-1.035789753789811236e-03
1.900050389764503092e-06
9.149043842774697835e-04
1.497804261281836160e-03
1.231770112272646128e-03
1.109088297073260350e-03
2.255598632901971001e-03
8.918311366711570778e-04
9.956002512008172226e-04
2.400173243704048498e-03
-4.250146744871213540e-04
-1.739464150795073721e-03
-8.546191137220745474e-04
1.991262033769400190e-03
6.030965983943670575e-04
-2.285231177390643822e-04
-4.385646747462666837e-04
-2.393842807072535297e-03
-2.802434598980711733e-03
-4.460566741794219810e-03
-2.671635174375519128e-03
7.146262975518331059e-04
2.792709098351395160e-03
2.496824696262157223e-03
2.915601035856074923e-04
-4.589186036338037487e-04
8.599886985369985422e-04
3.331535816051437414e-03
1.912447411649380660e-03
1.928981216359468287e-03
1.836144938029823145e-03
-6.757600686158108088e-04
-2.849022813938841773e-04
-2.496551251628718361e-03
-3.191985677518147536e-03
-2.510403027768482419e-03
-1.031800659155621613e-03
-2.339599532893469301e-04
-5.189870460687272935e-05
-8.639517820274427579e-04
-1.817193178243210923e-03
-1.595147138226354509e-03
2.186644722036909603e-03
2.599075381410958542e-03
1.856901955517355988e-03
1.395461913214380385e-03
1.715159405239442001e-03
2.989415120098649382e-03
6.393858098496401667e-04
-2.610127522993927959e-03
-2.831635960120898032e-03
2.362042802590598109e-03
2.835750537952477866e-03
-1.633638700210719242e-03
-4.098900807513805762e-03
-1.883108665389486873e-03
-2.386175853219920425e-04
1.472597773657913065e-05
-1.034059725005228230e-04
-9.381893505840993748e-04
-5.383177583960564207e-04
4.596685555443550297e-04
5.080926397798836121e-04
2.334195725012119197e-03
1.494504196802747291e-03
1.327283312325448772e-03
1.347964279812081598e-04
-1.187897273483638473e-04
-1.283142311985281279e-03
-3.224258311065563419e-04
6.155148379320458550e-04
1.068108073562269028e-03
1.237708144635650477e-04
-9.821371753478580924e-04
-2.390000113684033250e-04
-3.529998229457780370e-04
-2.185580775875532993e-03
-1.244477996503145318e-03
7.180027148874956917e-04
1.273135955279013987e-04
-1.397964817195670095e-03
-3.306742316354160851e-03
-3.984409121328288950e-03
2.598530660661455167e-03
4.908140416939974805e-03
3.444497570242958679e-03
2.955660055201498465e-03
2.059927661861988852e-03
1.181028553208532568e-03
4.138197644309530568e-04
-1.659889250923809784e-04
-9.541456505147604327e-04
-3.421979561864333177e-03
-2.938475242337082547e-03
-1.429357710702188313e-03
-5.060950922823645014e-04
-8.522770096309965470e-04
-1.153759994136037458e-03
-5.397248592936580366e-04
1.569145333026570168e-03
1.644262391961456415e-03
-1.239127080720507992e-03
5.463515961744470906e-04
9.006877517023109160e-04
-7.799463943685156029e-04
2.379504657108714831e-03
4.285971473882409406e-03
2.357859362480189871e-03
2.733433924554903079e-04
-1.640465051264686962e-03
-1.369406592798801461e-03
-5.502054649091734501e-04
-4.315938385302956273e-03
-5.121081793557373876e-03
-3.494358726339288120e-03
-1.022488629016172915e-03
2.239297376367132674e-03
5.015067753612489909e-03
2.360374926833310339e-03
-4.583267055600066895e-04
8.924224007100733328e-04
3.485723123921565317e-04
1.435159991262956354e-03
1.091314882582270851e-03
1.993872384650424517e-04
2.214533424278868415e-03
2.791901031316476600e-03
-1.357849253922255132e-03
-3.307769628473946396e-03
-2.083201752957036801e-03
-6.185601227755062467e-05
8.455708844461297478e-04
-1.869326996389034578e-03
-4.443913861939363490e-03
-4.473512628426152063e-03
-1.370244488927462164e-03
2.413545840003082730e-03
5.959349325580330127e-03
3.774854292739153027e-03
-1.717188636764820694e-04
6.874505169158333926e-05
3.700339982808506425e-04
-9.576120822202267673e-04
-2.251392607536101785e-03
1.200417209413595036e-03
4.953776534591176027e-03
2.583503926947189593e-03
3.353149489450047913e-04
-1.791292655621775070e-03
-4.546000871333235292e-03
-3.015974311599941421e-03
-1.425092190528055988e-03
-3.215700000371750963e-03
-2.810885667501339738e-03
-1.029776194316382905e-03
7.053470035746616656e-04
3.261355378583631528e-03
3.989283955252789782e-03
3.737032584868304769e-03
3.334150363574369096e-03
6.897306357466321484e-04
-2.190693510664289134e-03
-1.951067272528277628e-03
-5.973744291843229720e-04
6.088547863880209264e-04
3.907257885913946287e-04
-7.092222275055213871e-04
1.048788548149645833e-03
8.557969526495621312e-04
-1.061145136676566215e-03
-2.182280777162460238e-03
-4.406363436693323810e-03
7.524533112364683880e-04
2.563539908886967519e-03
-2.337103733568931011e-04
-2.482321267175953243e-03
-3.910874736432665665e-04
2.055123313040124050e-03
1.638604740469759829e-03
1.552951915481662814e-03
1.331147598438418367e-03
-2.558339511578371864e-04
-7.739106896704967594e-04
-1.144293007321088183e-03
9.188222607533732319e-04
-1.144951519339832595e-03
-1.683732746911043932e-03
1.451342529431589277e-03
4.313312030823429448e-03
1.438140805458144053e-03
-1.642206350463718380e-03
-3.200154667765911336e-03
-4.702143937398996741e-03
-2.722348311627313666e-03
-8.352824841998081134e-05
2.379357251111755868e-03
2.305816065902713870e-03
1.908771258116604775e-03
-5.749810629699194427e-04
-3.106694637812206384e-03
6.088113407663074336e-04
2.047327346617954652e-03
3.498297598358414071e-03
2.958932334540761468e-03
5.440451762947196533e-04
3.198254885507996774e-04
-1.288555559461459186e-03
-6.915007903278101980e-04
-7.098167762297482794e-04
-2.177315943054138232e-03
-2.563826452410208640e-03
-1.922395224048981327e-03
-1.514537988517767686e-03
-1.478295117639325928e-04
1.245342192668645554e-03
-8.933402569908739839e-05
-1.101821299551117425e-03
2.023450223712304312e-03
2.725220295196342183e-03
8.470706429841892270e-04
-1.179536087986360728e-03
-9.305571136781999250e-04
3.400048900400640464e-03
3.083014003046408418e-03
8.284019983733909975e-04
-1.571024973389469363e-03
-1.252304033198833747e-03
-3.818070323140000666e-04
-1.878462526929450824e-03
-1.017833942646896193e-03
-3.829416868027593363e-04
-9.681284267714763243e-05
-2.633897777130311227e-04
7.103138155887902573e-04
-6.016282963413100999e-04
-3.949639023004845005e-03
-2.208478778873220524e-03
-1.676899145078827565e-03
9.574818109334944441e-04
4.878480160216250999e-03
2.846653604733637502e-03
8.778129464872706702e-04
1.454239419253167088e-03
7.762426805676518344e-04
-8.621349740161254275e-04
4.702551518812177699e-04
2.274217570737986204e-03
1.422775468152695467e-03
-9.505683342012466973e-04
-5.138581188867342910e-04
-2.395770907037943643e-03
-2.106159639846384019e-03
-1.793994240949527402e-04
-1.255832653282727305e-03
-4.161418554801337745e-03
-2.212845092505651753e-03
-9.193055392101197321e-04
4.774794475630337806e-04
2.132603137573165376e-03
2.982924425913253963e-03
2.421031019071033952e-03
2.915284251164961416e-04
2.076626469683942166e-03
5.009958088018375694e-03
1.892130974115566319e-03
-3.037555517544896205e-03
-3.862847920935624183e-03
-1.989162628937345828e-03
-7.977899062217989109e-04
1.376848132297434470e-03
1.027476610070972296e-03
4.628165700615972196e-04
1.797722427847389540e-04
-1.593828938477341887e-03
-4.322383249055024822e-03
-1.655113716652514399e-03
-1.723975990779925320e-03
-1.971604020018162973e-03
4.660026584103018937e-04
2.954260312803646486e-03
1.625277342108555302e-03
1.441718529228652691e-03
2.764047897591252571e-03
4.856403888701442753e-03
4.206772101026822440e-03
1.736828294246937302e-04
-4.705328542142178314e-03
-3.793357271629780973e-03
-2.338198283021169100e-04
1.600927218211957654e-03
8.456112724991224610e-04
-9.198305226926490989e-04
-1.497265918396554346e-03
-2.643529729724591014e-03
-9.127574204946030476e-04
-1.235468844866876529e-03
-1.812613965176177074e-03
-6.808528596610070318e-05
-4.334587540563933990e-04
1.059915939193727162e-03
3.654624960774529360e-03
3.542217752269615806e-03
4.217086500301733733e-04
3.971325017661914408e-04
-5.023292891044414850e-04
-4.524274346975987009e-04
1.454050375183273689e-03
1.242576367338970667e-03
-2.196296167073940355e-05
-1.114898304502333955e-03
-3.844797914694771183e-05
-2.564276760336490699e-03
-6.057788288795065701e-03
-3.292763273071849621e-03
1.220259806186136308e-03
4.353623913930925772e-03
2.222278599669812345e-03
-2.801959596512035213e-03
-1.484639345058850904e-03
2.735607169789847255e-03
3.355816103444844885e-03
1.640249083767416705e-03
5.143018453713694722e-04
4.447955711093898139e-04
-7.123902893576537516e-04
-6.911431683907272175e-04
-1.052695219244138012e-03
5.997243540850974441e-04
2.476633320077426589e-04
-4.851084162839944085e-04
-1.196301296186782440e-03
-2.550543204909467166e-03
-3.073851689709798229e-03
-6.787714035451409850e-04
7.739749643170654083e-04
1.240298442733910001e-03
2.355471459587649228e-03
2.855633425804368977e-03
5.138935729102577649e-03
1.533375586153309716e-03
-1.897788227013509415e-03
-3.511393638978362215e-03
-2.572074366763277015e-03
-1.691170891560495222e-03
-2.631779056785426511e-04
1.940677467928339766e-04
-2.985081434792919331e-04
-2.318832609732262781e-03
-3.321725073375906569e-04
1.589247155565951843e-03
-4.716827144774763834e-04
9.527635080944597335e-05
-4.802859055614411548e-04
8.899542642676319584e-04
1.791429974033786334e-03
2.545575576359161794e-03
3.311331480883989570e-03
5.003357715401900857e-03
5.786024533248469541e-03
3.369053119172145134e-03
-3.461099704227394748e-03
-7.967466797459630753e-03
-8.275084734925036017e-03
-9.504508830037601205e-03
-1.187209827223085871e-02
-9.017270467290018285e-03
-2.814220088534592074e-03
4.091417165263820828e-03
1.467564674904392637e-02
2.256934364170218310e-02
2.211943645077037168e-02
1.036869726396544115e-02
-4.700222566852897514e-03
-1.208972030149087565e-02
-1.303065553469312868e-02
-1.181121402499473068e-02
-9.352894397600583151e-03
-3.198694275694459639e-03
7.450229055997834460e-04
1.791800176356151764e-03
3.253399723985291123e-03
3.891232200970849882e-03
3.099026051591768135e-03
2.728147651896600714e-03
8.260190873687590311e-04
-1.807201459260601153e-03
-1.011799515576676479e-03
5.055790846174336439e-04
1.563015923150577963e-03
3.265870899251204461e-03
2.598788350059956162e-03
5.144318817915142453e-04
-1.421090826305644638e-03
-1.330847167373353261e-03
-2.670521997396702908e-03
-4.919073143163458887e-03
-4.646921148354213500e-03
-3.757304228163323677e-03
1.190629280156449811e-03
2.345113330630644623e-03
1.459228209834311516e-03
-4.909631296364138763e-04
2.637995030568322363e-03
5.368336034885485587e-03
7.078001381654695258e-03
5.287298244696747411e-03
2.070763893580248628e-03
-2.803811543004794144e-03
-4.695825524737795575e-03
-4.002057900416897997e-03
-6.453892912482908813e-03
-9.225650020158192993e-03
-3.066964568767430004e-03
4.505111526505252602e-03
8.888627503836805249e-03
4.579315616954513120e-03
-3.236317115193683425e-03
-4.025448111842131090e-03
8.238431285252351252e-05
2.532059439426196518e-03
1.037916245287856488e-03
-5.869485366054958287e-04
1.617505342802320369e-03
4.434162524536502080e-03
4.031315081055185726e-03
-6.781702616540667607e-04
-7.118322150346923123e-03
-6.147326774104379388e-03
8.551934628804899827e-04
2.448668087388978631e-03
-8.946997435256403555e-04
2.447487748982941132e-03
3.509163562236709052e-03
1.116201709531328481e-03
-3.455538229679223743e-03
-4.651153092968999571e-03
-4.541231569020015742e-03
-4.280557749907150204e-03
-1.823938961094746748e-03
5.016963032826103099e-03
1.032863993415594935e-02
7.873980840557260122e-03
1.313173802667090074e-03
-1.594324201425604539e-03
-2.109313364466218737e-03
-1.353237410984896045e-03
-2.896380946420664543e-03
-1.460293926611854832e-03
-2.002396831097366572e-06
-2.489494335328001993e-04
-2.390407863427881051e-03
-1.566178307612272344e-03
-1.751868740217145349e-03
-1.417172414876683535e-03
-2.073773965755711188e-03
-1.924425102601783196e-04
2.110744203721292775e-03
4.240893490744477960e-03
3.609938390409181581e-03
5.160121632071048865e-04
8.879513567730771152e-04
1.484297899563585170e-03
-3.393512672260094384e-04
1.612907784663356872e-03
2.087909645067024741e-03
-5.045221498591913323e-04
-2.864681918653298829e-03
-3.663140259636639504e-03
-1.551930403731847192e-03
-9.585090708814070475e-04
-7.921341413136290949e-04
2.161794269896484370e-04
-4.551496720350507795e-04
-2.560208318611772831e-03
-2.632632184337553236e-03
-1.316011064099101421e-03
1.359545408290628501e-03
2.612462579148813399e-03
5.601015090563567916e-03
4.615345571751690128e-03
1.247956408999239793e-03
2.713152290049916735e-04
