-9.433719496445312075e-03
-9.431861775385656441e-03
-9.430003714805916884e-03
-9.428145314459101742e-03
-9.426286574098257515e-03
-9.424427493476481010e-03
-9.422568072346910670e-03
-9.420708310462736976e-03
-9.418848207577200718e-03
-9.416987763443592993e-03
-9.415126977815253470e-03
-9.413265850445570390e-03
-9.411404381087987506e-03
-9.409542569496002345e-03
-9.407680415423166215e-03
-9.405817918623085930e-03
-9.403955078849427288e-03
-9.402091895855913331e-03
-9.400228369396329553e-03
-9.398364499224527366e-03
-9.396500285094427571e-03
-9.394635726760009950e-03
-9.392770823975315000e-03
-9.390905576494449139e-03
-9.389039984071589906e-03
-9.387174046460982496e-03
-9.385307763416941493e-03
-9.383441134693859542e-03
-9.381574160046205618e-03
-9.379706839228525023e-03
-9.377839171995441120e-03
-9.375971158101657071e-03
-9.374102797301955836e-03
-9.372234089351205374e-03
-9.370365034004349974e-03
-9.368495631016422395e-03
-9.366625880142543867e-03
-9.364755781137918886e-03
-9.362885333757836950e-03
-9.361014537757677764e-03
-9.359143392892909502e-03
-9.357271898919097483e-03
-9.355400055591897232e-03
-9.353527862667057949e-03
-9.351655319900424243e-03
-9.349782427047937869e-03
-9.347909183865639460e-03
-9.346035590109670263e-03
-9.344161645536272140e-03
-9.342287349901785831e-03
-9.340412702962661365e-03
-9.338537704475459791e-03
-9.336662354196847979e-03
-9.334786651883600350e-03
-9.332910597292609287e-03
-9.331034190180885132e-03
-9.329157430305556192e-03
-9.327280317423877407e-03
-9.325402851293214737e-03
-9.323525031671057312e-03
-9.321646858315020892e-03
-9.319768330982851345e-03
-9.317889449432417703e-03
-9.316010213421710429e-03
-9.314130622708848353e-03
-9.312250677052078679e-03
-9.310370376209778712e-03
-9.308489719940464535e-03
-9.306608708002789276e-03
-9.304727340155537901e-03
-9.302845616157637623e-03
-9.300963535768157903e-03
-9.299081098746310448e-03
-9.297198304851452683e-03
-9.295315153843086015e-03
-9.293431645480855832e-03
-9.291547779524563649e-03
-9.289663555734161901e-03
-9.287778973869753943e-03
-9.285894033691600991e-03
-9.284008734960118650e-03
-9.282123077435869979e-03
-9.280237060879568955e-03
-9.278350685052094357e-03
-9.276463949714482821e-03
-9.274576854627935782e-03
-9.272689399553817741e-03
-9.270801584253661465e-03
-9.268913408489166256e-03
-9.267024872022199683e-03
-9.265135974614807993e-03
-9.263246716029212638e-03
-9.261357096027810279e-03
-9.259467114373172783e-03
-9.257576770828050694e-03
-9.255686065155371497e-03
-9.253794997118248294e-03
-9.251903566479983271e-03
-9.250011773004062493e-03
-9.248119616454157643e-03
-9.246227096594127753e-03
-9.244334213188022675e-03
-9.242440966000084815e-03
-9.240547354794756071e-03
-9.238653379336684776e-03
-9.236759039390723958e-03
-9.234864334721931342e-03
-9.232969265095565883e-03
-9.231073830277096437e-03
-9.229178030032200025e-03
-9.227281864126765307e-03
-9.225385332326899515e-03
-9.223488434398926725e-03
-9.221591170109393054e-03
-9.219693539225066667e-03
-9.217795541512927363e-03
-9.215897176740180455e-03
-9.213998444674260241e-03
-9.212099345082823063e-03
-9.210199877733754245e-03
-9.208300042395166363e-03
-9.206399838835400973e-03
-9.204499266823032086e-03
-9.202598326126874839e-03
-9.200697016515978557e-03
-9.198795337759637161e-03
-9.196893289627396106e-03
-9.194990871889043710e-03
-9.193088084314621558e-03
-9.191184926674429712e-03
-9.189281398739016296e-03
-9.187377500279180972e-03
-9.185473231065976671e-03
-9.183568590870714796e-03
-9.181663579464966959e-03
-9.179758196620566718e-03
-9.177852442109611306e-03
-9.175946315704463369e-03
-9.174039817177763109e-03
-9.172132946302423082e-03
-9.170225702851622987e-03
-9.168318086598813144e-03
-9.166410097317721425e-03
-9.164501734782356732e-03
-9.162592998767005517e-03
-9.160683889046238731e-03
-9.158774405394904880e-03
-9.156864547588145636e-03
-9.154954315401392373e-03
-9.153043708610364426e-03
-9.151132726991074301e-03
-9.149221370319829405e-03
-9.147309638373237253e-03
-9.145397530928212407e-03
-9.143485047761978207e-03
-9.141572188652070247e-03
-9.139658953376331163e-03
-9.137745341712917579e-03
-9.135831353440300104e-03
-9.133916988337270268e-03
-9.132002246182933589e-03
-9.130087126756718241e-03
-9.128171629838376794e-03
-9.126255755207982739e-03
-9.124339502645928759e-03
-9.122422871932938868e-03
-9.120505862850063206e-03
-9.118588475178693656e-03
-9.116670708700556902e-03
-9.114752563197716165e-03
-9.112834038452576405e-03
-9.110915134247889527e-03
-9.108995850366747443e-03
-9.107076186592594214e-03
-9.105156142709226047e-03
-9.103235718500786097e-03
-9.101314913751774871e-03
-9.099393728247048493e-03
-9.097472161771818708e-03
-9.095550214111654611e-03
-9.093627885052491325e-03
-9.091705174380630000e-03
-9.089782081882741283e-03
-9.087858607345870518e-03
-9.085934750557434283e-03
-9.084010511305220387e-03
-9.082085889377400009e-03
-9.080160884562520768e-03
-9.078235496649513653e-03
-9.076309725427693029e-03
-9.074383570686754899e-03
-9.072457032216785580e-03
-9.070530109808261701e-03
-9.068602803252053673e-03
-9.066675112339429160e-03
-9.064747036862046137e-03
-9.062818576611956362e-03
-9.060889731381617518e-03
-9.058960500963889745e-03
-9.057030885152039107e-03
-9.055100883739739329e-03
-9.053170496521071794e-03
-9.051239723290530753e-03
-9.049308563843023318e-03
-9.047377017973874669e-03
-9.045445085478824587e-03
-9.043512766154037860e-03
-9.041580059796102548e-03
-9.039646966202035186e-03
-9.037713485169277319e-03
-9.035779616495697233e-03
-9.033845359979591691e-03
-9.031910715419691135e-03
-9.029975682615161425e-03
-9.028040261365598632e-03
-9.026104451471027301e-03
-9.024168252731914336e-03
-9.022231664949163787e-03
-9.020294687924125532e-03
-9.018357321458598738e-03
-9.016419565354824930e-03
-9.014481419415487987e-03
-9.012542883443724548e-03
-9.010603957243124018e-03
-9.008664640617728564e-03
-9.006724933372029646e-03
-9.004784835310976690e-03
-9.002844346239982296e-03
-9.000903465964923966e-03
-8.998962194292144112e-03
-8.997020531028450049e-03
-8.995078475981119204e-03
-8.993136028957893907e-03
-8.991193189766986602e-03
-8.989249958217088513e-03
-8.987306334117366180e-03
-8.985362317277461458e-03
-8.983417907507496719e-03
-8.981473104618078324e-03
-8.979527908420298354e-03
-8.977582318725731148e-03
-8.975636335346438496e-03
-8.973689958094973121e-03
-8.971743186784373464e-03
-8.969796021228170629e-03
-8.967848461240390118e-03
-8.965900506635553560e-03
-8.963952157228682188e-03
-8.962003412835293364e-03
-8.960054273271414460e-03
-8.958104738353570712e-03
-8.956154807898800835e-03
-8.954204481724653553e-03
-8.952253759649184128e-03
-8.950302641490956099e-03
-8.948351127069046479e-03
-8.946399216203050966e-03
-8.944446908713080471e-03
-8.942494204419762852e-03
-8.940541103144242913e-03
-8.938587604708182408e-03
-8.936633708933765241e-03
-8.934679415643695735e-03
-8.932724724661203833e-03
-8.930769635810048568e-03
-8.928814148914511126e-03
-8.926858263799406987e-03
-8.924901980290084191e-03
-8.922945298212425075e-03
-8.920988217392841063e-03
-8.919030737658274408e-03
-8.917072858836203389e-03
-8.915114580754644052e-03
-8.913155903242151942e-03
-8.911196826127820367e-03
-8.909237349241283868e-03
-8.907277472412721692e-03
-8.905317195472852582e-03
-8.903356518252945190e-03
-8.901395440584825014e-03
-8.899433962300869194e-03
-8.897472083234016921e-03
-8.895509803217759026e-03
-8.893547122086136250e-03
-8.891584039673754852e-03
-8.889620555815777939e-03
-8.887656670347927196e-03
-8.885692383106486361e-03
-8.883727693928301222e-03
-8.881762602650779617e-03
-8.879797109111887965e-03
-8.877831213150156470e-03
-8.875864914604682590e-03
-8.873898213315136244e-03
-8.871931109121759806e-03
-8.869963601865364644e-03
-8.867995691387332846e-03
-8.866027377529625900e-03
-8.864058660134777751e-03
-8.862089539045896538e-03
-8.860120014106666331e-03
-8.858150085161357531e-03
-8.856179752054818208e-03
-8.854209014632479294e-03
-8.852237872740354591e-03
-8.850266326225042501e-03
-8.848294374933731235e-03
-8.846322018714195337e-03
-8.844349257414799159e-03
-8.842376090884498593e-03
-8.840402518972846277e-03
-8.838428541529986388e-03
-8.836454158406659848e-03
-8.834479369454206060e-03
-8.832504174524561172e-03
-8.830528573470256340e-03
-8.828552566144417732e-03
-8.826576152400773465e-03
-8.824599332093650134e-03
-8.822622105077978019e-03
-8.820644471209289350e-03
-8.818666430343718304e-03
-8.816687982338016621e-03
-8.814709127049544929e-03
-8.812729864336265803e-03
-8.810750194056754178e-03
-8.808770116070193876e-03
-8.806789630236377606e-03
-8.804808736415712170e-03
-8.802827434469216727e-03
-8.800845724258526265e-03
-8.798863605645895064e-03
-8.796881078494193235e-03
-8.794898142666908447e-03
-8.792914798028152873e-03
-8.790931044442657979e-03
-8.788946881775776265e-03
-8.786962309893479525e-03
-8.784977328662369259e-03
-8.782991937949667996e-03
-8.781006137623222768e-03
-8.779019927551508576e-03
-8.777033307603633594e-03
-8.775046277649337437e-03
-8.773058837558984219e-03
-8.771070987203569494e-03
-8.769082726454716786e-03
-8.767094055184681059e-03
-8.765104973266353919e-03
-8.763115480573263616e-03
-8.761125576979575044e-03
-8.759135262360091476e-03
-8.757144536590249356e-03
-8.755153399546123510e-03
-8.753161851104427141e-03
-8.751169891142515297e-03
-8.749177519538381409e-03
-8.747184736170659017e-03
-8.745191540918623510e-03
-8.743197933662192126e-03
-8.741203914281923948e-03
-8.739209482659030317e-03
-8.737214638675373096e-03
-8.735219382213462933e-03
-8.733223713156462731e-03
-8.731227631388184182e-03
-8.729231136793087764e-03
-8.727234229256284476e-03
-8.725236908663539306e-03
-8.723239174901266033e-03
-8.721241027856527217e-03
-8.719242467417039413e-03
-8.717243493471167962e-03
-8.715244105907932193e-03
-8.713244304617012367e-03
-8.711244089488741002e-03
-8.709243460414106339e-03
-8.707242417284757549e-03
-8.705240959993003000e-03
-8.703239088431813722e-03
-8.701236802494823411e-03
-8.699234102076326691e-03
-8.697230987071280853e-03
-8.695227457375309318e-03
-8.693223512884696441e-03
-8.691219153496387503e-03
-8.689214379107995656e-03
-8.687209189617810592e-03
-8.685203584924789874e-03
-8.683197564928553727e-03
-8.681191129529386777e-03
-8.679184278628243251e-03
-8.677177012126743513e-03
-8.675169329927180997e-03
-8.673161231932522211e-03
-8.671152718046410204e-03
-8.669143788173164569e-03
-8.667134442217776236e-03
-8.665124680085909206e-03
-8.663114501683895352e-03
-8.661103906918737882e-03
-8.659092895698116549e-03
-8.657081467930394583e-03
-8.655069623524615230e-03
-8.653057362390501744e-03
-8.651044684438452190e-03
-8.649031589579549845e-03
-8.647018077725559734e-03
-8.645004148788926895e-03
-8.642989802682776376e-03
-8.640975039320923645e-03
-8.638959858617864182e-03
-8.636944260488773478e-03
-8.634928244849507037e-03
-8.632911811616605577e-03
-8.630894960707295033e-03
-8.628877692039481351e-03
-8.626860005531752223e-03
-8.624841901103370151e-03
-8.622823378674282849e-03
-8.620804438165123249e-03
-8.618785079497204293e-03
-8.616765302592520673e-03
-8.614745107373748823e-03
-8.612724493764248659e-03
-8.610703461688075724e-03
-8.608682011069974244e-03
-8.606660141835373659e-03
-8.604637853910385159e-03
-8.602615147221812086e-03
-8.600592021697148204e-03
-8.598568477264579429e-03
-8.596544513852980365e-03
-8.594520131391921239e-03
-8.592495329811655758e-03
-8.590470109043128050e-03
-8.588444469017977867e-03
-8.586418409668537116e-03
-8.584391930927829858e-03
-8.582365032729579249e-03
-8.580337715008204066e-03
-8.578309977698820449e-03
-8.576281820737238423e-03
-8.574253244059958437e-03
-8.572224247604166153e-03
-8.570194831307742858e-03
-8.568164995109256790e-03
-8.566134738947973545e-03
-8.564104062763856079e-03
-8.562072966497552562e-03
-8.560041450090399850e-03
-8.558009513484432160e-03
-8.555977156622368920e-03
-8.553944379447626922e-03
-8.551911181904315110e-03
-8.549877563937232847e-03
-8.547843525491880326e-03
-8.545809066514455099e-03
-8.543774186951853811e-03
-8.541738886751670465e-03
-8.539703165862196424e-03
-8.537667024232418675e-03
-8.535630461812023298e-03
-8.533593478551386793e-03
-8.531556074401574347e-03
-8.529518249314350237e-03
-8.527480003242176101e-03
-8.525441336138210938e-03
-8.523402247956312835e-03
-8.521362738651042448e-03
-8.519322808177652584e-03
-8.517282456492091675e-03
-8.515241683551008980e-03
-8.513200489311752855e-03
-8.511158873732367278e-03
-8.509116836771586645e-03
-8.507074378388834041e-03
-8.505031498544228172e-03
-8.502988197198581635e-03
-8.500944474313406121e-03
-8.498900329850910679e-03
-8.496855763774005185e-03
-8.494810776046293407e-03
-8.492765366632079940e-03
-8.490719535496361534e-03
-8.488673282604827092e-03
-8.486626607923864613e-03
-8.484579511420562922e-03
-8.482531993062701267e-03
-8.480484052818754517e-03
-8.478435690657893167e-03
-8.476386906549978131e-03
-8.474337700465565948e-03
-8.472288072375912249e-03
-8.470238022252971760e-03
-8.468187550069394831e-03
-8.466136655798527436e-03
-8.464085339414407702e-03
-8.462033600891774587e-03
-8.459981440206064407e-03
-8.457928857333407366e-03
-8.455875852250629293e-03
-8.453822424935251642e-03
-8.451768575365493225e-03
-8.449714303520266742e-03
-8.447659609379171847e-03
-8.445604492922503814e-03
-8.443548954131250076e-03
-8.441492992987090216e-03
-8.439436609472399445e-03
-8.437379803570238188e-03
-8.435322575264357289e-03
-8.433264924539199750e-03
-8.431206851379902459e-03
-8.429148355772296194e-03
-8.427089437702896951e-03
-8.425030097158912878e-03
-8.422970334128242545e-03
-8.420910148599478409e-03
-8.418849540561898145e-03
-8.416788510005469848e-03
-8.414727056920850295e-03
-8.412665181299388423e-03
-8.410602883133121849e-03
-8.408540162414773408e-03
-8.406477019137756357e-03
-8.404413453296172634e-03
-8.402349464884805927e-03
-8.400285053899126872e-03
-8.398220220335291322e-03
-8.396154964190138612e-03
-8.394089285461200228e-03
-8.392023184146689407e-03
-8.389956660245509804e-03
-8.387889713757253757e-03
-8.385822344682198823e-03
-8.383754553021307773e-03
-8.381686338776223391e-03
-8.379617701949268471e-03
-8.377548642543447555e-03
-8.375479160562446929e-03
-8.373409256010634627e-03
-8.371338928893051756e-03
-8.369268179215419434e-03
-8.367197006984140525e-03
-8.365125412206292702e-03
-8.363053394889628442e-03
-8.360980955042575033e-03
-8.358908092674239773e-03
-8.356834807794406503e-03
-8.354761100413526931e-03
-8.352686970542732778e-03
-8.350612418193837511e-03
-8.348537443379329404e-03
-8.346462046112366334e-03
-8.344386226406779253e-03
-8.342309984277072182e-03
-8.340233319738422219e-03
-8.338156232806681264e-03
-8.336078723498374296e-03
-8.334000791830692423e-03
-8.331922437821491154e-03
-8.329843661489295600e-03
-8.327764462853297009e-03
-8.325684841933356228e-03
-8.323604798750005446e-03
-8.321524333324448186e-03
-8.319443445678555843e-03
-8.317362135834864209e-03
-8.315280403816576946e-03
-8.313198249647562113e-03
-8.311115673352355640e-03
-8.309032674956154385e-03
-8.306949254484814402e-03
-8.304865411964856142e-03
-8.302781147423454050e-03
-8.300696460888438294e-03
-8.298611352388299972e-03
-8.296525821952187643e-03
-8.294439869609900387e-03
-8.292353495391894744e-03
-8.290266699329284714e-03
-8.288179481453840022e-03
-8.286091841797984386e-03
-8.284003780394793778e-03
-8.281915297277987753e-03
-8.279826392481934652e-03
-8.277737066041648134e-03
-8.275647317992795848e-03
-8.273557148371695966e-03
-8.271466557215313709e-03
-8.269375544561257882e-03
-8.267284110447787812e-03
-8.265192254913806408e-03
-8.263099977998860160e-03
-8.261007279743142612e-03
-8.258914160187489154e-03
-8.256820619373377024e-03
-8.254726657342927043e-03
-8.252632274138903615e-03
-8.250537469804714724e-03
-8.248442244384405000e-03
-8.246346597922653981e-03
-8.244250530464781318e-03
-8.242154042056746774e-03
-8.240057132745146756e-03
-8.237959802577216051e-03
-8.235862051600820882e-03
-8.233763879864465854e-03
-8.231665287417292212e-03
-8.229566274309074378e-03
-8.227466840590226885e-03
-8.225366986311797440e-03
-8.223266711525465192e-03
-8.221166016283540726e-03
-8.219064900638967802e-03
-8.216963364645319887e-03
-8.214861408356800149e-03
-8.212759031828237993e-03
-8.210656235115092530e-03
-8.208553018273447369e-03
-8.206449381360012355e-03
-8.204345324432125303e-03
-8.202240847547745059e-03
-8.200135950765461909e-03
-8.198030634144492373e-03
-8.195924897744672269e-03
-8.193818741626449770e-03
-8.191712165850894081e-03
-8.189605170479698909e-03
-8.187497755575173786e-03
-8.185389921200251009e-03
-8.183281667418480440e-03
-8.181172994294027764e-03
-8.179063901891671026e-03
-8.176954390276805831e-03
-8.174844459515447082e-03
-8.172734109674227240e-03
-8.170623340820398067e-03
-8.168512153021825414e-03
-8.166400546346987491e-03
-8.164288520864973128e-03
-8.162176076645483516e-03
-8.160063213758825262e-03
-8.157949932275912128e-03
-8.155836232268268496e-03
-8.153722113808029373e-03
-8.151607576967938654e-03
-8.149492621821343916e-03
-8.147377248442199890e-03
-8.145261456905068462e-03
-8.143145247285116933e-03
-8.141028619658112822e-03
-8.138911574100427329e-03
-8.136794110689038809e-03
-8.134676229501534503e-03
-8.132557930616101868e-03
-8.130439214111528576e-03
-8.128320080067204245e-03
-8.126200528563116976e-03
-8.124080559679846408e-03
-8.121960173498574131e-03
-8.119839370101083684e-03
-8.117718149569755348e-03
-8.115596511987562683e-03
-8.113474457438074258e-03
-8.111351986005451917e-03
-8.109229097774450779e-03
-8.107105792830415769e-03
-8.104982071259290294e-03
-8.102857933147609298e-03
-8.100733378582494065e-03
-8.098608407651659152e-03
-8.096483020443408923e-03
-8.094357217046635813e-03
-8.092230997550825533e-03
-8.090104362046050129e-03
-8.087977310622971455e-03
-8.085849843372844639e-03
-8.083721960387516350e-03
-8.081593661759417860e-03
-8.079464947581565040e-03
-8.077335817947567040e-03
-8.075206272951614139e-03
-8.073076312688476017e-03
-8.070945937253500013e-03
-8.068815146742609398e-03
-8.066683941252308573e-03
-8.064552320879683073e-03
-8.062420285722394359e-03
-8.060287835878688495e-03
-8.058154971447385739e-03
-8.056021692527878808e-03
-8.053887999220138080e-03
-8.051753891624706394e-03
-8.049619369842695576e-03
-8.047484433975791648e-03
-8.045349084126261763e-03
-8.043213320396943797e-03
-8.041077142891256760e-03
-8.038940551713195590e-03
-8.036803546967331152e-03
-8.034666128758805037e-03
-8.032528297193326089e-03
-8.030390052377170407e-03
-8.028251394417184814e-03
-8.026112323420788591e-03
-8.023972839495963072e-03
-8.021832942751258577e-03
-8.019692633295792683e-03
-8.017551911239246751e-03
-8.015410776691865927e-03
-8.013269229764453938e-03
-8.011127270568369624e-03
-8.008984899215539077e-03
-8.006842115818450442e-03
-8.004698920490153913e-03
-8.002555313344261734e-03
-8.000411294494949935e-03
-7.998266864056949657e-03
-7.996122022145550623e-03
-7.993976768876601136e-03
-7.991831104366506344e-03
-7.989685028732226510e-03
-7.987538542091275270e-03
-7.985391644561714436e-03
-7.983244336262157459e-03
-7.981096617311771169e-03
-7.978948487830279240e-03
-7.976799947937958726e-03
-7.974650997755633117e-03
-7.972501637404677544e-03
-7.970351867007018781e-03
-7.968201686685128307e-03
-7.966051096562017098e-03
-7.963900096761240832e-03
-7.961748687406905098e-03
-7.959596868623663654e-03
-7.957444640536720168e-03
-7.955292003271823009e-03
-7.953138956955265251e-03
-7.950985501713884671e-03
-7.948831637675070685e-03
-7.946677364966755683e-03
-7.944522683717413283e-03
-7.942367594056061811e-03
-7.940212096112262558e-03
-7.938056190016112845e-03
-7.935899875898247760e-03
-7.933743153889840152e-03
-7.931586024122593698e-03
-7.929428486728744632e-03
-7.927270541841061752e-03
-7.925112189592848147e-03
-7.922953430117941204e-03
-7.920794263550717806e-03
-7.918634690026092604e-03
-7.916474709679518010e-03
-7.914314322646984201e-03
-7.912153529065015650e-03
-7.909992329070662451e-03
-7.907830722801498582e-03
-7.905668710395628851e-03
-7.903506291991683683e-03
-7.901343467728822595e-03
-7.899180237746734196e-03
-7.897016602185629244e-03
-7.894852561186247591e-03
-7.892688114889858178e-03
-7.890523263438260770e-03
-7.888358006973777287e-03
-7.886192345639253531e-03
-7.884026279578062665e-03
-7.881859808934103470e-03
-7.879692933851800349e-03
-7.877525654476096387e-03
-7.875357970952456821e-03
-7.873189883426870775e-03
-7.871021392045851259e-03
-7.868852496956426495e-03
-7.866683198306148594e-03
-7.864513496243086613e-03
-7.862343390915823085e-03
-7.860172882473455760e-03
-7.858001971065601068e-03
-7.855830656842390652e-03
-7.853658939954474838e-03
-7.851486820553013959e-03
-7.849314298789683564e-03
-7.847141374816667472e-03
-7.844968048786662984e-03
-7.842794320852873938e-03
-7.840620191169019385e-03
-7.838445659889326650e-03
-7.836270727168529598e-03
-7.834095393161870369e-03
-7.831919658025095904e-03
-7.829743521914463156e-03
-7.827566984986737350e-03
-7.825390047399188517e-03
-7.823212709309586288e-03
-7.821034970876208567e-03
-7.818856832257841533e-03
-7.816678293613774434e-03
-7.814499355103796119e-03
-7.812320016888205446e-03
-7.810140279127800005e-03
-7.807960141983878721e-03
-7.805779605618247928e-03
-7.803598670193217027e-03
-7.801417335871594153e-03
-7.799235602816688775e-03
-7.797053471192307364e-03
-7.794870941162755987e-03
-7.792688012892835976e-03
-7.790504686547846530e-03
-7.788320962293577773e-03
-7.786136840296317696e-03
-7.783952320722843481e-03
-7.781767403740430175e-03
-7.779582089516843754e-03
-7.777396378220343721e-03
-7.775210270019685711e-03
-7.773023765084120622e-03
-7.770836863583387676e-03
-7.768649565687717022e-03
-7.766461871567828003e-03
-7.764273781394925682e-03
-7.762085295340702580e-03
-7.759896413577344748e-03
-7.757707136277522224e-03
-7.755517463614395104e-03
-7.753327395761611812e-03
-7.751136932893304757e-03
-7.748946075184092938e-03
-7.746754822809074140e-03
-7.744563175943831868e-03
-7.742371134764431014e-03
-7.740178699447423927e-03
-7.737985870169846077e-03
-7.735792647109215187e-03
-7.733599030443531232e-03
-7.731405020351271237e-03
-7.729210617011391012e-03
-7.727015820603326014e-03
-7.724820631306984417e-03
-7.722625049302748838e-03
-7.720429074771474609e-03
-7.718232707894496711e-03
-7.716035948853629776e-03
-7.713838797831158549e-03
-7.711641255009848289e-03
-7.709443320572931767e-03
-7.707244994704113596e-03
-7.705046277587572837e-03
-7.702847169407960395e-03
-7.700647670350393818e-03
-7.698447780600455558e-03
-7.696247500344197308e-03
-7.694046829768142609e-03
-7.691845769059278172e-03
-7.689644318405060817e-03
-7.687442477993416609e-03
-7.685240248012743455e-03
-7.683037628651903303e-03
-7.680834620100228209e-03
-7.678631222547516004e-03
-7.676427436184029424e-03
-7.674223261200492641e-03
-7.672018697788097336e-03
-7.669813746138494891e-03
-7.667608406443798992e-03
-7.665402678896581293e-03
-7.663196563689874882e-03
-7.660990061017173419e-03
-7.658783171072432866e-03
-7.656575894050063683e-03
-7.654368230144934296e-03
-7.652160179552366763e-03
-7.649951742468139373e-03
-7.647742919088486649e-03
-7.645533709610101078e-03
-7.643324114230128780e-03
-7.641114133146170370e-03
-7.638903766556275760e-03
-7.636693014658945886e-03
-7.634481877653132714e-03
-7.632270355738242709e-03
-7.630058449114135964e-03
-7.627846157981120999e-03
-7.625633482539957361e-03
-7.623420422991859097e-03
-7.621206979538487809e-03
-7.618993152381951794e-03
-7.616778941724811243e-03
-7.614564347770073904e-03
-7.612349370721195087e-03
-7.610134010782076790e-03
-7.607918268157066836e-03
-7.605702143050958874e-03
-7.603485635668994110e-03
-7.601268746216856970e-03
-7.599051474900671635e-03
-7.596833821927003773e-03
-7.594615787502860538e-03
-7.592397371835687102e-03
-7.590178575133369257e-03
-7.587959397604229078e-03
-7.585739839457030127e-03
-7.583519900900973117e-03
-7.581299582145696776e-03
-7.579078883401276986e-03
-7.576857804878227645e-03
-7.574636346787494597e-03
-7.572414509340462570e-03
-7.570192292748956046e-03
-7.567969697225231454e-03
-7.565746722981977167e-03
-7.563523370232316974e-03
-7.561299639189809213e-03
-7.559075530068442433e-03
-7.556851043082637998e-03
-7.554626178447249214e-03
-7.552400936377557869e-03
-7.550175317089273357e-03
-7.547949320798530946e-03
-7.545722947721894384e-03
-7.543496198076359363e-03
-7.541269072079353521e-03
-7.539041569948732105e-03
-7.536813691902779708e-03
-7.534585438160205928e-03
-7.532356808940145372e-03
-7.530127804462161123e-03
-7.527898424946236934e-03
-7.525668670612778964e-03
-7.523438541682618379e-03
-7.521208038377007882e-03
-7.518977160917627786e-03
-7.516745909526582545e-03
-7.514514284426396414e-03
-7.512282285840015186e-03
-7.510049913990806195e-03
-7.507817169102553971e-03
-7.505584051399467188e-03
-7.503350561106170852e-03
-7.501116698447703700e-03
-7.498882463649518201e-03
-7.496647856937484894e-03
-7.494412878537894986e-03
-7.492177528677459487e-03
-7.489941807583304877e-03
-7.487705715482974832e-03
-7.485469252604430232e-03
-7.483232419176045688e-03
-7.480995215426607808e-03
-7.478757641585310860e-03
-7.476519697881767179e-03
-7.474281384546000231e-03
-7.472042701808443745e-03
-7.469803649899939973e-03
-7.467564229051742303e-03
-7.465324439495515246e-03
-7.463084281463333580e-03
-7.460843755187678006e-03
-7.458602860901438619e-03
-7.456361598837914911e-03
-7.454119969230814033e-03
-7.451877972314249060e-03
-7.449635608322739862e-03
-7.447392877491215701e-03
-7.445149780055013503e-03
-7.442906316249875247e-03
-7.440662486311943637e-03
-7.438418290477762963e-03
-7.436173728984276504e-03
-7.433928802068826523e-03
-7.431683509969155138e-03
-7.429437852923405187e-03
-7.427191831170120231e-03
-7.424945444948245418e-03
-7.422698694497123148e-03
-7.420451580056496542e-03
-7.418204101866506840e-03
-7.415956260167689065e-03
-7.413708055200972889e-03
-7.411459487207682634e-03
-7.409210556429537270e-03
-7.406961263108649551e-03
-7.404711607487525146e-03
-7.402461589809065240e-03
-7.400211210316566535e-03
-7.397960469253720382e-03
-7.395709366864608447e-03
-7.393457903393702707e-03
-7.391206079085868921e-03
-7.388953894186361428e-03
-7.386701348940824877e-03
-7.384448443595295099e-03
-7.382195178396199105e-03
-7.379941553590349881e-03
-7.377687569424948993e-03
-7.375433226147590053e-03
-7.373178524006255251e-03
-7.370923463249314488e-03
-7.368668044125524508e-03
-7.366412266884024562e-03
-7.364156131774339011e-03
-7.361899639046378188e-03
-7.359642788950437539e-03
-7.357385581737198484e-03
-7.355128017657721479e-03
-7.352870096963454692e-03
-7.350611819906229666e-03
-7.348353186738262183e-03
-7.346094197712148798e-03
-7.343834853080870306e-03
-7.341575153097790012e-03
-7.339315098016653723e-03
-7.337054688091590622e-03
-7.334793923577108930e-03
-7.332532804728098506e-03
-7.330271331799823042e-03
-7.328009505047926135e-03
-7.325747324728434755e-03
-7.323484791097754909e-03
-7.321221904412674245e-03
-7.318958664930355108e-03
-7.316695072908341486e-03
-7.314431128604554667e-03
-7.312166832277295844e-03
-7.309902184185242645e-03
-7.307637184587451734e-03
-7.305371833743351008e-03
-7.303106131912743063e-03
-7.300840079355801725e-03
-7.298573676333074654e-03
-7.296306923105479007e-03
-7.294039819934304905e-03
-7.291772367081214568e-03
-7.289504564808238843e-03
-7.287236413377784147e-03
-7.284967913052629862e-03
-7.282699064095924865e-03
-7.280429866771192735e-03
-7.278160321342323075e-03
-7.275890428073569782e-03
-7.273620187229555382e-03
-7.271349599075271897e-03
-7.269078663876075638e-03
-7.266807381897688947e-03
-7.264535753406201057e-03
-7.262263778668064627e-03
-7.259991457950100945e-03
-7.257718791519499925e-03
-7.255445779643816644e-03
-7.253172422590970468e-03
-7.250898720629241588e-03
-7.248624674027274485e-03
-7.246350283054073596e-03
-7.244075547979012854e-03
-7.241800469071828748e-03
-7.239525046602626399e-03
-7.237249280841869144e-03
-7.234973172060382013e-03
-7.232696720529354327e-03
-7.230419926520335362e-03
-7.228142790305237819e-03
-7.225865312156334354e-03
-7.223587492346256710e-03
-7.221309331147999187e-03
-7.219030828834917778e-03
-7.216751985680723222e-03
-7.214472801959484483e-03
-7.212193277945627874e-03
-7.209913413913936198e-03
-7.207633210139552209e-03
-7.205352666897979486e-03
-7.203071784465084164e-03
-7.200790563117087130e-03
-7.198509003130564889e-03
-7.196227104782455634e-03
-7.193944868350055782e-03
-7.191662294111019968e-03
-7.189379382343355843e-03
-7.187096133325427544e-03
-7.184812547335960031e-03
-7.182528624654034750e-03
-7.180244365559088765e-03
-7.177959770330907818e-03
-7.175674839249639343e-03
-7.173389572595785524e-03
-7.171103970650204162e-03
-7.168818033694114751e-03
-7.166531762009090666e-03
-7.164245155877061767e-03
-7.161958215580314403e-03
-7.159670941401488804e-03
-7.157383333623585156e-03
-7.155095392529955793e-03
-7.152807118404305199e-03
-7.150518511530693476e-03
-7.148229572193538946e-03
-7.145940300677618151e-03
-7.143650697268062386e-03
-7.141360762250356826e-03
-7.139070495910337932e-03
-7.136779898534196045e-03
-7.134488970408473657e-03
-7.132197711820059335e-03
-7.129906123056195533e-03
-7.127614204404477717e-03
-7.125321956152856975e-03
-7.123029378589636543e-03
-7.120736472003475273e-03
-7.118443236683383302e-03
-7.116149672918721178e-03
-7.113855780999201600e-03
-7.111561561214889415e-03
-7.109267013856195548e-03
-7.106972139213883939e-03
-7.104676937579068943e-03
-7.102381409243215329e-03
-7.100085554498138281e-03
-7.097789373636005997e-03
-7.095492866949335356e-03
-7.093196034730995386e-03
-7.090898877274203795e-03
-7.088601394872526967e-03
-7.086303587819876501e-03
-7.084005456410512672e-03
-7.081707000939047904e-03
-7.079408221700449373e-03
-7.077109118990034670e-03
-7.074809693103465726e-03
-7.072509944336754888e-03
-7.070209872986260580e-03
-7.067909479348685568e-03
-7.065608763721080432e-03
-7.063307726400848766e-03
-7.061006367685746313e-03
-7.058704687873881833e-03
-7.056402687263707563e-03
-7.054100366154021813e-03
-7.051797724843971577e-03
-7.049494763633049922e-03
-7.047191482821092527e-03
-7.044887882708289820e-03
-7.042583963595180040e-03
-7.040279725782646637e-03
-7.037975169571918273e-03
-7.035670295264572285e-03
-7.033365103162533827e-03
-7.031059593568079330e-03
-7.028753766783833040e-03
-7.026447623112762678e-03
-7.024141162858187244e-03
-7.021834386323773554e-03
-7.019527293813535365e-03
-7.017219885631835984e-03
-7.014912162083384792e-03
-7.012604123473242454e-03
-7.010295770106817446e-03
-7.007987102289865190e-03
-7.005678120328490653e-03
-7.003368824529148350e-03
-7.001059215198639739e-03
-6.998749292644115827e-03
-6.996439057173077167e-03
-6.994128509093370388e-03
-6.991817648713190801e-03
-6.989506476341079792e-03
-6.987194992285924826e-03
-6.984883196856962045e-03
-6.982571090363770203e-03
-6.980258673116277596e-03
-6.977945945424761202e-03
-6.975632907599847547e-03
-6.973319559952509232e-03
-6.971005902794070140e-03
-6.968691936436201967e-03
-6.966377661190922485e-03
-6.964063077370602484e-03
-6.961748185287960564e-03
-6.959432985256059669e-03
-6.957117477588307952e-03
-6.954801662598462247e-03
-6.952485540600631536e-03
-6.950169111909273480e-03
-6.947852376839190949e-03
-6.945535335705534628e-03
-6.943217988823803012e-03
-6.940900336509843276e-03
-6.938582379079847803e-03
-6.936264116850361129e-03
-6.933945550138275599e-03
-6.931626679260834839e-03
-6.929307504535634626e-03
-6.926988026280622018e-03
-6.924668244814095354e-03
-6.922348160454698182e-03
-6.920027773521419262e-03
-6.917707084333596032e-03
-6.915386093210913743e-03
-6.913064800473408926e-03
-6.910743206441473732e-03
-6.908421311435852460e-03
-6.906099115777645028e-03
-6.903776619788299165e-03
-6.901453823789606944e-03
-6.899130728103712584e-03
-6.896807333053108988e-03
-6.894483638960641203e-03
-6.892159646149505561e-03
-6.889835354943246205e-03
-6.887510765665760294e-03
-6.885185878641298003e-03
-6.882860694194458187e-03
-6.880535212650188380e-03
-6.878209434333791734e-03
-6.875883359570923552e-03
-6.873556988687598221e-03
-6.871230322010185750e-03
-6.868903359865408294e-03
-6.866576102580341026e-03
-6.864248550482413003e-03
-6.861920703899406296e-03
-6.859592563159451657e-03
-6.857264128591031987e-03
-6.854935400522983203e-03
-6.852606379284491636e-03
-6.850277065205100102e-03
-6.847947458614704434e-03
-6.845617559843557819e-03
-6.843287369222263855e-03
-6.840956887081779160e-03
-6.838626113753409896e-03
-6.836295049568820448e-03
-6.833963694860029081e-03
-6.831632049959410549e-03
-6.829300115199694356e-03
-6.826967890913968225e-03
-6.824635377435677233e-03
-6.822302575098621209e-03
-6.819969484236955599e-03
-6.817636105185197540e-03
-6.815302438278221520e-03
-6.812968483851260248e-03
-6.810634242239898585e-03
-6.808299713780077006e-03
-6.805964898808091607e-03
-6.803629797660594100e-03
-6.801294410674595288e-03
-6.798958738187461590e-03
-6.796622780536918512e-03
-6.794286538061054988e-03
-6.791950011098317301e-03
-6.789613199987515162e-03
-6.787276105067821703e-03
-6.784938726678776955e-03
-6.782601065160287837e-03
-6.780263120852619493e-03
-6.777924894096398756e-03
-6.775586385232609810e-03
-6.773247594602597663e-03
-6.770908522548068145e-03
-6.768569169411085308e-03
-6.766229535534079229e-03
-6.763889621259842541e-03
-6.761549426931526968e-03
-6.759208952892649391e-03
-6.756868199487084913e-03
-6.754527167059078997e-03
-6.752185855953234464e-03
-6.749844266514514086e-03
-6.747502399088246665e-03
-6.745160254020120955e-03
-6.742817831656186534e-03
-6.740475132342860741e-03
-6.738132156426925208e-03
-6.735788904255526725e-03
-6.733445376176177243e-03
-6.731101572536753001e-03
-6.728757493685498872e-03
-6.726413139971025752e-03
-6.724068511742310565e-03
-6.721723609348699731e-03
-6.719378433139906563e-03
-6.717032983466011270e-03
-6.714687260677467025e-03
-6.712341265125097364e-03
-6.709994997160090117e-03
-6.707648457134004344e-03
-6.705301645398773804e-03
-6.702954562306700018e-03
-6.700607208210456606e-03
-6.698259583463090153e-03
-6.695911688418019342e-03
-6.693563523429038424e-03
-6.691215088850315483e-03
-6.688866385036385497e-03
-6.686517412342159877e-03
-6.684168171122923871e-03
-6.681818661734336556e-03
-6.679468884532434314e-03
-6.677118839873629093e-03
-6.674768528114704939e-03
-6.672417949612817999e-03
-6.670067104725500851e-03
-6.667715993810661643e-03
-6.665364617226587560e-03
-6.663012975331943089e-03
-6.660661068485770019e-03
-6.658308897047486574e-03
-6.655956461376891752e-03
-6.653603761834167053e-03
-6.651250798779873019e-03
-6.648897572574954430e-03
-6.646544083580734237e-03
-6.644190332158916162e-03
-6.641836318671584700e-03
-6.639482043481203383e-03
-6.637127506950618247e-03
-6.634772709443056103e-03
-6.632417651322132339e-03
-6.630062332951844849e-03
-6.627706754696577503e-03
-6.625350916921098413e-03
-6.622994819990560798e-03
-6.620638464270504724e-03
-6.618281850126850156e-03
-6.615924977925904775e-03
-6.613567848034360500e-03
-6.611210460819296961e-03
-6.608852816648178898e-03
-6.606494915888858760e-03
-6.604136758909581045e-03
-6.601778346078977094e-03
-6.599419677766064224e-03
-6.597060754340246594e-03
-6.594701576171319544e-03
-6.592342143629472198e-03
-6.589982457085284857e-03
-6.587622516909729872e-03
-6.585262323474169038e-03
-6.582901877150357066e-03
-6.580541178310437243e-03
-6.578180227326952713e-03
-6.575819024572841266e-03
-6.573457570421431875e-03
-6.571095865246451631e-03
-6.568733909422019672e-03
-6.566371703322649786e-03
-6.564009247323254748e-03
-6.561646541799144583e-03
-6.559283587126030039e-03
-6.556920383680022585e-03
-6.554556931837637879e-03
-6.552193231975793168e-03
-6.549829284471805554e-03
-6.547465089703391992e-03
-6.545100648048667556e-03
-6.542735959886150643e-03
-6.540371025594764708e-03
-6.538005845553839998e-03
-6.535640420143108351e-03
-6.533274749742704925e-03
-6.530908834733169938e-03
-6.528542675495449532e-03
-6.526176272410897511e-03
-6.523809625861274469e-03
-6.521442736228747795e-03
-6.519075603895893405e-03
-6.516708229245693137e-03
-6.514340612661538230e-03
-6.511972754527233648e-03
-6.509604655226998091e-03
-6.507236315145463988e-03
-6.504867734667679237e-03
-6.502498914179106332e-03
-6.500129854065625837e-03
-6.497760554713535516e-03
-6.495391016509550336e-03
-6.493021239840802462e-03
-6.490651225094845600e-03
-6.488280972659654991e-03
-6.485910482923617007e-03
-6.483539756275536955e-03
-6.481168793104639947e-03
-6.478797593800570895e-03
-6.476426158753396251e-03
-6.474054488353604003e-03
-6.471682582992102813e-03
-6.469310443060220274e-03
-6.466938068949702918e-03
-6.464565461052716212e-03
-6.462192619761849763e-03
-6.459819545470117316e-03
-6.457446238570952422e-03
-6.455072699458210168e-03
-6.452698928526168047e-03
-6.450324926169532028e-03
-6.447950692783430485e-03
-6.445576228763418535e-03
-6.443201534505481505e-03
-6.440826610406038405e-03
-6.438451456861939322e-03
-6.436076074270459350e-03
-6.433700463029302062e-03
-6.431324623536599505e-03
-6.428948556190913072e-03
-6.426572261391237835e-03
-6.424195739537001681e-03
-6.421818991028059240e-03
-6.419442016264693615e-03
-6.417064815647618992e-03
-6.414687389577980632e-03
-6.412309738457352276e-03
-6.409931862687746548e-03
-6.407553762671612356e-03
-6.405175438811839227e-03
-6.402796891511752971e-03
-6.400418121175112211e-03
-6.398039128206106652e-03
-6.395659913009361409e-03
-6.393280475989936151e-03
-6.390900817553325092e-03
-6.388520938105458728e-03
-6.386140838052702974e-03
-6.383760517801865229e-03
-6.381379977760193514e-03
-6.378999218335377336e-03
-6.376618239935545954e-03
-6.374237042969268380e-03
-6.371855627845551644e-03
-6.369473994973848599e-03
-6.367092144764053586e-03
-6.364710077626502434e-03
-6.362327793971966385e-03
-6.359945294211659036e-03
-6.357562578757237209e-03
-6.355179648020807884e-03
-6.352796502414921262e-03
-6.350413142352571635e-03
-6.348029568247193048e-03
-6.345645780512667103e-03
-6.343261779563323828e-03
-6.340877565813933872e-03
-6.338493139679713707e-03
-6.336108501576329100e-03
-6.333723651919893373e-03
-6.331338591126972615e-03
-6.328953319614579603e-03
-6.326567837800172941e-03
-6.324182146101657923e-03
-6.321796244937386532e-03
-6.319410134726160914e-03
-6.317023815887230775e-03
-6.314637288840292510e-03
-6.312250554005489206e-03
-6.309863611803412375e-03
-6.307476462655101958e-03
-6.305089106982045451e-03
-6.302701545206182247e-03
-6.300313777749901034e-03
-6.297925805036038924e-03
-6.295537627487888394e-03
-6.293149245529194684e-03
-6.290760659584155798e-03
-6.288371870077425971e-03
-6.285982877434115670e-03
-6.283593682079792464e-03
-6.281204284440474080e-03
-6.278814684942635345e-03
-6.276424884013204718e-03
-6.274034882079563419e-03
-6.271644679569547166e-03
-6.269254276911447044e-03
-6.266863674534007764e-03
-6.264472872866427670e-03
-6.262081872338367411e-03
-6.259690673379942998e-03
-6.257299276421724940e-03
-6.254907681894738246e-03
-6.252515890230465889e-03
-6.250123901860843607e-03
-6.247731717218266839e-03
-6.245339336735588991e-03
-6.242946760846118832e-03
-6.240553989983623970e-03
-6.238161024582330842e-03
-6.235767865076925591e-03
-6.233374511902557528e-03
-6.230980965494832199e-03
-6.228587226289817452e-03
-6.226193294724040837e-03
-6.223799171234493943e-03
-6.221404856258627193e-03
-6.219010350234350712e-03
-6.216615653600031724e-03
-6.214220766794504094e-03
-6.211825690257069196e-03
-6.209430424427492441e-03
-6.207034969745998942e-03
-6.204639326653276984e-03
-6.202243495590478023e-03
-6.199847476999214083e-03
-6.197451271321554288e-03
-6.195054879000028332e-03
-6.192658300477626478e-03
-6.190261536197802159e-03
-6.187864586604465908e-03
-6.185467452141992298e-03
-6.183070133255219938e-03
-6.180672630389448009e-03
-6.178274943990443198e-03
-6.175877074504429291e-03
-6.173479022378093248e-03
-6.171080788058586064e-03
-6.168682371993522776e-03
-6.166283774630978987e-03
-6.163884996419497810e-03
-6.161486037808089865e-03
-6.159086899246229811e-03
-6.156687581183855479e-03
-6.154288084071368736e-03
-6.151888408359638960e-03
-6.149488554499998698e-03
-6.147088522944240199e-03
-6.144688314144616283e-03
-6.142287928553844673e-03
-6.139887366625102795e-03
-6.137486628812037319e-03
-6.135085715568755482e-03
-6.132684627349832031e-03
-6.130283364610304882e-03
-6.127881927805677725e-03
-6.125480317391920025e-03
-6.123078533825468753e-03
-6.120676577563221449e-03
-6.118274449062537958e-03
-6.115872148781240428e-03
-6.113469677177610709e-03
-6.111067034710393822e-03
-6.108664221838800562e-03
-6.106261239022506629e-03
-6.103858086721656966e-03
-6.101454765396859686e-03
-6.099051275509181740e-03
-6.096647617520154980e-03
-6.094243791891773565e-03
-6.091839799086493958e-03
-6.089435639567237525e-03
-6.087031313797393144e-03
-6.084626822240813727e-03
-6.082222165361817964e-03
-6.079817343625185978e-03
-6.077412357496158463e-03
-6.075007207440441016e-03
-6.072601893924203277e-03
-6.070196417414078054e-03
-6.067790778377161326e-03
-6.065384977281009643e-03
-6.062979014593647062e-03
-6.060572890783560811e-03
-6.058166606319704758e-03
-6.055760161671499414e-03
-6.053353557308828459e-03
-6.050946793702037876e-03
-6.048539871321935088e-03
-6.046132790639789818e-03
-6.043725552127337565e-03
-6.041318156256782201e-03
-6.038910603500786435e-03
-6.036502894332478747e-03
-6.034095029225451656e-03
-6.031687008653760854e-03
-6.029278833091926068e-03
-6.026870503014935404e-03
-6.024462018898234066e-03
-6.022053381217730428e-03
-6.019644590449796905e-03
-6.017235647071269081e-03
-6.014826551559444845e-03
-6.012417304392081788e-03
-6.010007906047402405e-03
-6.007598357004087161e-03
-6.005188657741279690e-03
-6.002778808738585929e-03
-6.000368810476075856e-03
-5.997958663434283487e-03
-5.995548368094204272e-03
-5.993137924937290764e-03
-5.990727334445458685e-03
-5.988316597101083459e-03
-5.985905713387004549e-03
-5.983494683786521121e-03
-5.981083508783390304e-03
-5.978672188861824596e-03
-5.976260724506499665e-03
-5.973849116202550012e-03
-5.971437364435570709e-03
-5.969025469691617396e-03
-5.966613432457207149e-03
-5.964201253219321083e-03
-5.961788932465403486e-03
-5.959376470683358344e-03
-5.956963868361545879e-03
-5.954551125988782542e-03
-5.952138244054336683e-03
-5.949725223047938084e-03
-5.947312063459778836e-03
-5.944898765780506390e-03
-5.942485330501225300e-03
-5.940071758113503290e-03
-5.937658049109364317e-03
-5.935244203981289435e-03
-5.932830223222213331e-03
-5.930416107325526057e-03
-5.928001856785073027e-03
-5.925587472095158494e-03
-5.923172953750536866e-03
-5.920758302246423993e-03
-5.918343518078491086e-03
-5.915928601742865590e-03
-5.913513553736126846e-03
-5.911098374555311293e-03
-5.908683064697908133e-03
-5.906267624661861067e-03
-5.903852054945565690e-03
-5.901436356047866025e-03
-5.899020528468060590e-03
-5.896604572705901534e-03
-5.894188489261590301e-03
-5.891772278635781096e-03
-5.889355941329580887e-03
-5.886939477844545937e-03
-5.884522888682680933e-03
-5.882106174346438121e-03
-5.879689335338719909e-03
-5.877272372162875395e-03
-5.874855285322701237e-03
-5.872438075322446854e-03
-5.870020742666806624e-03
-5.867603287860924215e-03
-5.865185711410394326e-03
-5.862768013821254877e-03
-5.860350195599988744e-03
-5.857932257253526363e-03
-5.855514199289243993e-03
-5.853096022214960246e-03
-5.850677726538942164e-03
-5.848259312769898272e-03
-5.845840781416985522e-03
-5.843422132989804958e-03
-5.841003367998397373e-03
-5.838584486953252856e-03
-5.836165490365304714e-03
-5.833746378745932083e-03
-5.831327152606954715e-03
-5.828907812460632984e-03
-5.826488358819671351e-03
-5.824068792197217501e-03
-5.821649113106861471e-03
-5.819229322062632187e-03
-5.816809419579000925e-03
-5.814389406170876982e-03
-5.811969282353610274e-03
-5.809549048642987865e-03
-5.807128705555233104e-03
-5.804708253607008227e-03
-5.802287693315416953e-03
-5.799867025198001021e-03
-5.797446249772736718e-03
-5.795025367558040083e-03
-5.792604379072763439e-03
-5.790183284836196258e-03
-5.787762085368059958e-03
-5.785340781188509640e-03
-5.782919372818130614e-03
-5.780497860777945342e-03
-5.778076245589406496e-03
-5.775654527774405633e-03
-5.773232707855265392e-03
-5.770810786354740353e-03
-5.768388763796012710e-03
-5.765966640702690528e-03
-5.763544417598814688e-03
-5.761122095008851945e-03
-5.758699673457700133e-03
-5.756277153470681224e-03
-5.753854535573544801e-03
-5.751431820292462853e-03
-5.749009008154039313e-03
-5.746586099685307460e-03
-5.744163095413729048e-03
-5.741739995867189104e-03
-5.739316801573992460e-03
-5.736893513062869820e-03
-5.734470130862976897e-03
-5.732046655503894410e-03
-5.729623087515623749e-03
-5.727199427428593045e-03
-5.724775675773646766e-03
-5.722351833082051781e-03
-5.719927899885493029e-03
-5.717503876716076121e-03
-5.715079764106322999e-03
-5.712655562589178011e-03
-5.710231272698004443e-03
-5.707806894966581043e-03
-5.705382429929103764e-03
-5.702957878120184891e-03
-5.700533240074856511e-03
-5.698108516328569649e-03
-5.695683707417189927e-03
-5.693258813876994097e-03
-5.690833836244675245e-03
-5.688408775057338454e-03
-5.685983630852500803e-03
-5.683558404168093971e-03
-5.681133095542464234e-03
-5.678707705514368133e-03
-5.676282234622974203e-03
-5.673856683407862110e-03
-5.671431052409026119e-03
-5.669005342166867287e-03
-5.666579553222196065e-03
-5.664153686116231434e-03
-5.661727741390596563e-03
-5.659301719587319680e-03
-5.656875621248833204e-03
-5.654449446917974610e-03
-5.652023197137989036e-03
-5.649596872452522338e-03
-5.647170473405616758e-03
-5.644744000541720465e-03
-5.642317454405678008e-03
-5.639890835542732059e-03
-5.637464144498520804e-03
-5.635037381819078817e-03
-5.632610548050840521e-03
-5.630183643740634993e-03
-5.627756669435685088e-03
-5.625329625683603112e-03
-5.622902513032396014e-03
-5.620475332030461929e-03
-5.618048083226591036e-03
-5.615620767169970766e-03
-5.613193384410177129e-03
-5.610765935497174714e-03
-5.608338420981314951e-03
-5.605910841413338716e-03
-5.603483197344380669e-03
-5.601055489325964046e-03
-5.598627717910002397e-03
-5.596199883648796114e-03
-5.593771987095031567e-03
-5.591344028801780233e-03
-5.588916009322501301e-03
-5.586487929211036464e-03
-5.584059789021613394e-03
-5.581631589308845738e-03
-5.579203330627731383e-03
-5.576775013533648122e-03
-5.574346638582349314e-03
-5.571918206329963021e-03
-5.569489717332998940e-03
-5.567061172148346677e-03
-5.564632571333274005e-03
-5.562203915445427735e-03
-5.559775205042829377e-03
-5.557346440683872540e-03
-5.554917622927325535e-03
-5.552488752332324431e-03
-5.550059829458375664e-03
-5.547630854865358632e-03
-5.545201829113525702e-03
-5.542772752763496999e-03
-5.540343626376255208e-03
-5.537914450513155978e-03
-5.535485225735922721e-03
-5.533055952606649210e-03
-5.530626631687796113e-03
-5.528197263542189259e-03
-5.525767848733012695e-03
-5.523338387823814762e-03
-5.520908881378506355e-03
-5.518479329961353125e-03
-5.516049734136981540e-03
-5.513620094470382364e-03
-5.511190411526905447e-03
-5.508760685872257992e-03
-5.506330918072504556e-03
-5.503901108694069649e-03
-5.501471258303736005e-03
-5.499041367468637635e-03
-5.496611436756259836e-03
-5.494181466734440050e-03
-5.491751457971359197e-03
-5.489321411035546008e-03
-5.486891326495880496e-03
-5.484461204921594821e-03
-5.482031046882268090e-03
-5.479600852947830690e-03
-5.477170623688553015e-03
-5.474740359675049801e-03
-5.472310061478276658e-03
-5.469879729669530066e-03
-5.467449364820445648e-03
-5.465018967503000764e-03
-5.462588538289510180e-03
-5.460158077752631268e-03
-5.457727586465360541e-03
-5.455297065001033646e-03
-5.452866513933323639e-03
-5.450435933836242711e-03
-5.448005325284137855e-03
-5.445574688851690867e-03
-5.443144025113917477e-03
-5.440713334646173419e-03
-5.438282618024143159e-03
-5.435851875823841627e-03
-5.433421108621613350e-03
-5.430990316994135057e-03
-5.428559501518411337e-03
-5.426128662771774643e-03
-5.423697801331880952e-03
-5.421266917776714975e-03
-5.418836012684585812e-03
-5.416405086634126960e-03
-5.413974140204298041e-03
-5.411543173974379603e-03
-5.409112188523977453e-03
-5.406681184433025263e-03
-5.404250162281775023e-03
-5.401819122650797049e-03
-5.399388066120976507e-03
-5.396956993273515149e-03
-5.394525904689933919e-03
-5.392094800952072081e-03
-5.389663682642088956e-03
-5.387232550342453512e-03
-5.384801404635951305e-03
-5.382370246105686214e-03
-5.379939075335078702e-03
-5.377507892907864955e-03
-5.375076699408097743e-03
-5.372645495420135149e-03
-5.370214281528644905e-03
-5.367783058318606991e-03
-5.365351826375313639e-03
-5.362920586284362391e-03
-5.360489338631657837e-03
-5.358058084003409875e-03
-5.355626822986133719e-03
-5.353195556166652491e-03
-5.350764284132096364e-03
-5.348333007469897350e-03
-5.345901726767788437e-03
-5.343470442613797514e-03
-5.341039155596252579e-03
-5.338607866303783471e-03
-5.336176575325318402e-03
-5.333745283250083090e-03
-5.331313990667595551e-03
-5.328882698167673043e-03
-5.326451406340428595e-03
-5.324020115776268401e-03
-5.321588827065894430e-03
-5.319157540800300947e-03
-5.316726257570780594e-03
-5.314294977968916575e-03
-5.311863702586587868e-03
-5.309432432015962280e-03
-5.307001166849492982e-03
-5.304569907679920239e-03
-5.302138655100269680e-03
-5.299707409703858368e-03
-5.297276172084291329e-03
-5.294844942835454614e-03
-5.292413722551513565e-03
-5.289982511826918019e-03
-5.287551311256395367e-03
-5.285120121434953161e-03
-5.282688942957881710e-03
-5.280257776420749748e-03
-5.277826622419407032e-03
-5.275395481549980010e-03
-5.272964354408870083e-03
-5.270533241592760543e-03
-5.268102143698613106e-03
-5.265671061323662708e-03
-5.263239995065416635e-03
-5.260808945521657128e-03
-5.258377913290433574e-03
-5.255946898970062509e-03
-5.253515903159125880e-03
-5.251084926456476253e-03
-5.248653969461234206e-03
-5.246223032772783998e-03
-5.243792116990775298e-03
-5.241361222715122323e-03
-5.238930350546002965e-03
-5.236499501083862265e-03
-5.234068674929403739e-03
-5.231637872683591976e-03
-5.229207094947656113e-03
-5.226776342323088097e-03
-5.224345615411639214e-03
-5.221914914815320094e-03
-5.219484241136405044e-03
-5.217053594977427711e-03
-5.214622976941181084e-03
-5.212192387630715761e-03
-5.209761827649341676e-03
-5.207331297600624638e-03
-5.204900798088389798e-03
-5.202470329716714706e-03
-5.200039893089928450e-03
-5.197609488812613386e-03
-5.195179117489603406e-03
-5.192748779725983067e-03
-5.190318476127084128e-03
-5.187888207298482941e-03
-5.185457973846003057e-03
-5.183027776375714359e-03
-5.180597615493930455e-03
-5.178167491807207819e-03
-5.175737405922349252e-03
-5.173307358446401286e-03
-5.170877349986653312e-03
-5.168447381150634116e-03
-5.166017452546114476e-03
-5.163587564781106296e-03
-5.161157718463862606e-03
-5.158727914202874097e-03
-5.156298152606869981e-03
-5.153868434284819729e-03
-5.151438759845926134e-03
-5.149009129899628778e-03
-5.146579545055601432e-03
-5.144150005923752919e-03
-5.141720513114228855e-03
-5.139291067237405572e-03
-5.136861668903889254e-03
-5.134432318724517670e-03
-5.132003017310358441e-03
-5.129573765272711638e-03
-5.127144563223103718e-03
-5.124715411773287516e-03
-5.122286311535242248e-03
-5.119857263121176984e-03
-5.117428267143523703e-03
-5.114999324214939032e-03
-5.112570434948299908e-03
-5.110141599956706179e-03
-5.107712819853478005e-03
-5.105284095252159322e-03
-5.102855426766517849e-03
-5.100426815010538142e-03
-5.097998260598427672e-03
-5.095569764144611616e-03
-5.093141326263729389e-03
-5.090712947570634646e-03
-5.088284628680398748e-03
-5.085856370208309031e-03
-5.083428172769867068e-03
-5.081000036980787803e-03
-5.078571963456998684e-03
-5.076143952814643132e-03
-5.073716005670074469e-03
-5.071288122639857655e-03
-5.068860304340766683e-03
-5.066432551389786314e-03
-5.064004864404109477e-03
-5.061577244001134665e-03
-5.059149690798465070e-03
-5.056722205413913783e-03
-5.054294788465495125e-03
-5.051867440571426379e-03
-5.049440162350127791e-03
-5.047012954420221700e-03
-5.044585817400534279e-03
-5.042158751910092926e-03
-5.039731758568124532e-03
-5.037304837994056352e-03
-5.034877990807515129e-03
-5.032451217628326236e-03
-5.030024519076512803e-03
-5.027597895772292248e-03
-5.025171348336076281e-03
-5.022744877388469163e-03
-5.020318483550267712e-03
-5.017892167442463032e-03
-5.015465929686240519e-03
-5.013039770902976387e-03
-5.010613691714234201e-03
-5.008187692741766610e-03
-5.005761774607516215e-03
-5.003335937933613836e-03
-5.000910183342379377e-03
-4.998484511456319224e-03
-4.996058922898126246e-03
-4.993633418290680664e-03
-4.991207998257048313e-03
-4.988782663420477173e-03
-4.986357414404400841e-03
-4.983932251832439396e-03
-4.981507176328395931e-03
-4.979082188516253948e-03
-4.976657289020176497e-03
-4.974232478464507903e-03
-4.971807757473771169e-03
-4.969383126672667107e-03
-4.966958586686073471e-03
-4.964534138139045823e-03
-4.962109781656814933e-03
-4.959685517864785911e-03
-4.957261347388538207e-03
-4.954837270853823007e-03
-4.952413288886563236e-03
-4.949989402112854424e-03
-4.947565611158963837e-03
-4.945141916651329614e-03
-4.942718319216559894e-03
-4.940294819481431086e-03
-4.937871418072890470e-03
-4.935448115618052724e-03
-4.933024912744199061e-03
-4.930601810078777229e-03
-4.928178808249401507e-03
-4.925755907883852709e-03
-4.923333109610078182e-03
-4.920910414056185733e-03
-4.918487821850442768e-03
-4.916065333621276283e-03
-4.913642949997273739e-03
-4.911220671607183924e-03
-4.908798499079917825e-03
-4.906376433044546022e-03
-4.903954474130296955e-03
-4.901532622966557791e-03
-4.899110880182873558e-03
-4.896689246408944540e-03
-4.894267722274625414e-03
-4.891846308409926979e-03
-4.889425005445012691e-03
-4.887003814010200398e-03
-4.884582734735961468e-03
-4.882161768252916458e-03
-4.879740915191833374e-03
-4.877320176183629410e-03
-4.874899551859370947e-03
-4.872479042850273549e-03
-4.870058649787701102e-03
-4.867638373303164075e-03
-4.865218214028318652e-03
-4.862798172594966738e-03
-4.860378249635057685e-03
-4.857958445780682227e-03
-4.855538761664074214e-03
-4.853119197917608006e-03
-4.850699755173798478e-03
-4.848280434065300147e-03
-4.845861235224907179e-03
-4.843442159285551649e-03
-4.841023206880307878e-03
-4.838604378642387231e-03
-4.836185675205133781e-03
-4.833767097202027775e-03
-4.831348645266686503e-03
-4.828930320032861698e-03
-4.826512122134445602e-03
-4.824094052205464903e-03
-4.821676110880078990e-03
-4.819258298792580830e-03
-4.816840616577396962e-03
-4.814423064869084896e-03
-4.812005644302330513e-03
-4.809588355511946328e-03
-4.807171199132874960e-03
-4.804754175800187398e-03
-4.802337286149079530e-03
-4.799920530814871279e-03
-4.797503910433009201e-03
-4.795087425639063018e-03
-4.792671077068728219e-03
-4.790254865357821724e-03
-4.787838791142281017e-03
-4.785422855058164143e-03
-4.783007057741650581e-03
-4.780591399829039502e-03
-4.778175881956752379e-03
-4.775760504761332979e-03
-4.773345268879444769e-03
-4.770930174947864838e-03
-4.768515223603489103e-03
-4.766100415483329709e-03
-4.763685751224515028e-03
-4.761271231464288788e-03
-4.758856856840004007e-03
-4.756442627989124726e-03
-4.754028545549226874e-03
-4.751614610157997402e-03
-4.749200822453234286e-03
-4.746787183072845653e-03
-4.744373692654847187e-03
-4.741960351837362121e-03
-4.739547161258625581e-03
-4.737134121556977641e-03
-4.734721233370865930e-03
-4.732308497338843026e-03
-4.729895914099566459e-03
-4.727483484291798710e-03
-4.725071208554403740e-03
-4.722659087526347860e-03
-4.720247121846698861e-03
-4.717835312154623414e-03
-4.715423659089391407e-03
-4.713012163290373341e-03
-4.710600825397039462e-03
-4.708189646048958031e-03
-4.705778625885797921e-03
-4.703367765547324282e-03
-4.700957065673397675e-03
-4.698546526903974938e-03
-4.696136149879105715e-03
-4.693725935238933326e-03
-4.691315883623692166e-03
-4.688905995673710303e-03
-4.686496272029407745e-03
-4.684086713331296441e-03
-4.681677320219978546e-03
-4.679268093336147287e-03
-4.676859033320586098e-03
-4.674450140814167751e-03
-4.672041416457854354e-03
-4.669632860892696490e-03
-4.667224474759828871e-03
-4.664816258700470349e-03
-4.662408213355924771e-03
-4.660000339367582727e-03
-4.657592637376918067e-03
-4.655185108025487913e-03
-4.652777751954931783e-03
-4.650370569806968127e-03
-4.647963562223396058e-03
-4.645556729846095356e-03
-4.643150073317025596e-03
-4.640743593278223549e-03
-4.638337290371804915e-03
-4.635931165239962591e-03
-4.633525218524966668e-03
-4.631119450869161831e-03
-4.628713862914967357e-03
-4.626308455304876249e-03
-4.623903228681454369e-03
-4.621498183687343907e-03
-4.619093320965260777e-03
-4.616688641157992018e-03
-4.614284144908396661e-03
-4.611879832859399654e-03
-4.609475705653994469e-03
-4.607071763935240497e-03
-4.604668008346265648e-03
-4.602264439530265490e-03
-4.599861058130501508e-03
-4.597457864790297638e-03
-4.595054860153042868e-03
-4.592652044862191238e-03
-4.590249419561260973e-03
-4.587846984893834482e-03
-4.585444741503556625e-03
-4.583042690034135579e-03
-4.580640831129342838e-03
-4.578239165433009746e-03
-4.575837693589024889e-03
-4.573436416241333236e-03
-4.571035334033936998e-03
-4.568634447610896501e-03
-4.566233757616327583e-03
-4.563833264694403327e-03
-4.561432969489351459e-03
-4.559032872645452615e-03
-4.556632974807036870e-03
-4.554233276618490679e-03
-4.551833778724251670e-03
-4.549434481768809511e-03
-4.547035386396704182e-03
-4.544636493252527699e-03
-4.542237802980923257e-03
-4.539839316226580886e-03
-4.537441033634240055e-03
-4.535042955848683603e-03
-4.532645083514741206e-03
-4.530247417277288510e-03
-4.527849957781247131e-03
-4.525452705671584655e-03
-4.523055661593312037e-03
-4.520658826191485333e-03
-4.518262200111202234e-03
-4.515865783997602065e-03
-4.513469578495864047e-03
-4.511073584251209904e-03
-4.508677801908897789e-03
-4.506282232114219681e-03
-4.503886875512507458e-03
-4.501491732749129428e-03
-4.499096804469488592e-03
-4.496702091319026984e-03
-4.494307593943223933e-03
-4.491913312987593464e-03
-4.489519249097686029e-03
-4.487125402919084176e-03
-4.484731775097406878e-03
-4.482338366278307805e-03
-4.479945177107474454e-03
-4.477552208230622076e-03
-4.475159460293498884e-03
-4.472766933941883447e-03
-4.470374629821582957e-03
-4.467982548578433230e-03
-4.465590690858296970e-03
-4.463199057307062033e-03
-4.460807648570640563e-03
-4.458416465294967254e-03
-4.456025508126005424e-03
-4.453634777709740943e-03
-4.451244274692183096e-03
-4.448853999719363725e-03
-4.446463953437332882e-03
-4.444074136492159703e-03
-4.441684549529932406e-03
-4.439295193196759158e-03
-4.436906068138765473e-03
-4.434517175002089875e-03
-4.432128514432887370e-03
-4.429740087077334645e-03
-4.427351893581621400e-03
-4.424963934591952079e-03
-4.422576210754545871e-03
-4.420188722715638445e-03
-4.417801471121480215e-03
-4.415414456618338077e-03
-4.413027679852489331e-03
-4.410641141470220822e-03
-4.408254842117831536e-03
-4.405868782441631736e-03
-4.403482963087936887e-03
-4.401097384703071998e-03
-4.398712047933370749e-03
-4.396326953425168556e-03
-4.393942101824806906e-03
-4.391557493778634226e-03
-4.389173129933001544e-03
-4.386789010934260755e-03
-4.384405137428762887e-03
-4.382021510062857235e-03
-4.379638129482897428e-03
-4.377254996335233628e-03
-4.374872111266213393e-03
-4.372489474922180812e-03
-4.370107087949479108e-03
-4.367724950994449767e-03
-4.365343064703428207e-03
-4.362961429722744637e-03
-4.360580046698722331e-03
-4.358198916277680225e-03
-4.355818039105929448e-03
-4.353437415829773324e-03
-4.351057047095505635e-03
-4.348676933549412357e-03
-4.346297075837770793e-03
-4.343917474606846969e-03
-4.341538130502895637e-03
-4.339159044172160272e-03
-4.336780216260874808e-03
-4.334401647415259302e-03
-4.332023338281521668e-03
-4.329645289505855074e-03
-4.327267501734437076e-03
-4.324889975613427882e-03
-4.322512711788970355e-03
-4.320135710907188273e-03
-4.317758973614188936e-03
-4.315382500556061429e-03
-4.313006292378871419e-03
-4.310630349728662020e-03
-4.308254673251452928e-03
-4.305879263593239553e-03
-4.303504121399993020e-03
-4.301129247317655828e-03
-4.298754641992142723e-03
-4.296380306069340696e-03
-4.294006240195109847e-03
-4.291632445015281655e-03
-4.289258921175656374e-03
-4.286885669322004766e-03
-4.284512690100065503e-03
-4.282139984155544296e-03
-4.279767552134113896e-03
-4.277395394681414963e-03
-4.275023512443052592e-03
-4.272651906064597188e-03
-4.270280576191584458e-03
-4.267909523469517151e-03
-4.265538748543858984e-03
-4.263168252060036377e-03
-4.260798034663435853e-03
-4.258428096999405769e-03
-4.256058439713252851e-03
-4.253689063450242190e-03
-4.251319968855597244e-03
-4.248951156574497234e-03
-4.246582627252076282e-03
-4.244214381533421669e-03
-4.241846420063575575e-03
-4.239478743487535076e-03
-4.237111352450251278e-03
-4.234744247596628451e-03
-4.232377429571523159e-03
-4.230010899019741658e-03
-4.227644656586043367e-03
-4.225278702915135666e-03
-4.222913038651672155e-03
-4.220547664440251791e-03
-4.218182580925421490e-03
-4.215817788751671791e-03
-4.213453288563438585e-03
-4.211089081005100522e-03
-4.208725166720979002e-03
-4.206361546355338182e-03
-4.203998220552383237e-03
-4.201635189956262097e-03
-4.199272455211062842e-03
-4.196910016960811972e-03
-4.194547875849471801e-03
-4.192186032520938722e-03
-4.189824487619048417e-03
-4.187463241787570643e-03
-4.185102295670207508e-03
-4.182741649910592593e-03
-4.180381305152291831e-03
-4.178021262038805229e-03
-4.175661521213563411e-03
-4.173302083319930210e-03
-4.170942949001195735e-03
-4.168584118900578103e-03
-4.166225593661223442e-03
-4.163867373926202417e-03
-4.161509460338513704e-03
-4.159151853541081384e-03
-4.156794554176750610e-03
-4.154437562888287604e-03
-4.152080880318383994e-03
-4.149724507109655951e-03
-4.147368443904642446e-03
-4.145012691345800922e-03
-4.142657250075510757e-03
-4.140302120736072400e-03
-4.137947303969702166e-03
-4.135592800418533103e-03
-4.133238610724616728e-03
-4.130884735529916953e-03
-4.128531175476310953e-03
-4.126177931205591773e-03
-4.123825003359462248e-03
-4.121472392579540213e-03
-4.119120099507352431e-03
-4.116768124784337193e-03
-4.114416469051840851e-03
-4.112065132951116947e-03
-4.109714117123323615e-03
-4.107363422209527049e-03
-4.105013048850698898e-03
-4.102662997687717139e-03
-4.100313269361364338e-03
-4.097963864512325048e-03
-4.095614783781185812e-03
-4.093266027808435160e-03
-4.090917597234461876e-03
-4.088569492699555864e-03
-4.086221714843906415e-03
-4.083874264307605674e-03
-4.081527141730641704e-03
-4.079180347752901954e-03
-4.076833883014168922e-03
-4.074487748154117552e-03
-4.072141943812315236e-03
-4.069796470628221814e-03
-4.067451329241188705e-03
-4.065106520290455439e-03
-4.062762044415148786e-03
-4.060417902254284499e-03
-4.058074094446767303e-03
-4.055730621631393508e-03
-4.053387484446843193e-03
-4.051044683531681082e-03
-4.048702219524357403e-03
-4.046360093063207028e-03
-4.044018304786448602e-03
-4.041676855332181940e-03
-4.039335745338389766e-03
-4.036994975442933370e-03
-4.034654546283554348e-03
-4.032314458497872865e-03
-4.029974712723388523e-03
-4.027635309597476024e-03
-4.025296249757384301e-03
-4.022957533840239124e-03
-4.020619162483043095e-03
-4.018281136322671317e-03
-4.015943455995870520e-03
-4.013606122139257333e-03
-4.011269135389320881e-03
-4.008932496382415847e-03
-4.006596205754765078e-03
-4.004260264142457844e-03
-4.001924672181448109e-03
-3.999589430507552792e-03
-3.997254539756456108e-03
-3.994920000563708697e-03
-3.992585813564725888e-03
-3.990251979394784237e-03
-3.987918498689018050e-03
-3.985585372082423722e-03
-3.983252600209855401e-03
-3.980920183706023255e-03
-3.978588123205498671e-03
-3.976256419342709923e-03
-3.973925072751938702e-03
-3.971594084067319244e-03
-3.969263453922838338e-03
-3.966933182952334450e-03
-3.964603271789496862e-03
-3.962273721067866537e-03
-3.959944531420836987e-03
-3.957615703481653403e-03
-3.955287237883404854e-03
-3.952959135259026882e-03
-3.950631396241300643e-03
-3.948304021462852899e-03
-3.945977011556152554e-03
-3.943650367153511520e-03
-3.941324088887082980e-03
-3.938998177388863126e-03
-3.936672633290686819e-03
-3.934347457224228461e-03
-3.932022649821003725e-03
-3.929698211712367821e-03
-3.927374143529512897e-03
-3.925050445903467168e-03
-3.922727119465094919e-03
-3.920404164845097371e-03
-3.918081582674011812e-03
-3.915759373582206396e-03
-3.913437538199878406e-03
-3.911116077157054255e-03
-3.908794991083587751e-03
-3.906474280609156628e-03
-3.904153946363265581e-03
-3.901833988975244964e-03
-3.899514409074249493e-03
-3.897195207289256939e-03
-3.894876384249065966e-03
-3.892557940582298294e-03
-3.890239876917396099e-03
-3.887922193882619847e-03
-3.885604892106050458e-03
-3.883287972215588441e-03
-3.880971434838951725e-03
-3.878655280603673060e-03
-3.876339510137100878e-03
-3.874024124066396697e-03
-3.871709123018534683e-03
-3.869394507620300353e-03
-3.867080278498291005e-03
-3.864766436278913985e-03
-3.862452981588385386e-03
-3.860139915052732216e-03
-3.857827237297788495e-03
-3.855514948949196555e-03
-3.853203050632404442e-03
-3.850891542972666344e-03
-3.848580426595039992e-03
-3.846269702124384057e-03
-3.843959370185357719e-03
-3.841649431402419795e-03
-3.839339886399829177e-03
-3.837030735801642226e-03
-3.834721980231712343e-03
-3.832413620313689095e-03
-3.830105656671018658e-03
-3.827798089926943374e-03
-3.825490920704499153e-03
-3.823184149626512440e-03
-3.820877777315601510e-03
-3.818571804394175605e-03
-3.816266231484435369e-03
-3.813961059208368937e-03
-3.811656288187752813e-03
-3.809351919044147525e-03
-3.807047952398900231e-03
-3.804744388873143417e-03
-3.802441229087792727e-03
-3.800138473663547834e-03
-3.797836123220889835e-03
-3.795534178380082120e-03
-3.793232639761167334e-03
-3.790931507983966945e-03
-3.788630783668082112e-03
-3.786330467432892383e-03
-3.784030559897553526e-03
-3.781731061680995362e-03
-3.779431973401920462e-03
-3.777133295678802849e-03
-3.774835029129890596e-03
-3.772537174373203663e-03
-3.770239732026529986e-03
-3.767942702707425488e-03
-3.765646087033213199e-03
-3.763349885620981532e-03
-3.761054099087584278e-03
-3.758758728049639737e-03
-3.756463773123532024e-03
-3.754169234925406294e-03
-3.751875114071168311e-03
-3.749581411176485315e-03
-3.747288126856784720e-03
-3.744995261727253680e-03
-3.742702816402836488e-03
-3.740410791498235011e-03
-3.738119187627907819e-03
-3.735828005406069321e-03
-3.733537245446687594e-03
-3.731246908363481350e-03
-3.728956994769918633e-03
-3.726667505279218553e-03
-3.724378440504348686e-03
-3.722089801058022038e-03
-3.719801587552697911e-03
-3.717513800600584506e-03
-3.715226440813634585e-03
-3.712939508803544172e-03
-3.710653005181749949e-03
-3.708366930559427524e-03
-3.706081285547494029e-03
-3.703796070756606388e-03
-3.701511286797162185e-03
-3.699226934279294023e-03
-3.696943013812871697e-03
-3.694659526007501322e-03
-3.692376471472523167e-03
-3.690093850817010787e-03
-3.687811664649767989e-03
-3.685529913579329263e-03
-3.683248598213958048e-03
-3.680967719161647601e-03
-3.678687277030120995e-03
-3.676407272426827216e-03
-3.674127705958942034e-03
-3.671848578233364961e-03
-3.669569889856718822e-03
-3.667291641435348887e-03
-3.665013833575323302e-03
-3.662736466882432658e-03
-3.660459541962188691e-03
-3.658183059419819506e-03
-3.655907019860269586e-03
-3.653631423888200648e-03
-3.651356272107988618e-03
-3.649081565123724492e-03
-3.646807303539211301e-03
-3.644533487957963246e-03
-3.642260118983206996e-03
-3.639987197217880825e-03
-3.637714723264632005e-03
-3.635442697725815506e-03
-3.633171121203492698e-03
-3.630899994299430916e-03
-3.628629317615104759e-03
-3.626359091751691320e-03
-3.624089317310072791e-03
-3.621819994890832124e-03
-3.619551125094251729e-03
-3.617282708520311307e-03
-3.615014745768688285e-03
-3.612747237438758245e-03
-3.610480184129591461e-03
-3.608213586439955496e-03
-3.605947444968312168e-03
-3.603681760312816250e-03
-3.601416533071312865e-03
-3.599151763841338791e-03
-3.596887453220122891e-03
-3.594623601804583513e-03
-3.592360210191326321e-03
-3.590097278976645163e-03
-3.587834808756519035e-03
-3.585572800126611212e-03
-3.583311253682268816e-03
-3.581050170018519347e-03
-3.578789549730071549e-03
-3.576529393411311940e-03
-3.574269701656308720e-03
-3.572010475058807425e-03
-3.569751714212231804e-03
-3.567493419709680778e-03
-3.565235592143929742e-03
-3.562978232107426660e-03
-3.560721340192290769e-03
-3.558464916990313441e-03
-3.556208963092954284e-03
-3.553953479091341572e-03
-3.551698465576270947e-03
-3.549443923138206718e-03
-3.547189852367281862e-03
-3.544936253853294989e-03
-3.542683128185708605e-03
-3.540430475953652584e-03
-3.538178297745918528e-03
-3.535926594150959768e-03
-3.533675365756890931e-03
-3.531424613151484468e-03
-3.529174336922170658e-03
-3.526924537656038038e-03
-3.524675215939828635e-03
-3.522426372359940567e-03
-3.520178007502428041e-03
-3.517930121952999190e-03
-3.515682716297017368e-03
-3.513435791119495083e-03
-3.511189347005096596e-03
-3.508943384538137488e-03
-3.506697904302582061e-03
-3.504452906882042033e-03
-3.502208392859775671e-03
-3.499964362818685625e-03
-3.497720817341320662e-03
-3.495477757009874363e-03
-3.493235182406182089e-03
-3.490993094111722716e-03
-3.488751492707614296e-03
-3.486510378774614494e-03
-3.484269752893120152e-03
-3.482029615643165120e-03
-3.479789967604419824e-03
-3.477550809356190400e-03
-3.475312141477420857e-03
-3.473073964546690914e-03
-3.470836279142213397e-03
-3.468599085841835104e-03
-3.466362385223036805e-03
-3.464126177862931078e-03
-3.461890464338264473e-03
-3.459655245225414476e-03
-3.457420521100387344e-03
-3.455186292538818104e-03
-3.452952560115971851e-03
-3.450719324406737246e-03
-3.448486585985630851e-03
-3.446254345426794964e-03
-3.444022603303998915e-03
-3.441791360190635165e-03
-3.439560616659719742e-03
-3.437330373283893105e-03
-3.435100630635417977e-03
-3.432871389286177178e-03
-3.430642649807671887e-03
-3.428414412771022511e-03
-3.426186678746967387e-03
-3.423959448305860607e-03
-3.421732722017671157e-03
-3.419506500451985950e-03
-3.417280784178004620e-03
-3.415055573764539960e-03
-3.412830869780015750e-03
-3.410606672792466324e-03
-3.408382983369535272e-03
-3.406159802078477170e-03
-3.403937129486154112e-03
-3.401714966159036149e-03
-3.399493312663202146e-03
-3.397272169564335888e-03
-3.395051537427727379e-03
-3.392831416818269368e-03
-3.390611808300459523e-03
-3.388392712438401295e-03
-3.386174129795802186e-03
-3.383956060935971143e-03
-3.381738506421818561e-03
-3.379521466815855416e-03
-3.377304942680193697e-03
-3.375088934576543371e-03
-3.372873443066215417e-03
-3.370658468710118795e-03
-3.368444012068760440e-03
-3.366230073702243097e-03
-3.364016654170267490e-03
-3.361803754032130151e-03
-3.359591373846723423e-03
-3.357379514172533289e-03
-3.355168175567640240e-03
-3.352957358589718842e-03
-3.350747063796035569e-03
-3.348537291743446196e-03
-3.346328042988395372e-03
-3.344119318086914878e-03
-3.341911117594624503e-03
-3.339703442066733335e-03
-3.337496292058039771e-03
-3.335289668122928472e-03
-3.333083570815366468e-03
-3.330878000688904887e-03
-3.328672958296681559e-03
-3.326468444191420584e-03
-3.324264458925431896e-03
-3.322061003050605626e-03
-3.319858077118412101e-03
-3.317655681679899677e-03
-3.315453817285695173e-03
-3.313252484486003437e-03
-3.311051683830606041e-03
-3.308851415868860422e-03
-3.306651681149702475e-03
-3.304452480221644825e-03
-3.302253813632776390e-03
-3.300055681930759779e-03
-3.297858085662834764e-03
-3.295661025375814807e-03
-3.293464501616087496e-03
-3.291268514929614111e-03
-3.289073065861931790e-03
-3.286878154958149199e-03
-3.284683782762943920e-03
-3.282489949820564627e-03
-3.280296656674830651e-03
-3.278103903869130677e-03
-3.275911691946422743e-03
-3.273720021449230775e-03
-3.271528892919644150e-03
-3.269338306899317263e-03
-3.267148263929470393e-03
-3.264958764550889708e-03
-3.262769809303927258e-03
-3.260581398728500113e-03
-3.258393533364089493e-03
-3.256206213749742503e-03
-3.254019440424069098e-03
-3.251833213925244687e-03
-3.249647534791004055e-03
-3.247462403558645273e-03
-3.245277820765027528e-03
-3.243093786946568517e-03
-3.240910302639244452e-03
-3.238727368378591358e-03
-3.236544984699703340e-03
-3.234363152137232147e-03
-3.232181871225388043e-03
-3.230001142497938068e-03
-3.227820966488207342e-03
-3.225641343729079066e-03
-3.223462274752991047e-03
-3.221283760091936139e-03
-3.219105800277462237e-03
-3.216928395840670980e-03
-3.214751547312216882e-03
-3.212575255222306896e-03
-3.210399520100701721e-03
-3.208224342476712326e-03
-3.206049722879202122e-03
-3.203875661836586095e-03
-3.201702159876829937e-03
-3.199529217527448746e-03
-3.197356835315505290e-03
-3.195185013767612610e-03
-3.193013753409933587e-03
-3.190843054768180941e-03
-3.188672918367615496e-03
-3.186503344733045747e-03
-3.184334334388827428e-03
-3.182165887858861772e-03
-3.179998005666596819e-03
-3.177830688335023940e-03
-3.175663936386677842e-03
-3.173497750343637434e-03
-3.171332130727523655e-03
-3.169167078059503383e-03
-3.167002592860287697e-03
-3.164838675650132743e-03
-3.162675326948838003e-03
-3.160512547275742823e-03
-3.158350337149729448e-03
-3.156188697089221291e-03
-3.154027627612182496e-03
-3.151867129236117504e-03
-3.149707202478071056e-03
-3.147547847854626456e-03
-3.145389065881907305e-03
-3.143230857075575337e-03
-3.141073221950829979e-03
-3.138916161022407055e-03
-3.136759674804580084e-03
-3.134603763811161150e-03
-3.132448428555500031e-03
-3.130293669550484204e-03
-3.128139487308537539e-03
-3.125985882341618567e-03
-3.123832855161222648e-03
-3.121680406278379803e-03
-3.119528536203652544e-03
-3.117377245447139778e-03
-3.115226534518475074e-03
-3.113076403926822756e-03
-3.110926854180881378e-03
-3.108777885788881548e-03
-3.106629499258583768e-03
-3.104481695097280163e-03
-3.102334473811796649e-03
-3.100187835908489471e-03
-3.098041781893246492e-03
-3.095896312271487205e-03
-3.093751427548160557e-03
-3.091607128227746252e-03
-3.089463414814255186e-03
-3.087320287811228144e-03
-3.085177747721736669e-03
-3.083035795048380892e-03
-3.080894430293290402e-03
-3.078753653958122508e-03
-3.076613466544063109e-03
-3.074473868551824956e-03
-3.072334860481648090e-03
-3.070196442833299840e-03
-3.068058616106072653e-03
-3.065921380798787132e-03
-3.063784737409788999e-03
-3.061648686436949096e-03
-3.059513228377666420e-03
-3.057378363728866389e-03
-3.055244092986999539e-03
-3.053110416648041527e-03
-3.050977335207492695e-03
-3.048844849160378071e-03
-3.046712959001245200e-03
-3.044581665224162844e-03
-3.042450968322721414e-03
-3.040320868790034273e-03
-3.038191367118736001e-03
-3.036062463800985427e-03
-3.033934159328465635e-03
-3.031806454192386129e-03
-3.029679348883479364e-03
-3.027552843891999010e-03
-3.025426939707721689e-03
-3.023301636819946975e-03
-3.021176935717496959e-03
-3.019052836888714512e-03
-3.016929340821465893e-03
-3.014806448003136841e-03
-3.012684158920635614e-03
-3.010562474060392117e-03
-3.008441393908357474e-03
-3.006320918950001857e-03
-3.004201049670313615e-03
-3.002081786553801018e-03
-2.999963130084491812e-03
-2.997845080745933227e-03
-2.995727639021191976e-03
-2.993610805392854686e-03
-2.991494580343024862e-03
-2.989378964353325927e-03
-2.987263957904900784e-03
-2.985149561478412251e-03
-2.983035775554041761e-03
-2.980922600611489361e-03
-2.978810037129973713e-03
-2.976698085588229924e-03
-2.974586746464511714e-03
-2.972476020236592287e-03
-2.970365907381761726e-03
-2.968256408376828727e-03
-2.966147523698117999e-03
-2.964039253821471563e-03
-2.961931599222248756e-03
-2.959824560375326659e-03
-2.957718137755100101e-03
-2.955612331835479924e-03
-2.953507143089894715e-03
-2.951402571991292977e-03
-2.949298619012143130e-03
-2.947195284624431772e-03
-2.945092569299662382e-03
-2.942990473508857053e-03
-2.940888997722553456e-03
-2.938788142410806142e-03
-2.936687908043184806e-03
-2.934588295088776892e-03
-2.932489304016187587e-03
-2.930390935293534626e-03
-2.928293189388451751e-03
-2.926196066768087418e-03
-2.924099567899108264e-03
-2.922003693247695200e-03
-2.919908443279544286e-03
-2.917813818459867592e-03
-2.915719819253394067e-03
-2.913626446124366071e-03
-2.911533699536541977e-03
-2.909441579953195734e-03
-2.907350087837115571e-03
-2.905259223650606595e-03
-2.903168987855492093e-03
-2.901079380913113535e-03
-2.898990403284329703e-03
-2.896902055429516690e-03
-2.894814337808565737e-03
-2.892727250880883661e-03
-2.890640795105393294e-03
-2.888554970940532176e-03
-2.886469778844252994e-03
-2.884385219274024879e-03
-2.882301292686831676e-03
-2.880217999539174539e-03
-2.878135340287068904e-03
-2.876053315386047950e-03
-2.873971925291162605e-03
-2.871891170456978074e-03
-2.869811051337576007e-03
-2.867731568386553201e-03
-2.865652722057022029e-03
-2.863574512801612612e-03
-2.861496941072472384e-03
-2.859420007321264792e-03
-2.857343711999170161e-03
-2.855268055556883528e-03
-2.853193038444614641e-03
-2.851118661112087092e-03
-2.849044924008538749e-03
-2.846971827582725663e-03
-2.844899372282918594e-03
-2.842827558556904315e-03
-2.840756386851984745e-03
-2.838685857614976077e-03
-2.836615971292208785e-03
-2.834546728329532823e-03
-2.832478129172314157e-03
-2.830410174265435199e-03
-2.828342864053295675e-03
-2.826276198979814358e-03
-2.824210179488429069e-03
-2.822144806022095810e-03
-2.820080079023289197e-03
-2.818015998934004195e-03
-2.815952566195751346e-03
-2.813889781249560677e-03
-2.811827644535983429e-03
-2.809766156495087288e-03
-2.807705317566458556e-03
-2.805645128189203884e-03
-2.803585588801947234e-03
-2.801526699842830752e-03
-2.799468461749516929e-03
-2.797410874959186874e-03
-2.795353939908542043e-03
-2.793297657033803373e-03
-2.791242026770711718e-03
-2.789187049554527845e-03
-2.787132725820031572e-03
-2.785079056001521763e-03
-2.783026040532816329e-03
-2.780973679847254833e-03
-2.778921974377697186e-03
-2.776870924556524081e-03
-2.774820530815635695e-03
-2.772770793586449949e-03
-2.770721713299903379e-03
-2.768673290386453305e-03
-2.766625525276077396e-03
-2.764578418398274534e-03
-2.762531970182064388e-03
-2.760486181055989141e-03
-2.758441051448113062e-03
-2.756396581786021201e-03
-2.754352772496820260e-03
-2.752309624007141190e-03
-2.750267136743137896e-03
-2.748225311130487233e-03
-2.746184147594389439e-03
-2.744143646559566840e-03
-2.742103808450266009e-03
-2.740064633690256907e-03
-2.738026122702832878e-03
-2.735988275910812822e-03
-2.733951093736542055e-03
-2.731914576601892318e-03
-2.729878724928260902e-03
-2.727843539136571085e-03
-2.725809019647272135e-03
-2.723775166880340170e-03
-2.721741981255280333e-03
-2.719709463191123753e-03
-2.717677613106429715e-03
-2.715646431419285658e-03
-2.713615918547309779e-03
-2.711586074907648431e-03
-2.709556900916976121e-03
-2.707528396991494210e-03
-2.705500563546934818e-03
-2.703473400998557784e-03
-2.701446909761154574e-03
-2.699421090249044808e-03
-2.697395942876077129e-03
-2.695371468055630070e-03
-2.693347666200613787e-03
-2.691324537723470498e-03
-2.689302083036170139e-03
-2.687280302550212538e-03
-2.685259196676625243e-03
-2.683238765825967428e-03
-2.681219010408327288e-03
-2.679199930833324212e-03
-2.677181527510107909e-03
-2.675163800847361883e-03
-2.673146751253303432e-03
-2.671130379135682777e-03
-2.669114684901783500e-03
-2.667099668958420808e-03
-2.665085331711943700e-03
-2.663071673568235837e-03
-2.661058694932714238e-03
-2.659046396210329715e-03
-2.657034777805567308e-03
-2.655023840122446282e-03
-2.653013583564520130e-03
-2.651004008534877440e-03
-2.648995115436141023e-03
-2.646986904670470958e-03
-2.644979376639563715e-03
-2.642972531744651292e-03
-2.640966370386502518e-03
-2.638960892965421749e-03
-2.636956099881247566e-03
-2.634951991533354947e-03
-2.632948568320654398e-03
-2.630945830641592386e-03
-2.628943778894154374e-03
-2.626942413475865257e-03
-2.624941734783786760e-03
-2.622941743214517434e-03
-2.620942439164190060e-03
-2.618943823028473811e-03
-2.616945895202575558e-03
-2.614948656081240736e-03
-2.612952106058750740e-03
-2.610956245528927699e-03
-2.608961074885134471e-03
-2.606966594520271178e-03
-2.604972804826777809e-03
-2.602979706196633779e-03
-2.600987299021358373e-03
-2.598995583692009434e-03
-2.597004560599185108e-03
-2.595014230133020801e-03
-2.593024592683191350e-03
-2.591035648638911459e-03
-2.589047398388934391e-03
-2.587059842321552412e-03
-2.585072980824598514e-03
-2.583086814285445558e-03
-2.581101343091005400e-03
-2.579116567627727594e-03
-2.577132488281602858e-03
-2.575149105438163076e-03
-2.573166419482480864e-03
-2.571184430799171739e-03
-2.569203139772393250e-03
-2.567222546785845848e-03
-2.565242652222771147e-03
-2.563263456465953230e-03
-2.561284959897717345e-03
-2.559307162899929905e-03
-2.557330065853999357e-03
-2.555353669140876180e-03
-2.553377973141052019e-03
-2.551402978234560553e-03
-2.549428684800977059e-03
-2.547455093219420583e-03
-2.545482203868552635e-03
-2.543510017126578929e-03
-2.541538533371248080e-03
-2.539567752979850733e-03
-2.537597676329221737e-03
-2.535628303795741008e-03
-2.533659635755330496e-03
-2.531691672583454619e-03
-2.529724414655120258e-03
-2.527757862344878065e-03
-2.525792016026820724e-03
-2.523826876074583819e-03
-2.521862442861345401e-03
-2.519898716759828156e-03
-2.517935698142297236e-03
-2.515973387380562431e-03
-2.514011784845977728e-03
-2.512050890909440885e-03
-2.510090705941394294e-03
-2.508131230311823681e-03
-2.506172464390259407e-03
-2.504214408545778203e-03
-2.502257063147002736e-03
-2.500300428562099008e-03
-2.498344505158777654e-03
-2.496389293304292645e-03
-2.494434793365443020e-03
-2.492481005708572454e-03
-2.490527930699570989e-03
-2.488575568703873739e-03
-2.486623920086460451e-03
-2.484672985211856377e-03
-2.482722764444131400e-03
-2.480773258146901777e-03
-2.478824466683328398e-03
-2.476876390416118522e-03
-2.474929029707524479e-03
-2.472982384919344100e-03
-2.471036456412920284e-03
-2.469091244549141435e-03
-2.467146749688442324e-03
-2.465202972190804094e-03
-2.463259912415752956e-03
-2.461317570722363658e-03
-2.459375947469256887e-03
-2.457435043014599696e-03
-2.455494857716105078e-03
-2.453555391931031525e-03
-2.451616646016183468e-03
-2.449678620327911706e-03
-2.447741315222112107e-03
-2.445804731054226477e-03
-2.443868868179242555e-03
-2.441933726951694451e-03
-2.439999307725663515e-03
-2.438065610854779196e-03
-2.436132636692216451e-03
-2.434200385590694436e-03
-2.432268857902478675e-03
-2.430338053979381931e-03
-2.428407974172763339e-03
-2.426478618833528833e-03
-2.424549988312130720e-03
-2.422622082958568544e-03
-2.420694903122386915e-03
-2.418768449152676383e-03
-2.416842721398073431e-03
-2.414917720206760047e-03
-2.412993445926462852e-03
-2.411069898904453970e-03
-2.409147079487552329e-03
-2.407224988022123660e-03
-2.405303624854080065e-03
-2.403382990328877845e-03
-2.401463084791520541e-03
-2.399543908586559363e-03
-2.397625462058092325e-03
-2.395707745549764244e-03
-2.393790759404765874e-03
-2.391874503965833038e-03
-2.389958979575248360e-03
-2.388044186574839970e-03
-2.386130125305981498e-03
-2.384216796109591644e-03
-2.382304199326136344e-03
-2.380392335295627472e-03
-2.378481204357623703e-03
-2.376570806851229650e-03
-2.374661143115095862e-03
-2.372752213487419257e-03
-2.370844018305941821e-03
-2.368936557907951046e-03
-2.367029832630281657e-03
-2.365123842809315185e-03
-2.363218588780979963e-03
-2.361314070880749828e-03
-2.359410289443646287e-03
-2.357507244804235482e-03
-2.355604937296629058e-03
-2.353703367254486329e-03
-2.351802535011012982e-03
-2.349902440898960637e-03
-2.348003085250627286e-03
-2.346104468397858158e-03
-2.344206590672044416e-03
-2.342309452404122729e-03
-2.340413053924573529e-03
-2.338517395563422321e-03
-2.336622477650238377e-03
-2.334728300514136903e-03
-2.332834864483779476e-03
-2.330942169887373610e-03
-2.329050217052673188e-03
-2.327159006306978029e-03
-2.325268537977134321e-03
-2.323378812389531589e-03
-2.321489829870105291e-03
-2.319601590744336389e-03
-2.317714095337248745e-03
-2.315827343973410422e-03
-2.313941336976934552e-03
-2.312056074671476301e-03
-2.310171557380234168e-03
-2.308287785425951286e-03
-2.306404759130914126e-03
-2.304522478816952921e-03
-2.302640944805442978e-03
-2.300760157417303369e-03
-2.298880116972996501e-03
-2.297000823792527246e-03
-2.295122278195443812e-03
-2.293244480500837741e-03
-2.291367431027343041e-03
-2.289491130093138354e-03
-2.287615578015946092e-03
-2.285740775113031566e-03
-2.283866721701202120e-03
-2.281993418096810167e-03
-2.280120864615750587e-03
-2.278249061573461593e-03
-2.276378009284925168e-03
-2.274507708064666626e-03
-2.272638158226754183e-03
-2.270769360084798523e-03
-2.268901313951952794e-03
-2.267034020140911744e-03
-2.265167478963909554e-03
-2.263301690732724171e-03
-2.261436655758676442e-03
-2.259572374352630114e-03
-2.257708846824991403e-03
-2.255846073485707690e-03
-2.253984054644267085e-03
-2.252122790609699301e-03
-2.250262281690575648e-03
-2.248402528195007303e-03
-2.246543530430644003e-03
-2.244685288704677522e-03
-2.242827803323839929e-03
-2.240971074594402292e-03
-2.239115102822175976e-03
-2.237259888312511345e-03
-2.235405431370298193e-03
-2.233551732299965311e-03
-2.231698791405480487e-03
-2.229846608990349206e-03
-2.227995185357614649e-03
-2.226144520809858994e-03
-2.224294615649204283e-03
-2.222445470177311991e-03
-2.220597084695383888e-03
-2.218749459504161178e-03
-2.216902594903922760e-03
-2.215056491194485663e-03
-2.213211148675206345e-03
-2.211366567644978964e-03
-2.209522748402234938e-03
-2.207679691244941213e-03
-2.205837396470600696e-03
-2.203995864376255293e-03
-2.202155095258482437e-03
-2.200315089413397256e-03
-2.198475847136651708e-03
-2.196637368723435447e-03
-2.194799654468474522e-03
-2.192962704666031378e-03
-2.191126519609905721e-03
-2.189291099593433654e-03
-2.187456444909486805e-03
-2.185622555850472333e-03
-2.183789432708332489e-03
-2.181957075774543751e-03
-2.180125485340118560e-03
-2.178294661695604015e-03
-2.176464605131081011e-03
-2.174635315936165100e-03
-2.172806794400006496e-03
-2.170979040811289208e-03
-2.169152055458231036e-03
-2.167325838628585740e-03
-2.165500390609640443e-03
-2.163675711688217360e-03
-2.161851802150671631e-03
-2.160028662282890456e-03
-2.158206292370293527e-03
-2.156384692697830424e-03
-2.154563863549984089e-03
-2.152743805210768652e-03
-2.150924517963728137e-03
-2.149106002091938621e-03
-2.147288257878008678e-03
-2.145471285604079372e-03
-2.143655085551822957e-03
-2.141839658002443313e-03
-2.140025003236675511e-03
-2.138211121534785812e-03
-2.136398013176570802e-03
-2.134585678441356521e-03
-2.132774117607998902e-03
-2.130963330954882030e-03
-2.129153318759920751e-03
-2.127344081300558496e-03
-2.125535618853768155e-03
-2.123727931696050338e-03
-2.121921020103434245e-03
-2.120114884351478532e-03
-2.118309524715270009e-03
-2.116504941469421908e-03
-2.114701134888075616e-03
-2.112898105244899374e-03
-2.111095852813086975e-03
-2.109294377865357766e-03
-2.107493680673957516e-03
-2.105693761510659279e-03
-2.103894620646762532e-03
-2.102096258353093172e-03
-2.100298674900001779e-03
-2.098501870557362321e-03
-2.096705845594571717e-03
-2.094910600280550702e-03
-2.093116134883744699e-03
-2.091322449672122514e-03
-2.089529544913177207e-03
-2.087737420873925654e-03
-2.085946077820908118e-03
-2.084155516020187813e-03
-2.082365735737350034e-03
-2.080576737237500428e-03
-2.078788520785267158e-03
-2.077001086644800036e-03
-2.075214435079770527e-03
-2.073428566353371309e-03
-2.071643480728314977e-03
-2.069859178466834475e-03
-2.068075659830684396e-03
-2.066292925081138383e-03
-2.064510974478988257e-03
-2.062729808284544022e-03
-2.060949426757634727e-03
-2.059169830157606303e-03
-2.057391018743323294e-03
-2.055612992773168859e-03
-2.053835752505043469e-03
-2.052059298196366212e-03
-2.050283630104073052e-03
-2.048508748484618568e-03
-2.046734653593973354e-03
-2.044961345687624447e-03
-2.043188825020575330e-03
-2.041417091847345499e-03
-2.039646146421970029e-03
-2.037875988997997836e-03
-2.036106619828494287e-03
-2.034338039166038586e-03
-2.032570247262723787e-03
-2.030803244370155483e-03
-2.029037030739453112e-03
-2.027271606621249521e-03
-2.025506972265692270e-03
-2.023743127922440158e-03
-2.021980073840664097e-03
-2.020217810269046236e-03
-2.018456337455780403e-03
-2.016695655648569931e-03
-2.014935765094626359e-03
-2.013176666040669433e-03
-2.011418358732928839e-03
-2.009660843417145071e-03
-2.007904120338567695e-03
-2.006148189741954919e-03
-2.004393051871574891e-03
-2.002638706971203095e-03
-2.000885155284121055e-03
-1.999132397053118501e-03
-1.997380432520493368e-03
-1.995629261928050062e-03
-1.993878885517099894e-03
-1.992129303528460647e-03
-1.990380516202455274e-03
-1.988632523778912330e-03
-1.986885326497165542e-03
-1.985138924596051638e-03
-1.983393318313912083e-03
-1.981648507888593078e-03
-1.979904493557445126e-03
-1.978161275557320867e-03
-1.976418854124575505e-03
-1.974677229495067684e-03
-1.972936401904157311e-03
-1.971196371586707297e-03
-1.969457138777081385e-03
-1.967718703709144153e-03
-1.965981066616261010e-03
-1.964244227731298201e-03
-1.962508187286621502e-03
-1.960772945514097088e-03
-1.959038502645090232e-03
-1.957304858910467044e-03
-1.955572014540590126e-03
-1.953839969765319880e-03
-1.952108724814014071e-03
-1.950378279915528914e-03
-1.948648635298218636e-03
-1.946919791189934395e-03
-1.945191747818024713e-03
-1.943464505409334391e-03
-1.941738064190203861e-03
-1.940012424386468965e-03
-1.938287586223460743e-03
-1.936563549926004560e-03
-1.934840315718420762e-03
-1.933117883824522721e-03
-1.931396254467617488e-03
-1.929675427870505573e-03
-1.927955404255479429e-03
-1.926236183844324103e-03
-1.924517766858316152e-03
-1.922800153518224508e-03
-1.921083344044310047e-03
-1.919367338656324719e-03
-1.917652137573512420e-03
-1.915937741014607900e-03
-1.914224149197836554e-03
-1.912511362340914203e-03
-1.910799380661045571e-03
-1.909088204374926028e-03
-1.907377833698740283e-03
-1.905668268848161517e-03
-1.903959510038350520e-03
-1.902251557483955252e-03
-1.900544411399111714e-03
-1.898838071997443946e-03
-1.897132539492063811e-03
-1.895427814095570129e-03
-1.893723896020048673e-03
-1.892020785477071957e-03
-1.890318482677698147e-03
-1.888616987832470416e-03
-1.886916301151415854e-03
-1.885216422844045907e-03
-1.883517353119356589e-03
-1.881819092185827835e-03
-1.880121640251424149e-03
-1.878424997523593307e-03
-1.876729164209267218e-03
-1.875034140514863015e-03
-1.873339926646280882e-03
-1.871646522808903838e-03
-1.869953929207598172e-03
-1.868262146046712575e-03
-1.866571173530077055e-03
-1.864881011861004457e-03
-1.863191661242289375e-03
-1.861503121876207506e-03
-1.859815393964515647e-03
-1.858128477708451262e-03
-1.856442373308733349e-03
-1.854757080965562010e-03
-1.853072600878616491e-03
-1.851388933247056492e-03
-1.849706078269521513e-03
-1.848024036144131068e-03
-1.846342807068483607e-03
-1.844662391239656942e-03
-1.842982788854208472e-03
-1.841304000108173657e-03
-1.839626025197066460e-03
-1.837948864315879557e-03
-1.836272517659083689e-03
-1.834596985420627012e-03
-1.832922267793935097e-03
-1.831248364971910497e-03
-1.829575277146933609e-03
-1.827903004510862467e-03
-1.826231547255032514e-03
-1.824560905570255095e-03
-1.822891079646818315e-03
-1.821222069674486178e-03
-1.819553875842497715e-03
-1.817886498339567640e-03
-1.816219937353884609e-03
-1.814554193073113827e-03
-1.812889265684396395e-03
-1.811225155374348444e-03
-1.809561862329060918e-03
-1.807899386734099570e-03
-1.806237728774504319e-03
-1.804576888634788377e-03
-1.802916866498938033e-03
-1.801257662550412872e-03
-1.799599276972146424e-03
-1.797941709946545294e-03
-1.796284961655488736e-03
-1.794629032280329294e-03
-1.792973922001892591e-03
-1.791319631000475813e-03
-1.789666159455847918e-03
-1.788013507547249427e-03
-1.786361675453392419e-03
-1.784710663352461401e-03
-1.783060471422113309e-03
-1.781411099839476202e-03
-1.779762548781149917e-03
-1.778114818423204985e-03
-1.776467908941182193e-03
-1.774821820510094324e-03
-1.773176553304425069e-03
-1.771532107498128379e-03
-1.769888483264627594e-03
-1.768245680776817184e-03
-1.766603700207060356e-03
-1.764962541727190578e-03
-1.763322205508510926e-03
-1.761682691721793434e-03
-1.760044000537280611e-03
-1.758406132124684792e-03
-1.756769086653187269e-03
-1.755132864291438074e-03
-1.753497465207556416e-03
-1.751862889569130027e-03
-1.750229137543214946e-03
-1.748596209296336386e-03
-1.746964104994487869e-03
-1.745332824803130789e-03
-1.743702368887192896e-03
-1.742072737411069598e-03
-1.740443930538623958e-03
-1.738815948433186263e-03
-1.737188791257555107e-03
-1.735562459173997391e-03
-1.733936952344246590e-03
-1.732312270929503616e-03
-1.730688415090435956e-03
-1.729065384987177887e-03
-1.727443180779330689e-03
-1.725821802625961566e-03
-1.724201250685602994e-03
-1.722581525116254021e-03
-1.720962626075380050e-03
-1.719344553719912190e-03
-1.717727308206247472e-03
-1.716110889690248631e-03
-1.714495298327244326e-03
-1.712880534272028486e-03
-1.711266597678861396e-03
-1.709653488701468830e-03
-1.708041207493041181e-03
-1.706429754206234550e-03
-1.704819128993171609e-03
-1.703209332005441818e-03
-1.701600363394099912e-03
-1.699992223309665243e-03
-1.698384911902122655e-03
-1.696778429320923345e-03
-1.695172775714984433e-03
-1.693567951232687009e-03
-1.691963956021876134e-03
-1.690360790229861491e-03
-1.688758454003418249e-03
-1.687156947488787067e-03
-1.685556270831674308e-03
-1.683956424177252041e-03
