-4.504194705383209735e-03
-4.450696900510609302e-03
-4.381949053427833772e-03
-4.297894736908448345e-03
-4.198521283904068854e-03
-4.083865594989195824e-03
-3.954021091727384640e-03
-3.809145686674904763e-03
-3.649470688847560734e-03
-3.475310451372325918e-03
-3.287072557804715436e-03
-3.085268335230146111e-03
-2.870523345857643998e-03
-2.643587675586799371e-03
-2.405345568565332975e-03
-2.156824127438644600e-03
-1.899200686000570995e-03
-1.633808618545807287e-03
-1.362141122543520993e-03
-1.085852687923610001e-03
-8.067580016749392431e-04
-5.268279552676536108e-04
-2.481826263711417522e-04
2.691908210146691895e-05
2.960931765516805416e-04
5.568477378972726526e-04
8.066035388615900355e-04
1.042718048568475617e-03
1.262512597973150085e-03
1.463302516630676916e-03
1.642430014040449637e-03
1.797299394695843966e-03
1.925414120499065011e-03
2.024415281521028172e-03
2.092120879653638823e-03
2.126565314440697838e-03
2.126038455911253861e-03
2.089123568816286629e-03
2.014733486817797768e-03
1.902144170014786681e-03
1.751025146040673499e-03
1.561465987984200689e-03
1.333998306266340498e-03
1.069612582108244152e-03
7.697693497499676031e-04
4.364041608100438204e-04
7.192611851036128951e-05
-3.207903652727877621e-04
-7.384208620095965639e-04
-1.177213264199811205e-03
-1.633017098994442480e-03
-2.101319675329827146e-03
-2.577288790232542225e-03
-3.055821566281763466e-03
-3.531598890218057632e-03
-3.999144765389288890e-03
-4.452889955149298869e-03
-4.887238891816603550e-03
-5.296639011416796883e-03
-5.675651490196801860e-03
-6.019022379675361203e-03
-6.321752964957090722e-03
-6.579168236299139799e-03
-6.786982283138526077e-03
-6.941359650612533710e-03
-7.038971518696987908e-03
-7.077045634664849878e-03
-7.053409112995400430e-03
-6.966523303221601980e-03
-6.815509862351017828e-03
-6.600167628413877025e-03
-6.320979694008904172e-03
-5.979110386454957599e-03
-5.576392075159542112e-03
-5.115301777281337434e-03
-4.598927889441230786e-03
-4.030927179821360180e-03
-3.415472876445987092e-03
-2.757194335573924255e-03
-2.061109248908433132e-03
-1.332549469364859192e-03
-5.770814606733007347e-04
1.995772328574430617e-04
9.916442931965452432e-04
1.793360135785443572e-03
2.599075297204974776e-03
3.403336192244811945e-03
4.200967677076748730e-03
4.987151049072104450e-03
5.757496100930965810e-03
6.508105866375543495e-03
7.235632939160867652e-03
7.937326272207223532e-03
8.611067560703813267e-03
9.255396441101423552e-03
9.869524069766738572e-03
1.045333462845534842e-02
1.100737468063457333e-02
1.153283047114654972e-02
1.203149351702764713e-02
1.250571502364022231e-02
1.295834978794866560e-02
1.339269060310151541e-02
1.381239432673832083e-02
1.422140086050725956e-02
1.462384652462734441e-02
1.502397338941606139e-02
1.542603627275778398e-02
1.583420908183929762e-02
1.625249233704044449e-02
1.668462360615358478e-02
1.713399266402796522e-02
1.760356293096556821e-02
1.809580091344619932e-02
1.861261501238019311e-02
1.915530506602589403e-02
1.972452367496151451e-02
2.032025026148238933e-02
2.094177848610397769e-02
2.158771748819179534e-02
2.225600709676169714e-02
2.294394697102332750e-02
2.364823921783272206e-02
2.436504401904019887e-02
2.509004708276994094e-02
2.581853808553908822e-02
2.654549858986376271e-02
2.726569791909231114e-02
2.797379519422971486e-02
2.866444568078587579e-02
2.933240945221838453e-02
2.997266030688286800e-02
3.058049271541546724e-02
3.115162482701092431e-02
3.168229534499365091e-02
3.216935234915260095e-02
3.261033221029258078e-02
3.300352682244424296e-02
3.334803778700257126e-02
3.364381624330878284e-02
3.389168727240387397e-02
3.409335827402191349e-02
3.425141087016079361e-02
3.436927629205373952e-02
3.445119451196505811e-02
3.450215764348062153e-02
3.452783854435332450e-02
3.453450585474451134e-02
3.452892704452917988e-02
3.451826120004426041e-02
3.450994363165418161e-02
3.451156449136730253e-02
3.453074383867125313e-02
3.457500575557193728e-02
3.465165399303737209e-02
3.476765191347046952e-02
3.492950921587703594e-02
3.514317800329243291e-02
3.541396062168367803e-02
3.574643132013009816e-02
3.614437381721987558e-02
3.661073633852205550e-02
3.714760551942591915e-02
3.775620020908600910e-02
3.843688561239604756e-02
3.918920797378835225e-02
4.001194960446102789e-02
4.090320340610612004e-02
4.186046580944098594e-02
4.288074644534052571e-02
4.396069268635845878e-02
4.509672647798329548e-02
4.628519074161251134e-02
4.752250221411064013e-02
4.880530745832212247e-02
5.013063839383162523e-02
5.149606368703057296e-02
5.289983215705650055e-02
5.434100435505218041e-02
5.581956868125349802e-02
5.733653834914273495e-02
5.889402575890206187e-02
6.049529128129602779e-02
6.214476363010740939e-02
6.384802950487324102e-02
6.561179066357926415e-02
6.744378708812678869e-02
6.935268562624956334e-02
7.134793393326012423e-02
7.343958030164639272e-02
7.563806055937871697e-02
7.795395405024593827e-02
8.039771116896148040e-02
8.297935582470661320e-02
8.570816651454077340e-02
8.859234051221154260e-02
9.163864617734709950e-02
9.485206879643608147e-02
9.823545574168052186e-02
1.017891670673672089e-01
1.055107379099642639e-01
1.093945591255248845e-01
1.134315826349124312e-01
1.176090578582470181e-01
1.219103053888482835e-01
1.263145338334809575e-01
1.307967051526359725e-01
1.353274535124383560e-01
1.398730619305514067e-01
1.443955003095784562e-01
1.488525276462172309e-01
1.531978603504060010e-01
1.573814077185223259e-01
1.613495746024197486e-01
1.650456302599284109e-01
1.684101414294074117e-01
1.713814666257816588e-01
1.738963075833289962e-01
1.758903129245891761e-01
1.772987280916274722e-01
1.780570846290742415e-01
1.781019212750608316e-01
1.773715285435024380e-01
1.758067079036531311e-01
1.733515360304797304e-01
1.699541244255648731e-01
1.655673643588452815e-01
1.601496470214620327e-01
1.536655488860307339e-01
1.460864724020272121e-01
1.373912325500910303e-01
1.275665801910027541e-01
1.166076538039217125e-01
1.045183521258900156e-01
9.131162079131759091e-02
7.700964737882398659e-02
6.164396016232660813e-02
4.525542703190588850e-02
2.789415252341642670e-02
9.619271942406628847e-03
-9.501356959458541127e-03
-2.939156296267202845e-02
-4.996736784269290715e-02
-7.113758606374001592e-02
-9.280451177456269796e-02
-1.148646862439373778e-01
-1.372097377863240597e-01
-1.597272849855666810e-01
-1.823018932079292220e-01
-2.048160736947252647e-01
-2.271513137649386060e-01
-2.491891261885128828e-01
-2.708121055100110031e-01
-2.919049788559682224e-01
-3.123556388589294186e-01
-3.320561463831351867e-01
-3.509036911797280278e-01
-3.688014990881048338e-01
-3.856596750068806978e-01
-4.013959717141934447e-01
-4.159364755142481718e-01
-4.292162009353023278e-01
-4.411795875334080241e-01
-4.517808935644946899e-01
-4.609844823483393306e-01
-4.687649984662497493e-01
-4.751074327597530345e-01
-4.800070760659018165e-01
-4.834693635189531991e-01
-4.855096122617285070e-01
-4.861526571614621095e-01
-4.854323900485026377e-01
-4.833912094002335569e-01
-4.800793884920891985e-01
-4.755543710743880270e-01
-4.698800043135687443e-01
-4.631257195964242346e-01
-4.553656722594193740e-01
-4.466778518424678879e-01
-4.371431744523868734e-01
-4.268445691702097977e-01
-4.158660700972472424e-01
-4.042919255005222867e-01
-3.922057349760326161e-01
-3.796896251685449863e-01
-3.668234735820701253e-01
-3.536841894772937422e-01
-3.403450596957342533e-01
-3.268751661580830414e-01
-3.133388808076888465e-01
-2.997954424226663694e-01
-2.862986185662226291e-01
-2.728964545525874863e-01
-2.596311102145657523e-01
-2.465387837579750829e-01
-2.336497209428103905e-01
-2.209883065220012432e-01
-2.085732337689878424e-01
-1.964177469505814511e-01
-1.845299506301160686e-01
-1.729131787666070286e-01
-1.615664160591149812e-01
-1.504847632653341094e-01
-1.396599378104486644e-01
-1.290808006955236620e-01
-1.187339006878880276e-01
-1.086040264918772952e-01
-9.867475806530763560e-02
-8.892900826084891575e-02
-7.934954643392233553e-02
-6.991949627870390482e-02
-6.062280066919641802e-02
-5.144464700411207486e-02
-4.237184741964201973e-02
-3.339316914347008336e-02
-2.449961111633009586e-02
-1.568462405826629574e-02
-6.944272101916718586e-03
1.722664855926765715e-03
1.031464791965105293e-02
1.882739394525106622e-02
2.725394631196542336e-02
3.558479867817865294e-02
4.380806806910687856e-02
5.190971282644780971e-02
5.987379040498400085e-02
6.768274928142105351e-02
7.531774897903810440e-02
8.275900187557129473e-02
8.998613020011338171e-02
9.697853149117056926e-02
1.037157459408258181e-01
1.101778191060795581e-01
1.163456536571873534e-01
1.222013442991077004e-01
1.277284902030710323e-01
1.329124800951155261e-01
1.377407454972058021e-01
1.422029784754388626e-01
1.462913105815721870e-01
1.500004508236839063e-01
1.533277809888386745e-01
1.562734074703067688e-01
1.588401695492897281e-01
1.610336048286583610e-01
1.628618730627881539e-01
1.643356405996046488e-01
1.654679279741101960e-01
1.662739239777498157e-01
1.667707699188841208e-01
1.669773181334174295e-01
1.669138694189856720e-01
1.666018940077115540e-01
1.660637410037865414e-01
1.653223413288034127e-01
1.644009091770915476e-01
1.633226468550847132e-01
1.621104576514745543e-01
1.607866713082050369e-01
1.593727862661785954e-01
1.578892322721386077e-01
1.563551568866065888e-01
1.547882385487905632e-01
1.532045286091696101e-01
1.516183240458812420e-01
1.500420720732379698e-01
1.484863071975063009e-01
1.469596208193132969e-01
1.454686628909417356e-01
1.440181744496480676e-01
1.426110495542814438e-01
1.412484246856047787e-01
1.399297930341952823e-01
1.386531409864222852e-01
1.374151036341451915e-01
1.362111360557912987e-01
1.350356967541456454e-01
1.338824397020381141e-01
1.327444112914678009e-01
1.316142486447615667e-01
1.304843755162651553e-01
1.293471925863098060e-01
1.281952588720418618e-01
1.270214613483054422e-01
1.258191700839288441e-01
1.245823766134289134e-01
1.233058136125728677e-01
1.219850544223911176e-01
1.206165912423348557e-01
1.191978913155143510e-01
1.177274309362300458e-01
1.162047072417482091e-01
1.146302285451267777e-01
1.130054840830765628e-01
1.113328944506579293e-01
1.096157444365526007e-01
1.078581000608484081e-01
1.060647119279979345e-01
1.042409073655021085e-01
1.023924737585916872e-01
1.005255356647569431e-01
9.864642828226520554e-02
9.676156993097846659e-02
9.487733612640802949e-02
9.299993763633018773e-02
9.113530490899073022e-02
8.928898091871013964e-02
8.746602438561380810e-02
8.567092505454715345e-02
8.390753231822799252e-02
8.217899838667157286e-02
8.048773665829447865e-02
7.883539582310634952e-02
7.722284985729802043e-02
7.565020374620264054e-02
7.411681437084578772e-02
7.262132589294126306e-02
7.116171864848722106e-02
6.973537018736071513e-02
6.833912710661976808e-02
6.696938596449177050e-02
6.562218156840979311e-02
6.429328068759324055e-02
6.297827920058922391e-02
6.167270084099519406e-02
6.037209553956209701e-02
5.907213535126346060e-02
5.776870624762183576e-02
5.645799403933035587e-02
5.513656289620566531e-02
5.380142495342078723e-02
5.245010004063600795e-02
5.108066440020044702e-02
4.969178767154171922e-02
4.828275774266908155e-02
4.685349311041096809e-02
4.540454273315426559e-02
4.393707380688285924e-02
4.245284764890342594e-02
4.095418456462861234e-02
3.944391851403086097e-02
3.792534260851773698e-02
3.640214665957448859e-02
3.487834817347623684e-02
3.335821818244366632e-02
3.184620339253638188e-02
3.034684629787583535e-02
2.886470474399584901e-02
2.740427246463989636e-02
2.596990214076645709e-02
2.456573234997573227e-02
2.319561973527379389e-02
2.186307757346062433e-02
2.057122186154942967e-02
1.932272559966009828e-02
1.811978212409539810e-02
1.696407797354085659e-02
1.585677563607410315e-02
1.479850622879217391e-02
1.378937206051854443e-02
1.282895885234451062e-02
1.191635725010714748e-02
1.105019280435361184e-02
1.022866387366703871e-02
9.449586475135910921e-03
8.710445068126623086e-03
8.008448178076936486e-03
7.340587728989322880e-03
6.703700828238801264e-03
6.094532721700706736e-03
5.509799777041276062e-03
4.946251129537099396e-03
4.400728009051233305e-03
3.870219567480869850e-03
3.351914192482099378e-03
2.843245423389383769e-03
2.341931736565058299e-03
1.846009484975317952e-03
1.353858546503036503e-03
8.642203808414039481e-04
3.762082140525102548e-04
-1.106905689321246094e-04
-5.966197582208641881e-04
-1.081367088866711694e-03
-1.564383979017075011e-03
-2.044811782329197195e-03
-2.521513824121345785e-03
-2.993112456760889124e-03
-3.458030276406092850e-03
-3.914534634402708213e-03
-4.360784396559023827e-03
-4.794878019617277234e-03
-5.214901960155447422e-03
-5.618978302296678308e-03
-6.005310826196962222e-03
-6.372228422192171594e-03
-6.718225145175995769e-03
-7.041996063952888144e-03
-7.342468306389074266e-03
-7.618826721037006561e-03
-7.870533657956511192e-03
-8.097342586207719947e-03
-8.299305406995987136e-03
-8.476773294656174407e-03
-8.630391228778877197e-03
-8.761086360266323245e-03
-8.870050547846139097e-03
-8.958717433976104774e-03
-9.028734633301485971e-03
-9.081931682154606791e-03
-9.120284334128541878e-03
-9.145876040067262708e-03
-9.160857420971091000e-03
-9.167404467767531831e-03
-9.167676457787519301e-03
-9.163774305727775960e-03
-9.157700220006319974e-03
-9.151319468476878591e-03
-9.146324921171553046e-03
-9.144205145902285781e-03
-9.146216578354860946e-03
-9.153360278535879399e-03
-9.166363744613154410e-03
-9.185668034472255911e-03
-9.211420402127983367e-03
-9.243472597933970539e-03
-9.281384765246147861e-03
-9.324434902345300410e-03
-9.371633491668246788e-03
-9.421743130544932288e-03
-9.473302599518109920e-03
-9.524655018409742407e-03
-9.573979406364006503e-03
-9.619325044675369057e-03
-9.658647961849333927e-03
-9.689848832018487998e-03
-9.710811532772809992e-03
-9.719441622110178147e-03
-9.713704076533165310e-03
-9.691659500474261030e-03
-9.651498144004783467e-03
-9.591571159759629261e-03
-9.510418486002446270e-03
-9.406792886782564672e-03
-9.279679809500425772e-03
-9.128312654622713213e-03
-8.952183180602217918e-03
-8.751047062644205440e-03
-8.524924389512932021e-03
-8.274095303355735037e-03
-7.999090864555467514e-03
-7.700679349775426709e-03
-7.379848344238855787e-03
-7.037783068661675016e-03
-6.675841319544988627e-03
-6.295525677089285413e-03
-5.898453401987156786e-03
-5.486324755025947901e-03
-5.060890286673161952e-03
-4.623917828155705428e-03
-4.177159794600140627e-03
-3.722321439445450738e-03
-3.261030668420648523e-03
-2.794809967969491115e-03
-2.325050955159676126e-03
-1.852992150274168897e-03
-1.379700133845060449e-03
-9.060546064879734449e-04
-4.327376307271563628e-04
3.977301320926812504e-05
5.112060270573081603e-04
9.814944868145095667e-04
1.450769485120382424e-03
1.919349679854586354e-03
2.387726999483263685e-03
2.856548889964934633e-03
3.326597388346756810e-03
3.798765579335704363e-03
4.274031833975583221e-03
4.753432439291634462e-03
5.238033129755755198e-03
5.728900182348005930e-03
6.227071543011455067e-03
6.733528664383602730e-03
7.249169565179840180e-03
7.774783727955459321e-03
8.311029216636619393e-03
8.858412591687668883e-03
9.417271910746705110e-03
9.987763253854258991e-03
1.056985093808418541e-02
1.116330166186024590e-02
1.176768270064951043e-02
1.238236422029193214e-02
1.300652555047706986e-02
1.363916541349888614e-02
1.427911584515140740e-02
1.492505955855637223e-02
1.557555041150947631e-02
1.622903654945101817e-02
1.688388584501190198e-02
1.753841305849980839e-02
1.819090823702801743e-02
1.883966580971397492e-02
1.948301378920548263e-02
2.011934249740161829e-02
2.074713230574928846e-02
2.136497981735391294e-02
2.197162198943619638e-02
2.256595767703453020e-02
2.314706624085862557e-02
2.371422279783785142e-02
2.426690984252751968e-02
2.480482496725984476e-02
2.532788457957719022e-02
2.583622338256882575e-02
2.633018973264241239e-02
2.681033686395399920e-02
2.727741023611689533e-02
2.773233107251792812e-02
2.817617641971306361e-02
2.861015617457713517e-02
2.903558735834876198e-02
2.945386621293766272e-02
2.986643848298868933e-02
3.027476855591301058e-02
3.068030798683613752e-02
3.108446392982933820e-02
3.148856813027212098e-02
3.189384704041331453e-02
3.230139356230920383e-02
3.271214106610584316e-02
3.312684001289706304e-02
3.354603771580397936e-02
3.397006166222437534e-02
3.439900669734155536e-02
3.483272632643579642e-02
3.527082828627908090e-02
3.571267459796999277e-02
3.615738604352063817e-02
3.660385113596315715e-02
3.705073933694538052e-02
3.749651838588512892e-02
3.793947545102508562e-02
3.837774181507016408e-02
3.880932062480318967e-02
3.923211733771141824e-02
3.964397218243834869e-02
4.004269426016986849e-02
4.042609661234047164e-02
4.079203174751871996e-02
4.113842693067052553e-02
4.146331864603239326e-02
4.176488564897055944e-02
4.204148007385681562e-02
4.229165600379118650e-02
4.251419495662503434e-02
4.270812794595164885e-02
4.287275364537867367e-02
4.300765234572442169e-02
4.311269539515434623e-02
4.318805008698602121e-02
4.323417972634373274e-02
4.325183885293666652e-02
4.324206376941156643e-02
4.320615844487133567e-02
4.314567602783089123e-02
4.306239621717181110e-02
4.295829884995123332e-02
4.283553416083449306e-02
4.269639009954720454e-02
4.254325732237151936e-02
4.237859238264481132e-02
4.220487962666297221e-02
4.202459254215069190e-02
4.184015507811986168e-02
4.165390363817793318e-02
4.146805022704026095e-02
4.128464748480733387e-02
4.110555609291993706e-02
4.093241498339133394e-02
4.076661502650359703e-02
4.060927640103534353e-02
4.046123017799226063e-02
4.032300421429969167e-02
4.019481372893084908e-02
4.007655659138459336e-02
3.996781341634331186e-02
3.986785245089292939e-02
3.977563911591014412e-02
3.968985003423664698e-02
3.960889132793602579e-02
3.953092082044914329e-02
3.945387378635858977e-02
3.937549182792245139e-02
3.929335432257941713e-02
3.920491196833813391e-02
3.910752191025420460e-02
3.899848379351399108e-02
3.887507620231744204e-02
3.873459285118227569e-02
3.857437797555682280e-02
3.839186039363966241e-02
3.818458564160066848e-02
3.795024570024608385e-02
3.768670587805776628e-02
3.739202842686496081e-02
3.706449258472332975e-02
3.670261069542275073e-02
3.630514030028744732e-02
3.587109194905906129e-02
3.539973279904867071e-02
3.489058583513360290e-02
3.434342497303091019e-02
3.375826615114117107e-02
3.313535455486998904e-02
3.247514836877350014e-02
3.177829931551516551e-02
3.104563046710819355e-02
3.027811176592332815e-02
2.947683369055188046e-02
2.864297961907789902e-02
2.777779737823805536e-02
2.688257063237284306e-02
2.595859048939767877e-02
2.500712809372908005e-02
2.402940846884032630e-02
2.302658626663651315e-02
2.199972384726964214e-02
2.094977210720596478e-02
1.987755436454700930e-02
1.878375366839123151e-02
1.766890374415345383e-02
1.653338376354333145e-02
1.537741704023196099e-02
1.420107366458829914e-02
1.300427708190465478e-02
1.178681449025308428e-02
1.054835089335098841e-02
9.288446500932259764e-03
8.006577242846273437e-03
6.702158040136177962e-03
5.374568368577498957e-03
4.023179687581137851e-03
2.647384232379735702e-03
1.246624630673837152e-03
-1.795761652214366601e-04
-1.631585173619176611e-03
-3.109630459664640065e-03
-4.613773559460486451e-03
-6.143883767162555860e-03
-7.699614764521052826e-03
-9.280384021518092025e-03
-1.088535539485509240e-02
-1.251342535394728457e-02
-1.416321305776011875e-02
-1.583305455350763821e-02
-1.752100128631497306e-02
-1.922482300279236556e-02
-2.094201515212311751e-02
-2.266981062361645913e-02
-2.440519580427505386e-02
-2.614493070898499597e-02
-2.788557299198171982e-02
-2.962350560373303715e-02
-3.135496751459470460e-02
-3.307608726773361707e-02
-3.478291877266788401e-02
-3.647147891377492540e-02
-3.813778636650488191e-02
-3.977790106625492955e-02
-4.138796385478812900e-02
-4.296423561136355346e-02
-4.450313532514771353e-02
-4.600127651108811694e-02
-4.745550152692325219e-02
-4.886291318076878276e-02
-5.022090325003161770e-02
-5.152717743021785479e-02
-5.277977637950372058e-02
-5.397709256472954520e-02
-5.511788258927380335e-02
-5.620127489401201271e-02
-5.722677276082344805e-02
-5.819425248175518622e-02
-5.910395677342943771e-02
-5.995648359302870739e-02
-6.075277044460174192e-02
-6.149407452980779759e-02
-6.218194890656892487e-02
-6.281821515895935626e-02
-6.340493287348064610e-02
-6.394436645077018755e-02
-6.443894970196992200e-02
-6.489124885131442033e-02
-6.530392430970755058e-02
-6.567969192310663118e-02
-6.602128420272071474e-02
-6.633141213063976915e-02
-6.661272808443952087e-02
-6.686779028300748884e-02
-6.709902941702840240e-02
-6.730871782815418813e-02
-6.749894164858676049e-02
-6.767157629807205033e-02
-6.782826565349737991e-02
-6.797040511782843908e-02
-6.809912875367180041e-02
-6.821530068485809339e-02
-6.831951079572734509e-02
-6.841207468314663975e-02
-6.849303784378926729e-02
-6.856218400432895210e-02
-6.861904728267677334e-02
-6.866292806247882574e-02
-6.869291225181338445e-02
-6.870789353495460050e-02
-6.870659825474337290e-02
-6.868761250138336050e-02
-6.864941102740169943e-02
-6.859038752413754159e-02
-6.850888564769665179e-02
-6.840323041116332103e-02
-6.827175948404570760e-02
-6.811285394948009275e-02
-6.792496793335742189e-02
-6.770665677547797745e-02
-6.745660332582720242e-02
-6.717364198602418512e-02
-6.685678018185384208e-02
-6.650521700864006625e-02
-6.611835881088247435e-02
-6.569583148017515972e-02
-6.523748929432003629e-02
-6.474342038897176743e-02
-6.421394866165587578e-02
-6.364963227660128120e-02
-6.305125877218138719e-02
-6.241983687144572746e-02
-6.175658532868225081e-02
-6.106291889365862702e-02
-6.034043169139213098e-02
-5.959087838586440283e-02
-5.881615339797290065e-02
-5.801826842116130506e-02
-5.719932877942954935e-02
-5.636150895437246761e-02
-5.550702757459669706e-02
-5.463812232911155475e-02
-5.375702516205126125e-02
-5.286593817465123218e-02
-5.196701044352008969e-02
-5.106231619139896954e-02
-5.015383457673720791e-02
-4.924343138954257598e-02
-4.833284283057556752e-02
-4.742366161755733056e-02
-4.651732560021194784e-02
-4.561510889700123861e-02
-4.471811570923448637e-02
-4.382727684229641846e-02
-4.294334892916167740e-02
-4.206691619037988134e-02
-4.119839486848300009e-02
-4.033803997504211564e-02
-3.948595429419093222e-02
-3.864209951309819507e-02
-3.780630911389340487e-02
-3.697830297435403951e-02
-3.615770323566649957e-02
-3.534405130151403035e-02
-3.453682554104283570e-02
-3.373545950613892480e-02
-3.293936037008369372e-02
-3.214792731538160947e-02
-3.136056948730874677e-02
-3.057672329865251254e-02
-2.979586885293852849e-02
-2.901754529053933787e-02
-2.824136466013432711e-02
-2.746702438023024967e-02
-2.669431792225183953e-02
-2.592314366216264335e-02
-2.515351178193647383e-02
-2.438554918365382074e-02
-2.361950232688068627e-02
-2.285573801545154327e-02
-2.209474205776216366e-02
-2.133711595397036476e-02
-2.058357167870078497e-02
-1.983492461489451755e-02
-1.909208476571070887e-02
-1.835604642372646450e-02
-1.762787646053599194e-02
-1.690870142249567207e-02
-1.619969363973854798e-02
-1.550205650388197798e-02
-1.481700916612536251e-02
-1.414577094946498602e-02
-1.348954561043345241e-02
-1.284950564022016399e-02
-1.222677694532449399e-02
-1.162242407069573151e-02
-1.103743606338142627e-02
-1.047271326576402865e-02
-9.929055221381224983e-03
-9.407149787360036611e-03
-8.907563641227224382e-03
-8.430734253646321452e-03
-7.976963400344495511e-03
-7.546412467434410361e-03
-7.139099322170089530e-03
-6.754896956640098551e-03
-6.393533886270778843e-03
-6.054596291747864345e-03
-5.737531802238455929e-03
-5.441654962766556344e-03
-5.166154140648542351e-03
-4.910099975201082448e-03
-4.672455118241018376e-03
-4.452085213416418809e-03
-4.247770907758002118e-03
-4.058220799365635720e-03
-3.882085057310561641e-03
-3.717969650428313427e-03
-3.564450974726848971e-03
-3.420090720058650922e-03
-3.283450700515005635e-03
-3.153107524608808696e-03
-3.027666997741167501e-03
-2.905778017785303098e-03
-2.786145749790966148e-03
-2.667544022200948103e-03
-2.548826732878655462e-03
-2.428938184851358890e-03
-2.306922219360881769e-03
-2.181929976314646736e-03
-2.053226256099854874e-03
-1.920194409394448748e-03
-1.782339797025768923e-03
-1.639291579446949376e-03
-1.490802983907767382e-03
-1.336750040940161898e-03
-1.177128735904307269e-03
-1.012050650535015195e-03
-8.417372548870953250e-04
-6.665128092283580065e-04
-4.867960312651580575e-04
-3.030906253400964911e-04
-1.159748029257072699e-04
7.391004738991321704e-05
2.658714718863469900e-04
4.591785329607434908e-04
6.530748011410085832e-04
8.467916065402630605e-04
1.039561263643545841e-03
1.230630178512073531e-03
1.419271557113977941e-03
1.604797733147677154e-03
1.786571821640877984e-03
1.964018462848691332e-03
2.136633654780279237e-03
2.303993414572652089e-03
2.465761254492237521e-03
2.621694309187147173e-03
2.771647994664696007e-03
2.915579150329742752e-03
3.053547624367900903e-03
3.185716305877608727e-03
3.312349440667054518e-03
3.433809464364559298e-03
3.550552251456865534e-03
3.663120790999166085e-03
3.772137474413333764e-03
3.878295026320348598e-03
3.982346302530119335e-03
4.085092890513476564e-03
4.187372843220175077e-03
4.290047655812567404e-03
4.393988651238417073e-03
4.500062973917509125e-03
4.609119401534750825e-03
4.721974144643387855e-03
4.839396868566496653e-03
4.962097107685352337e-03
5.090711292844600500e-03
5.225790630299815068e-03
5.367789969522943246e-03
5.517057779395077681e-03
5.673827493538695366e-03
5.838210335031587470e-03
6.010189650301586868e-03
6.189617001379299141e-03
6.376209979154917606e-03
6.569551839089373367e-03
6.769093009366608515e-03
6.974154396593254535e-03
7.183932496003733389e-03
7.397506314486743811e-03
7.613845978508690035e-03
7.831822902547065299e-03
8.050221436630051325e-03
8.267751835929166432e-03
8.483064414855875576e-03
8.694764598508269646e-03
8.901428841753700888e-03
9.101621054968707381e-03
9.293909362489275947e-03
9.476883051954678588e-03
9.649169342423198278e-03
9.809449875496997415e-03
9.956476605355365356e-03
1.008908692749493734e-02
1.020621790285201544e-02
1.030691929433848533e-02
1.039036519158546140e-02
1.045586425115248644e-02
1.050286825495013593e-02
1.053097897489980485e-02
1.053995321859602270e-02
1.052970596911145633e-02
1.050031166281048187e-02
1.045200352490562555e-02
1.038517103642165595e-02
1.030035562115054308e-02
1.019824447870148684e-02
1.007966281540898651e-02
9.945564519596016007e-03
9.797021480419467604e-03
9.635211620110032196e-03
9.461405905153836421e-03
9.276954513075065523e-03
9.083272303253992971e-03
8.881823818589791933e-03
8.674108080346841845e-03
8.461643314536776428e-03
8.245951862377209202e-03
8.028545471089387764e-03
7.810911045153354389e-03
7.594497201363751594e-03
7.380701673254589160e-03
7.170859733062849052e-03
6.966233796608328407e-03
6.768004239060600516e-03
6.577261567410934255e-03
6.394999960148921476e-03
6.222112226855968167e-03
6.059386180907711493e-03
5.907502382102965827e-03
5.767033310071894778e-03
5.638443846127680001e-03
5.522092943170029203e-03
5.418236441051319484e-03
5.327030916346729358e-03
5.248538364454313591e-03
5.182731740275314455e-03
5.129501082271289460e-03
5.088660120116353554e-03
5.059953179666819463e-03
5.043062278173881564e-03
5.037614264193352245e-03
5.043187901383905207e-03
5.059320631773097342e-03
5.085515114788403263e-03
5.121245273031797655e-03
5.165961830910770908e-03
5.219097317747216358e-03
5.280070393899458613e-03
5.348289541612784130e-03
5.423156041717243532e-03
5.504066349527410654e-03
5.590413788848828947e-03
5.681589723000741651e-03
5.776984177912588073e-03
5.875985974481681348e-03
5.977982515477722747e-03
6.082359279489248441e-03
6.188499147671429855e-03
6.295781692794522565e-03
6.403582489025922732e-03
6.511272588768121303e-03
6.618218252347050738e-03
6.723781027204986382e-03
6.827318262304146040e-03
6.928184217457821273e-03
7.025731681167162075e-03
7.119314253240559449e-03
7.208289310265129229e-03
7.292021602004573888e-03
7.369887581540029986e-03
7.441280351702263436e-03
7.505615237839595444e-03
7.562335898006214419e-03
7.610920881072236188e-03
7.650890524704355086e-03
7.681814115902126788e-03
7.703317119152453853e-03
7.715088433057833671e-03
7.716887398770819716e-03
7.708550522818794111e-03
7.689997737977117415e-03
7.661237939840935540e-03
7.622373735991866406e-03
7.573605280324678148e-03
7.515232954714641707e-03
7.447658935354805991e-03
7.371387362324609629e-03
7.287023165802412709e-03
7.195269406450915256e-03
7.096923086920576412e-03
6.992869502299602601e-03
6.884075020723766369e-03
6.771578407912970214e-03
6.656480780840914706e-03
6.539934232068882192e-03
6.423129221320498898e-03
6.307280925142683126e-03
6.193614698270921183e-03
6.083350855481426539e-03
5.977688902125912265e-03
5.877791541791293518e-03
5.784768593883795468e-03
5.699661105828297478e-03
5.623425941281906190e-03
5.556921018955804197e-03
5.500891485038138067e-03
5.455957015366080798e-03
5.422600496454235003e-03
5.401158318085553210e-03
5.391812352518842409e-03
5.394583940887859481e-03
5.409329831513627097e-03
5.435740326890257587e-03
5.473339711805667168e-03
5.521488866761760199e-03
5.579390141863716998e-03
5.646094542003275533e-03
5.720511023069080672e-03
5.801417890489935815e-03
5.887476123333134498e-03
5.977244499330498437e-03
6.069196276165201610e-03
6.161737259629128556e-03
6.253224925386494798e-03
6.341988432828227044e-03
6.426349240928854595e-03
6.504641988158924720e-03
6.575235279935976763e-03
6.636552233319769310e-03
6.687090322213799613e-03
6.725440370685668856e-03
6.750304308710830710e-03
6.760511527447425444e-03
6.755033445756153040e-03
6.732996291684397762e-03
6.693691683400003131e-03
6.636585026121201089e-03
6.561321472252443048e-03
6.467729444767309974e-03
6.355821610436979824e-03
6.225793381005022969e-03
6.078018899602102149e-03
5.913044588598475627e-03
5.731580406241869145e-03
5.534488897550285565e-03
5.322772199376072863e-03
5.097557361538252417e-03
4.860079935929110910e-03
4.611666285534572925e-03
4.353714920272597558e-03
4.087676989027798184e-03
3.815036388479605637e-03
3.537289632767497138e-03
3.255925873298302822e-03
2.972407401930732881e-03
2.688150892113348300e-03
2.404509614319593879e-03
2.122756893712671091e-03
1.844071124858826264e-03
1.569522478014601704e-03
1.300061472079843457e-03
1.036509630156066779e-03
7.795522291447448248e-04
5.297333328863003442e-04
2.874530514627673841e-04
5.296712895991561161e-05
-1.736112933506045247e-04
-3.923076943120412338e-04
-6.032801189015649015e-04
-8.068111662691478071e-04
-1.003298251145465225e-03
-1.193242219947808188e-03
-1.377234616955150129e-03
-1.555943826227554642e-03
-1.730100313539903499e-03
-1.900481185016431084e-03
-2.067894452133652809e-03
-2.233163128778767412e-03
-2.397109499468989737e-03
-2.560539835183163644e-03
-2.724229703814785419e-03
-2.888910213451072965e-03
-3.055255315502449897e-03
-3.223870434731482791e-03
-3.395282492010362040e-03
-3.569931515896167945e-03
-3.748163936082716217e-03
-3.930227631303337410e-03
-4.116268772060898903e-03
-4.306330462666454334e-03
-4.500353126352814835e-03
-4.698176660351429876e-03
-4.899544192006533537e-03
-5.104107378190117332e-03
-5.311433122871215759e-03
-5.521011544421329346e-03
-5.732264955312538213e-03
-5.944557738713249044e-03
-6.157206868001738331e-03
-6.369492950570464392e-03
-6.580671464972069271e-03
-6.789984063630095761e-03
-6.996669687476177180e-03
-7.199975301326416895e-03
-7.399166114683124532e-03
-7.593534980210095257e-03
-7.782410955410473848e-03
-7.965166877205095974e-03
-8.141225713453036431e-03
-8.310065772055714658e-03
-8.471224621885615341e-03
-8.624301593580753142e-03
-8.768959151517773803e-03
-8.904922861388062452e-03
-9.031980080602882224e-03
-9.149977535179511928e-03
-9.258817801234430281e-03
-9.358454808167547198e-03
-9.448888484888923189e-03
-9.530158753161536989e-03
-9.602338984762712540e-03
-9.665529124216316881e-03
-9.719848624333596657e-03
-9.765429390821001379e-03
-9.802408902342454530e-03
-9.830923676319500495e-03
-9.851103220110979733e-03
-9.863064695944216698e-03
-9.866908280929129541e-03
-9.862713513626423026e-03
-9.850536562950549038e-03
-9.830408613748868249e-03
-9.802335361947049283e-03
-9.766297623112147122e-03
-9.722253060572843761e-03
-9.670139108787424720e-03
-9.609876859569217722e-03
-9.541375912866403505e-03
-9.464540112326849663e-03
-9.379274054675923455e-03
-9.285490186829666731e-03
-9.183116334041762849e-03
-9.072103584151612263e-03
-8.952434205377387405e-03
-8.824129432841601103e-03
-8.687257064045935534e-03
-8.541938578798115994e-03
-8.388355585974945766e-03
-8.226755470680267857e-03
-8.057456068777266167e-03
-7.880849199299587785e-03
-7.697402907602803566e-03
-7.507662372624178924e-03
-7.312249389391230030e-03
-7.111860306834480797e-03
-6.907262483056297170e-03
-6.699289141837079173e-03
-6.488832776059065034e-03
-6.276837092516224237e-03
-6.064287550002674283e-03
-5.852200726916560042e-03
-5.641612489488938807e-03
-5.433565257202818514e-03
-5.229094476830183948e-03
-5.029214628228200964e-03
-4.834904788232575676e-03
-4.647094164859301609e-03
-4.466647747883355744e-03
-4.294352365618090903e-03
-4.130903353840701536e-03
-3.976892104062569426e-03
-3.832794688780765974e-03
-3.698961828727437978e-03
-3.575610402549422081e-03
-3.462816671219025744e-03
-3.360511375817120967e-03
-3.268476815995029986e-03
-3.186346053989908087e-03
-3.113604284764147443e-03
-3.049592432295628822e-03
-2.993512970060170902e-03
-2.944437912564225410e-03
-2.901318962445641799e-03
-2.862999645971814420e-03
-2.828229323628000079e-03
-2.795678938858091756e-03
-2.763958241598232692e-03
-2.731634328534386907e-03
-2.697251168536868391e-03
-2.659349929389521160e-03
-2.616489795413831643e-03
-2.567268886803406470e-03
-2.510345123126932892e-03
-2.444456570533026004e-03
-2.368441020758724376e-03
-2.281254593849388421e-03
-2.181988913058271942e-03
-2.069886697499279636e-03
-1.944355398208575531e-03
-1.804978805172743417e-03
-1.651526325175607093e-03
-1.483959698635574712e-03
-1.302437190118377677e-03
-1.107314991129783365e-03
-8.991459437070533234e-04
-6.786754080517915779e-04
-4.468343974372167749e-04
-2.047299729559312197e-04
4.636690950341323871e-05
3.050359868048074601e-04
5.697245410269837071e-04
8.387663278650116282e-04
1.110402219278146122e-03
1.382802365295097589e-03
1.654089593563243775e-03
1.922363600094166266e-03
2.185725741893638878e-03
2.442303970666152325e-03
2.690277564279694184e-03
2.927901329668553855e-03
3.153528931247543549e-03
3.365634965478169361e-03
3.562835448105006100e-03
3.743906455171736643e-03
3.907800610473019694e-03
4.053661168061294118e-03
4.180833458524808519e-03
4.288873589946397627e-03
4.377554202178309331e-03
4.446867146742012819e-03
4.497023111899816836e-03
4.528448201857672092e-03
4.541777471888333410e-03
4.537845454378732976e-03
4.517673837531554354e-03
4.482456520121908330e-03
4.433542230981171207e-03
4.372414895080076712e-03
4.300672085017076020e-03
4.220001875990691577e-03
4.132158456185219299e-03
4.038936772233422956e-03
3.942146614344021506e-03
3.843586512762935375e-03
3.745017845005401812e-03
3.648139591155385390e-03
3.554563998975638489e-03
3.465793587512679130e-03
3.383199743844361035e-03
3.308003362807605905e-03
3.241257707604190946e-03
3.183833770321170195e-03
3.136408407465776215e-03
3.099455312810760026e-03
3.073239078760545140e-03
3.057812319539193312e-03
3.053015998253703726e-03
3.058482866499419913e-03
3.073644016380593005e-03
3.097738421682402592e-03
3.129825346157698567e-03
3.168799414704176736e-03
3.213408074750817144e-03
3.262271250209039866e-03
3.313902888072699227e-03
3.366733992018836660e-03
3.419136881239406237e-03
3.469450299643352456e-03
3.516004937565569977e-03
3.557149060005104085e-03
3.591273755120457344e-03
3.616837585235780760e-03
3.632390085535541855e-03
3.636593896674126906e-03
3.628245140762403897e-03
3.606291788422671951e-03
3.569849644061768700e-03
3.518215874424109393e-03
3.450879746601596097e-03
3.367530509154154691e-03
3.268062303246940109e-03
3.152575954529173059e-03
3.021377797422501732e-03
2.874975429029986117e-03
2.714070510421359109e-03
2.539548781133762253e-03
2.352467457681903240e-03
2.154040151926688539e-03
1.945619613683008051e-03
1.728678639010838370e-03
1.504789311923910395e-03
1.275601003030733989e-03
1.042817454112669479e-03
8.081733982493435799e-04
5.734108523840459421e-04
3.402557230786310699e-04
1.103949361165849517e-04
-1.145455360413369508e-04
-3.330214015471094418e-04
-5.435892416931097830e-04
-7.449238418689326218e-04
-9.358333831914828404e-04
-1.115272358622457737e-03
-1.282352036124237340e-03
-1.436348254079943985e-03
-1.576706402253261283e-03
-1.703043788278211807e-03
-1.815149178055135799e-03
-1.912979597175445794e-03
-1.996654476064478254e-03
-2.066447341974863260e-03
-2.122775137665961886e-03
-2.166185445296983474e-03
-2.197341853740144343e-03
-2.217007737802951985e-03
-2.226028712663659977e-03
-2.225314162988714910e-03
-2.215818127786915205e-03
-2.198519916359590546e-03
-2.174404813853001491e-03
-2.144445133922277379e-03
-2.109582064778100022e-03
-2.070708591807363629e-03
-2.028653702388286909e-03
-1.984168282828688117e-03
-1.937912981829748114e-03
-1.890448063098944991e-03
-1.842225592437981120e-03
-1.793583996153179545e-03
-1.744745097108775468e-03
-1.695813714304155763e-03
-1.646779745943141799e-03
-1.597522742663931095e-03
-1.547818850214405240e-03
-1.497350023627842894e-03
-1.445715235303572177e-03
-1.392443509801797067e-03
-1.337008628265668429e-03
-1.278845067015455059e-03
-1.217364935331143342e-03
-1.151975606851187101e-03
-1.082097663733707065e-03
-1.007182763875248558e-03
-9.267312116121956224e-04
-8.403087299747481883e-04
-7.475622132597157772e-04
-6.482340513556065359e-04
-5.421748055335722221e-04
-4.293539458736827575e-04
-3.098683710449395465e-04
-1.839485225561345884e-04
-5.196197960372827353e-05
8.558557907885745806e-05
2.280521311769515079e-04
3.746638369512116378e-04
5.245223228727744456e-04
6.766144989695223539e-04
8.298248888268884484e-04
9.829502535729174508e-04
1.134716374157273980e-03
1.283796570445288254e-03
1.428831813334264502e-03
1.568452009044590725e-03
1.701298121026781655e-03
1.826044701039648615e-03
1.941422517155339325e-03
2.046240904755881711e-03
2.139409289294215422e-03
2.219957556370565771e-03
2.287054923376840437e-03
2.340026944955899812e-03
2.378370269418074098e-03
2.401764837548397633e-03
2.410083319206091611e-03
2.403397473346850256e-03
2.381981385328370802e-03
2.346311347828679717e-03
2.297062308755952551e-03
2.235100976658752851e-03
2.161475571437968066e-03
2.077402318916614799e-03
1.984248815519383449e-03
1.883514546515768166e-03
1.776808838682654955e-03
1.665826443456370825e-03
1.552321223764068642e-03
1.438078326883413536e-03
1.324885260028397724e-03
1.214502342432905065e-03
1.108633004143076868e-03
1.008894392935477105e-03
9.167889008267642893e-04
8.336769056271435812e-04
7.607513775257610271e-04
6.990147268332155481e-04
6.492583593071603017e-04
6.120452691278691591e-04
5.876961132616221597e-04
5.762789325719349862e-04
5.776029014286148885e-04
5.912162000301857600e-04
6.164081868806030448e-04
6.522158900812250219e-04
6.974347968936548282e-04
7.506338348670650281e-04
8.101744692687360512e-04
8.742336185139352490e-04
9.408301281922915558e-04
1.007854440248748566e-03
1.073100987333829937e-03
1.134303015489205755e-03
1.189169186501366771e-03
1.235421405983105859e-03
1.270833406875470457e-03
1.293269357609158534e-03
1.300721979395068209e-03
1.291349583895303214e-03
1.263511318449823517e-03
1.215800109116102392e-03
1.147072670489313658e-03
1.056476153752982554e-03
9.434708728253090627e-04
8.078486751939911118e-04
6.497466319084614118e-04
4.696557146393211648e-04
2.684241950876237529e-04
4.725568500772170941e-05
-1.922983161972718783e-04
-4.483513142533804155e-04
-7.187000502980881366e-04
-1.000847977521386991e-03
-1.292033622462396888e-03
-1.589263560484664587e-03
-1.889349531309993200e-03
-2.188949169757802796e-03
-2.484609969985295246e-03
-2.772815659478582943e-03
-3.050034472588946787e-03
-3.312768490949577656e-03
-3.557603559851779413e-03
-3.781258831944762228e-03
-3.980635260594659296e-03
-4.152862267115993607e-03
-4.295341935166683070e-03
-4.405789953165236209e-03
-4.482272715500210981e-03
-4.523239962948134504e-03
-4.527552365206010190e-03
-4.494503629492750847e-03
-4.423836716161966970e-03
-4.315753830228580626e-03
-4.170920020997105800e-03
-3.990460231940186168e-03
-3.775949710539975614e-03
-3.529397937354347009e-03
-3.253226210426436813e-03
-2.950239194430254348e-03
-2.623590687805940104e-03
-2.276744180684737388e-03
-1.913428723495139237e-03
-1.537590654611817364e-03
-1.153341983172261054e-03
-7.649060652729258291e-04
-3.765614328907507268e-04
7.415436464858745194e-06
3.828075307926729807e-04
7.455140852624747788e-04
1.091605788435070969e-03
1.417377631420338588e-03
1.719398603616118263e-03
1.994557432458973247e-03
2.240103658353608841e-03
2.453683491013571288e-03
2.633369704368409073e-03
2.777685323157992776e-03
2.885620519882009603e-03
2.956642538472333773e-03
2.990698466394028400e-03
2.988210874102484229e-03
2.950066284711957889e-03
2.877596646276310306e-03
2.772554123090073715e-03
2.637079644209641867e-03
2.473665630747729112e-03
2.285113536890339119e-03
2.074486901860554070e-03
1.845060630729167175e-03
1.600267347984832408e-03
1.343641695588564415e-03
1.078763443895611835e-03
8.092004107679371793e-04
5.384521245800908459e-04
2.698951306295060493e-04
6.730909121037919712e-06
-2.480628828559977377e-04
-4.917768519142337938e-04
-7.220092479931654100e-04
-9.366997553135456879e-04
-1.134156959096139844e-03
-1.313079167439443586e-03
-1.472568114700243931e-03
-1.612135332676335481e-03
-1.731701131751329018e-03
-1.831586110077620044e-03
-1.912495422471622740e-03
-1.975496015853288930e-03
-2.021987204940818052e-03
-2.053665166688721511e-03
-2.072481946707723215e-03
-2.080599685609242806e-03
-2.080340815970280893e-03
-2.074135268186551046e-03
-2.064465470335110839e-03
-2.053810231693869916e-03
-2.044588445897695464e-03
-2.039103745227856430e-03
-2.039491116376780221e-03
-2.047666398978010855e-03
-2.065279669756948846e-03
-2.093673330242659929e-03
-2.133845875402221298e-03
-2.186421955703226651e-03
-2.251629353702694087e-03
-2.329283443280118476e-03
-2.418779382624527789e-03
-2.519092448655215963e-03
-2.628786466162372736e-03
-2.746030304498029654e-03
-2.868622284482714221e-03
-2.994022072585180317e-03
-3.119389730102088785e-03
-3.241631152524985723e-03
-3.357449174194672772e-03
-3.463399516993543713e-03
-3.555950618582302564e-03
-3.631546298926152314e-03
-3.686670163037278521e-03
-3.717910555274583310e-03
-3.722024974888985937e-03
-3.696002655945404645e-03
-3.637124185143025303e-03
-3.543017033190655821e-03
-3.411705984935131837e-03
-3.241657324271424601e-03
-3.031816043991451652e-03
-2.781635155567413736e-03
-2.491096511573682656e-03
-2.160722660008882953e-03
-1.791579302686856440e-03
-1.385268215333749142e-03
-9.439105544247442404e-04
-4.701207811670572332e-04
3.302852112288445823e-05
5.620504313147969486e-04
1.113095405563943249e-03
1.682010175462528463e-03
2.264402788770634740e-03
2.855712790775794072e-03
3.451285287625883730e-03
4.046447735882923065e-03
4.636588019006446237e-03
5.217232428612274611e-03
5.784122232960005501e-03
6.333287304741887051e-03
6.861115650790356596e-03
7.364417301977738660e-03
7.840481484747370555e-03
8.287126005176413679e-03
8.702737697696213623e-03
9.086303250591034469e-03
9.437429606817843153e-03
9.756353533500176922e-03
1.004394000455773213e-02
1.030166927414699618e-02
1.053161279342981933e-02
1.073639825628603349e-02
1.091916427652074410e-02
1.108350538554445444e-02
1.123340817430559975e-02
1.137317979607486984e-02
1.150736987554672706e-02
1.164068727287249569e-02
1.177791319415462043e-02
1.192381209490100784e-02
1.208304208725792354e-02
1.226006642617913887e-02
1.245906770858991319e-02
1.268386648921985063e-02
1.293784575445607390e-02
1.322388274702666379e-02
1.354428958765273652e-02
1.390076370760488268e-02
1.429434928824387108e-02
1.472541050116180431e-02
1.519361712630348457e-02
1.569794295860366812e-02
1.623667732555078222e-02
1.680744950827034803e-02
1.740726580271642968e-02
1.803255864123032293e-02
1.867924707766970352e-02
1.934280755800204393e-02
2.001835377208221675e-02
2.070072431172191932e-02
2.138457639435508567e-02
2.206448409520196663e-02
2.273503926650731130e-02
2.339095331770247102e-02
2.402715788978389624e-02
2.463890255986808664e-02
2.522184771380822990e-02
2.577215076766885965e-02
2.628654410829876428e-02
2.676240319504299969e-02
2.719780331816381430e-02
2.759156410439265322e-02
2.794328065651930162e-02
2.825334065904543460e-02
2.852292706215678667e-02
2.875400616674665677e-02
2.894930135590788323e-02
2.911225278057875607e-02
2.924696379720164927e-02
2.935813510030165982e-02
2.945098793376031351e-02
2.953117769984772364e-02
2.960469977552935422e-02
2.967778937622810032e-02
2.975681765601407430e-02
2.984818602575212490e-02
2.995822100358567705e-02
3.009307181320366315e-02
3.025861296138677992e-02
3.046035391961857824e-02
3.070335804931804274e-02
3.099217256168719861e-02
3.133077129369350733e-02
3.172251165589271699e-02
3.217010700817209828e-02
3.267561528465864201e-02
3.324044444768770035e-02
3.386537489826384889e-02
3.455059867442508009e-02
3.529577485526524949e-02
3.610010022060222007e-02
3.696239389169571343e-02
3.788119423369971234e-02
3.885486591162302938e-02
3.988171504966411818e-02
4.096010966127990732e-02
4.208860255741273676e-02
4.326605385414395571e-02
4.449174976235878431e-02
4.576551467006515633e-02
4.708781322099191147e-02
4.845983916722246265e-02
4.988358794592975820e-02
5.136191028729982649e-02
5.289854412615123402e-02
5.449812238375358747e-02
5.616615488885721985e-02
5.790898274602424706e-02
5.973370410522968466e-02
6.164807079733092970e-02
6.366035575989124895e-02
6.577919175795943207e-02
6.801338246464636028e-02
7.037168763091093682e-02
7.286258451422530924e-02
7.549400838748807074e-02
7.827307546381709336e-02
8.120579212257697521e-02
8.429675456666797795e-02
8.754884375420225739e-02
9.096292058156131566e-02
9.453752653459272792e-02
9.826859529570192153e-02
1.021491809907457138e-01
1.061692084890719506e-01
1.103152513464823320e-01
1.145703428348475578e-01
1.189138248963148986e-01
1.233212399529611258e-01
1.277642696945121281e-01
1.322107247059533253e-01
1.366245879174567690e-01
1.409661143927731786e-01
1.451919892097900122e-01
1.492555442412652200e-01
1.531070339287520787e-01
1.566939691819059788e-01
1.599615077650714534e-01
1.628528985433679577e-01
1.653099760947191188e-01
1.672737013717567611e-01
1.686847432798626589e-01
1.694840951757722036e-01
1.696137196787792234e-01
1.690172145718741026e-01
1.676404919103067770e-01
1.654324621717210286e-01
1.623457148240765591e-01
1.583371865812742696e-01
1.533688083126585888e-01
1.474081218648045921e-01
1.404288580914187234e-01
1.324114674866431196e-01
1.233435955976615317e-01
1.132204956122280781e-01
1.020453712598507617e-01
8.982964400458424981e-02
7.659313921717988971e-02
6.236418694373403737e-02
4.717963425426453111e-02
3.108476673877559257e-02
1.413313815577652358e-02
-3.613691596525461010e-03
-2.208650897103352218e-02
-4.120888721262670057e-02
-6.089771112995774616e-02
-8.106378136215601493e-02
-1.016124923493034599e-01
-1.224445771123806870e-01
-1.434569110441905604e-01
-1.645433660039576640e-01
-1.855957053974778836e-01
-2.065045102746394245e-01
-2.271601259629693892e-01
-2.474536183815682078e-01
-2.672777291506580610e-01
-2.865278183145838486e-01
-3.051027838025038852e-01
-3.229059469009637473e-01
-3.398458933887353317e-01
-3.558372605854657755e-01
-3.708014611825838913e-01
-3.846673354358312036e-01
-3.973717244330050025e-01
-4.088599579165394515e-01
-4.190862512893327452e-01
-4.280140076619989853e-01
-4.356160219889165797e-01
-4.418745855287552482e-01
-4.467814901680329243e-01
-4.503379335087042690e-01
-4.525543267946049442e-01
-4.534500089853203963e-01
-4.530528713544016983e-01
-4.513988983583240855e-01
-4.485316313199528837e-01
-4.445015624127714449e-01
-4.393654674097742796e-01
-4.331856862030512567e-01
-4.260293606385127663e-01
-4.179676397663178444e-01
-4.090748627917566438e-01
-3.994277301683600845e-01
-3.891044733892127239e-01
-3.781840336686573267e-01
-3.667452595321036846e-01
-3.548661329902615957e-01
-3.426230331653881134e-01
-3.300900458661222836e-01
-3.173383266205295206e-01
-3.044355238773688299e-01
-2.914452679977175831e-01
-2.784267309637438181e-01
-2.654342602812450602e-01
-2.525170896784889596e-01
-2.397191280021285509e-01
-2.270788266474022543e-01
-2.146291246404563868e-01
-2.023974695601585549e-01
-1.904059114016682652e-01
-1.786712653954984076e-01
-1.672053391545345047e-01
-1.560152185930919755e-01
-1.451036062719029129e-01
-1.344692054070045772e-01
-1.241071422662450574e-01
-1.140094191782944633e-01
-1.041653902742073756e-01
-9.456225197848995567e-02
-8.518554018897409041e-02
-7.601962630076215810e-02
-6.704820445388380568e-02
-5.825476263811631139e-02
-4.962303101509804582e-02
-4.113740106736758773e-02
-3.278331005353582461e-02
-2.454758574344513902e-02
-1.641874736269295643e-02
-8.387259514733779245e-03
-4.457364089868730847e-04
7.410905061255921959e-03
1.518534419086233628e-02
2.287780723763040841e-02
3.048606912454408790e-02
3.800550432622501473e-02
4.542918444227750374e-02
5.274801936535988139e-02
5.995093818792184004e-02
6.702510541762111973e-02
7.395616798651016843e-02
8.072852757706439064e-02
8.732563304029915263e-02
9.373028714790175575e-02
9.992496203905727736e-02
1.058921176486367216e-01
1.116145174376622085e-01
1.170755361955273521e-01
1.222594546147255240e-01
1.271517359497821020e-01
1.317392804060721623e-01
1.360106533854085475e-01
1.399562842066185142e-01
1.435686326714409322e-01
1.468423211929481276e-01
1.497742310800167786e-01
1.523635620713684191e-01
1.546118548604131504e-01
1.565229770639702811e-01
1.581030735180099789e-01
1.593604825929607061e-01
1.603056205086619002e-01
1.609508362619658239e-01
1.613102402067577712e-01
1.613995096642552585e-01
1.612356750905653557e-01
1.608368908077845161e-01
1.602221943700448958e-01
1.594112586676280363e-01
1.584241408857683664e-01
1.572810324140841987e-01
1.560020137685166897e-01
1.546068182881735475e-01
1.531146080955004818e-01
1.515437655288844609e-01
1.499117030637777404e-01
1.482346941614777758e-01
1.465277271264294190e-01
1.448043835693709203e-01
1.430767428158944976e-01
1.413553128793970937e-01
1.396489882683695227e-01
1.379650344604441692e-01
1.363090983357983510e-01
1.346852435173396256e-01
1.330960092655769367e-01
1.315424911229378102e-01
1.300244410495739467e-01
1.285403848164974050e-01
1.270877539992588401e-01
1.256630298325955297e-01
1.242618960940219397e-01
1.228793979846789231e-01
1.215101041102873980e-01
1.201482686931098914e-01
1.187879911535628386e-01
1.174233704152147922e-01
1.160486514134119185e-01
1.146583615861011124e-01
1.132474352270319007e-01
1.118113240509939349e-01
1.103460924902194690e-01
1.088484965651445313e-01
1.073160456289568992e-01
1.057470463985172027e-01
1.041406291441520499e-01
1.024967563415020849e-01
1.008162141489912095e-01
9.910058757680427488e-02
9.735222030621065725e-02
9.557416058337812881e-02
9.377009452073316320e-02
9.194426864729872417e-02
9.010140336304886532e-02
8.824659942728618756e-02
8.638523923572116736e-02
8.452288505825918119e-02
8.266517617345642277e-02
8.081772690873605114e-02
7.898602747554991921e-02
7.717534927337425799e-02
7.539065638361748534e-02
7.363652479243520954e-02
7.191707043550568668e-02
7.023588729191394819e-02
6.859599634771319787e-02
6.699980608889007094e-02
6.544908480318104016e-02
6.394494513481741027e-02
6.248784056004176579e-02
6.107757370568679678e-02
5.971331590455548899e-02
5.839363747139270783e-02
5.711654767801216392e-02
5.587954356638368675e-02
5.467966646411476228e-02
5.351356491907822976e-02
5.237756279834789030e-02
5.126773116308683265e-02
5.017996252974290389e-02
4.911004612625086141e-02
4.805374285643242149e-02
4.700685859512587078e-02
4.596531448887091614e-02
4.492521331729593115e-02
4.388290076290304181e-02
4.283502060004534817e-02
4.177856314141654981e-02
4.071090630877089583e-02
3.962984881254207753e-02
3.853363515956709923e-02
3.742097233200173539e-02
3.629103808052682595e-02
3.514348103004993201e-02
3.397841286501740443e-02
3.279639309483186466e-02
3.159840684339929734e-02
3.038583636633069088e-02
2.916042700700625587e-02
2.792424839725759361e-02
2.667965181535257579e-02
2.542922448721430390e-02
2.417574189335007853e-02
2.292211896772551258e-02
2.167136101786538982e-02
2.042651532119988886e-02
1.919062414370421507e-02
1.796667997360904337e-02
1.675758368709827362e-02
1.556610629660092754e-02
1.439485464046367201e-02
1.324624155371441174e-02
1.212246082169591600e-02
1.102546709571403799e-02
9.956960819503103341e-03
8.918378412526671919e-03
7.910887356826060146e-03
6.935386104670707846e-03
5.992508617337979904e-03
5.082633095883627890e-03
4.205894511721066514e-03
3.362200595962220630e-03
2.551250680927597426e-03
1.772556898569047079e-03
1.025467147745134444e-03
3.091893602720767356e-04
-3.771834797150468849e-04
-1.034648173940245662e-03
-1.664266539017191958e-03
-2.267141347824258839e-03
-2.844393513298420009e-03
-3.397140897172176276e-03
-3.926479039480238603e-03
-4.433464141895417099e-03
-4.919098364448565297e-03
-5.384317706316861345e-03
-5.829982484535004179e-03
-6.256870451485760549e-03
-6.665672495898958272e-03
-7.056990857266737596e-03
-7.431339640587506998e-03
-7.789147523528604754e-03
-8.130762324788359113e-03
-8.456457227722197559e-03
-8.766438474315072990e-03
-9.060854002549995068e-03
-9.339802892825765923e-03
-9.603345242263016182e-03
-9.851512252819596624e-03
-1.008431611461003269e-02
-1.030175948570995204e-02
-1.050384437203340411e-02
-1.069058006760582359e-02
-1.086199014403704290e-02
-1.101811820822657002e-02
-1.115903235457891239e-02
-1.128482839384498115e-02
-1.139563164576340090e-02
-1.149159740531585823e-02
-1.157291014117826922e-02
-1.163978148729038521e-02
-1.169244718974098499e-02
-1.173116308280104832e-02
-1.175620037881173335e-02
-1.176784034899964158e-02
-1.176636865964427250e-02
-1.175206955742437269e-02
-1.172522006025843166e-02
-1.168608445430174836e-02
-1.163490920353885474e-02
-1.157191846050173271e-02
-1.149731036841591426e-02
-1.141125426496950035e-02
-1.131388887224444965e-02
-1.120532162406037008e-02
-1.108562907855752816e-02
-1.095485852832839800e-02
-1.081303067824304631e-02
-1.066014347767276979e-02
-1.049617692547559315e-02
-1.032109881807438678e-02
-1.013487120122038426e-02
-9.937457494058813193e-03
-9.728830078802059439e-03
-9.508978093412804797e-03
-9.277915329286878440e-03
-9.035688014861448930e-03
-8.782382198936150575e-03
-8.518130685137605129e-03
-8.243119206510277769e-03
-7.957591696778286081e-03
-7.661854552928288285e-03
-7.356279701065501081e-03
-7.041306316383067095e-03
-6.717441274800765687e-03
-6.385258133275039868e-03
-6.045394651883691933e-03
-5.698548856542002584e-03
-5.345473732902946556e-03
-4.986970578985712964e-03
-4.623881099967724895e-03
-4.257078410915785850e-03
-3.887457091906235639e-03
-3.515922433605332947e-03
-3.143379089343156102e-03
-2.770719324918894354e-03
-2.398811115083873680e-03
-2.028486291919820265e-03
-1.660528910819490233e-03
-1.295664121208171945e-03
-9.345476956865958777e-04
-5.777564041534323080e-04
-2.257795598707155516e-04
1.209883454763566570e-04
4.622535702940009684e-04
7.978276029690495579e-04
1.127630057020850623e-03
1.451690067527630244e-03
1.770145968603775623e-03
2.083243425185373268e-03
2.391331891877834619e-03
2.694859658915593932e-03
2.994367392413778504e-03
3.290480394772355138e-03
3.583899745482174021e-03
3.875392411220817020e-03
4.165780553460196947e-03
4.455930135887243605e-03
4.746739185797419804e-03
5.039125784036096664e-03
5.334016055213789721e-03
5.632332291020328806e-03
5.934981494038764523e-03
6.242844432089122292e-03
6.556765386380830098e-03
6.877542769372644964e-03
7.205920759152038314e-03
7.542581998790709452e-03
7.888141461411646294e-03
8.243141537260623847e-03
8.608048358953637735e-03
8.983249374218156905e-03
9.369052157176552265e-03
9.765684356806150768e-03
1.017329474633384828e-02
1.059195525923008196e-02
1.102166393621836424e-02
1.146234862411005077e-02
1.191387129820909059e-02
1.237603284894296315e-02
1.284857816207303320e-02
1.333120145226097779e-02
1.382355148800472507e-02
1.432523678028482100e-02
1.483583048593187931e-02
1.535487492546275083e-02
1.588188556264565759e-02
1.641635443916417483e-02
1.695775294987979590e-02
1.750553397215854484e-02
1.805913320317637308e-02
1.861796984167888094e-02
1.918144655042470365e-02
1.974894877339831642e-02
2.031984343473700050e-02
2.089347719578235965e-02
2.146917433461606461e-02
2.204623433098268359e-02
2.262392936014734346e-02
2.320150172003397279e-02
2.377816147727641535e-02
2.435308439016458174e-02
2.492541034420776846e-02
2.549424232846311811e-02
2.605864613494565316e-02
2.661765090268427766e-02
2.717025060647747584e-02
2.771540660144632476e-02
2.825205121756110133e-02
2.877909248900104022e-02
2.929542005300257712e-02
2.979991210419550077e-02
3.029144349994650556e-02
3.076889478966626443e-02
3.123116214954366546e-02
3.167716812499207779e-02
3.210587303215120536e-02
3.251628677281120233e-02
3.290748090783660734e-02
3.327860084776001343e-02
3.362887787888026170e-02
3.395764077226293837e-02
3.426432679085193722e-02
3.454849187062167953e-02
3.480981981917730811e-02
3.504813021178766058e-02
3.526338482809964620e-02
3.545569235241276262e-02
3.562531139634039085e-02
3.577265158327480599e-02
3.589827259002345561e-02
3.600288109671859887e-02
3.608732554892413874e-02
3.615258886949240802e-02
3.619977908295968216e-02
3.623011787630462527e-02
3.624492724927096815e-02
3.624561437446366385e-02
3.623365501317322990e-02
3.621057544651120480e-02
3.617793330145405162e-02
3.613729750256958889e-02
3.609022760777744199e-02
3.603825293882193664e-02
3.598285162672863052e-02
3.592543004243418242e-02
3.586730291301102463e-02
3.580967436027129164e-02
3.575362018809549736e-02
3.570007170673574620e-02
3.564980141740665964e-02
3.560341068188040137e-02
3.556131970529085445e-02
3.552375991400912730e-02
3.549076889326600176e-02
3.546218801885018396e-02
3.543766281432292331e-02
3.541664604628304291e-02
3.539840350453595658e-02
3.538202242865631092e-02
3.536642247750241413e-02
3.535036908485076484e-02
3.533248897514189996e-02
3.531128757051315431e-02
3.528516813834137872e-02
3.525245233326980421e-02
3.521140184787543981e-02
3.516024074383977682e-02
3.509717822144905325e-02
3.502043151467868626e-02
3.492824841141026204e-02
3.481892925880894496e-02
3.469084789701044197e-02
3.454247136219049802e-02
3.437237804137778518e-02
3.417927388516635301e-02
3.396200666975580235e-02
3.371957788196772166e-02
3.345115216582143086e-02
3.315606419313372327e-02
3.283382287514977071e-02
3.248411291492982189e-02
3.210679363605871417e-02
3.170189514688568494e-02
3.126961200556490489e-02
3.081029443702886991e-02
3.032443737982322071e-02
2.981266746716082841e-02
2.927572827417378176e-02
2.871446404196433336e-02
2.812980216347878495e-02
2.752273484565896655e-02
2.689430015726371886e-02
2.624556286869674307e-02
2.557759538658441190e-02
2.489145911614945930e-02
2.418818661124049960e-02
2.346876478244276643e-02
2.273411937671140567e-02
2.198510114804308815e-02
2.122247383805014181e-02
2.044690413220313224e-02
1.965895386264175301e-02
1.885907454291189944e-02
1.804760419850231015e-02
1.722476665139750091e-02
1.639067322512473626e-02
1.554532685335039549e-02
1.468862841435851496e-02
1.382038520179814517e-02
1.294032149297901294e-02
1.204809070748073807e-02
1.114328927960169142e-02
1.022547178766492447e-02
9.294167051706941560e-03
8.348894993872160719e-03
7.389183952858184405e-03
6.414588073049606008e-03
5.424704538520805017e-03
4.419190266991527768e-03
3.397777829030449587e-03
2.360290263790975306e-03
1.306654675897536266e-03
2.369141323500264888e-04
-8.487621333590385231e-04
-1.950070536614634167e-03
-3.066566947772115734e-03
-4.197662714868015919e-03
-5.342622967112132561e-03
-6.500567188408770854e-03
-7.670472029651426507e-03
-8.851176336651498874e-03
-1.004138833065307095e-02
-1.123969473597792937e-02
-1.244457175172093526e-02
-1.365439760002035673e-02
-1.486746661561723359e-02
-1.608200447161308236e-02
-1.729618431395176306e-02
-1.850814361983892445e-02
-1.971600135166768838e-02
-2.091787524882420674e-02
-2.211189890173922978e-02
-2.329623843571725084e-02
-2.446910842819037882e-02
-2.562878685406290089e-02
-2.677362883498507831e-02
-2.790207897484716509e-02
-2.901268212630198073e-02
-3.010409244085708591e-02
-3.117508057124086795e-02
-3.222453886660921890e-02
-3.325148469722885580e-02
-3.425506181582275989e-02
-3.523453970935942065e-02
-3.618931100469692519e-02
-3.711888720924229335e-02
-3.802289270098787449e-02
-3.890105717705561600e-02
-3.975320684544051547e-02
-4.057925439517100219e-02
-4.137918811173771361e-02
-4.215306033260580315e-02
-4.290097542911879003e-02
-4.362307754328832027e-02
-4.431953852041116415e-02
-4.499054609593126919e-02
-4.563629260257309750e-02
-4.625696449293688339e-02
-4.685273280422975334e-02
-4.742374481551103749e-02
-4.797011705581592789e-02
-4.849192975424992252e-02
-4.898922286297984624e-02
-4.946199370998995148e-02
-4.991019637495994893e-02
-5.033374269656597233e-02
-5.073250497468633630e-02
-5.110632029573216467e-02
-5.145499636078120637e-02
-5.177831868988282821e-02
-5.207605907625877800e-02
-5.234798515415231557e-02
-5.259387077361876717e-02
-5.281350705004071722e-02
-5.300671390926080945e-02
-5.317335171065432076e-02
-5.331333284144544604e-02
-5.342663311396907144e-02
-5.351330247128303907e-02
-5.357347502059518762e-02
-5.360737798895873207e-02
-5.361533950401717319e-02
-5.359779491058561801e-02
-5.355529152771158763e-02
-5.348849175434159525e-02
-5.339817434423179549e-02
-5.328523376166457298e-02
-5.315067756467977550e-02
-5.299562186037725525e-02
-5.282128482650549905e-02
-5.262897832813175775e-02
-5.242009781256171813e-02
-5.219611050332459423e-02
-5.195854204779762342e-02
-5.170896185123571159e-02
-5.144896734490194551e-02
-5.118016725507295445e-02
-5.090416425641063752e-02
-5.062253722316788218e-02
-5.033682334090518878e-02
-5.004850034813895787e-02
-4.975896918574938821e-02
-4.946953738792586597e-02
-4.918140330447765690e-02
-4.889564162219182247e-02
-4.861319021176867261e-02
-4.833483868421939444e-02
-4.806121873605392891e-02
-4.779279648268594527e-02
-4.752986687889802775e-02
-4.727255039450782570e-02
-4.702079196229980163e-02
-4.677436222808260824e-02
-4.653286111721573887e-02
-4.629572367145281392e-02
-4.606222805697778033e-02
-4.583150567837877137e-02
-4.560255324820430139e-02
-4.537424664653895434e-02
-4.514535635378710832e-02
-4.491456426074546399e-02
-4.468048164756293489e-02
-4.444166799210458318e-02
-4.419665045360207656e-02
-4.394394367976516003e-02
-4.368206970737078393e-02
-4.340957762492228533e-02
-4.312506277953338102e-02
-4.282718525938720988e-02
-4.251468737424648342e-02
-4.218640994786012482e-02
-4.184130718177555414e-02
-4.147845989370078923e-02
-4.109708700813505255e-02
-4.069655511392400449e-02
-4.027638602530594220e-02
-3.983626228194522140e-02
-3.937603051557805878e-02
-3.889570264967053687e-02
-3.839545503251188402e-02
-3.787562555273301518e-02
-3.733670875702787412e-02
-3.677934911855437750e-02
-3.620433252492184090e-02
-3.561257630918130551e-02
-3.500511785565349476e-02
-3.438310202498815610e-02
-3.374776764418725011e-02
-3.310043318391826805e-02
-3.244248189242510821e-02
-3.177534669047047539e-02
-3.110049494091525479e-02
-3.041941331634501200e-02
-2.973359312582124492e-02
-2.904451608717271982e-02
-2.835364085169025591e-02
-2.766239040835939342e-02
-2.697214052918238403e-02
-2.628420941334639813e-02
-2.559984849370402007e-02
-2.492023462434719838e-02
-2.424646362139256869e-02
-2.357954529458152620e-02
-2.292039979311420381e-02
-2.226985531354667633e-02
-2.162864721064647680e-02
-2.099741832698896749e-02
-2.037672047352218074e-02
-1.976701705001256484e-02
-1.916868656778109373e-02
-1.858202697009000634e-02
-1.800726068837598878e-02
-1.744454020937947700e-02
-1.689395395822216803e-02
-1.635553251363849533e-02
-1.582925488858057811e-02
-1.531505469030120838e-02
-1.481282618174675249e-02
-1.432243003210006624e-02
-1.384369865782212987e-02
-1.337644102115617857e-02
-1.292044693208085383e-02
-1.247549068314092284e-02
-1.204133407072924787e-02
-1.161772868593639180e-02
-1.120441754063815527e-02
-1.080113603364924943e-02
-1.040761233532263262e-02
-1.002356720830887074e-02
-9.648713247554870434e-03
-9.282753808338036622e-03
-8.925381541590480389e-03
-8.576276752260369313e-03
-8.235105596847841491e-03
-7.901518339051196577e-03
-7.575147679986539255e-03
-7.255607335985863986e-03
-6.942490912362537028e-03
-6.635371205673543452e-03
-6.333799950392095951e-03
-6.037308317151104768e-03
-5.745407906499284609e-03
-5.457592496640754388e-03
-5.173340477086441763e-03
-4.892118070167747468e-03
-4.613383275537433562e-03
-4.336590370695860702e-03
-4.061195254197779228e-03
-3.786661262664803296e-03
-3.512465552847436872e-03
-3.238105816117543140e-03
-2.963107356551546081e-03
-2.687030284995652919e-03
-2.409476774398657418e-03
-2.130098180378796075e-03
-1.848601945759684824e-03
-1.564758082266728663e-03
-1.278405068860248269e-03
-9.894551242293255899e-04
-6.978985892308986298e-04
-4.038073981988643492e-04
-1.073374180452702138e-04
1.912703301559611673e-04
4.916897074007186381e-04
7.935107319278049149e-04
1.096242292358728249e-03
1.399316171825736640e-03
1.702092426464133857e-03
2.003866023605956146e-03
2.303874749185581654e-03
2.601308317301560986e-03
2.895318518347167296e-03
3.185030256321951230e-03
3.469553367609545455e-03
3.747995098760129040e-03
4.019472965175733235e-03
4.283127865537712103e-03
4.538137225541976835e-03
4.783727991070960313e-03
5.019189166470220710e-03
5.243883754426806147e-03
5.457259938121144897e-03
5.658861173966006804e-03
5.848335130993823940e-03
6.025441318498323505e-03
6.190057135625233811e-03
6.342182228556651931e-03
6.481941227783210441e-03
6.609584586756474082e-03
6.725487588718894426e-03
6.830147411901764387e-03
6.924178344620280680e-03
7.008305147574299399e-03
7.083354736310222902e-03
7.150246121974899657e-03
7.209978871830134695e-03
7.263620193504920566e-03
7.312290840021961648e-03
7.357150033056666580e-03
7.399379717006170781e-03
7.440168216205536589e-03
7.480693665538220953e-03
7.522107465094364162e-03
7.565517939673650424e-03
7.611974554439802747e-03
7.662452960111590210e-03
7.717840967313890563e-03
7.778925847595682778e-03
7.846383024306237755e-03
7.920766425831393676e-03
8.002500660400068896e-03
8.091875190920073263e-03
8.189040472618758226e-03
8.294006317460904387e-03
8.406642295800424713e-03
8.526680387748222442e-03
8.653719726763497294e-03
8.787233487721824929e-03
8.926577666678108328e-03
9.071001674289282807e-03
9.219660632615755969e-03
9.371629206679023966e-03
9.525916550476737701e-03
9.681482389527198626e-03
9.837253793028345045e-03
9.992142500429611676e-03
1.014506238765036823e-02
1.029494693854727042e-02
1.044076626619673022e-02
1.058154363685595567e-02
1.071637097251287515e-02
1.084442324488394706e-02
1.096497150072206148e-02
1.107739428943758236e-02
1.118118730219892949e-02
1.127597105486072109e-02
1.136149650098858960e-02
1.143764848001172993e-02
1.150444699987615213e-02
1.156204625877753182e-02
1.161073146228678264e-02
1.165091347390183503e-02
1.168312136904752288e-02
1.170799308908907453e-02
1.172626429576916450e-02
1.173875557496897176e-02
1.174635835615198132e-02
1.175001959447442151e-02
1.175072556372537373e-02
1.174948501671117460e-02
1.174731197169139561e-02
1.174520842813328754e-02
1.174414728922615510e-02
1.174505578426457073e-02
1.174879968443531472e-02
1.175616844087746561e-02
1.176786162334857513e-02
1.178447680331841038e-02
1.180649908981420103e-02
1.183429251065596342e-02
1.186809332275657464e-02
1.190800542675321538e-02
1.195399782486414667e-02
1.200590425774053678e-02
1.206342493185345865e-02
1.212613039310472644e-02
1.219346740329857459e-02
1.226476676253090113e-02
1.233925287970306581e-02
1.241605486940576021e-02
1.249421915115230160e-02
1.257272323966376372e-02
1.265049049213078092e-02
1.272640553836269436e-02
1.279933024502965221e-02
1.286811977945333425e-02
1.293163870016782527e-02
1.298877670011557017e-02
1.303846379132058385e-02
1.307968473207878068e-02
1.311149243254884113e-02
1.313302011087586624e-02
1.314349208920209157e-02
1.314223305822002398e-02
1.312867569635778678e-02
1.310236654855710670e-02
1.306297003853275525e-02
1.301027068941257303e-02
1.294417356329048349e-02
1.286470280676661575e-02
1.277199854166934448e-02
1.266631214214502914e-02
1.254799991393766058e-02
1.241751546434673864e-02
1.227540080972258814e-02
1.212227646933851204e-02
1.195883076582131624e-02
1.178580845228459351e-02
1.160399891310460486e-02
1.141422424240365156e-02
1.121732725099414477e-02
1.101415974095277216e-02
1.080557118248366352e-02
1.059239796029408029e-02
1.037545348177015131e-02
1.015551910738150473e-02
9.933336201073889385e-03
9.709599291575780194e-03
9.484950552970586660e-03
9.259975503375164618e-03
9.035200028146407256e-03
8.811088805769487498e-03
8.588044957427166601e-03
8.366411014310912511e-03
8.146471055440406353e-03
7.928453923688629293e-03
7.712537481741191421e-03
7.498853670254664906e-03
7.287494270499683680e-03
7.078517266326580896e-03
6.871953588166081900e-03
6.667814087950726769e-03
6.466096559762019892e-03
6.266792697802042039e-03
6.069894745277693883e-03
5.875401801027756860e-03
5.683325530148522660e-03
5.493695172186453292e-03
5.306561865771328330e-03
5.122002050080971987e-03
4.940119962799796247e-03
4.761049129789130668e-03
4.584952873474949266e-03
4.412023787359796445e-03
4.242482314589793128e-03
4.076574238514058673e-03
3.914567419652384764e-03
3.756747594831090151e-03
3.603413572543192733e-03
3.454871758630257122e-03
3.311430251224047831e-03
3.173392500239092043e-03
3.041050831781030774e-03
2.914679879428688607e-03
2.794530060971846426e-03
2.680821304443500256e-03
2.573737088197064222e-03
2.473418955653081640e-03
2.379961645815667319e-03
2.293408879503548801e-03
2.213749922590356640e-03
2.140917010155359620e-03
2.074783737059591061e-03
2.015164285540479126e-03
1.961813702648517680e-03
1.914429129734332045e-03
1.872651903078986074e-03
1.836070643491719522e-03
1.804225157748144204e-03
1.776611064425925304e-03
1.752685133813442452e-03
1.731871212334759646e-03
1.713566602250753959e-03
1.697148801390457352e-03
1.681982459356082954e-03
1.667426471424107931e-03
1.652841005623220802e-03
1.637594421767629531e-03
1.621069918227685883e-03
1.602671788235376883e-03
1.581831222711764734e-03
1.558011521434770567e-03
1.530712709071024597e-03
1.499475418922947877e-03
1.463884050574560530e-03
1.423569163119669644e-03
1.378209073590663542e-03
1.327530662706321836e-03
1.271309447072165510e-03
1.209368923940269723e-03
1.141579260395637115e-03
1.067855371187435972e-03
9.881544844085588235e-04
9.024732533588500577e-04
8.108445153937817070e-04
7.133338073853341763e-04
6.100357028634491741e-04
5.010701585475350710e-04
3.865788685697559924e-04
2.667218067061803005e-04
1.416739531391303223e-04
1.162236759527405769e-05
-1.232364126157787403e-04
-2.626984898532439168e-04
-4.065542574917507920e-04
-5.545895606720038047e-04
-7.065863594535143040e-04
-8.623228552734208806e-04
-1.021573159327226771e-03
-1.184106476943486965e-03
-1.349685868829059469e-03
-1.518066691547276248e-03
-1.688994819249782899e-03
-1.862204568862524260e-03
-2.037416598829276324e-03
-2.214335743985568900e-03
-2.392648964332516875e-03
-2.572023459145978286e-03
-2.752105102558116429e-03
-2.932517195395728613e-03
-3.112859737985438323e-03
-3.292709200161415654e-03
-3.471618892382115785e-03
-3.649120017628642524e-03
-3.824723392828723902e-03
-3.997921857823592308e-03
-4.168193426137928488e-03
-4.335005110335233419e-03
-4.497817384888630823e-03
-4.656089335779405557e-03
-4.809284287754293959e-03
-4.956875924147224367e-03
-5.098354763426050928e-03
-5.233234879714225747e-03
-5.361060747783932823e-03
-5.481414095010610048e-03
-5.593920636329650919e-03
-5.698256493290356980e-03
-5.794154224493791756e-03
-5.881408280944480649e-03
-5.959879775918932795e-03
-6.029500486151210571e-03
-6.090275915753307415e-03
-6.142287346597926322e-03
-6.185692806851245985e-03
-6.220726842509910134e-03
-6.247699131756804906e-03
-6.266991902848764034e-03
-6.279056090642867217e-03
-6.284406334066454380e-03
-6.283614888050214828e-03
-6.277304396739875371e-03
-6.266139799142014279e-03
-6.250819316139718911e-03
-6.232064721751223724e-03
-6.210611107349418847e-03
-6.187196256231529759e-03
-6.162549775695256964e-03
-6.137382228314505576e-03
-6.112374395589316792e-03
-6.088166960847530770e-03
-6.065350631388956477e-03
-6.044457036449096821e-03
-6.025950475547699713e-03
-6.010220824281678649e-03
-5.997577548968427603e-03
-5.988245054645791911e-03
-5.982359395663351502e-03
-5.979966522216929176e-03
-5.981022070420003063e-03
-5.985392696783766939e-03
-5.992858931483682934e-03
-6.003119524940058772e-03
-6.015797272921196738e-03
-6.030446209400497880e-03
-6.046559982080183630e-03
-6.063581297606183799e-03
-6.080912265120913887e-03
-6.097925607337596580e-03
-6.113976296805657441e-03
-6.128413582104917309e-03
-6.140593061770708953e-03
-6.149888641407742947e-03
-6.155704239894967296e-03
-6.157484829596778821e-03
-6.154726792854579853e-03
-6.146987294381131908e-03
-6.133892526296495264e-03
-6.115144647571808117e-03
-6.090527302693435514e-03
-6.059909588697046448e-03
-6.023248413973252523e-03
-5.980589202646379408e-03
-5.932064921820014332e-03
-5.877893415810598113e-03
-5.818373154981086072e-03
-5.753877435259828303e-03
-5.684847144928091914e-03
-5.611782261525976277e-03
-5.535232158516398097e-03
-5.455785024142900674e-03
-5.374056576173050562e-03
-5.290678239296127232e-03
-5.206284988208762475e-03
-5.121503180147398207e-03
-5.036938620557106921e-03
-4.953165055728072155e-03
-4.870713308864515166e-03
-4.790061324740415086e-03
-4.711625355663369083e-03
-4.635752327002314044e-03
-4.562713725619596886e-03
-4.492701046673043021e-03
-4.425822842426126516e-03
-4.362103533348023719e-03
-4.301483974720075529e-03
-4.243823862310463352e-03
-4.188905785167052614e-03
-4.136440951915580991e-03
-4.086076452241113599e-03
-4.037403934872685514e-03
-3.989969561294545893e-03
-3.943284950157913311e-03
-3.896838942762570392e-03
-3.850110021652294445e-03
-3.802578983186347041e-03
-3.753741741286057386e-03
-3.703121931937876019e-03
-3.650283038497922992e-03
-3.594839858193186934e-03
-3.536468936131278908e-03
-3.474917843856211580e-03
-3.410013065193739229e-03
-3.341666289074389073e-03
-3.269878975569181362e-03
-3.194745033779693155e-03
-3.116451588580822218e-03
-3.035277739753698689e-03
-2.951591310782523351e-03
-2.865843606533695093e-03
-2.778562326436817293e-03
-2.690342603350082649e-03
-2.601836503587489583e-03
-2.513740993125331957e-03
-2.426784618245997338e-03
-2.341713221458036412e-03
-2.259274914720602566e-03
-2.180204624568551647e-03
-2.105208423543760733e-03
-2.034947962011230283e-03
-1.970025471064427731e-03
-1.910969396026624464e-03
-1.858221155261622530e-03
-1.812123156706107628e-03
-1.772908365358254190e-03
-1.740691772851281176e-03
-1.715463861375058274e-03
-1.697086174537777888e-03
-1.685289228410507710e-03
-1.679672786996940382e-03
-1.679708560360624681e-03
-1.684745295155833014e-03
-1.694016296824229920e-03
-1.706649120327128873e-03
-1.721677456497051331e-03
-1.738054897218903501e-03
-1.754670491556828069e-03
-1.770365690464669036e-03
-1.783952520754019007e-03
-1.794232566333431094e-03
-1.800016529842917790e-03
-1.800143900165442545e-03
-1.793502471589519592e-03
-1.779047336070074727e-03
-1.755818944622954429e-03
-1.722959960931020338e-03
-1.679730564625107458e-03
-1.625521841024952802e-03
-1.559867100325444721e-03
-1.482450804072601861e-03
-1.393114976236757216e-03
-1.291862863229079322e-03
-1.178859882270927740e-03
-1.054431650988519806e-03
-9.190592179908656581e-04
-7.733714893562753561e-04
-6.181349441489771002e-04
-4.542408650743992820e-04
-2.826902485229478728e-04
-1.045766343919907854e-04
7.893286656225300779e-05
2.666178804415196297e-04
4.572263143127464871e-04
6.494965942999232416e-04
8.421801878204375784e-04
1.034064005517662836e-03
1.223992346934831910e-03
1.410887912983835877e-03
1.593771489862271309e-03
1.771779964463412581e-03
1.944182313120892524e-03
2.110393281619109881e-03
2.269984363436561292e-03
2.422691916589747498e-03
2.568422217060536104e-03
2.707253363115404241e-03
2.839433875090558324e-03
2.965378028062608078e-03
3.085657895490766939e-03
3.200992271797639677e-03
3.312232588909759089e-03
3.420346068616924966e-03
3.526396280405447777e-03
3.631521528457037212e-03
3.736911319842648772e-03
3.843781434656902592e-03
3.953347858608305398e-03
4.066800134932165890e-03
4.185274612187279281e-03
4.309827940031158398e-03
4.441411372315593430e-03
4.580846339100106898e-03
4.728801706466973821e-03
4.885773151451379588e-03
5.052065063978909525e-03
5.227775344189472539e-03
5.412783303140359173e-03
5.606741062256832657e-03
5.809068616637870670e-03
6.018952652324180939e-03
6.235349254039127681e-03
6.456990495500153186e-03
6.682394893253296338e-03
6.909881586371999229e-03
7.137588093254324667e-03
7.363491428028458817e-03
7.585432307532944882e-03
7.801141988829316323e-03
8.008271457685661038e-03
8.204422496765562123e-03
8.387180214464185282e-03
8.554146429735943330e-03
8.702973551242594238e-03
8.831398335219812698e-03
8.937274959708332162e-03
9.018606998566804089e-03
9.073577769202543011e-03
9.100578502836405986e-03
9.098233915580103762e-03
9.065424818626479850e-03
9.001307285161174246e-03
8.905328220205895734e-03
8.777236901497212709e-03
8.617092434786552055e-03
8.425266863201257700e-03
8.202443985498733200e-03
7.949613710302463887e-03
7.668062207346940627e-03
7.359357794745287340e-03
7.025332881831754771e-03
6.668062199556301813e-03
6.289837604122937818e-03
5.893139849701807542e-03
5.480607748942274704e-03
5.055005105800805185e-03
4.619186038146838071e-03
4.176059003171124148e-03
3.728550272351221617e-03
3.279567260605640092e-03
2.831962305938278551e-03
2.388497414384296250e-03
1.951810482038943053e-03
1.524383523561231076e-03
1.108513256832589907e-03
7.062846365036849934e-04
3.195476230295620727e-04
-5.010247598978257816e-05
-4.013408181331791264e-04
-7.331248205013180756e-04
-1.044701652513644989e-03
-1.335611493979098514e-03
-1.605686428747470085e-03
-1.855045029884319890e-03
-2.084082840387174469e-03
-2.293458778334283264e-03
-2.484077833135530516e-03
-2.657070205391994303e-03
-2.813767353607118851e-03
-2.955675240615487660e-03
-3.084445271639618680e-03
-3.201843334254625938e-03
-3.309717412360563878e-03
-3.409964339045492773e-03
-3.504496091386503139e-03
-3.595206312006152781e-03
-3.683937392473931368e-03
-3.772448723712914110e-03
-3.862386534809964748e-03
-3.955255796337711453e-03
-4.052394619065805524e-03
-4.154951500932047188e-03
-4.263865732670235609e-03
-4.379851278487699624e-03
-4.503384412904698313e-03
-4.634695068299955409e-03
-4.773762300480168495e-03
-4.920313659645189977e-03
-5.073828655960517520e-03
-5.233546087309965192e-03
-5.398475186375982157e-03
-5.567410441614312026e-03
-5.738949747471486749e-03
-5.911515615272128384e-03
-6.083379110144496692e-03
-6.252686210959885332e-03
-6.417486161738255625e-03
-6.575761276374044589e-03
-6.725457858847282144e-03
-6.864517748732168814e-03
-6.990909921526580750e-03
-7.102661813234041437e-03
-7.197889762343095618e-03
-7.274828243254853437e-03
-7.331857367002119451e-03
-7.367528360771613896e-03
-7.380586488537674468e-03
-7.369991224790300305e-03
-7.334933400410259714e-03
-7.274848945394778513e-03
-7.189429174241201981e-03
-7.078627419455010318e-03
-6.942662016482289977e-03
-6.782015496708719907e-03
-6.597430125629225386e-03
-6.389899837914084571e-03
-6.160658719035810339e-03
-5.911166205868628384e-03
-5.643089306979182096e-03
-5.358282048636945835e-03
-5.058762534960893793e-03
-4.746687981860843800e-03
-4.424328047339707616e-03
-4.094036940759842973e-03
-3.758224670638144523e-03
-3.419327919939816381e-03
-3.079780923826444874e-03
-2.741986841951115673e-03
-2.408289970620792596e-03
-2.080949250242955170e-03
-1.762113426583975222e-03
-1.453798235148758174e-03
-1.157865807450292285e-03
-8.760066828735363917e-04
-6.097246295292564882e-04
-3.603244268465963999e-04
-1.289027425239465917e-04
8.365786709453021234e-05
2.766916412112347410e-04
4.497492581664207971e-04
6.025943358738125111e-04
7.351970030892689004e-04
8.477246557906601690e-04
9.405301853384883401e-04
1.014137907602641071e-03
1.069227487436462138e-03
1.106616185911880879e-03
1.127239790620939959e-03
1.132132594180475325e-03
1.122406758602293234e-03
1.099231528162459724e-03
1.063812631435815228e-03
1.017372193746733178e-03
9.611295766516309794e-04
8.962834636250383144e-04
8.239954635062067241e-04
7.453756068034910788e-04
6.614697922709051638e-04
5.732495044476120048e-04
4.816038983323784727e-04
3.873344059981721765e-04
2.911517946266497093e-04
1.936757360918840384e-04
9.543681942568876017e-05
-3.119068666657517764e-06
-1.016242252541969425e-04
-1.997806332221092841e-04
-2.973497188077610094e-04
-3.941406902800625653e-04
-4.899977713148503597e-04
-5.847865773634978396e-04
-6.783800978829421149e-04
-7.706445346803537195e-04
-8.614255139983153457e-04
-9.505348850178060600e-04
-1.037738571062730162e-03
-1.122745773937657097e-03
-1.205199798055945227e-03
-1.284670791090350471e-03
-1.360650728300156218e-03
-1.432550698308097644e-03
-1.499700702287484538e-03
-1.561351992676584047e-03
-1.616682096919101362e-03
-1.664802338195863840e-03
-1.704767962436193069e-03
-1.735590555682047214e-03
-1.756252647493140298e-03
-1.765724213220549489e-03
-1.762980713637382407e-03
-1.747022454837806509e-03
-1.716894806432423936e-03
-1.671708803468066216e-03
-1.610661782295541057e-03
-1.533057500919731255e-03
-1.438325374754690017e-03
-1.326038292537811336e-03
-1.195928636131050795e-03
-1.047901976334489772e-03
-8.820481856833751111e-04
-6.986494426735253031e-04
-4.981849553504137272e-04
-2.813321418964417767e-04
-4.896410859026992165e-05
1.978567643835607039e-04
4.578890747651616789e-04
7.297265508639283514e-04
1.011815873590083629e-03
1.302478037594431183e-03
1.599932866674281043e-03
1.902326494335576353e-03
2.207761283256570901e-03
2.514327679914597508e-03
2.820137436182690565e-03
3.123357702448946449e-03
3.422245264561817740e-03
3.715180323850562471e-03
4.000699091433957549e-03
4.277524579949325972e-03
4.544594874988950976e-03
4.801088281793143737e-03
5.046444683458386864e-03
5.280382684339226043e-03
5.502911939887952276e-03
5.714340295204217018e-03
5.915275390037123479e-03
6.106620587794103425e-03
6.289564968780999958e-03
6.465567525556421488e-03
6.636335553637452873e-03
6.803797417846969148e-03
6.970070098040933096e-03
7.137421921035565220e-03
7.308231034508698085e-03
7.484940263225470757e-03
7.670009056154000054e-03
7.865863366765275116e-03
8.074844369724557686e-03
8.299156855800309332e-03
8.540818426258409146e-03
8.801610344160258961e-03
9.083031104520746316e-03
9.386253657080659632e-03
9.712087262511477290e-03
1.006094480597479607e-02
1.043281643507092647e-02
1.082725016014907289e-02
1.124334012053008168e-02
1.167972288978470774e-02
1.213458227265976595e-02
1.260566272554626555e-02
1.309029143058978821e-02
1.358540896128637189e-02
1.408760821582210991e-02
1.459318120090588762e-02
1.509817304506279149e-02
1.559844256322836208e-02
1.608972832832089236e-02
1.656771936833612707e-02
1.702812917727673098e-02
1.746677199586210705e-02
1.787963995545954060e-02
1.826297965001558513e-02
1.861336677392977715e-02
1.892777749602160553e-02
1.920365513981934016e-02
1.943897079286039178e-02
1.963227669356677405e-02
1.978275111969657676e-02
1.989023384487290103e-02
1.995525122711343594e-02
1.997903024987829346e-02
1.996350098123790204e-02
1.991128714663527657e-02
1.982568468059072581e-02
1.971062845574567471e-02
1.957064752408143801e-02
1.941080936995598014e-02
1.923665407570010130e-02
1.905411937956492940e-02
1.886945780345655049e-02
1.868914738313110988e-02
1.851979738820049362e-02
1.836805083565078503e-02
1.824048566168704616e-02
1.814351634593472720e-02
1.808329797259682417e-02
1.806563469006122052e-02
1.809589434914053371e-02
1.817893130426647200e-02
1.831901910274484971e-02
1.851979452661283582e-02
1.878421453206563854e-02
1.911452722853923189e-02
1.951225786636752446e-02
1.997821053135568486e-02
2.051248588509012316e-02
2.111451511697475664e-02
2.178310982704355012e-02
2.251652724737700922e-02
2.331254992813455718e-02
2.416857864881579235e-02
2.508173704937407059e-02
2.604898602224972604e-02
2.706724585476832229e-02
2.813352364342193435e-02
2.924504348442891200e-02
3.039937664176117077e-02
3.159456880813777541e-02
3.282926149719694181e-02
3.410280460757678100e-02
3.541535713162245053e-02
3.676797312712708210e-02
3.816267023931180918e-02
3.960247824484389167e-02
4.109146529421092708e-02
4.263473986286073214e-02
4.423842669979665548e-02
4.590961562558559805e-02
4.765628228335355709e-02
4.948718051803160239e-02
5.141170652091570092e-02
5.343973539553879826e-02
5.558143135604125956e-02
5.784703319463737475e-02
6.024661728552962309e-02
6.278984080501666398e-02
6.548566847512679590e-02
6.834208630082638791e-02
7.136580654126598033e-02
7.456196816603882782e-02
7.793383759333766259e-02
8.148251453224372720e-02
8.520664814013617638e-02
8.910216851697672080e-02
9.316203882724627405e-02
9.737603307170168698e-02
1.017305444177396684e-01
1.062084288882914063e-01
1.107888886555200153e-01
1.154473988783032146e-01
1.201556816650000692e-01
1.248817299422507326e-01
1.295898836291329015e-01
1.342409596179294506e-01
1.387924366217288541e-01
1.431986948680233906e-01
1.474113100764708195e-01
1.513794002909487069e-01
1.550500231655726757e-01
1.583686208359243730e-01
1.612795084791989741e-01
1.637264019315115560e-01
1.656529791370254800e-01
1.670034694787690677e-01
1.677232645093516827e-01
1.677595430971226265e-01
1.670619035139792041e-01
1.655829948535695317e-01
1.632791397036374714e-01
1.601109401127820686e-01
1.560438587593513948e-01
1.510487673662008201e-01
1.451024546547522720e-01
1.381880865003467518e-01
1.302956113103194424e-01
1.214221042849435717e-01
1.115720448307265938e-01
1.007575221590467918e-01
8.899836487903471649e-02
7.632219139098458949e-02
6.276437867243914170e-02
4.836794832757775747e-02
3.318336943051064525e-02
1.726827909994346072e-02
6.871226505365028931e-04
-1.648928387507028748e-02
-3.418426480933809547e-02
-5.231586469029887027e-02
-7.079749101013554924e-02
-8.953861328031310907e-02
-1.084455108472933277e-01
-1.274220613325149909e-01
-1.463705610087853159e-01
-1.651925678833148226e-01
-1.837897580075314174e-01
-2.020647851632992320e-01
-2.199221341404921370e-01
-2.372689577068127498e-01
-2.540158876920439179e-01
-2.700778107445871434e-01
-2.853745998786363924e-01
-2.998317934151350506e-01
-3.133812134836436170e-01
-3.259615171097398068e-01
-3.375186738673399689e-01
-3.480063647612212097e-01
-3.573862981848031084e-01
-3.656284397912487605e-01
-3.727111542632130514e-01
-3.786212579205856521e-01
-3.833539825392467959e-01
-3.869128514890048942e-01
-3.893094707517064657e-01
-3.905632381778446072e-01
-3.907009754862669770e-01
-3.897564884478695313e-01
-3.877700615076470347e-01
-3.847878938021226380e-01
-3.808614844055343007e-01
-3.760469749799841277e-01
-3.704044584391776862e-01
-3.639972627946863604e-01
-3.568912193153930268e-01
-3.491539242359191775e-01
-3.408540031990453523e-01
-3.320603874766314134e-01
-3.228416106863699064e-01
-3.132651341480128249e-01
-3.033967087626259218e-01
-2.932997803769786249e-01
-2.830349450909313003e-01
-2.726594600501776600e-01
-2.622268143774559856e-01
-2.517863641546095876e-01
-2.413830342094309689e-01
-2.310570885362246973e-01
-2.208439703452827196e-01
-2.107742115666706439e-01
-2.008734107216093856e-01
-1.911622772818719618e-01
-1.816567395983911537e-01
-1.723681126490796411e-01
-1.633033213735545774e-01
-1.544651742990834353e-01
-1.458526819219543302e-01
-1.374614136827325139e-01
-1.292838869178284389e-01
-1.213099810200330836e-01
-1.135273698259549879e-01
-1.059219651545770247e-01
-9.847836454448238852e-02
-9.118029624235188257e-02
-8.401105491074231657e-02
-7.695392168261891430e-02
-6.999256277800559867e-02
-6.311140118760255602e-02
-5.629595684916474663e-02
-4.953315098668634869e-02
-4.281157120851831338e-02
-3.612169451872502407e-02
-2.945606625300657699e-02
-2.280943364853317210e-02
-1.617883350783203694e-02
-9.563634126842236044e-03
-2.965532379026766460e-03
3.611492406095062092e-03
1.016126558288664439e-02
1.667554251843650359e-02
2.314416874012318118e-02
2.955527125085521262e-02
3.589547666624244571e-02
4.215015184033909373e-02
4.830366208400534156e-02
5.433964221163294084e-02
6.024127558806195021e-02
6.599157609479293363e-02
7.157366832759867736e-02
7.697106125548104638e-02
8.216791107958169860e-02
8.714926910856043984e-02
9.190131096374419550e-02
9.641154369668736290e-02
1.006689880719317393e-01
1.046643335573509137e-01
1.083900642377967766e-01
1.118405542872952796e-01
1.150121322655539013e-01
1.179031138843008725e-01
1.205138036029747700e-01
1.228464659009230742e-01
1.249052673328210072e-01
1.266961912334542140e-01
1.282269271573310554e-01
1.295067374987809439e-01
1.305463040040992784e-01
1.313575573798208274e-01
1.319534931355740015e-01
1.323479770267825262e-01
1.325555434894796492e-01
1.325911906825457676e-01
1.324701754141920929e-01
1.322078112581170084e-01
1.318192730956462277e-01
1.313194110549086857e-01
1.307225764414551017e-01
1.300424621990676766e-01
1.292919599968078148e-01
1.284830357263655187e-01
1.276266247621903049e-01
1.267325480461129472e-01
1.258094496848743971e-01
1.248647562391554389e-01
1.239046576918263615e-01
1.229341095523170529e-01
1.219568553063745120e-01
1.209754681108719254e-01
1.199914102029483315e-01
1.190051084214840543e-01
1.180160439535018202e-01
1.170228541209809847e-01
1.160234441159695706e-01
1.150151061852810186e-01
1.139946440233488845e-01
1.129584999545526769e-01
1.119028825184036208e-01
1.108238922471986576e-01
1.097176433053147909e-01
1.085803790903232813e-01
1.074085798964248828e-01
1.061990610156454545e-01
1.049490597495415373e-01
1.036563102752091070e-01
1.023191052887312130e-01
1.009363439737316626e-01
9.950756567220293836e-02
9.803296921181056667e-02
9.651341812364429285e-02
9.495043203319561420e-02
9.334616494032985101e-02
9.170337113575098564e-02
9.002535978936226924e-02
8.831593959662745186e-02
8.657935473492375800e-02
8.482021356929270173e-02
8.304341171352978834e-02
8.125405110122543850e-02
7.945735678008551683e-02
7.765859295375730775e-02
7.586297990753139431e-02
7.407561340838815511e-02
7.230138802534077924e-02
7.054492572893446278e-02
6.881051093647230776e-02
6.710203309756991585e-02
6.542293770310685097e-02
6.377618642971909224e-02
6.216422692270504036e-02
6.058897261303001353e-02
5.905179255411414918e-02
5.755351142973940543e-02
5.609441933784726358e-02
5.467429101368469907e-02
5.329241383241611202e-02
5.194762397553853717e-02
5.063834985176240283e-02
4.936266177273722355e-02
4.811832680108529825e-02
4.690286780537709227e-02
4.571362528477224824e-02
4.454782092163295931e-02
4.340262165316779303e-02
4.227520298750127303e-02
4.116281037799349174e-02
4.006281774604832785e-02
3.897278196246210108e-02
3.789049241906723015e-02
3.681401491541832355e-02
3.574172906500570207e-02
3.467235877431802671e-02
3.360499531609053431e-02
3.253911274140030424e-02
3.147457547321980131e-02
3.041163812429830901e-02
2.935093762814858925e-02
2.829347801232542578e-02
2.724060817500391363e-02
2.619399327211990522e-02
2.515558032912940806e-02
2.412755871601181268e-02
2.311231638602925104e-02
2.211239271911090778e-02
2.113042881747790105e-02
2.016911613921660087e-02
1.923114464076584526e-02
1.831915120856736703e-02
1.743566925264772305e-02
1.658308041893344353e-02
1.576356927588862603e-02
1.497908163930701878e-02
1.423128733236015200e-02
1.352154785588217945e-02
1.285088951323778463e-02
1.221998242893605063e-02
1.162912577537520559e-02
1.107823927650527368e-02
1.056686116021612366e-02
1.009415239785637144e-02
9.658907232952434682e-03
9.259569653526899743e-03
8.894255416834995556e-03
8.560779307280892703e-03
8.256687067575084818e-03
7.979291339088066121e-03
7.725711107858653122e-03
7.492913837476409752e-03
7.277759624691228398e-03
7.077046635356144463e-03
6.887557075147861772e-03
6.706102860580180278e-03
6.529570406683295712e-03
6.354963698287464241e-03
6.179445098117671530e-03
6.000373144106697747e-03
5.815336882869306251e-03
5.622186179535797190e-03
5.419057673935718557e-03
5.204395982200443055e-03
4.976969839824512375e-03
4.735883153627524524e-03
4.480580760537340203e-03
4.210848970753565748e-03
3.926810877510480274e-03
3.628916749433571884e-03
3.317929638621809358e-03
2.994906488994450271e-03
2.661175243018481205e-03
2.318308259513142573e-03
1.968092625182646382e-03
1.612497762014488681e-03
1.253641054934521992e-03
8.937518897291720941e-04
5.351348667285868400e-04
1.801326139615084263e-04
-1.689110495570044380e-04
-5.096871607646815024e-04
-8.399563111074941427e-04
-1.157581426878171241e-03
-1.460558153740200080e-03
-1.747042521784735293e-03
-2.015375389903283510e-03
-2.264103419469855934e-03
-2.491996356536375738e-03
-2.698060372179245277e-03
-2.881547357961985936e-03
-3.041960163714311442e-03
-3.179053654843308312e-03
-3.292831821544571925e-03
-3.383540894186411099e-03
-3.451658852891518938e-03
-3.497881449661086571e-03
-3.523105051186273436e-03
-3.528406679314730759e-03
-3.515021568962082427e-03
-3.484318744378886359e-03
-3.437774941545163228e-03
-3.376947409699045458e-03
-3.303446020629348303e-03
-3.218905146812825989e-03
-3.124955789599529431e-03
-3.023198313319648382e-03
-2.915176399829407222e-03
-2.802352417562681188e-03
-2.686084711968325482e-03
-2.567607134396410196e-03
-2.448011032267761317e-03
-2.328230047978183202e-03
-2.209027844985120628e-03
-2.090989025345992795e-03
-1.974513171531566951e-03
-1.859812197441237155e-03
-1.746910965568329241e-03
-1.635651087918614131e-03
-1.525697811201704671e-03
-1.416549854118051262e-03
-1.307552041181759845e-03
-1.197910300374037873e-03
-1.086708970899097045e-03
-9.729299164379551267e-04
-8.554732691029760545e-04
-7.331793533661847646e-04
-6.048514198253641429e-04
-4.692788359588603506e-04
-3.252603132648708168e-04
-1.716268278434426951e-04
-7.263777794321646722e-06
1.688678615221331550e-04
3.577118622488434287e-04
5.600986836406321445e-04
7.767295030702903776e-04
1.008162435742132428e-03
1.254801242914274466e-03
1.516886675879683009e-03
1.794490551239630695e-03
2.087512600133164219e-03
2.395680179718752759e-03
2.718550859595984803e-03
3.055517729778680410e-03
3.405817405948396211e-03
3.768540538312065841e-03
4.142644640697091749e-03
4.526968973846370002e-03
4.920251299671274392e-03
5.321146102835847165e-03
5.728244109800949106e-03
6.140092642135113951e-03
6.555216585446752703e-03
6.972139451878273976e-03
7.389404371182118486e-03
7.805594541503616153e-03
8.219352812095053612e-03
8.629400105388145004e-03
9.034552362168605383e-03
9.433735760797078498e-03
9.825999902644606820e-03
1.021052884212733311e-02
1.058664971195020024e-02
1.095383886217931278e-02
1.131172537892993595e-02
1.166009203857727196e-02
1.199887356130169280e-02
1.232815233700818372e-02
1.264815166257776680e-02
1.295922661121406624e-02
1.326185276264654767e-02
1.355661296950301693e-02
1.384418243694553186e-02
1.412531236229812304e-02
1.440081252244242681e-02
1.467153301649717391e-02
1.493834552743576911e-02
1.520212457168100204e-02
1.546372894353662854e-02
1.572398381872893228e-02
1.598366370936665087e-02
1.624347675960960413e-02
1.650405055892702894e-02
1.676591980715170377e-02
1.702951598906897804e-02
1.729515940957783091e-02
1.756305362909180157e-02
1.783328248241853112e-02
1.810580971894784272e-02
1.838048132547655603e-02
1.865703050736132809e-02
1.893508518879317287e-02
1.921417803867689345e-02
1.949375874989299137e-02
1.977320845114233921e-02
2.005185592076131826e-02
2.032899539272403286e-02
2.060390553910802433e-02
2.087586935882506864e-02
2.114419463164732629e-02
2.140823444278161514e-02
2.166740754354526399e-02
2.192121800437595372e-02
2.216927381974843903e-02
2.241130413590097445e-02
2.264717472988378097e-02
2.287690132403170581e-02
2.310066047989027191e-02
2.331879787060472248e-02
2.353183362026780440e-02
2.374046455145486026e-02
2.394556317228842615e-02
2.414817342899652775e-02
2.434950310682565053e-02
2.455091292824437832e-02
2.475390242940301438e-02
2.496009285061141433e-02
2.517120708689834022e-02
2.538904711502883160e-02
2.561546902037498824e-02
2.585235609912754987e-02
2.610159035857060467e-02
2.636502288359317617e-02
2.664444346742855796e-02
2.694154993806515200e-02
2.725791772408974259e-02
2.759497012704406269e-02
2.795394978006949041e-02
2.833589170267998558e-02
2.874159848468469183e-02
2.917161803601673459e-02
2.962622413269540289e-02
3.010540036388408003e-02
3.060882760059633473e-02
3.113587535044486793e-02
3.168559716596243414e-02
3.225673017772233420e-02
3.284769896437966796e-02
3.345662372702361970e-02
3.408133272262008767e-02
3.471937884097858057e-02
3.536806007955389103e-02
3.602444385125838644e-02
3.668539466682135125e-02
3.734760495090798382e-02
3.800762849798455106e-02
3.866191619905431920e-02
3.930685346767597704e-02
3.993879897089835929e-02
4.055412402110375458e-02
4.114925221651539317e-02
4.172069859185590507e-02
4.226510785409023224e-02
4.277929109261256052e-02
4.326026049844461374e-02
4.370526155463314716e-02
4.411180227642802487e-02
4.447767897467787279e-02
4.480099824208553377e-02
4.508019488075078879e-02
4.531404545146419660e-02
4.550167729134171196e-02
4.564257279873697171e-02
4.573656903665568318e-02
4.578385252715741482e-02
4.578494941908692328e-02
4.574071114290646778e-02
4.565229579403397298e-02
4.552114543851830397e-02
4.534895972678169851e-02
4.513766626747738042e-02
4.488938809280938746e-02
4.460640878286931815e-02
4.429113567494785686e-02
4.394606182417715168e-02
4.357372708568352931e-02
4.317667903335877660e-02
4.275743428198990753e-02
4.231844068134369558e-02
4.186204103884316047e-02
4.139043875180047072e-02
4.090566597038147040e-02
4.040955469442587128e-02
3.990371118911627268e-02
3.938949406608849985e-02
3.886799637344249408e-02
3.834003185324996732e-02
3.780612566647464923e-02
3.726650950572051035e-02
3.672112135065469518e-02
3.616960960004043935e-02
3.561134169097019547e-02
3.504541689224984630e-02
3.447068312593464662e-02
3.388575750312931151e-02
3.328905032278091369e-02
3.267879195934864089e-02
3.205306241495260028e-02
3.140982299856538013e-02
3.074694962085853731e-02
3.006226720057090726e-02
2.935358474069060114e-02
2.861873046848287597e-02
2.785558651097145080e-02
2.706212269971582790e-02
2.623642890754173188e-02
2.537674558876705164e-02
2.448149193179623498e-02
2.354929134075915004e-02
2.257899394391944467e-02
2.156969579017970276e-02
2.052075445696795522e-02
1.943180092090858804e-02
1.830274763872281885e-02
1.713379263729243943e-02
1.592541976287331629e-02
1.467839507708203206e-02
1.339375951195375530e-02
1.207281793830979229e-02
1.071712494530195799e-02
9.328467566200026109e-03
7.908845311326510863e-03
6.460447692742894536e-03
4.985629764044484033e-03
3.486886126188642673e-03
1.966823707587658961e-03
4.281338230262122070e-04
-1.126436091339793558e-03
-2.694110610574036203e-03
-4.272113880748513309e-03
-5.857696194664902163e-03
-7.448159237626522829e-03
-9.040879638766635001e-03
-1.063333048253401608e-02
-1.222310055120364412e-02
-1.380791094139981884e-02
-1.538562897773866796e-02
-1.695427925429426191e-02
-1.851205166647371114e-02
-2.005730644083281861e-02
-2.158857613091441641e-02
-2.310456468287558005e-02
-2.460414360332354583e-02
-2.608634544999267196e-02
-2.755035479489217204e-02
-2.899549694793248852e-02
-3.042122460729970723e-02
-3.182710288251652114e-02
-3.321279283831908569e-02
-3.457803405194045249e-02
-3.592262643179306575e-02
-3.724641170075527336e-02
-3.854925483788534252e-02
-3.983102594953515097e-02
-4.109158281370504928e-02
-4.233075443430421581e-02
-4.354832592571634964e-02
-4.474402498640578374e-02
-4.591751025802657399e-02
-4.706836163372525583e-02
-4.819607278916221427e-02
-4.930004607611589845e-02
-5.037958984721888772e-02
-5.143391822230915927e-02
-5.246215329849933384e-02
-5.346332978773338240e-02
-5.443640191146818796e-02
-5.538025255903065297e-02
-5.629370444003529983e-02
-5.717553305517159012e-02
-5.802448129776265062e-02
-5.883927534759974404e-02
-5.961864165725386938e-02
-6.036132470211404144e-02
-6.106610517724734427e-02
-6.173181832073187242e-02
-6.235737209966682459e-02
-6.294176491461452028e-02
-6.348410252664425657e-02
-6.398361388845395792e-02
-6.443966567699062342e-02
-6.485177520460921885e-02
-6.521962156418083245e-02
-6.554305477063357421e-02
-6.582210276151970185e-02
-6.605697618367635526e-02
-6.624807082091317689e-02
-6.639596759526035508e-02
-6.650143027858110290e-02
-6.656540076678717222e-02
-6.658899212346106045e-02
-6.657347945733953221e-02
-6.652028880572627423e-02
-6.643098411085625321e-02
-6.630725258234847208e-02
-6.615088865468971013e-02
-6.596377672665171277e-02
-6.574787301735608713e-02
-6.550518677065476914e-02
-6.523776112429681417e-02
-6.494765388147613616e-02
-6.463691847031426130e-02
-6.430758539264071205e-02
-6.396164442337361200e-02
-6.360102777257412021e-02
-6.322759447488686402e-02
-6.284311616609615514e-02
-6.244926448859286494e-02
-6.204760020383665725e-02
-6.163956414652556337e-02
-6.122647013473213329e-02
-6.080949983244071655e-02
-6.038969967070846601e-02
-5.996797970618168716e-02
-5.954511443181383090e-02
-5.912174546452882151e-02
-5.869838591101089048e-02
-5.827542641711284943e-02
-5.785314259905060402e-02
-5.743170379484580090e-02
-5.701118280010262357e-02
-5.659156647061115014e-02
-5.617276699039055327e-02
-5.575463347560866145e-02
-5.533696375672359641e-02
-5.491951606596186253e-02
-5.450202045332248196e-02
-5.408418964166664816e-02
-5.366572922683632979e-02
-5.324634694952079528e-02
-5.282576096467931498e-02
-5.240370690122312519e-02
-5.197994362039101701e-02
-5.155425765239051578e-02
-5.112646615330441319e-02
-5.069641849655327770e-02
-5.026399636164021606e-02
-4.982911247368311536e-02
-4.939170798198058016e-02
-4.895174859631570841e-02
-4.850921960775234076e-02
-4.806411997905805922e-02
-4.761645559699749508e-02
-4.716623188140156575e-02
-4.671344600641795519e-02
-4.625807886081070852e-02
-4.580008694791812274e-02
-4.533939455132156293e-02
-4.487588620132607065e-02
-4.440939980990863539e-02
-4.393972059648124789e-02
-4.346657602190379804e-02
-4.298963183480931927e-02
-4.250848942891724547e-02
-4.202268459456774685e-02
-4.153168777864484074e-02
-4.103490594309931738e-02
-4.053168600832642021e-02
-4.002131999425383169e-02
-3.950305169806412470e-02
-3.897608493980755928e-02
-3.843959327595903447e-02
-3.789273111818240031e-02
-3.733464602927562964e-02
-3.676449207119818208e-02
-3.618144410076614553e-02
-3.558471265128131805e-02
-3.497355932012159718e-02
-3.434731229692973564e-02
-3.370538190797101735e-02
-3.304727589107080837e-02
-3.237261405828742444e-02
-3.168114216339711076e-02
-3.097274483158941535e-02
-3.024745713355536658e-02
-2.950547467590669201e-02
-2.874716207028804246e-02
-2.797305945946908928e-02
-2.718388703217992919e-02
-2.638054747649632228e-02
-2.556412610303258198e-02
-2.473588871637792674e-02
-2.389727717044098920e-02
-2.304990255354142856e-02
-2.219553609239308459e-02
-2.133609784543078966e-02
-2.047364329121438564e-02
-1.961034792858059803e-02
-1.874849006278596353e-02
-1.789043195724684954e-02
-1.703859957356624114e-02
-1.619546115001706255e-02
-1.536350487592230696e-02
-1.454521595583363122e-02
-1.374305325992665992e-02
-1.295942598105153526e-02
-1.219667041584101760e-02
-1.145702733644828573e-02
-1.074262016430788461e-02
-1.005543417113710647e-02
-9.397297060430779073e-03
-8.769861067074329053e-03
-8.174586903840021235e-03
-7.612729636888661972e-03
-7.085326801090969899e-03
-6.593188816239626063e-03
-6.136891698360151179e-03
-5.716772407982192473e-03
-5.332926664557320617e-03
-4.985209375319792600e-03
-4.673237518583974598e-03
-4.396395477859951252e-03
-4.153842846671552784e-03
-3.944524473135235451e-03
-3.767182641947713732e-03
-3.620371125620157338e-03
-3.502471079105547690e-03
-3.411708471887132943e-03
-3.346172838439878845e-03
-3.303837062437225101e-03
-3.282578001507713197e-03
-3.280197609105817320e-03
-3.294444400392963247e-03
-3.323034926473285994e-03
-3.363675071487685561e-03
-3.414080768169903447e-03
-3.471998002849437711e-03
-3.535221973640834472e-03
-3.601615005689225418e-03
-3.669123185848967555e-03
-3.735791491773776240e-03
-3.799777294637436253e-03
-3.859362039127510122e-03
-3.912961174351467682e-03
-3.959132176193170920e-03
-3.996580632337493576e-03
-4.024164322997404210e-03
-4.040895515883034285e-03
-4.045941332338578479e-03
-4.038622312093050580e-03
-4.018409239039069485e-03
-3.984918443184016015e-03
-3.937905601429486299e-03
-3.877258237313568282e-03
-3.802987054531995099e-03
-3.715216275591796697e-03
-3.614173192565869538e-03
-3.500177030092381861e-03
-3.373627492937408042e-03
-3.234992919333548426e-03
-3.084798392390251075e-03
-2.923613973987985570e-03
-2.752043152351781822e-03
-2.570711755709210750e-03
-2.380257346320760903e-03
-2.181319302186993450e-03
-1.974529731239707282e-03
-1.760505248530393196e-03
-1.539839697930823689e-03
-1.313097891963583555e-03
-1.080810389543082877e-03
-8.434694073785305515e-04
-6.015257477006298158e-04
-3.553868784953448986e-04
-1.054159547815508791e-04
1.480681242658073941e-04
4.047897512175667933e-04
6.645147543473675037e-04
9.270477662085538145e-04
1.192228907943146269e-03
1.459929962538808208e-03
1.730049963381598884e-03
2.002510452956369341e-03
2.277250567395174875e-03
2.554221857682891905e-03
2.833383161380457257e-03
3.114695473710375837e-03
3.398117005142926427e-03
3.683598568442526290e-03
3.971079217784475972e-03
4.260482328925672621e-03
4.551712210550133177e-03
4.844651252752878688e-03
5.139157615091945359e-03
5.435063548828097946e-03
5.732174404524512448e-03
6.030268243234335537e-03
6.329096111628979698e-03
6.628382954155578703e-03
6.927829096872345147e-03
7.227112321120470438e-03
7.525890513611753312e-03
7.823804716622712735e-03
8.120482654440132342e-03
8.415542621522260555e-03
8.708597583072977266e-03
8.999259596646873305e-03
9.287144289923703749e-03
9.571875425298820989e-03
9.853089477609437014e-03
1.013044011453638309e-02
1.040360250360928759e-02
1.067227738884424931e-02
1.093619490462553571e-02
1.119511804404086167e-02
1.144884566107275299e-02
1.169721508717112834e-02
1.194010424485976787e-02
1.217743318508576582e-02
1.240916512512972233e-02
1.263530694876591198e-02
1.285590905677196950e-02
1.307106469480533335e-02
1.328090870354578165e-02
1.348561569649346994e-02
1.368539771151115921e-02
1.388050137747326093e-02
1.407120461085944151e-02
1.425781286982536096e-02
1.444065501592371736e-02
1.462007887902458045e-02
1.479644652991674546e-02
1.497012930892966526e-02
1.514150276931184973e-02
1.531094147587149477e-02
1.547881371464582614e-02
1.564547635086514787e-02
1.581126970727848510e-02
1.597651258012989031e-02
1.614149749589079835e-02
1.630648630044815445e-02
1.647170599063202748e-02
1.663734491781801786e-02
1.680354945359553709e-02
1.697042113749955630e-02
1.713801425556613078e-02
1.730633400277712883e-02
1.747533512847827819e-02
1.764492120267593597e-02
1.781494451453004280e-02
1.798520651034720905e-02
1.815545876375406278e-02
1.832540455729132420e-02
1.849470103673738625e-02
1.866296194633276784e-02
1.882976080039527184e-02
1.899463455817030147e-02
1.915708776372541944e-02
1.931659703188748703e-02
1.947261591251887164e-02
1.962458002357536993e-02
1.977191241829326027e-02
1.991402908885699097e-02
2.005034460046377365e-02
2.018027775036455168e-02
2.030325717816766282e-02
2.041872693056789173e-02
2.052615177042880004e-02
2.062502226775349279e-02
2.071485958802184169e-02
2.079521995131622045e-02
2.086569862296394628e-02
2.092593347529072764e-02
2.097560792991280676e-02
2.101445339039191909e-02
2.104225108132990255e-02
2.105883327490536139e-02
2.106408381304433752e-02
2.105793794838247204e-02
2.104038157600770370e-02
2.101144974969593182e-02
2.097122458608581888e-02
2.091983251652541204e-02
2.085744096408151740e-02
2.078425447690391420e-02
2.070051033837250545e-02
2.060647376190221508e-02
2.050243267600402805e-02
2.038869225395084986e-02
2.026556919436798762e-02
2.013338587019317116e-02
1.999246438307812276e-02
1.984312063796326783e-02
1.968565860547024857e-02
1.952036475195451440e-02
1.934750274830624589e-02
1.916730861017506074e-02
1.897998625609850776e-02
1.878570363196381890e-02
1.858458944220117356e-02
1.837673053665579009e-02
1.816217006785463342e-02
1.794090642905343119e-02
1.771289294484403032e-02
1.747803841180480336e-02
1.723620847795548014e-02
1.698722787588204455e-02
1.673088348936090444e-02
1.646692817855515203e-02
1.619508538611002385e-02
1.591505442294146797e-02
1.562651645490759772e-02
1.532914104344327774e-02
1.502259314417540847e-02
1.470654050969805518e-02
1.438066138486759210e-02
1.404465240396589147e-02
1.369823654789996750e-02
1.334117106743438856e-02
1.297325522852906150e-02
1.259433780015884949e-02
1.220432411233522349e-02
1.180318265424019041e-02
1.139095101814038488e-02
1.096774116524364823e-02
1.053374387998407512e-02
1.008923230292459866e-02
9.634564517891415492e-03
9.170185129406548813e-03
8.696625814696988185e-03
8.214504727601908488e-03
7.724524835819027678e-03
7.227471186485019336e-03
6.724207005125288489e-03
6.215668824123381231e-03
5.702860477313251991e-03
5.186846287061397387e-03
4.668743327601030009e-03
4.149712899809968568e-03
3.630951333640953724e-03
3.113680231659326884e-03
2.599136313176285407e-03
2.088560847531411094e-03
1.583188913672333017e-03
1.084238668022262896e-03
5.929006961115303349e-04
1.103275331393681455e-04
-3.623763868640228329e-04
-8.241643417258871221e-04
-1.274056354412836508e-03
-1.711147444083626745e-03
-2.134615072952114698e-03
-2.543725635446596536e-03
-2.937840006542019686e-03
-3.316417940658220043e-03
-3.679021472827688228e-03
-4.025317098009825560e-03
-4.355076804882761395e-03
-4.668177900940297109e-03
-4.964601712051227786e-03
-5.244431123961400092e-03
-5.507847086506938508e-03
-5.755124078070977117e-03
-5.986624639283680098e-03
-6.202792989996794987e-03
-6.404147965446521130e-03
-6.591275242257977306e-03
-6.764819062354484464e-03
-6.925473487045278806e-03
-7.073973425300795342e-03
-7.211085444132035727e-03
-7.337598523768596066e-03
-7.454314932207811023e-03
-7.562041288569777697e-03
-7.661579932577547263e-03
-7.753720681504532898e-03
-7.839233193262131263e-03
-7.918859835649579362e-03
-7.993309278084975711e-03
-8.063250841735951011e-03
-8.129309619830498920e-03
-8.192062398337814078e-03
-8.252034429013730896e-03
-8.309697097312881281e-03
-8.365466357351159302e-03
-8.419702080144130310e-03
-8.472708111022875591e-03
-8.524733024408983131e-03
-8.575971704418039465e-03
-8.626567404691289076e-03
-8.676614454983485811e-03
-8.726161384949597880e-03
-8.775214425499488005e-03
-8.823741299820190773e-03
-8.871675195676265863e-03
-8.918918844510964269e-03
-8.965348636425016574e-03
-9.010818671764325022e-03
-9.055164687204863422e-03
-9.098207699806251658e-03
-9.139757414945310840e-03
-9.179615325072758986e-03
-9.217577355769534728e-03
-9.253436171996552717e-03
-9.286982972025131441e-03
-9.318008905364391983e-03
-9.346306002865161638e-03
-9.371667693327716611e-03
-9.393888867774194060e-03
-9.412765595326602272e-03
-9.428094470365390445e-03
-9.439671675849813787e-03
-9.447291853969938188e-03
-9.450746763791708152e-03
-9.449823861833097499e-03
-9.444304828016189188e-03
-9.433964180155386681e-03
-9.418567963964267001e-03
-9.397872629093698832e-03
-9.371624191939462861e-03
-9.339557719848637363e-03
-9.301397158891638872e-03
-9.256855574863553926e-03
-9.205635890942476252e-03
-9.147432122345264607e-03
-9.081931102098794381e-03
-9.008814707505918840e-03
-8.927762665667136541e-03
-8.838455806388719957e-03
-8.740579852971063629e-03
-8.633829617870016418e-03
-8.517913618643568885e-03
-8.392559018209908364e-03
-8.257516864354483288e-03
-8.112567554634643116e-03
-7.957526369894950963e-03
-7.792249049944408208e-03
-7.616637344657149061e-03
-7.430644433374223798e-03
-7.234280041366081618e-03
-7.027615260248450471e-03
-6.810787014756685027e-03
-6.584001906339162491e-03
-6.347539584688948432e-03
-6.101755357137268049e-03
-5.847082177069691349e-03
-5.584031827327898614e-03
-5.313195230698237147e-03
-5.035241904877646099e-03
-4.750918589036675146e-03
-4.461046996897989267e-03
-4.166520644802586271e-03
-3.868300796563206752e-03
-3.567411618509987083e-03
-3.264934496362693721e-03
-2.962001644931109082e-03
-2.659788995326783836e-03
-2.359508454709860221e-03
-2.062399610711001651e-03
-1.769721036433710573e-03
-1.482741186097244045e-03
-1.202729136265651578e-03
-9.309450443119738749e-04
-6.686305651852952935e-04
-4.169993113307931599e-04
-1.772274878060786413e-04
4.955525481498359615e-05
2.622746224291781889e-04
4.599200861979994772e-04
6.415528038534809444e-04
8.063129676578581397e-04
9.534265011415167957e-04
1.082211048800125423e-03
1.192081321432767772e-03
1.282553527299852298e-03
1.353249108851326769e-03
1.403897634583698827e-03
1.434338884549056026e-03
1.444524050382308550e-03
1.434516225810307782e-03
1.404490076158747269e-03
1.354730710688613598e-03
1.285631853707630383e-03
1.197693384442420281e-03
1.091518141962292271e-03
9.678081533880251693e-04
8.273603570878296492e-04
6.710618374152771274e-04
4.998845834625685429e-04
3.148799341883276657e-04
1.171725948127086452e-04
-9.204555854465486708e-05
-3.115219382808851584e-04
-5.399498968535614311e-04
-7.759755400848904758e-04
-1.018204644455478550e-03
-1.265209648759288040e-03
-1.515536738002381482e-03
-1.767713001145540877e-03
-2.020253489578363159e-03
-2.271668400816312123e-03
-2.520470146935942929e-03
-2.765180471070209211e-03
-3.004337509605164210e-03
-3.236502784731654266e-03
-3.460268187826013274e-03
-3.674262923015551765e-03
-3.877160303476596005e-03
-4.067684575839548150e-03
-4.244617606041787075e-03
-4.406805479297914475e-03
-4.553164952247914371e-03
-4.682689798805265285e-03
-4.794456955936193809e-03
-4.887632451899216225e-03
-4.961477141557734012e-03
-5.015352100036840621e-03
-5.048723709929647807e-03
-5.061168357023450304e-03
-5.052376687081779408e-03
-5.022157393035897414e-03
-4.970440437929287032e-03
-4.897279682053000925e-03
-4.802854794975498255e-03
-4.687472499805727007e-03
-4.551566979494866237e-03
-4.395699457253057774e-03
-4.220556920843287346e-03
-4.026949903354309045e-03
-3.815809258800402851e-03
-3.588181961226053797e-03
-3.345225896198892289e-03
-3.088203709849802504e-03
-2.818475501109232641e-03
-2.537490608957913927e-03
-2.246778416384083519e-03
-1.947938223500384619e-03
-1.642628255833634369e-03
-1.332553806742058566e-03
-1.019454724720031532e-03
-7.050922164496438438e-04
-3.912352007066108675e-04
-7.964621054926575565e-05
2.279329894812987889e-04
5.297959587879489968e-04
8.242860779108934777e-04
1.109810898691513271e-03
1.384856216529721084e-03
1.647999665014973029e-03
1.897923675635847544e-03
2.133427710754351014e-03
2.353439521264182998e-03
2.557025370632226829e-03
2.743398991175084907e-03
2.911929263200588661e-03
3.062146402903303567e-03
3.193746617537406539e-03
3.306595086883706239e-03
3.400727328014793802e-03
3.476348711061105594e-03
3.533832215764205753e-03
3.573714431985800834e-03
3.596689738833878328e-03
3.603602725024481444e-03
3.595438978766755424e-03
3.573314215149277044e-03
3.538461906744484742e-03
3.492219551545432121e-03
3.436013632401666972e-03
3.371343591891211126e-03
3.299764761774831318e-03
3.222870659340258247e-03
3.142274697425133292e-03
3.059591631013557338e-03
2.976418892911764265e-03
2.894318051592925135e-03
2.814796639580879629e-03
2.739290525858146651e-03
2.669147119111913661e-03
2.605609612546205649e-03
2.549802399030537230e-03
2.502717945717338431e-03
2.465205236668795933e-03
2.437959976155182687e-03
2.421516685645809519e-03
2.416242774025891427e-03
2.422334742848964578e-03
2.439816553691702763e-03
2.468540188474226214e-03
2.508188434001937424e-03
2.558279870911677953e-03
2.618175985707040226e-03
2.687090376419121619e-03
2.764099919587172799e-03
2.848157749609797010e-03
2.938107963444582058e-03
3.032701813967792100e-03
3.130615189128446198e-03
3.230467141542635572e-03
3.330839259984383349e-03
3.430295592109439910e-03
3.527402868221519647e-03
3.620750788278556415e-03
3.708972046680397445e-03
3.790761828383359868e-03
3.864896504708915329e-03
3.930251301941302747e-03
3.985816666505389606e-03
4.030713052691814458e-03
4.064203953223218847e-03
4.085706988868002820e-03
4.094802837209770945e-03
4.091241922416075615e-03
4.074948734087618929e-03
4.046023694021830611e-03
4.004742495622245005e-03
3.951552944406349667e-03
3.887069340262406299e-03
3.812064458802539788e-03
3.727459209503248324e-03
3.634310089121235970e-03
3.533794674987642860e-03
3.427195258995551636e-03
3.315880984159172342e-03
3.201288592398406421e-03
3.084902114043156039e-03
2.968231851277342015e-03
2.852792822137894917e-03
2.740083159900387130e-03
2.631562641674452339e-03
2.528631715866771611e-03
2.432611361982057931e-03
2.344724045875053609e-03
2.266076112843808197e-03
2.197641859533371739e-03
2.140249534530644024e-03
2.094569429289551941e-03
2.061104306903850224e-03
2.040182317557421091e-03
2.031952497700449060e-03
2.036382893020702734e-03
2.053261387036215378e-03
2.082199172005954040e-03
2.122636821546648213e-03
2.173852897995089736e-03
2.234974888040116518e-03
2.304992360541320822e-03
2.382772043112943786e-03
2.467074673935696835e-03
2.556573220040363886e-03
2.649872297769737418e-03
2.745528309398678236e-03
2.842070125079824029e-03
2.938019851090044408e-03
3.031913385144832922e-03
3.122320427280935503e-03
3.207863539658570903e-03
3.287235977612790096e-03
3.359218007330526997e-03
3.422691366753765219e-03
3.476651729750153842e-03
3.520218907255226112e-03
3.552644690471630159e-03
3.573318081036994630e-03
3.581767983883935719e-03
3.577663282650743112e-03
3.560810278802081872e-03
3.531147720869559029e-03
3.488739385999096651e-03
3.433764457742001595e-03
3.366505924525276319e-03
3.287337284976116908e-03
3.196707790497413208e-03
3.095126615399881789e-03
2.983146252761088423e-03
2.861345603076686193e-03
2.730313044059682389e-03
2.590629929633870426e-03
2.442854839829993688e-03
2.287509011589047066e-03
2.125063306013223394e-03
1.955927018837253471e-03
1.780438810703835733e-03
1.598860029724222124e-03
1.411370692050228437e-03
1.218068175955501140e-03
1.018968784961325844e-03
8.140122676313392078e-04
6.030691388474343322e-04
3.859508261432601688e-04
1.624225152582822599e-04
-6.778160125314206203e-05
-3.049409079071642350e-04
-5.493290311503916043e-04
-8.011930466004136978e-04
-1.060731653022471471e-03
-1.328072754395599828e-03
-1.603250871696824389e-03
-1.886184969105257148e-03
-2.176657156791410828e-03
-2.474292824637870907e-03
-2.778542713551525323e-03
-3.088667420970541214e-03
-3.403724789315137455e-03
-3.722560580343045513e-03
-4.043802850542768147e-03
-4.365860253145991202e-03
-4.686924703513770107e-03
-5.004978408651620560e-03
-5.317805339618762034e-03
-5.623007315763262071e-03
-5.918024459390255031e-03
-6.200160044921910509e-03
-6.466609301111327611e-03
-6.714491989625741980e-03
-6.940888176548999471e-03
-7.142876779215586412e-03
-7.317576460542245080e-03
-7.462187965158966971e-03
-7.574037447686242722e-03
-7.650619956361522089e-03
-7.689642346995450607e-03
-7.689064865097205471e-03
-7.647140614178542413e-03
-7.562452140307040181e-03
-7.433944442381909372e-03
-7.260953678372488937e-03
-7.043230941013559759e-03
-6.780960496580073875e-03
-6.474772043265189340e-03
-6.125746573494334109e-03
-5.735415517879466525e-03
-5.305753039550606572e-03
-4.839161314288986139e-03
-4.338448944717512509e-03
-3.806802543847835011e-03
-3.247751938713057916e-03
-2.665129309354095314e-03
-2.063022716070346974e-03
-1.445724850792717972e-03
-8.176775659228815258e-04
-1.834131300087496973e-04
4.525069493897493052e-04
1.085554562386223170e-03
1.711298012264851447e-03
2.325464470766280302e-03
2.924000748651308431e-03
3.503131324016284329e-03
4.059412687943671737e-03
4.589782942370936210e-03
5.091605765418763876e-03
5.562707867257606076e-03
6.001409316958252263e-03
6.406546053458167522e-03
6.777484086393122976e-03
7.114125017941535199e-03
7.416902744676968050e-03
7.686771247749368124e-03
7.925183518750716569e-03
8.134062125374227556e-03
8.315761519794965390e-03
8.473022881256278213e-03
8.608922186168181320e-03
8.726812272833473286e-03
8.830259997469790817e-03
8.922979463244055248e-03
9.008762592697736396e-03
9.091408176900066251e-03
9.174650737406328180e-03
9.262090469531133324e-03
9.357125648356515168e-03
9.462888618306658506e-03
9.582186783895694365e-03
9.717449554822643956e-03
9.870682425922162537e-03
1.004342902911845026e-02
1.023674208141811016e-02
1.045116372665138085e-02
1.068671584331533711e-02
1.094290055421503864e-02
1.121871109115326649e-02
1.151265279889295001e-02
1.182277414550377340e-02
