2.240724532176102332e-02
2.100649987226118828e-02
1.957312492819905658e-02
1.810801494413707274e-02
1.661215195531630731e-02
1.508660851939371515e-02
1.353254991189278660e-02
1.195123550130782440e-02
1.034401920509256563e-02
8.712348989006421865e-03
7.057765367088396705e-03
5.381898796589940255e-03
3.686466028792212326e-03
1.973265372117021747e-03
2.441708317184654092e-04
-1.498874704955195864e-03
-3.253867300433314208e-03
-5.018750711918800594e-03
-6.791425906335980464e-03
-8.569761278334669941e-03
-1.035160338698787839e-02
-1.213478820703747449e-02
-1.391715267570844093e-02
-1.569654629479969726e-02
-1.747084277685497303e-02
-1.923795153370845903e-02
-2.099582879840827462e-02
-2.274248821165179499e-02
-2.447601084524874543e-02
-2.619455444143151818e-02
-2.789636170066957244e-02
-2.957976753558090241e-02
-3.124320526045883811e-02
-3.288521147267911560e-02
-3.450442975385996369e-02
-3.609961298528301110e-02
-3.766962436297814631e-02
-3.921343702614281390e-02
-4.073013239942435693e-02
-4.221889722589630689e-02
-4.367901936479318126e-02
-4.510988243719651208e-02
-4.651095942821370510e-02
-4.788180537434841982e-02
-4.922204922677873851e-02
-5.053138504905616002e-02
-5.180956275718569259e-02
-5.305637841173094921e-02
-5.427166446176542869e-02
-5.545527989142870484e-02
-5.660710054711708128e-02
-5.772700977047102999e-02
-5.881488955008377234e-02
-5.987061226609492748e-02
-6.089403324435655601e-02
-6.188498416646630307e-02
-6.284326752900318280e-02
-6.376865214669426296e-02
-6.466086985048713487e-02
-6.551961340349095331e-02
-6.634453568480661034e-02
-6.713525015988446032e-02
-6.789133251878944064e-02
-6.861232356146539091e-02
-6.929773327288238360e-02
-6.994704603870140203e-02
-7.055972675665488081e-02
-7.113522783026703100e-02
-7.167299703070574568e-02
-7.217248588878072413e-02
-7.263315856695833073e-02
-7.305450109694119898e-02
-7.343603075965210447e-02
-7.377730543374015626e-02
-7.407793280050067874e-02
-7.433757917299767259e-02
-7.455597792200183149e-02
-7.473293716487479366e-02
-7.486834675903250580e-02
-7.496218437850890592e-02
-7.501452055868698676e-02
-7.502552266988715690e-02
-7.499545774371491058e-02
-7.492469404154891710e-02
-7.481370142534332635e-02
-7.466305042172778628e-02
-7.447341002137412846e-02
-7.424554427619015073e-02
-7.398030776827123345e-02
-7.367863992867176859e-02
-7.334155830413913169e-02
-7.297015098334290462e-02
-7.256556820859237644e-02
-7.212901330754406537e-02
-7.166173312547481633e-02
-7.116500813146599269e-02
-7.064014222986984837e-02
-7.008845260504938113e-02
-6.951125967711566100e-02
-6.890987729510390791e-02
-6.828560339246225741e-02
-6.763971112246218442e-02
-6.697344078693666380e-02
-6.628799251688524685e-02
-6.558451989872063348e-02
-6.486412470301389233e-02
-6.412785260651486519e-02
-6.337669009805932396e-02
-6.261156254891761530e-02
-6.183333356556747901e-02
-6.104280547496506587e-02
-6.024072096973796808e-02
-5.942776598389310633e-02
-5.860457352044616541e-02
-5.777172853227440646e-02
-5.692977365151443564e-02
-5.607921566976632743e-02
-5.522053275482694673e-02
-5.435418211911165892e-02
-5.348060803835339577e-02
-5.260025009657728207e-02
-5.171355149498244735e-02
-5.082096726252069430e-02
-4.992297222670860624e-02
-4.902006853534925102e-02
-4.811279262165933657e-02
-4.720172152057439813e-02
-4.628747836796773957e-02
-4.537073695317161981e-02
-4.445222522097175277e-02
-4.353272774483182145e-02
-4.261308697957694180e-02
-4.169420328934923814e-02
-4.077703379204043743e-02
-3.986258996846248764e-02
-3.895193399872098894e-02
-3.804617391737508125e-02
-3.714645769405253151e-02
-3.625396617428562618e-02
-3.536990506070637058e-02
-3.449549608084687136e-02
-3.363196739207258146e-02
-3.278054335757885768e-02
-3.194243385313903782e-02
-3.111882326512520683e-02
-3.031085934991344794e-02
-2.951964209843131390e-02
-2.874621271336234504e-02
-2.799154294225809567e-02
-2.725652491648242887e-02
-2.654196160315075784e-02
-2.584855797656965617e-02
-2.517691319166570976e-02
-2.452751370319152316e-02
-2.390072758166930655e-02
-2.329680000758691666e-02
-2.271585007334770215e-02
-2.215786894375791627e-02
-2.162271936024033267e-02
-2.111013658179386812e-02
-2.061973073275578244e-02
-2.015099052617600958e-02
-1.970328832220907822e-02
-1.927588641047549983e-02
-1.886794456312123822e-02
-1.847852872496723309e-02
-1.810662068285967541e-02
-1.775112857370762451e-02
-1.741089819666480354e-02
-1.708472488591411195e-02
-1.677136593202246256e-02
-1.646955325185388286e-02
-1.617800624126677564e-02
-1.589544459860258580e-02
-1.562060097456906271e-02
-1.535223334217730544e-02
-1.508913686418034486e-02
-1.483015525077100230e-02
-1.457419126833248840e-02
-1.432021639524544768e-02
-1.406727956939403217e-02
-1.381451488003610298e-02
-1.356114809104257309e-02
-1.330650201225929384e-02
-1.305000051692085591e-02
-1.279117133946127555e-02
-1.252964762791731503e-02
-1.226516813561005607e-02
-1.199757614936133344e-02
-1.172681726780843911e-02
-1.145293590166982997e-02
-1.117607073436555076e-02
-1.089644909267752440e-02
-1.061438043865229469e-02
-1.033024903346986718e-02
-1.004450583535551958e-02
-9.757659752948065132e-03
-9.470268510597196904e-03
-9.182929179261988331e-03
-8.896268399589089826e-03
-8.610932552800321105e-03
-8.327578006963761575e-03
-8.046861568959456576e-03
-7.769431134933889836e-03
-7.495916792304541457e-03
-7.226922453072385372e-03
-6.963018088515616349e-03
-6.704732691174279842e-03
-6.452547950991515020e-03
-6.206892820508698623e-03
-5.968139009832635483e-03
-5.736597301803903447e-03
-5.512514920011701847e-03
-5.296073859021998599e-03
-5.087390111710258025e-03
-4.886513864725321177e-03
-4.693430643663483795e-03
-4.508063374395953997e-03
-4.330275191332007279e-03
-4.159873004640295656e-03
-3.996611837166901514e-03
-3.840199719323466546e-03
-3.690303167187878371e-03
-3.546553046311725754e-03
-3.408550801391631215e-03
-3.275874938953966895e-03
-3.148087646785977141e-03
-3.024741493063389658e-03
-2.905386055952620828e-03
-2.789574395857571509e-03
-2.676869288016540428e-03
-2.566849182365714497e-03
-2.459113738805613660e-03
-2.353288927869770421e-03
-2.249031520515553696e-03
-2.146033059706480960e-03
-2.044023234675494162e-03
-1.942772490251767079e-03
-1.842093966513742897e-03
-1.741844715082718287e-03
-1.641926281860220426e-03
-1.542284523046801286e-03
-1.442908704064329965e-03
-1.343829915752687383e-03
-1.245118936593096835e-03
-1.146883424907510669e-03
-1.049264489525939155e-03
-9.524329298048572583e-04
-8.565849375812367933e-04
-7.619374103457876969e-04
-6.687230190789147455e-04
-5.771850335866773006e-04
-4.875720002582459799e-04
-4.001322890356886499e-04
-3.151087445362266495e-04
-2.327333480952163572e-04
-1.532220312313200248e-04
-7.676970350930775787e-05
-3.545611385658943026e-06
6.631098699248275910e-05
1.326947556239388946e-04
1.955377314020152009e-04
2.548123272405857973e-04
3.105337139416053686e-04
3.627617116283243207e-04
4.116019983127264226e-04
4.572068299510217396e-04
4.997751005902337793e-04
5.395517684121663464e-04
5.768266879410630663e-04
6.119328748783099160e-04
6.452442085277006450e-04
6.771725641684930375e-04
7.081644481015287066e-04
7.386971693996667847e-04
7.692746505096166804e-04
8.004228367543832993e-04
8.326847965859692641e-04
8.666155467854254725e-04
9.027767484187185915e-04
9.417312230740070879e-04
9.840374234147603906e-04
1.030243871027818796e-03
1.080883700436857968e-03
1.136469305662642310e-03
1.197487154454346782e-03
1.264392858904112796e-03
1.337606525108373965e-03
1.417508434480555099e-03
1.504435151798760775e-03
1.598676022831509299e-03
1.700470162100116466e-03
1.810003962816905763e-03
1.927409038519577221e-03
2.052760832920164091e-03
2.186077756902200016e-03
2.327320815605832781e-03
2.476393856513017973e-03
2.633144402262214880e-03
2.797365038789804709e-03
2.968795271747997136e-03
3.147123967690985437e-03
3.331992257013119754e-03
3.522996914744268206e-03
3.719694113287661322e-03
3.921603577073906090e-03
4.128213084163430933e-03
4.338983280650293185e-03
4.553352624620208081e-03
4.770742568491179170e-03
4.990562902061187502e-03
5.212217154894601377e-03
5.435107931793438200e-03
5.658642246952017181e-03
5.882236768353707804e-03
6.105322910570721955e-03
6.327351664038801532e-03
6.547798226455732278e-03
6.766166311026822026e-03
6.981992038630068127e-03
7.194847501497530877e-03
7.404343948065524386e-03
7.610134373861682233e-03
7.811915725180353272e-03
8.009430629846270300e-03
8.202468519434430450e-03
8.390866247753363261e-03
8.574508202268358095e-03
8.753325945954864087e-03
8.927297263383334944e-03
9.096444757856807228e-03
9.260833948953129183e-03
9.420570957803497611e-03
9.575799737485148760e-03
9.726698953425264721e-03
9.873478504549414170e-03
1.001637583356837155e-02
1.015565189753264534e-02
1.029158701828586549e-02
1.042447651844402232e-02
1.055462641023230570e-02
1.068234897092746639e-02
1.080795838806666680e-02
1.093176646342080595e-02
1.105407844125740925e-02
1.117518909100244373e-02
1.129537903034092718e-02
1.141491128461197789e-02
1.153402819597768372e-02
1.165294869340062489e-02
1.177186600592038460e-02
1.189094572536928199e-02
1.201032433368030838e-02
1.213010811016614239e-02
1.225037260453288625e-02
1.237116249498971567e-02
1.249249191200289127e-02
1.261434515216933172e-02
1.273667782247240969e-02
1.285941839073443532e-02
1.298247002132241722e-02
1.310571274051393342e-02
1.322900583023309609e-02
1.335219049477472109e-02
1.347509266717421272e-02
1.359752590538722272e-02
1.371929435519866555e-02
1.384019573468042372e-02
1.396002416130564736e-02
1.407857298322299014e-02
1.419563741837556389e-02
1.431101696793735285e-02
1.442451756401457244e-02
1.453595339716485212e-02
1.464514840897940609e-02
1.475193743763642679e-02
1.485616702072437706e-02
1.495769572472974672e-02
1.505639409018125208e-02
1.515214414174200809e-02
1.524483848710415576e-02
1.533437905951556997e-02
1.542067545995711754e-02
1.550364301056430735e-02
1.558320041722655210e-02
1.565926722639411281e-02
1.573176110248676943e-02
1.580059490712104608e-02
1.586567370891680401e-02
1.592689180383828965e-02
1.598412972617554648e-02
1.603725136941812346e-02
1.608610129303783901e-02
1.613050224874050531e-02
1.617025304263639690e-02
1.620512675426894270e-02
1.623486937251705439e-02
1.625919889126136580e-02
1.627780493119012836e-02
1.629034888343423859e-02
1.629646467011757263e-02
1.629576011769033606e-02
1.628781886834408318e-02
1.627220298560050002e-02
1.624845608414960188e-02
1.621610705939360852e-02
1.617467434843790700e-02
1.612367073068130680e-02
1.606260853558685170e-02
1.599100521835897237e-02
1.590838929909048696e-02
1.581430651350224439e-02
1.570832612895298186e-02
1.559004729728614459e-02
1.545910539437976919e-02
1.531517823639973706e-02
1.515799206477260429e-02
1.498732728110490839e-02
1.480302367165203282e-02
1.460498522993458094e-02
1.439318426713837203e-02
1.416766496012961292e-02
1.392854611389046995e-02
1.367602314183520747e-02
1.341036914884108366e-02
1.313193516947028065e-02
1.284114943833412729e-02
1.253851575093429226e-02
1.222461082635096716e-02
1.190008080087576366e-02
1.156563677370434085e-02
1.122204948591903721e-02
1.087014318928872583e-02
1.051078872778704772e-02
1.014489601222530284e-02
9.773405880089633749e-03
9.397281424563959026e-03
9.017499024140118724e-03
8.635039061654289916e-03
8.250876500595073076e-03
7.865971458982701919e-03
7.481259901366990248e-03
7.097644563882381068e-03
6.715986261010865876e-03
6.337095642892131946e-03
5.961725592640814211e-03
5.590564322227834816e-03
5.224229293023771419e-03
4.863262108677554943e-03
4.508124306064031396e-03
4.159194286850661018e-03
3.816765268297278232e-03
3.481044459579780027e-03
3.152153362170125907e-03
2.830129238163562894e-03
2.514927751431228140e-03
2.206426704165209696e-03
1.904430894405917092e-03
1.608677934153167777e-03
1.318845057292337888e-03
1.034556714234157338e-03
7.553929695128674699e-04
4.808984029330875599e-04
2.105916233860209621e-04
-5.602494620634835805e-05
-3.194550440733022554e-04
-5.801984987275065351e-04
-8.387412549370080799e-04
-1.095545603366417878e-03
-1.351040839062729202e-03
-1.605614393753499857e-03
-1.859603654805247822e-03
-2.113288590719351965e-03
-2.366885260192619182e-03
-2.620540351686328692e-03
-2.874326779794565256e-03
-3.128240517515788483e-03
-3.382198604445064635e-03
-3.636038470702179348e-03
-3.889518504817759872e-03
-4.142319949766663095e-03
-4.394050118814997810e-03
-4.644246765677432359e-03
-4.892383689568377374e-03
-5.137877423670543856e-03
-5.380094957525156582e-03
-5.618362390470849239e-03
-5.851974357648324389e-03
-6.080204110177285341e-03
-6.302314136218365413e-03
-6.517567101582358996e-03
-6.725237024690295176e-03
-6.924620467455755782e-03
-7.115047570860217815e-03
-7.295892818037966361e-03
-7.466585311138475636e-03
-7.626618407884650473e-03
-7.775558631046734087e-03
-7.913053559515867419e-03
-8.038838737161855402e-03
-8.152743392273269912e-03
-8.254694922190976281e-03
-8.344722002708485076e-03
-8.422956230754183662e-03
-8.489632389605299839e-03
-8.545087202467835721e-03
-8.589756588741103219e-03
-8.624171515639956001e-03
-8.648952351605522157e-03
-8.664801913983841489e-03
-8.672497241073244198e-03
-8.672880193987599420e-03
-8.666847014935034205e-03
-8.655336972404344131e-03
-8.639320263486930870e-03
-8.619785324123684089e-03
-8.597725712977117088e-03
-8.574126764601504996e-03
-8.549952192842923474e-03
-8.526130899283149503e-03
-8.503544096784321910e-03
-8.483012953709461942e-03
-8.465286977230177673e-03
-8.451033285710791987e-03
-8.440826904526839078e-03
-8.435142319277178988e-03
-8.434346354821093197e-03
-8.438692495747742578e-03
-8.448316777104322717e-03
-8.463235336410005263e-03
-8.483343558034241172e-03
-8.508417086018056283e-03
-8.538114417525674918e-03
-8.571981265374261846e-03
-8.609456593679322423e-03
-8.649880193237344944e-03
-8.692501793224966661e-03
-8.736491571276943160e-03
-8.780951859972147694e-03
-8.824930027695208901e-03
-8.867432250308303343e-03
-8.907438009301384477e-03
-8.943915126388870054e-03
-8.975835178206378190e-03
-9.002188964233723625e-03
-9.022001905307615310e-03
-9.034349117675019580e-03
-9.038369954084177205e-03
-9.033281774348639673e-03
-9.018392785993752797e-03
-8.993113716441788336e-03
-8.956968178027178984e-03
-8.909601545041813397e-03
-8.850788224460653247e-03
-8.780437194434973641e-03
-8.698595663299609621e-03
-8.605450879311494009e-03
-8.501330010220187194e-03
-8.386698055573430996e-03
-8.262153828055269697e-03
-8.128424039781948982e-03
-7.986355611712587371e-03
-7.836906203778687754e-03
-7.681133179346124468e-03
-7.520181153625184536e-03
-7.355268150375807168e-03
-7.187670800477423232e-03
-7.018708567333237919e-03
-6.849727393839535536e-03
-6.682082854734366396e-03
-6.517123195429542874e-03
-6.356172347458577745e-03
-6.200513294104897932e-03
-6.051371971821374943e-03
-5.909901942779143338e-03
-5.777170060560340471e-03
-5.654143395688905616e-03
-5.541677482277390827e-03
-5.440506169850193273e-03
-5.351233243357325121e-03
-5.274325867681320737e-03
-5.210109972892036992e-03
-5.158767606875626875e-03
-5.120336429778838024e-03
-5.094711196453939085e-03
-5.081647284759535296e-03
-5.080766167168924985e-03
-5.091562819771733132e-03
-5.113414817399604753e-03
-5.145593127248589659e-03
-5.187274304690445148e-03
-5.237553945369093598e-03
-5.295461184697065372e-03
-5.359974043269615310e-03
-5.430035234240445340e-03
-5.504568344496840390e-03
-5.582494044144984888e-03
-5.662746101490536213e-03
-5.744286893745571831e-03
-5.826122218081461294e-03
-5.907315145698979579e-03
-5.986998657823696876e-03
-6.064386857291183958e-03
-6.138784655651971511e-03
-6.209595679394763583e-03
-6.276328294344721628e-03
-6.338599697747701947e-03
-6.396137941640734660e-03
-6.448781873454068406e-03
-6.496478995121963106e-03
-6.539281280883236028e-03
-6.577339081589724315e-03
-6.610893103353747934e-03
-6.640264730354457356e-03
-6.665844734199849117e-03
-6.688080634187866177e-03
-6.707462940882927965e-03
-6.724510525534106199e-03
-6.739755284482385617e-03
-6.753726500582262100e-03
-6.766935078427227350e-03
-6.779858079870636732e-03
-6.792923661299765138e-03
-6.806496810391689939e-03
-6.820866171704479709e-03
-6.836232164477823101e-03
-6.852696564341753151e-03
-6.870253885878445030e-03
-6.888784781953172578e-03
-6.908051427855004152e-03
-6.927695190988264473e-03
-6.947236541847474738e-03
-6.966077373453507908e-03
-6.983505640039394842e-03
-6.998702350283601478e-03
-7.010750754100895064e-03
-7.018647717028615556e-03
-7.021317039622997601e-03
-7.017624611914605008e-03
-7.006395128889328361e-03
-6.986430081311619834e-03
-6.956526865842809111e-03
-6.915498633739472316e-03
-6.862194569618338021e-03
-6.795520304663459597e-03
-6.714458083553869958e-03
-6.618086374223829463e-03
-6.505598533852251925e-03
-6.376320362441551155e-03
-6.229726013665577884e-03
-6.065452141259838718e-03
-5.883309969753369381e-03
-5.683295089386052913e-03
-5.465594687957858917e-03
-5.230592128738831281e-03
-4.978868717753660335e-03
-4.711202629028131937e-03
-4.428564894907702915e-03
-4.132112525651698669e-03
-3.823178816775770275e-03
-3.503260895379102253e-03
-3.174004634003137117e-03
-2.837187220622826994e-03
-2.494697617262197666e-03
-2.148515052035587358e-03
-1.800685913796756582e-03
-1.453299372757468249e-03
-1.108462139008450096e-03
-7.682726262697144384e-04
-4.347948646750807340e-04
-1.100327175281305187e-04
2.040953515055760872e-04
5.057805729312236757e-04
7.933468572745315311e-04
1.065272074586587911e-03
1.320207398424006785e-03
1.556994289932560945e-03
1.774679100781063543e-03
1.972524820262701317e-03
2.150019902732787803e-03
2.306884086779277705e-03
2.443071062935655603e-03
2.558767922166573557e-03
2.654391522757040649e-03
2.730581708791310520e-03
2.788191557518233596e-03
2.828274756184715952e-03
2.852070407715564821e-03
2.860985400298679537e-03
2.856574665686629697e-03
2.840519576828900734e-03
2.814604874872942385e-03
2.780694501227322889e-03
2.740706609472071207e-03
2.696588184114417485e-03
2.650289664950562177e-03
2.603739975707724565e-03
2.558822164832713977e-03
2.517350233771848897e-03
2.481047375391992778e-03
2.451525860717546253e-03
2.430269014950888710e-03
2.418615299190154683e-03
2.417744903586134617e-03
2.428668876998634450e-03
2.452220957282187728e-03
2.489052237318887910e-03
2.539628499864929768e-03
2.604230404784865695e-03
2.682956322864042155e-03
2.775727789050549694e-03
2.882297396512831060e-03
3.002258853514081297e-03
3.135059133214971976e-03
3.280012336835337952e-03
3.436315081776527940e-03
3.603063032758068492e-03
3.779268313291835740e-03
3.963877522411562125e-03
4.155789961055409744e-03
4.353875724461661774e-03
4.556993410416296068e-03
4.764007181264645445e-03
4.973802841394740597e-03
5.185302688354613034e-03
5.397478887186765717e-03
5.609365217438400456e-03
5.820067078525341560e-03
6.028769494007716473e-03
6.234743189399918548e-03
6.437348589259307002e-03
6.636037774087557954e-03
6.830354461602437983e-03
7.019932027223035019e-03
7.204489755572292785e-03
7.383827436298528481e-03
7.557818391293976389e-03
7.726401250694018424e-03
7.889570664832401201e-03
8.047367160816594131e-03
8.199866432299914715e-03
8.347168354670444351e-03
8.489385885544591115e-03
8.626634183002896902e-03
8.759020235636580734e-03
8.886633076495887434e-03
9.009534969068045893e-03
9.127753655819234591e-03
9.241275869644707125e-03
9.350042262899678838e-03
9.453943865139674552e-03
9.552820080892603441e-03
9.646458320236524914e-03
9.734595293065830685e-03
9.816919846535829622e-03
9.893077330088274543e-03
9.962675398146826969e-03
1.002529108813193619e-02
1.008047899907421607e-02
1.012778035905490329e-02
1.016673290681978543e-02
1.019688119817083877e-02
1.021778721906320929e-02
1.022904095648678215e-02
1.023027072574254209e-02
1.022115303015192454e-02
1.020142173874533098e-02
1.017087630182496143e-02
1.012938875234311448e-02
1.007690939612284654e-02
1.001347093865591689e-02
9.939191085279146590e-03
9.854273302167699047e-03
9.759005827803167443e-03
9.653758826351166444e-03
9.538979720495570705e-03
9.415186768802501563e-03
9.282960925955031223e-03
9.142936157599668504e-03
8.995788304273312497e-03
8.842222733712113911e-03
8.682960967620464640e-03
8.518726527529144402e-03
8.350230277314208208e-03
8.178155531037772236e-03
8.003143158383671518e-03
7.825777048204045697e-03
7.646570261832368390e-03
7.465952052019703307e-03
7.284256067356153011e-03
7.101710120859281578e-03
6.918427604514101534e-03
6.734400854308771056e-03
6.549496599628593443e-03
6.363453775831890737e-03
6.175883691891745353e-03
5.986272649528894159e-03
5.793987088175432676e-03
5.598281280715194236e-03
5.398307457801448418e-03
5.193128309993333067e-03
4.981731719022436736e-03
4.763047545727183349e-03
4.535966317195647135e-03
4.299359443234468219e-03
4.052100754427406283e-03
3.793089057499331607e-03
3.521271363983671625e-03
3.235666420182050935e-03
2.935388177425161081e-03
2.619668843387041104e-03
2.287881128922809783e-03
1.939559282065698477e-03
1.574418665724344312e-03
1.192373412926837515e-03
7.935518056511474448e-04
3.783092357980506943e-04
-5.276163135676421731e-05
-4.988236549488260941e-04
-9.587912665378989186e-04
-1.431329806280270478e-03
-1.914858354166299771e-03
-2.407556019454510851e-03
-2.907371702219704868e-03
-3.412037343734225688e-03
-3.919084452596044606e-03
-4.425863906457123270e-03
-4.929568776512745221e-03
-5.427259847995144840e-03
-5.915893665633862458e-03
-6.392352759588318910e-03
-6.853477663235883928e-03
-7.296100398015697465e-03
-7.717078952373689939e-03
-8.113332313736535892e-03
-8.481875728782889770e-03
-8.819855644012969398e-03
-9.124583759017810755e-03
-9.393570026424644115e-03
-9.624553963690525918e-03
-9.815533899640354817e-03
-9.964793680312044113e-03
-1.007092661373035734e-02
-1.013285618328303717e-02
-1.014985327791465865e-02
-1.012154968562701228e-02
-1.004794757044701406e-02
-9.929424942689167241e-03
-9.766736690708707064e-03
-9.561011387547193457e-03
-9.313743827944127515e-03
-9.026783206871230245e-03
-8.702317122303987462e-03
-8.342851596500638900e-03
-7.951187240080478252e-03
-7.530391856040912629e-03
-7.083769848180075830e-03
-6.614828651400014338e-03
-6.127242688039863557e-03
-5.624815201055433610e-03
-5.111438475214857315e-03
-4.591052909377745829e-03
-4.067605410468945470e-03
-3.545007661764416028e-03
-3.027094731777189764e-03
-2.517584599492533534e-03
-2.020039040983781856e-03
-1.537826494993123480e-03
-1.074087249925269978e-03
-6.317014813240008674e-04
-2.132605199881681664e-04
1.789582444162572835e-04
5.430124903664043266e-04
8.773118149799177291e-04
1.180630154603847523e-03
1.452113449242819695e-03
1.691282557911719759e-03
1.898031370391939886e-03
2.072620044791864506e-03
2.215663468052920734e-03
2.328115122117304942e-03
2.411246520102354983e-03
2.466622494924680144e-03
2.496072643509820305e-03
2.501659355877366899e-03
2.485642799212432492e-03
2.450443405501585067e-03
2.398602333727566094e-03
2.332740490814305245e-03
2.255516711968462429e-03
2.169585640468809848e-03
2.077556016727020310e-03
1.981949927743749656e-03
1.885163601620772110e-03
1.789430515526042485e-03
1.696787166938893863e-03
1.609042180239358358e-03
1.527749264522096622e-03
1.454184406781112342e-03
1.389327728820955723e-03
1.333850321826063117e-03
1.288106371547603898e-03
1.252130656358945446e-03
1.225641651662118985e-03
1.208050121425814508e-03
1.198473265367364614e-03
1.195754100632504978e-03
1.198486059700075955e-03
1.205042218016123302e-03
1.213609027088022839e-03
1.222223796870090676e-03
1.228815530102865322e-03
1.231248428586286577e-03
1.227367506876655707e-03
1.215045482698210279e-03
1.192230128797793463e-03
1.156991418616838902e-03
1.107567675847953180e-03
1.042409820085773379e-03
9.602229931766856916e-04
8.600048638979897533e-04
7.410797661985178914e-04
6.031280635302425659e-04
4.462101637999521704e-04
2.707845794900822097e-04
7.771962093684705762e-05
-1.317015559057910094e-04
-3.557829218769486017e-04
-5.924246094384900485e-04
-8.391391340399750052e-04
-1.093074621337815269e-03
-1.351044822913257965e-03
-1.609565616268293859e-03
-1.864897598097562054e-03
-2.113094077711269968e-03
-2.350053957910691691e-03
-2.571578629117552903e-03
-2.773432169962702486e-03
-2.951403699126352743e-03
-3.101371096205242459e-03
-3.219365004851157744e-03
-3.301632078391396330e-03
-3.344696400806662900e-03
-3.345417995136777504e-03
-3.301047420090085643e-03
-3.209275431046610446e-03
-3.068276832948069882e-03
-2.876747646927736018e-03
-2.633934763654949707e-03
-2.339657540224200204e-03
-1.994320760387984729e-03
-1.598918613715283625e-03
-1.155029324691309771e-03
-6.648005337394902181e-04
-1.309252914677476942e-04
4.433909524039153852e-04
1.054472055690298601e-03
1.698221041189364611e-03
2.370177420860638227e-03
3.065581126370991744e-03
3.779442107165189961e-03
4.506614508931410835e-03
5.241874321685394134e-03
5.979999120403237459e-03
6.715848672703321823e-03
7.444445017167254652e-03
8.161050661925709979e-03
8.861243502093456639e-03
9.540987199773864891e-03
1.019669572992031731e-02
1.082529078282414362e-02
1.142425106462759653e-02
1.199165246073205689e-02
1.252619826654154805e-02
1.302723887768738459e-02
1.349478035086493395e-02
1.392948155042496999e-02
1.433263982863739253e-02
1.470616538652090750e-02
1.505254445631056849e-02
1.537479199460495619e-02
1.567639451978729628e-02
1.596124397746204529e-02
1.623356373478900341e-02
1.649782794935439334e-02
1.675867567396921443e-02
1.702082118574963290e-02
1.728896207717610031e-02
1.756768684103260370e-02
1.786138362634696886e-02
1.817415179698668795e-02
1.850971802849796927e-02
1.887135854624556741e-02
1.926182904018338554e-02
1.968330358358756638e-02
2.013732395247163492e-02
2.062476034044307543e-02
2.114578442599149982e-02
2.169985545678853114e-02
2.228571982586078845e-02
2.290142436372750653e-02
2.354434327311526534e-02
2.421121841645355877e-02
2.489821247673158419e-02
2.560097406528371797e-02
2.631471386116294997e-02
2.703429045091815947e-02
2.775430446373159526e-02
2.846919927603340852e-02
2.917336658080059431e-02
2.986125486031262349e-02
3.052747871850275407e-02
3.116692706184823539e-02
3.177486804658485181e-02
3.234704881030990575e-02
3.287978799298874738e-02
3.337005906804928201e-02
3.381556294412554203e-02
3.421478815719314337e-02
3.456705739189686738e-02
3.487255921699158184e-02
3.513236433499666161e-02
3.534842563153221123e-02
3.552356197066098425e-02
3.566142577615345755e-02
3.576645480166259355e-02
3.584380885697496105e-02
3.589929259489257202e-02
3.593926567058879085e-02
3.597054194885152684e-02
3.600027953610858422e-02
3.603586389406941010e-02
3.608478626186896465e-02
3.615451981201872611e-02
3.625239610343725799e-02
3.638548436961949045e-02
3.656047625734044210e-02
3.678357859271643576e-02
3.706041649114676095e-02
3.739594910905866959e-02
3.779440015688863980e-02
3.825920489908929412e-02
3.879297514657577967e-02
3.939748342252821084e-02
4.007366709591340947e-02
4.082165285575286434e-02
4.164080141441411920e-02
4.252977211343946656e-02
4.348660639033801595e-02
4.450882873027934422e-02
4.559356346860359011e-02
4.673766509415238496e-02
4.793785957581059298e-02
4.919089375830298927e-02
5.049368958743490760e-02
5.184349975756360335e-02
5.323806111068074554e-02
5.467574204299886775e-02
5.615568000997919751e-02
5.767790537935389011e-02
5.924344789365782599e-02
6.085442215298548368e-02
6.251408883916695358e-02
6.422688870352709356e-02
6.599844655475588240e-02
6.783554320923892988e-02
6.974605366858321887e-02
7.173885041198191370e-02
7.382367130748951345e-02
7.601095235076424372e-02
7.831162594451954173e-02
8.073688622614881572e-02
8.329792365471035132e-02
8.600563173250036497e-02
8.887028930506166158e-02
9.190122262263515640e-02
9.510645181179536167e-02
9.849232714335992567e-02
1.020631605958531724e-01
1.058208589315516174e-01
1.097645645700118244e-01
1.138903108471028131e-01
1.181906983334336247e-01
1.226545987687530509e-01
1.272668932217793092e-01
1.320082507744878841e-01
1.368549535865546118e-01
1.417787740142320563e-01
1.467469085683290875e-01
1.517219730357177443e-01
1.566620623826936731e-01
1.615208780746192341e-01
1.662479246661779375e-01
1.707887764932048136e-01
1.750854143049125067e-01
1.790766306212071002e-01
1.826985015492523512e-01
1.858849217035628276e-01
1.885681979650964679e-01
1.906796965146420886e-01
1.921505369499058036e-01
1.929123261538037426e-01
1.928979239580264071e-01
1.920422316245254113e-01
1.902829938773826779e-01
1.875616045071268334e-01
1.838239053747057206e-01
1.790209681966295485e-01
1.731098486384095858e-01
1.660543021358381055e-01
1.578254511826084616e-01
1.484023941711876404e-01
1.377727464194292151e-01
1.259331045981008923e-01
1.128894266838228466e-01
9.865732046116436338e-02
8.326223462332077441e-02
6.673954761133354951e-02
4.913455080209868514e-02
3.050232366692877395e-02
1.090750013820760908e-02
-9.576073251016614662e-03
-3.086578562711235485e-02
-5.287081292324497667e-02
-7.549276716781098961e-02
-9.862643795098219313e-02
-1.221606185211082524e-01
-1.459790080081815600e-01
-1.699611801491677232e-01
-1.939836079284108505e-01
-2.179207325371917137e-01
-2.416460647176970067e-01
-2.650333055927367454e-01
-2.879574742281350019e-01
-3.102960285969552645e-01
-3.319299666807578597e-01
-3.527448948216940772e-01
-3.726320505585108966e-01
-3.914892678244868418e-01
-4.092218730884374933e-01
-4.257435017639794039e-01
-4.409768253657639359e-01
-4.548541809384054613e-01
-4.673180955558918215e-01
-4.783216998844684320e-01
-4.878290265219399902e-01
-4.958151901228258218e-01
-5.022664478425591383e-01
-5.071801402576577855e-01
-5.105645143610617609e-01
-5.124384318953839612e-01
-5.128309675900762921e-01
-5.117809033458916579e-01
-5.093361257287229993e-01
-5.055529352108468766e-01
-5.004952768789330264e-01
-4.942339031334323507e-01
-4.868454796479342872e-01
-4.784116465146633357e-01
-4.690180470335474916e-01
-4.587533367754268454e-01
-4.477081857221825167e-01
-4.359742860284673838e-01
-4.236433779748571826e-01
-4.108063059877408718e-01
-3.975521161595979014e-01
-3.839672059821025440e-01
-3.701345358393657858e-01
-3.561329111978258077e-01
-3.420363429437399128e-01
-3.279134923569089755e-01
-3.138272057842357854e-01
-2.998341428009570486e-01
-2.859845001669201192e-01
-2.723218326028617464e-01
-2.588829699932383432e-01
-2.456980291695557428e-01
-2.327905172789004606e-01
-2.201775225009304782e-01
-2.078699865372929667e-01
-1.958730523527169864e-01
-1.841864798216862331e-01
-1.728051209659854093e-01
-1.617194458761546938e-01
-1.509161097605888902e-01
-1.403785514413184721e-01
-1.300876131599068286e-01
-1.200221716240450764e-01
-1.101597701642645366e-01
-1.004772424008019138e-01
-9.095131784216226034e-02
-8.155920064627494859e-02
-7.227911332721595472e-02
-6.309079781265361508e-02
-5.397596729893171935e-02
-4.491870337510795591e-02
-3.590579346144939787e-02
-2.692700514794639857e-02
-1.797529486237934779e-02
-9.046949448113435557e-03
-1.416602981178528820e-04
8.737469172040700574e-03
1.758398078480796073e-02
2.638818094614478471e-02
3.513731825608844284e-02
4.381581484309833574e-02
5.240554600885193037e-02
6.088616229319493423e-02
6.923544735161898944e-02
7.742970480096247887e-02
8.544416663511497645e-02
9.325341592024030679e-02
1.008318162891980313e-01
1.081539407596289054e-01
1.151949926865159929e-01
1.219312118940931028e-01
1.283402596080699398e-01
1.344015760823101258e-01
1.400967055988235066e-01
1.454095839614660268e-01
1.503267846231728655e-01
1.548377201125735181e-01
1.589347964270072244e-01
1.626135187257816417e-01
1.658725476461080650e-01
1.687137062794860365e-01
1.711419387747213638e-01
1.731652221515238566e-01
1.747944338159874433e-01
1.760431778999890506e-01
1.769275740175916545e-01
1.774660127759676853e-01
1.776788825751642598e-01
1.775882728946345246e-01
1.772176593075948658e-01
1.765915756737340137e-01
1.757352790827492184e-01
1.746744131316562976e-01
1.734346748743994526e-01
1.720414907639342128e-01
1.705197064959036723e-01
1.688932952986677005e-01
1.671850889387367090e-01
1.654165350128610212e-01
1.636074837610684285e-01
1.617760069592525940e-01
1.599382507692514443e-01
1.581083239941406815e-01
1.562982223403057702e-01
1.545177889505884583e-01
1.527747105034484576e-01
1.510745479074953879e-01
1.494207999098598749e-01
1.478149974536703271e-01
1.462568261216557197e-01
1.447442737281562086e-01
1.432737995947866716e-01
1.418405220105968256e-01
1.404384199435294855e-01
1.390605451186180397e-01
1.376992404322687213e-01
1.363463606283098484e-01
1.349934913245916801e-01
1.336321627458791073e-01
1.322540544897887471e-01
1.308511879870764283e-01
1.294161038225272453e-01
1.279420211272331576e-01
1.264229769486423793e-01
1.248539437222703635e-01
1.232309235109645407e-01
1.215510181787683858e-01
1.198124749383661369e-01
1.180147073579028566e-01
1.161582922524064948e-01
1.142449434066238612e-01
1.122774632362043695e-01
1.102596742704793631e-01
1.081963321240154291e-01
1.060930223585974802e-01
1.039560437190105574e-01
1.017922802666067772e-01
9.960906515417110307e-02
9.741403911702316287e-02
9.521500619792290510e-02
9.301978975702430985e-02
9.083609145121146478e-02
8.867135582286402029e-02
8.653264278624595018e-02
8.442651040091156411e-02
8.235890982569202268e-02
8.033509422905678321e-02
7.835954287118164496e-02
7.643590151802144572e-02
7.456694000732908001e-02
7.275452728205258901e-02
7.099962389413365382e-02
6.930229176057918494e-02
6.766172069560145996e-02
6.607627069289873090e-02
6.454352881172027712e-02
6.306037942299806687e-02
6.162308595465835342e-02
6.022738256890502323e-02
5.886857370013950236e-02
5.754163949759366625e-02
5.624134500094667838e-02
5.496235090493720166e-02
5.369932393232488416e-02
5.244704458863205104e-02
5.120051042512967221e-02
4.995503300241275341e-02
4.870632675591524130e-02
4.745058841813917100e-02
4.618456560230892877e-02
4.490561348137757369e-02
4.361173874291884162e-02
4.230163030011269837e-02
4.097467640944978118e-02
3.963096804183432326e-02
3.827128883663737102e-02
3.689709206086747018e-02
3.551046517558762577e-02
3.411408286145557051e-02
3.271114964472852937e-02
3.130533336197788979e-02
2.990069082391292460e-02
2.850158716386752555e-02
2.711261047814603545e-02
2.573848349245352538e-02
2.438397370561941682e-02
2.305380383977254435e-02
2.175256422810274357e-02
2.048462862062570139e-02
1.925407496117272077e-02
1.806461242432565520e-02
1.691951592952683006e-02
1.582156927484050166e-02
1.477301773082950916e-02
1.377553083796495201e-02
1.283017586484302280e-02
1.193740226807058977e-02
1.109703725322257022e-02
1.030829239732374523e-02
9.569781045903457545e-03
8.879545894085892968e-03
8.235096379425731195e-03
7.633454823663229222e-03
7.071210597408984777e-03
6.544581091839854134e-03
6.049478388314295275e-03
5.581580478388251804e-03
5.136405635368098549e-03
4.709388583725189828e-03
4.295957248937309556e-03
3.891608660582072509e-03
3.491982816802924588e-03
3.092933209979270050e-03
2.690592893342580796e-03
2.281435039639018690e-03
1.862327049395505257e-03
1.430577354455418509e-03
9.839743415837041204e-04
5.208167420525784642e-04
3.993523589408173706e-05
-4.592950891760680322e-04
-9.769513649406107083e-04
-1.512568687937888888e-03
-2.065154675292702434e-03
-2.633212415592865469e-03
-3.214771384281521482e-03
-3.807425611590650651e-03
-4.408378508831059875e-03
-5.014493314099308270e-03
-5.622348371285641223e-03
-6.228296257178995467e-03
-6.828525768269120416e-03
-7.419125613325190487e-03
-7.996148856714986944e-03
-8.555677000691862613e-03
-9.093882747004473216e-03
-9.607090465482739580e-03
-1.009183337114800093e-02
-1.054490660698547376e-02
-1.096341547968537888e-02
-1.134481811935005198e-02
-1.168696204433022391e-02
-1.198811412343303226e-02
-1.224698362995609198e-02
-1.246273808876364846e-02
-1.263501180786508887e-02
-1.276390718405080033e-02
-1.284998876144826177e-02
-1.289427031251187683e-02
-1.289819529348592078e-02
-1.286361104963587229e-02
-1.279273732818966315e-02
-1.268812962101634537e-02
-1.255263803103997058e-02
-1.238936236774651478e-02
-1.220160414575213390e-02
-1.199281637506450886e-02
-1.176655184579607216e-02
-1.152641075536926796e-02
-1.127598847617005372e-02
-1.101882421776591119e-02
-1.075835127977070420e-02
-1.049784967841730851e-02
-1.024040176995105744e-02
-9.988851453488756943e-03
-9.745767496998469087e-03
-9.513411422418616842e-03
-9.293710331763330515e-03
-9.088234992679839960e-03
-8.898183430065867081e-03
-8.724370107794279100e-03
-8.567220686751369704e-03
-8.426772510979016820e-03
-8.302680523891750944e-03
-8.194228537312490956e-03
-8.100345514959778059e-03
-8.019626646423657843e-03
-7.950358699011705541e-03
-7.890549301970171264e-03
-7.837959676771392645e-03
-7.790140201947627976e-03
-7.744468405875302996e-03
-7.698188696150692553e-03
-7.648453226472563295e-03
-7.592363427222289206e-03
-7.527011519399199116e-03
-7.449521506012574470e-03
-7.357089058690822851e-03
-7.247019721239207624e-03
-7.116764959484005518e-03
-6.963955677513981521e-03
-6.786432737043537541e-03
-6.582273980495949653e-03
-6.349817794950166246e-03
-6.087682578614547410e-03
-5.794782128488301653e-03
-5.470336734029393813e-03
-5.113879962351900420e-03
-4.725261023705901522e-03
-4.304642847808277592e-03
-3.852495949834319321e-03
-3.369588111722629162e-03
-2.856970289829950747e-03
-2.315958810363120696e-03
-1.748114313089072077e-03
-1.155217638726215848e-03
-5.392430621935301793e-04
9.767067479317061889e-05
7.532511128440970514e-04
1.425124273174661763e-03
2.110847667272573031e-03
2.807943815150163759e-03
3.513933826878564651e-03
4.226370398826944687e-03
4.942870002811707714e-03
5.661143708312526245e-03
6.379026276472279412e-03
7.094503175843818940e-03
7.805735106426086971e-03
8.511079785178586599e-03
9.209110710025730437e-03
9.898632661887611650e-03
1.057869378114236272e-02
1.124859408715708949e-02
1.190789028809859269e-02
1.255639701375103369e-02
1.319418430478052143e-02
1.382157150167206972e-02
1.443911766659964659e-02
1.504760866693257391e-02
1.564804112607087044e-02
1.624160356481191628e-02
1.682965490133197031e-02
1.741370064041059679e-02
1.799536717921216070e-02
1.857637460288044315e-02
1.915850825711753677e-02
1.974358961774779278e-02
2.033344679944934161e-02
2.092988519014813559e-02
2.153465855549627564e-02
2.214944106318944908e-02
2.277580063049164036e-02
2.341517395492701686e-02
2.406884356944631945e-02
2.473791724184299864e-02
2.542331002182075111e-02
2.612572916837306580e-02
2.684566213201779877e-02
2.758336785678907124e-02
2.833887138301722369e-02
2.911196186646342748e-02
2.990219404939968573e-02
3.070889309659562486e-02
3.153116277281949736e-02
3.236789674935464795e-02
3.321779291673108286e-02
3.407937041897800973e-02
3.495098920439978357e-02
3.583087170857396364e-02
3.671712640147779816e-02
3.760777280663298722e-02
3.850076763453563061e-02
3.939403149302941887e-02
4.028547595827582789e-02
4.117303038672015525e-02
4.205466829147348068e-02
4.292843265889233206e-02
4.379245990534329919e-02
4.464500205791112342e-02
4.548444687335495562e-02
4.630933561130912146e-02
4.711837809889327794e-02
4.791046489195797259e-02
4.868467638545350556e-02
4.944028869155111389e-02
5.017677620957588375e-02
5.089381088109536794e-02
5.159125808307980787e-02
5.226916931239741770e-02
5.292777177587958820e-02
5.356745503086562249e-02
5.418875482400857535e-02
5.479233460611666190e-02
5.537896478549331897e-02
5.594950025297204532e-02
5.650485650160562423e-02
5.704598461224216766e-02
5.757384561710094523e-02
5.808938474929652152e-02
5.859350582132124424e-02
5.908704635891062762e-02
5.957075369426623884e-02
6.004526265166081761e-02
6.051107494940546200e-02
6.096854079749068622e-02
6.141784306994414050e-02
6.185898420234667988e-02
6.229177608360780133e-02
6.271583311333631117e-02
6.313056860620916422e-02
6.353519451732853041e-02
6.392872458708552530e-02
6.430998085296441014e-02
6.467760339168603101e-02
6.503006320749588065e-02
6.536567805724391444e-02
6.568263091769026285e-02
6.597899080548909334e-02
6.625273573745106559e-02
6.650177732639604711e-02
6.672398666311746274e-02
6.691722110132992951e-02
6.707935149149028831e-02
6.720828944366327717e-02
6.730201415725195480e-02
6.735859837686879181e-02
6.737623307669055039e-02
6.735325046302170771e-02
6.728814493290682930e-02
6.717959165110863606e-02
6.702646239823521757e-02
6.682783852757281928e-02
6.658302073704656932e-02
6.629153550012389928e-02
6.595313808097284791e-02
6.556781212179671470e-02
6.513576573112409007e-02
6.465742420764269971e-02
6.413341951181389389e-02
6.356457655987514388e-02
6.295189669733475268e-02
6.229653863258057672e-02
6.159979702092999165e-02
6.086307907881529505e-02
6.008787978095958549e-02
5.927575585063735164e-02
5.842829905744590518e-02
5.754710924217009554e-02
5.663376753539133002e-02
5.568981018911507708e-02
5.471670344288655924e-02
5.371581988099532329e-02
5.268841665921498302e-02
5.163561593865281796e-02
5.055838784387080981e-02
4.945753624284044553e-02
4.833368758504511670e-02
4.718728297726951931e-02
4.601857359006790438e-02
4.482761960817447516e-02
4.361429254074099954e-02
4.237828102260047386e-02
4.111909995514901467e-02
3.983610284237352334e-02
3.852849711516413006e-02
3.719536221095481182e-02
3.583567015234764841e-02
3.444830829924179494e-02
3.303210382222578068e-02
3.158584963419059505e-02
3.010833130825460446e-02
2.859835456461485084e-02
2.705477292812147327e-02
2.547651507064905424e-02
2.386261144664670805e-02
2.221221982619667537e-02
2.052464937934335085e-02
1.879938286784251997e-02
1.703609668930367027e-02
1.523467837906071660e-02
1.339524135741553684e-02
1.151813687028477827e-02
9.603962734161025985e-03
7.653568892358725458e-03
5.668059796194377387e-03
3.648793448080895306e-03
1.597377228898807112e-03
-4.843393255401541044e-04
-2.594274757250046234e-03
-4.730128697528558461e-03
-6.889397403004229176e-03
-9.069391583988914082e-03
-1.126725621210421767e-02
-1.347999204292700884e-02
-1.570447840278181920e-02
-1.793749690018603057e-02
-2.017575581628935216e-02
-2.241591465322586088e-02
-2.465460859690381951e-02
-2.688847242131705770e-02
-2.911416363765309198e-02
-3.132838447866278381e-02
-3.352790245748048237e-02
-3.570956927419548232e-02
-3.787033775108682859e-02
-4.000727676751360956e-02
-4.211758393917462706e-02
-4.419859602950802768e-02
-4.624779692590923197e-02
-4.826282331208869153e-02
-5.024146795971316110e-02
-5.218168070474614451e-02
-5.408156736032215806e-02
-5.593938657908772982e-02
-5.775354488534897163e-02
-5.952259010434417935e-02
-6.124520340292807785e-02
-6.292019020022454612e-02
-6.454647032068262791e-02
-6.612306744387051738e-02
-6.764909829059725932e-02
-6.912376179680629340e-02
-7.054632856832776522e-02
-7.191613079023809196e-02
-7.323255288511558436e-02
-7.449502314537857772e-02
-7.570300649777715607e-02
-7.685599856698212273e-02
-7.795352123386747878e-02
-7.899511962192752590e-02
-7.998036076943852712e-02
-8.090883382472344176e-02
-8.178015182219770807e-02
-8.259395499508029315e-02
-8.334991557727021438e-02
-8.404774387537147784e-02
-8.468719549698823512e-02
-8.526807955851331555e-02
-8.579026768106461087e-02
-8.625370355125125399e-02
-8.665841275121398402e-02
-8.700451268536361915e-02
-8.729222231911788754e-02
-8.752187147726019079e-02
-8.769390946701521861e-02
-8.780891276205458895e-02
-8.786759156724793796e-02
-8.787079501151684457e-02
-8.781951480934742371e-02
-8.771488726662859947e-02
-8.755819352832472369e-02
-8.735085783463991671e-02
-8.709444396602492033e-02
-8.679064968298690064e-02
-8.644129920496874953e-02
-8.604833383184036510e-02
-8.561380079547599442e-02
-8.513984044584153865e-02
-8.462867196081329257e-02
-8.408257772106410288e-02
-8.350388661412606883e-02
-8.289495644540388619e-02
-8.225815576135543650e-02
-8.159584539426800731e-02
-8.091035987458899958e-02
-8.020398912511873812e-02
-7.947896067129003872e-02
-7.873742267051005161e-02
-7.798142793972481779e-02
-7.721291932936477642e-02
-7.643371658516780187e-02
-7.564550498857396110e-02
-7.484982590749977849e-02
-7.404806942583713747e-02
-7.324146913613106824e-02
-7.243109916527039338e-02
-7.161787344355588503e-02
-7.080254734847496456e-02
-6.998572153610502222e-02
-6.916784796871905394e-02
-6.834923801412375044e-02
-6.753007243237228729e-02
-6.671041312374699495e-02
-6.589021643186784849e-02
-6.506934770058865614e-02
-6.424759685706916967e-02
-6.342469486345882201e-02
-6.260033056794507555e-02
-6.177416783882023338e-02
-6.094586263673936605e-02
-6.011507963101665741e-02
-5.928150822212236576e-02
-5.844487766385592781e-02
-5.760497100318517916e-02
-5.676163757641570357e-02
-5.591480397763416710e-02
-5.506448320411916342e-02
-5.421078198108063989e-02
-5.335390598074733065e-02
-5.249416288934350555e-02
-5.163196345904101647e-02
-5.076782037406478432e-02
-4.990234505652824809e-02
-4.903624238998511436e-02
-4.817030356404864572e-02
-4.730539719654285741e-02
-4.644245879154980383e-02
-4.558247877723627106e-02
-4.472648937997934782e-02
-4.387555062957050611e-02
-4.303073562793340717e-02
-4.219311538100168485e-02
-4.136374346559767989e-02
-4.054364086796212463e-02
-3.973378122959289604e-02
-3.893507667496484692e-02
-3.814836462858712390e-02
-3.737439570292125368e-02
-3.661382292956436024e-02
-3.586719260556397310e-02
-3.513493673588057031e-02
-3.441736732784435315e-02
-3.371467259827225227e-02
-3.302691519731153214e-02
-3.235403241594553975e-02
-3.169583837162578965e-02
-3.105202814625078814e-02
-3.042218386742493244e-02
-2.980578256275593155e-02
-2.920220565641382104e-02
-2.861074996249316632e-02
-2.803063991905679897e-02
-2.746104100162221479e-02
-2.690107397807390763e-02
-2.634982980595746566e-02
-2.580638491326659942e-02
-2.526981660912174660e-02
-2.473921837513290770e-02
-2.421371480676927021e-02
-2.369247589959624922e-02
-2.317473055190649722e-02
-2.265977901977818398e-02
-2.214700408852796065e-02
-2.163588080423534468e-02
-2.112598466295741856e-02
-2.061699814564381394e-02
-2.010871539247630069e-02
-1.960104502894640874e-02
-1.909401111494493652e-02
-1.858775228865368334e-02
-1.808251894168961746e-02
-1.757866860595688058e-02
-1.707665963906261630e-02
-1.657704334292844223e-02
-1.608045450313941652e-02
-1.558760073976093834e-02
-1.509925067595382572e-02
-1.461622113145256800e-02
-1.413936365365829270e-02
-1.366955053203452661e-02
-1.320766039591718920e-02
-1.275456390443165111e-02
-1.231110949253915766e-02
-1.187810947274541701e-02
-1.145632676522486890e-02
-1.104646232341739871e-02
-1.064914357972131936e-02
-1.026491391766489597e-02
-9.894223445606382256e-03
-9.537421118229810410e-03
-9.194748370617532307e-03
-8.866334227883267832e-03
-8.552192063812174422e-03
-8.252217894118459018e-03
-7.966190389236616626e-03
-7.693772349181743180e-03
-7.434513815495641734e-03
-7.187856607897530337e-03
-6.953140256074451589e-03
-6.729609160609373135e-03
-6.516420853022309237e-03
-6.312655318664632358e-03
-6.117325152212485517e-03
-5.929386384481714727e-03
-5.747749790480806593e-03
-5.571292586460292046e-03
-5.398870283451942531e-03
-5.229328560741609497e-03
-5.061514997860466596e-03
-4.894290488637030936e-03
-4.726540165212023310e-03
-4.557183807129892676e-03
-4.385185557797668075e-03
-4.209562771490298755e-03
-4.029394017496443908e-03
-3.843826123253603778e-03
-3.652080207596793311e-03
-3.453456615493732951e-03
-3.247338848082632987e-03
-3.033196451132582402e-03
-2.810586814868711904e-03
-2.579155932572658062e-03
-2.338638260321908215e-03
-2.088855634243165938e-03
-1.829715335317076393e-03
-1.561207453959561784e-03
-1.283401550519293549e-03
-9.964427528603167841e-04
-7.005473930204510766e-04
-3.959982820348032797e-04
-8.313972663053107251e-05
2.376276558291785823e-04
5.658521519039625422e-04
9.010362100960507157e-04
1.242641522926054296e-03
1.590093992108918561e-03
1.942788458966570892e-03
2.300093060036900380e-03
2.661353284470142737e-03
3.025895681740956890e-03
3.393031114053883437e-03
3.762057666137939588e-03
4.132263118783958966e-03
4.502927035567374017e-03
4.873322444278338321e-03
5.242717179599109059e-03
5.610375000965327555e-03
5.975556391049029019e-03
6.337519163984475096e-03
6.695518976980248567e-03
7.048809758236361349e-03
7.396644016834878939e-03
7.738273361438730014e-03
8.072949119367766810e-03
8.399923084042977550e-03
8.718448514426508505e-03
9.027781375258881608e-03
9.327181947209500432e-03
9.615916835445574226e-03
9.893261362456013536e-03
1.015850232541028533e-02
1.041094125595697431e-02
1.064989804073269812e-02
1.087471501148408980e-02
1.108476143908706732e-02
1.127943833442688649e-02
1.145818357908536846e-02
1.162047742621415310e-02
1.176584804290993144e-02
1.189387730648967974e-02
1.200420664911543145e-02
1.209654284457094796e-02
1.217066368271182801e-02
1.222642351045161863e-02
1.226375843239098373e-02
1.228269114918313643e-02
1.228333525882392870e-02
1.226589910911334187e-02
1.223068894305456150e-02
1.217811129440444715e-02
1.210867457115265972e-02
1.202298982682521548e-02
1.192177060547124252e-02
1.180583180056643706e-02
1.167608747526213513e-02
1.153354772462656525e-02
1.137931444142532486e-02
1.121457609971264653e-02
1.104060154048625356e-02
1.085873277841965454e-02
1.067037681667557143e-02
1.047699666336123110e-02
1.028010146718900779e-02
1.008123600203426028e-02
9.881969514017778858e-03
9.683884053313121520e-03
9.488562373472711822e-03
9.297575578315609574e-03
9.112470608817143519e-03
8.934757673627533731e-03
8.765897826451783670e-03
8.607290791856693143e-03
8.460263174902817040e-03
8.326057173479095228e-03
8.205820058003441414e-03
8.100594310600707504e-03
8.011308687143555568e-03
7.938770270092468731e-03
7.883657685755669775e-03
7.846515468622956499e-03
7.827749661421253002e-03
7.827624770196011175e-03
7.846262105308436999e-03
7.883639449517854808e-03
7.939592116947639597e-03
8.013815430620473829e-03
8.105868605860870602e-03
8.215179864904137430e-03
8.341052851007111843e-03
8.482674223942712408e-03
8.639122354908830570e-03
8.809377016643166192e-03
8.992329987961634671e-03
9.186796354288012667e-03
9.391526403021172725e-03
9.605218029921128511e-03
9.826529461871907553e-03
1.005409218330524310e-02
1.028652382453350625e-02
1.052244086472627245e-02
1.076047115293317022e-02
1.099926586924068576e-02
1.123751102704871954e-02
1.147393812255227512e-02
1.170733404504744300e-02
1.193655005297097373e-02
1.216050965222555819e-02
1.237821538078353115e-02
1.258875452453912629e-02
1.279130348607029205e-02
1.298513100163151829e-02
1.316960008690178097e-02
1.334416872457200483e-02
1.350838938655770510e-02
1.366190738741811933e-02
1.380445818876879262e-02
1.393586368588633183e-02
1.405602755580645860e-02
1.416492983543402202e-02
1.426262078311626817e-02
1.434921424791508505e-02
1.442488062806750702e-02
1.448983950801754385e-02
1.454435222547324248e-02
1.458871435909767610e-02
1.462324844543954304e-02
1.464829693009618052e-02
1.466421559170955936e-02
1.467136741966253155e-02
1.467011709947912794e-02
1.466082629115663359e-02
1.464384969109721983e-02
1.461953188139062006e-02
1.458820511357139353e-02
1.455018795301936223e-02
1.450578484008563547e-02
1.445528657264057680e-02
1.439897160412821273e-02
1.433710812406878941e-02
1.426995686465507528e-02
1.419777450710965790e-02
1.412081763417797481e-02
1.403934704637822481e-02
1.395363240069025408e-02
1.386395693860903444e-02
1.377062216728260589e-02
1.367395247705028259e-02
1.357429939295534856e-02
1.347204535796782399e-02
1.336760697401944559e-02
1.326143748531041430e-02
1.315402850142801186e-02
1.304591074086221617e-02
1.293765375837389181e-02
1.282986459949202185e-02
1.272318529200736938e-02
1.261828920461351838e-02
1.251587620453087531e-02
1.241666670979214848e-02
1.232139464145887500e-02
1.223079936233643743e-02
1.214561662503039520e-02
1.206656871365606974e-02
1.199435392135072068e-02
1.192963545527230343e-02
1.187303000756781933e-02
1.182509611649777172e-02
1.178632253126444922e-02
1.175711681142624886e-02
1.173779434345417587e-02
1.172856802086462771e-02
1.172953868306182007e-02
1.174068667343291898e-02
1.176186453109773905e-02
1.179279112170353479e-02
1.183304729988770426e-02
1.188207327555390776e-02
1.193916778664213391e-02
1.200348914775287157e-02
1.207405829365208218e-02
1.214976372462961418e-02
1.222936849120828152e-02
1.231151911768583150e-02
1.239475637756808774e-02
1.247752789428268651e-02
1.255820234250595684e-02
1.263508523337758711e-02
1.270643597754686840e-02
1.277048605726200173e-02
1.282545802272494311e-02
1.286958516205575706e-02
1.290113162225405875e-02
1.291841243029607719e-02
1.291981346815011984e-02
1.290381087341823350e-02
1.286898971151346355e-02
1.281406159829438264e-02
1.273788101550922709e-02
1.263946006035947082e-02
1.251798139612053141e-02
1.237280925942635043e-02
1.220349820746262012e-02
1.200979965113492878e-02
1.179166590380897536e-02
1.154925172711336601e-02
1.128291330632457366e-02
1.099320472203977987e-02
1.068087187537638746e-02
1.034684401873371511e-02
9.992222877746866766e-03
9.618269696208088179e-03
9.226390270872747087e-03
8.818118189055200104e-03
8.395096608034322005e-03
7.959058670839333494e-03
7.511807018004117847e-03
7.055192642464075056e-03
6.591093377268259293e-03
6.121392374716215327e-03
5.647956902476674104e-03
5.172617708813099374e-03
4.697149301277831097e-03
4.223251472973513568e-03
3.752532295150973803e-03
3.286492913317206818e-03
2.826514191357984603e-03
2.373845532992300330e-03
1.929596054818424108e-03
1.494728077021494723e-03
1.070053201384029307e-03
6.562307940065287629e-04
2.537690180956062198e-04
-1.369717089557866553e-04
-5.157728375660298320e-04
-8.825495923703858669e-04
-1.237340867098652829e-03
-1.580297242139769862e-03
-1.911667388552542495e-03
-2.231783134885831008e-03
-2.541043425084856845e-03
-2.839897589307438432e-03
-3.128828063650688617e-03
-3.408333082754585672e-03
-3.678909569476965322e-03
-3.941036517068004924e-03
-4.195159236075719257e-03
-4.441674715809564890e-03
-4.680918408070229575e-03
-4.913152673682721211e-03
-5.138557152632519665e-03
-5.357221222765174914e-03
-5.569138663206447612e-03
-5.774204680312703536e-03
-5.972215333577542661e-03
-6.162869462213882259e-03
-6.345772978002850971e-03
-6.520445583014513116e-03
-6.686329717193327700e-03
-6.842801649620307118e-03
-6.989184469781312657e-03
-7.124762837376885476e-03
-7.248799197652529974e-03
-7.360551141640472687e-03
-7.459289619861607379e-03
-7.544317715347966663e-03
-7.614989576773315699e-03
-7.670729256988161049e-03
-7.711049019433971127e-03
-7.735566772367103577e-03
-7.744022319289885908e-03
-7.736292077646456621e-03
-7.712402054487144110e-03
-7.672538664891169480e-03
-7.617057245470380995e-03
-7.546488043029337539e-03
-7.461539454547905931e-03
-7.363098472615703730e-03
-7.252228219892288726e-03
-7.130162524136170882e-03
-6.998297568689110237e-03
-6.858180732688481246e-03
-6.711496644658651069e-03
-6.560050570727232397e-03
-6.405749562694657007e-03
-6.250581322569740729e-03
-6.096591300792435393e-03
-5.945858263180394190e-03
-5.800468573359162695e-03
-5.662489664489721644e-03
-5.533943106922454766e-03
-5.416777563857617071e-03
-5.312842171726993648e-03
-5.223860619398773032e-03
-5.151406448802168039e-03
-5.096879864150420832e-03
-5.061486406922454523e-03
-5.046217952785743942e-03
-5.051836242149436440e-03
-5.078859206933161383e-03
-5.127550408469312010e-03
-5.197911754862659731e-03
-5.289679600518436449e-03
-5.402324356418895281e-03
-5.535053634201578254e-03
-5.686818991168196731e-03
-5.856326123119060326e-03
-6.042048461819920363e-03
-6.242243959896991504e-03
-6.454974903214113352e-03
-6.678130485329795453e-03
-6.909451848447968614e-03
-7.146559259295331111e-03
-7.386981040367943292e-03
-7.628183930392545310e-03
-7.867604377027609050e-03
-8.102680398455458857e-03
-8.330883552860792601e-03
-8.549750553247642201e-03
-8.756914184416077218e-03
-8.950132937015856799e-03
-9.127319153257554274e-03
-9.286565115287430741e-03
-9.426166862431955423e-03
-9.544645272411670517e-03
-9.640764213078805919e-03
-9.713545480690463640e-03
-9.762280385976649863e-03
-9.786537723163714342e-03
-9.786168075188665660e-03
-9.761304469310744941e-03
-9.712359204795758746e-03
-9.640017092571921339e-03
-9.545225133616264818e-03
-9.429178762385337018e-03
-9.293304847090989862e-03
-9.139241763217844164e-03
-8.968816760957889697e-03
-8.784020968341686372e-03
-8.586982341122787951e-03
-8.379936985161038840e-03
-8.165199257421554280e-03
-7.945130996279952534e-03
-7.722110356386433297e-03
-7.498500674565838908e-03
-7.276619772767336028e-03
-7.058710122980402929e-03
-6.846910249671169478e-03
-6.643227817548928542e-03
-6.449514686633698625e-03
-6.267444271156677460e-03
-6.098491579489689896e-03
-5.943916087933672973e-03
-5.804747694126160922e-03
-5.681776007536662627e-03
-5.575542891263966447e-03
-5.486338561664309138e-03
-5.414201107090864384e-03
-5.358919547357962089e-03
-5.320040269028869333e-03
-5.296876724349191580e-03
-5.288522264092572825e-03
-5.293865937672921108e-03
-5.311610909293521150e-03
-5.340295364973064902e-03
-5.378315480480720147e-03
-5.423950170549681447e-03
-5.475387267243143376e-03
-5.530750770780894915e-03
-5.588128756392345825e-03
-5.645601545535742539e-03
-5.701269775725872554e-03
-5.753281975415949247e-03
-5.799861286817441230e-03
-5.839330918479010077e-03
-5.870138052499825239e-03
-5.890875862944382028e-03
-5.900303308427555168e-03
-5.897362505681623922e-03
-5.881193448064209704e-03
-5.851145874948668509e-03
-5.806788127198038788e-03
-5.747912908383918419e-03
-5.674539906063025101e-03
-5.586915247713433556e-03
-5.485507772521948031e-03
-5.371002282849923759e-03
-5.244289814895657098e-03
-5.106455061545961231e-03
-4.958761250258290551e-03
-4.802632524677303595e-03
-4.639634317436486070e-03
-4.471451726702716650e-03
-4.299866355751595128e-03
-4.126731966028706483e-03
-3.953949217405931804e-03
-3.783439869238795512e-03
-3.617120766931127690e-03
-3.456878021956341293e-03
-3.304541594047143323e-03
-3.161860833390107203e-03
-3.030481159812534100e-03
-2.911922200876730128e-03
-2.807557725086998711e-03
-2.718597575801424884e-03
-2.646071850357279223e-03
-2.590817538418398441e-03
-2.553467787707746055e-03
-2.534443912882951896e-03
-2.533950230817086455e-03
-2.551971672003582655e-03
-2.588274401452946624e-03
-2.642409242397811102e-03
-2.713717888733300967e-03
-2.801341747361927714e-03
-2.904233372654844905e-03
-3.021170238822096319e-03
-3.150770663563668642e-03
-3.291511631830752651e-03
-3.441748320383649848e-03
-3.599734901987660610e-03
-3.763646557752013677e-03
-3.931602136500663390e-03
-4.101687399792915481e-03
-4.271978333087656475e-03
-4.440564273845251306e-03
-4.605570570278880345e-03
-4.765180452382539351e-03
-4.917655799041866470e-03
-5.061356576771866740e-03
-5.194758697006824494e-03
-5.316469989492474818e-03
-5.425244258248841656e-03
-5.519993064734694116e-03
-5.599795290250334477e-03
-5.663904243631455275e-03
-5.711752305901121769e-03
-5.742953114864316269e-03
-5.757301217143042521e-03
-5.754769371483737725e-03
-5.735503453736775017e-03
-5.699815118946205753e-03
-5.648172410156230075e-03
-5.581188427254013366e-03
-5.499608308077541356e-03
-5.404294694879544121e-03
-5.296211978768679274e-03
-5.176409527704239552e-03
-5.046004175217297903e-03
-4.906162276882852953e-03
-4.758081584447588358e-03
-4.602973241653911078e-03
-4.442044125544685786e-03
-4.276479870715575726e-03
-4.107428728275039874e-03
-3.935986555650814248e-03
-3.763183148536004483e-03
-3.589970023398221782e-03
-3.417209889923391100e-03
-3.245667940127368572e-03
-3.076005023453373503e-03
-2.908772820772110006e-03
-2.744410994728672774e-03
-2.583246384877477091e-03
-2.425494169142790313e-03
-2.271260922214993379e-03
-2.120549549900657780e-03
-1.973265928867946190e-03
-1.829227203514856553e-03
-1.688171377094946661e-03
-1.549768226682654397e-03
-1.413631184047929286e-03
-1.279330032540896590e-03
-1.146404224047644325e-03
-1.014376447750283024e-03
-8.827663400037938889e-04
-7.511040442617351702e-04
-6.189434447272426079e-04
-4.858747747590280545e-04
-3.515364356799196622e-04
-2.156258444714771174e-04
-7.790899051365208366e-05
6.177121474187252008e-05
2.034880762445192572e-04
3.472258157501066211e-04
4.928759426399710033e-04
6.402352975573758322e-04
7.890057882591331633e-04
9.387958651743697272e-04
1.089123682830559674e-03
1.239421852937794277e-03
1.389043689403515573e-03
1.537270894829332463e-03
1.683322518732194469e-03
1.826365100006636585e-03
1.965523663576630980e-03
2.099893543420717958e-03
2.228552817545854329e-03
2.350575040300787594e-03
2.465042159036747067e-03
2.571057462758429956e-03
2.667758294078670812e-03
2.754328319015158805e-03
2.830009174932427134e-03
2.894111329714980137e-03
2.946024033849315056e-03
2.985224230773713371e-03
3.011284208277445994e-03
3.023878027357087758e-03
3.022786543643630509e-03
3.007901013053460113e-03
2.979225299368439602e-03
2.936876580465584610e-03
2.881084650062833326e-03
2.812189860632512400e-03
2.730639706277033802e-03
2.636984170016791213e-03
2.531869890763984235e-03
2.416033305832562556e-03
2.290292888774407131e-03
2.155540623187807408e-03
2.012732840651222394e-03
1.862880547467831837e-03
1.707039414198885949e-03
1.546299593478442716e-03
1.381775516353548261e-03
1.214595750184558525e-03
1.045893087715373806e-03
8.767949803720741795e-04
7.084144051994198995e-04
5.418413276598859230e-04
3.781347511145389151e-04
2.183155078112223387e-04
6.335975099989637268e-05
-8.580676340940635342e-05
-2.283136084501462856e-04
-3.633498648413394463e-04
-4.901674400403764360e-04
-6.080837359912548510e-04
-7.164835836079669297e-04
-8.148204783445364609e-04
-9.026172232862703136e-04
-9.794660729353186091e-04
-1.045028414094637415e-03
-1.099034025790386138e-03
-1.141280018511832634e-03
-1.171629557438605678e-03
-1.190010395290276232e-03
-1.196413228837988176e-03
-1.190890037981388438e-03
-1.173552376746083347e-03
-1.144569666838370992e-03
-1.104167560839071447e-03
-1.052626300043384318e-03
-9.902791865976695498e-04
-9.175110732756328264e-04
-8.347568136816477507e-04
-7.424998356671950366e-04
-6.412705809916083299e-04
-5.316449068956563984e-04
-4.142423344366771322e-04
-2.897241232073313744e-04
-1.587910420506968053e-04
-2.218095928025280502e-05
1.193340107727425405e-04
2.649507087500470033e-04
4.138386514229564070e-04
5.651441486598690915e-04
7.179950309898428798e-04
8.715057986833802403e-04
1.024783343740170039e-03
1.176933199913366909e-03
1.327066257616673012e-03
1.474305935033922224e-03
1.617795734711655444e-03
1.756707119518211447e-03
1.890247633786754262e-03
2.017669126167383978e-03
2.138276025412387624e-03
2.251433502563193051e-03
2.356575391834344127e-03
2.453211758344802165e-03
2.540935906625343618e-03
2.619430795182817878e-03
2.688474669246673863e-03
2.747945717176445736e-03
2.797825707923865673e-03
2.838202466696661524e-03
2.869271113152492645e-03
2.891333892343429454e-03
2.904798620623530968e-03
2.910175741700006188e-03
2.908073855870173079e-03
2.899193738465827112e-03
2.884320933230115694e-03
2.864317002771331680e-03
2.840109408453007911e-03
2.812680217405331279e-03
2.783053727061127192e-03
2.752283149216066486e-03
2.721436558303740299e-03
2.691582299951460460e-03
2.663774014143191222e-03
2.639035538400831809e-03
2.618345924844059629e-03
2.602624773144711010e-03
2.592718174107708218e-03
2.589385430683539650e-03
2.593286767464138883e-03
2.604972394501496678e-03
2.624872994037706631e-03
2.653291795582158209e-03
2.690398478854586720e-03
2.736224995879269015e-03
2.790663404866801627e-03
2.853465857346018306e-03
2.924246713515003728e-03
3.002486834103558749e-03
3.087539928612151405e-03
3.178641028942839290e-03
3.274916917091057287e-03
3.375398354578340154e-03
3.479033970300048507e-03
3.584705679124359275e-03
3.691245236682958938e-03
3.797451783410762342e-03
3.902110166728802072e-03
4.004009660628310950e-03
4.101962879159116830e-03
4.194824456201830427e-03
4.281509259660695906e-03
4.361009828550809451e-03
4.432412788080113478e-03
4.494913892321101244e-03
4.547831474978807596e-03
4.590618029573121164e-03
4.622869723640404480e-03
4.644333694561841690e-03
4.654913021703186229e-03
4.654669105499892844e-03
4.643821564699238992e-03
4.622745578664289381e-03
4.591966586795723400e-03
4.552152549007144715e-03
4.504103787360744064e-03
4.448740516766349837e-03
4.387088301953088326e-03
4.320261628061921634e-03
4.249445863895172544e-03
4.175877768617435037e-03
4.100825013675642866e-03
4.025564915785854840e-03
3.951362723338160132e-03
3.879449857257737978e-03
3.811002374726158489e-03
3.747120026343168583e-03
3.688806265612362169e-03
3.636949484590330534e-03
3.592305803499697397e-03
3.555483740922103959e-03
3.526930879465107679e-03
3.506922879769739255e-03
3.495555020827970441e-03
3.492736307728287921e-03
3.498186455674992448e-03
3.511435581268353145e-03
3.531826777900401275e-03
3.558521544509785171e-03
3.590507945662541923e-03
3.626611459143561349e-03
3.665508334923259746e-03
3.705741331669351081e-03
3.745737555769067337e-03
3.783828231603536627e-03
3.818270064926068338e-03
3.847267927313324353e-03
3.868998490588523159e-03
3.881634680557452099e-03
3.883370376454143603e-03
3.872445218119443047e-03
3.847169021252371934e-03
3.805945566103926571e-03
3.747295420206320140e-03
3.669877515225206457e-03
3.572509096652683874e-03
3.454183956469410611e-03
3.314088546023040340e-03
3.151615903981242698e-03
2.966377087587666363e-03
2.758210141539847206e-03
2.527186343333713732e-03
2.273613726371622856e-03
1.998037856987371508e-03
1.701239891494611429e-03
1.384231890860357795e-03
1.048249517406582218e-03
6.947422428872176460e-04
3.253610985690702007e-04
-5.805576744246772835e-05
-4.534996331824975389e-04
-8.588095072664784797e-04
-1.271692049961535825e-03
-1.689742886708499531e-03
-2.110469022907506854e-03
-2.531312173002335953e-03
-2.949672599297934600e-03
-3.362933305276651422e-03
-3.768484306491666578e-03
-4.163746687364118168e-03
-4.546196213990047648e-03
-4.913386315758497963e-03
-5.262970050764797375e-03
-5.592721016319865748e-03
-5.900552925517093400e-03
-6.184537648374290389e-03
-6.442921636715770277e-03
-6.674140488580763801e-03
-6.876831637815684732e-03
-7.049845015652417626e-03
-7.192251616420121743e-03
-7.303349879603839197e-03
-7.382669926805741217e-03
-7.429975624314587128e-03
-7.445264463998311176e-03
-7.428765231871260408e-03
-7.380933646004033365e-03
-7.302445872859004983e-03
-7.194190145087831119e-03
-7.057256519499171578e-03
-6.892924911415115180e-03
-6.702651517331064714e-03
-6.488053754509282012e-03
-6.250893980395279270e-03
-5.993062034271163553e-03
-5.716556843091863058e-03
-5.423467280139781556e-03
-5.115952440246407905e-03
-4.796221561714898371e-03
-4.466513798281031636e-03
-4.129078078961317087e-03
-3.786153174523572678e-03
-3.439948276193463897e-03
-3.092624209926297680e-03
-2.746275556874201544e-03
-2.402913809296199077e-03
-2.064451814343044520e-03
-1.732689576504467793e-03
-1.409301586407198147e-03
-1.095825947742298844e-03
-7.936552897160023719e-04
-5.040295777797899630e-04
-2.280308953301800822e-04
3.341970663178594873e-05
2.795632451931419197e-04
5.098018499680544288e-04
7.236957673732661699e-04
9.209583638396884537e-04
1.101449267520535893e-03
1.265165727178988635e-03
1.412232395531405832e-03
1.542889602742690807e-03
1.657480459832552482e-03
1.756436819518079374e-03
1.840264558652108173e-03
1.909528299269767351e-03
1.964835828375349498e-03
2.006822574144512868e-03
2.036136372206029041e-03
2.053422834042439339e-03
2.059311558251735504e-03
2.054403457046210559e-03
2.039259504480774293e-03
2.014391069556433021e-03
1.980252116878320878e-03
1.937233371309588338e-03
1.885658691401145446e-03
1.825783643005046654e-03
1.757796425327371685e-03
1.681821149019833593e-03
1.597923374130297497e-03
1.506117936704234970e-03
1.406378856910344560e-03
1.298651267550611499e-03
1.182864990363956910e-03
1.058949652461902433e-03
9.268509378168403572e-04
7.865476787464130946e-04
6.380694614231579350e-04
4.815142570549852600e-04
3.170657916400325535e-04
1.450101675803365932e-04
-3.424863474615804092e-05
-2.201749102263804707e-04
-4.120893737449509266e-04
-6.091595488018603606e-04
-8.103928703533073855e-04
-1.014632822643847477e-03
-1.220558302770741047e-03
-1.426686490299885254e-03
-1.631379266845485020e-03
-1.832853336187569926e-03
-2.029193972294425410e-03
-2.218372425551148712e-03
-2.398266760825733170e-03
-2.566685989497368998e-03
-2.721397063571216832e-03
-2.860154475654028486e-03
-2.980731936514279673e-03
-3.080955758750059982e-03
-3.158739253623730342e-03
-3.212117628705512141e-03
-3.239282626591215124e-03
-3.238616438872943780e-03
-3.208724039437146729e-03
-3.148463318102138163e-03
-3.056972375152355609e-03
-2.933693238663763036e-03
-2.778391481979758468e-03
-2.591171181618448331e-03
-2.372484727069239241e-03
-2.123137033489896387e-03
-1.844283908034387211e-03
-1.537424266028123484e-03
-1.204386097089985138e-03
-8.473062248289053118e-04
-4.686039258003522868e-04
-7.094869894813904355e-05
3.427775454804661906e-04
7.695233707600039001e-04
1.206115155801785544e-03
1.649308309203953394e-03
2.095841403910149881e-03
2.542492549967149441e-03
2.986136919765799893e-03
3.423804518290825966e-03
3.852737060229365941e-03
4.270442926619879079e-03
4.674749228414763411e-03
5.063849811750666292e-03
5.436348248626930377e-03
5.791294837804724684e-03
6.128216720419423467e-03
6.447140421256573536e-03
6.748605962841468416e-03
7.033672254842899749e-03
7.303913238996427235e-03
7.561404514602619933e-03
7.808700454408577622e-03
8.048801883957536901e-03
8.285114602284676666e-03
8.521399262346508047e-03
8.761713176166511033e-03
9.010344852974964958e-03
9.271742289722559663e-03
9.550436079953004975e-03
9.850958528487338897e-03
1.017776019354212080e-02
1.053512521222154524e-02
1.092708697825975177e-02
1.135734565472501859e-02
1.182918906710887785e-02
1.234541847892662789e-02
1.290828084148392361e-02
1.351940876010853873e-02
1.417976957936343575e-02
1.488962471252668757e-02
1.564850026428137031e-02
1.645516971398026246e-02
1.730764936574334320e-02
1.820320696765140994e-02
1.913838361261072096e-02
2.010902900412188041e-02
2.111034960819441197e-02
2.213696935314104705e-02
2.318300196729506171e-02
2.424213397184265054e-02
2.530771712230415679e-02
2.637286874762980599e-02
2.743057854779941754e-02
2.847381994920088893e-02
2.949566419379967552e-02
3.048939515456439153e-02
3.144862284396254815e-02
3.236739352444902712e-02
3.324029434365700919e-02
3.406255072902592690e-02
3.483011437017716899e-02
3.553974026951598614e-02
3.618905118708052454e-02
3.677658807206399955e-02
3.730184542866015612e-02
3.776529071227086032e-02
3.816836720346725165e-02
3.851348001223162815e-02
3.880396536713457550e-02
3.904404348972801558e-02
3.923875577632602446e-02
3.939388721990253611e-02
3.951587545093308146e-02
3.961170802891547660e-02
3.968880975871623418e-02
3.975492220547752892e-02
3.981797772739489871e-02
3.988597041434645968e-02
3.996682652116961831e-02
4.006827697782639613e-02
4.019773475033082411e-02
4.036217951974624407e-02
4.056805222883676926e-02
4.082116188572663257e-02
4.112660678246799623e-02
4.148871200690812389e-02
4.191098490051026193e-02
4.239608977592926320e-02
4.294584275114820410e-02
4.356122731474933174e-02
4.424243059453046578e-02
4.498890005013896770e-02
4.579941978720255408e-02
4.667220517400093305e-02
4.760501419101152709e-02
4.859527325104680967e-02
4.964021511271298620e-02
5.073702593961520318e-02
5.188299833709081321e-02
5.307568684943660825e-02
5.431306234762045548e-02
5.559366143888654771e-02
5.691672706629717637e-02
5.828233633094319355e-02
5.969151174286835976e-02
6.114631228844101540e-02
6.264990073259713022e-02
6.420658421294195284e-02
6.582182518277787664e-02
6.750222047789818103e-02
6.925544664154865970e-02
7.109017028700827245e-02
7.301592284678262712e-02
7.504293970638578615e-02
7.718196436610694211e-02
7.944401909038312226e-02
8.184014408373123384e-02
8.438110798753478692e-02
8.707709310945886683e-02
8.993735953915311943e-02
9.296989284540069232e-02
9.618104052210162125e-02
9.957514302930413341e-02
1.031541655150075842e-01
1.069173365715312546e-01
1.108608007401391399e-01
1.149772915633714004e-01
1.192558319517164067e-01
1.236814684493356131e-01
1.282350459790324859e-01
1.328930289536189302e-01
1.376273746900133210e-01
1.424054639863217842e-01
1.471900934687730700e-01
1.519395332753288308e-01
1.566076529908294601e-01
1.611441176357667204e-01
1.654946547898146769e-01
1.696013925881700024e-01
1.734032675575676030e-01
1.768364998976054425e-01
1.798351329589436276e-01
1.823316324688840084e-01
1.842575399636243449e-01
1.855441740479449042e-01
1.861233720058945718e-01
1.859282636286604118e-01
1.848940682413516001e-01
1.829589052505229685e-01
1.800646081001328058e-01
1.761575312246745351e-01
1.711893390936485015e-01
1.651177666235522368e-01
1.579073402091976941e-01
1.495300487865253436e-01
1.399659548739365655e-01
1.292037359009916564e-01
1.172411469620249225e-01
1.040853970108864129e-01
8.975343125255952348e-02
7.427211385873254412e-02
5.767830610507910377e-02
4.001883641574415645e-02
2.135036018370699978e-02
1.739108628325527735e-03
-1.873947270478156998e-02
-4.000119343462284899e-02
-6.195369241143854760e-02
-8.449711121438341355e-02
-1.075248606218051073e-01
-1.309244722688811535e-01
-1.545785266464768937e-01
-1.783656472820871752e-01
-2.021615500306269964e-01
-2.258401356631403734e-01
-2.492746130322617548e-01
-2.723386397743899900e-01
-2.949074671733026842e-01
-3.168590754547446764e-01
-3.380752859807670818e-01
-3.584428369909659073e-01
-3.778544099016920010e-01
-3.962095937807502688e-01
-4.134157763420908127e-01
-4.293889507608084632e-01
-4.440544287415463809e-01
-4.573474512134953485e-01
-4.692136896590779482e-01
-4.796096323477903600e-01
-4.885028512822636726e-01
-4.958721471439583861e-01
-5.017075712868795945e-01
-5.060103253190679773e-01
-5.087925403897954890e-01
-5.100769399807729698e-01
-5.098963914676358788e-01
-5.082933530134428057e-01
-5.053192239292053634e-01
-5.010336075363576169e-01
-4.955034970945648154e-01
-4.888023958435374627e-01
-4.810093831562490263e-01
-4.722081394626254092e-01
-4.624859429410273504e-01
-4.519326512052661560e-01
-4.406396811766519206e-01
-4.286990003961688722e-01
-4.162021423757229499e-01
-4.032392584099848132e-01
-3.898982173157348186e-01
-3.762637638760549241e-01
-3.624167457684408511e-01
-3.484334175601636052e-01
-3.343848292656806387e-01
-3.203363053947674843e-01
-3.063470193701027799e-01
-2.924696665444079802e-01
-2.787502375100555096e-01
-2.652278922728464883e-01
-2.519349339109293040e-01
-2.388968793969819815e-01
-2.261326236707305870e-01
-2.136546917559569436e-01
-2.014695726726945524e-01
-1.895781277254720287e-01
-1.779760648238476739e-01
-1.666544697954859267e-01
-1.556003848959386371e-01
-1.447974242806756295e-01
-1.342264159413815439e-01
-1.238660593441108515e-01
-1.136935881372807822e-01
-1.036854274732514902e-01
-9.381783562340770266e-02
-8.406752033592962414e-02
-7.441222080659599947e-02
-6.483124702418735508e-02
-5.530596902323065694e-02
-4.582024958305849771e-02
-3.636081494336917963e-02
-2.691755927204830118e-02
-1.748377971393018718e-02
-8.056340077598247648e-03
1.364237682341339596e-03
1.077375365525484741e-02
2.016438041294682168e-02
2.952478096618563197e-02
3.884029057396001794e-02
4.809315777831976030e-02
5.726283918433588277e-02
6.632634172784515614e-02
7.525860551692388489e-02
8.403291996899082961e-02
9.262136542847643206e-02
1.009952721883615456e-01
1.091256889957491344e-01
1.169838526226985587e-01
1.245416509337958361e-01
1.317720716285760985e-01
1.386496294334803037e-01
1.451507649860725446e-01
1.512542093115603337e-01
1.569413085949198094e-01
1.621963044378993135e-01
1.670065658934000163e-01
1.713627703500013311e-01
1.752590312109021664e-01
1.786929713575964862e-01
1.816657421904817049e-01
1.841819888747268374e-01
1.862497635867751133e-01
1.878803890618672701e-01
1.890882756787709007e-01
1.898906960661605747e-01
1.903075215622501981e-01
1.903609256881429457e-01
1.900750601030366249e-01
1.894757088308346993e-01
1.885899267877571006e-01
1.874456687733677407e-01
1.860714150311496007e-01
1.844957994509953125e-01
1.827472464029877564e-01
1.808536217027302551e-01
1.788419029245656433e-01
1.767378738852850295e-01
1.745658475098163798e-01
1.723484207592196615e-01
1.701062646714368853e-01
1.678579518136767423e-01
1.656198229527074683e-01
1.634058938404915062e-01
1.612278023919973546e-01
1.590947958678643193e-01
1.570137569593592630e-01
1.549892671445264880e-01
1.530237048635392227e-01
1.511173758674776990e-01
1.492686723645847979e-01
1.474742573026551762e-01
1.457292696911122176e-01
1.440275467714703106e-01
1.423618586461722069e-01
1.407241507463591612e-01
1.391057896692333984e-01
1.374978078843693829e-01
1.358911430667436582e-01
1.342768679335264448e-01
1.326464068158541842e-01
1.309917354688767688e-01
1.293055611154090567e-01
1.275814801860337688e-01
1.258141114313513220e-01
1.239992029497342801e-01
1.221337119568438323e-01
1.202158566633941272e-01
1.182451403232834958e-01
1.162223477238952529e-01
1.141495151847474465e-01
1.120298753925769719e-01
1.098677789190637827e-01
1.076685945056244931e-01
1.054385908879279243e-01
1.031848026037640587e-01
1.009148830633845861e-01
9.863694794476229877e-02
9.635941220888910586e-02
9.409082400559275194e-02
9.183969882445681965e-02
8.961435697608832740e-02
8.742276754049356502e-02
8.527240153331605566e-02
8.317009707756217729e-02
8.112193872535777839e-02
7.913315305969353952e-02
7.720802218400001082e-02
7.534981643918639560e-02
7.356074715659495500e-02
7.184194015900596808e-02
7.019342990362832657e-02
6.861417413421871947e-02
6.710208834734544825e-02
6.565409907082800367e-02
6.426621465385608245e-02
6.293361196746587172e-02
6.165073712477901063e-02
6.041141801741024137e-02
5.920898651693416725e-02
5.803640788548417029e-02
5.688641490150231350e-02
5.575164412549508258e-02
5.462477180800842658e-02
5.349864702295891589e-02
5.236641959692098919e-02
5.122166060282534739e-02
5.005847344616103090e-02
4.887159351450313938e-02
4.765647502058557167e-02
4.640936355369510574e-02
4.512735336258050928e-02
4.380842857981401273e-02
4.245148794604010345e-02
4.105635285933669637e-02
3.962375894219636457e-02
3.815533159677178543e-02
3.665354630813125181e-02
3.512167450740448504e-02
3.356371638678298797e-02
3.198432210327068620e-02
3.038870299791810586e-02
2.878253443256444805e-02
2.717185228711257311e-02
2.556294504480273455e-02
2.396224340087974719e-02
2.237620943695823109e-02
2.081122732969068606e-02
1.927349742834773977e-02
1.776893557232438192e-02
1.630307927197778214e-02
1.488100229663782796e-02
1.350723895255866863e-02
1.218571920259037614e-02
1.091971555421255083e-02
9.711802395662464879e-03
8.563828212726162098e-03
7.476900883745429133e-03
6.451386119033184277e-03
5.486918712101412042e-03
4.582426121562585206e-03
3.736163760548453019e-03
2.945761053190962351e-03
2.208277246052764778e-03
1.520265795655848309e-03
8.778460081258203807e-04
2.767805041166526811e-04
-2.874430325612244608e-04
-8.195272758696101577e-04
-1.324279374104427812e-03
-1.806525396815200288e-03
-2.271026518765522501e-03
-2.722398363950278774e-03
-3.165034916192518283e-03
-3.603038175195771766e-03
-4.040154716514503773e-03
-4.479719951190573417e-03
-4.924611036938478931e-03
-5.377208992156440846e-03
-5.839370491053795693e-03
-6.312409553632175423e-03
-6.797089280830620993e-03
-7.293623464114347595e-03
-7.801687872845021812e-03
-8.320440716867473496e-03
-8.848551829017005724e-03
-9.384239646867999218e-03
-9.925315351292906749e-03
-1.046923315503485094e-02
-1.101314560050855457e-02
-1.155396294104208202e-02
-1.208841542052113867e-02
-1.261311717380727421e-02
-1.312463069726189750e-02
-1.361953071791626758e-02
-1.409446639663933590e-02
-1.454622074084302615e-02
-1.497176629783837296e-02
-1.536831624281736856e-02
-1.573337001362598575e-02
-1.606475296480974410e-02
-1.636064937414022022e-02
-1.661962842660801715e-02
-1.684066282901135192e-02
-1.702313999301074271e-02
-1.716686576062053174e-02
-1.727206075394549165e-02
-1.733934955209621639e-02
-1.736974313840531844e-02
-1.736461504411748041e-02
-1.732567172240936579e-02
-1.725491786887946646e-02
-1.715461737825518460e-02
-1.702725073372554979e-02
-1.687546962536166928e-02
-1.670204964052295071e-02
-1.650984193222512775e-02
-1.630172469065195584e-02
-1.608055526916327138e-02
-1.584912377555095647e-02
-1.561010891358309560e-02
-1.536603675328926388e-02
-1.511924303128409953e-02
-1.487183954825975138e-02
-1.462568527264356509e-02
-1.438236235697253063e-02
-1.414315746081010530e-02
-1.390904851937736428e-02
-1.368069705248492821e-02
-1.345844601078531426e-02
-1.324232315836088025e-02
-1.303204958814157231e-02
-1.282705335056961646e-02
-1.262648761909136545e-02
-1.242925312554223581e-02
-1.223402428304679219e-02
-1.203927853062332180e-02
-1.184332824234957462e-02
-1.164435469093034678e-02
-1.144044336276694301e-02
-1.122962006496018572e-02
-1.100988718667632663e-02
-1.077925942146086037e-02
-1.053579846946049899e-02
-1.027764606199420803e-02
-1.000305489208476797e-02
-9.710416910437112345e-03
-9.398288639683439333e-03
-9.065413082564062822e-03
-8.710738063474872048e-03
-8.333430647959995732e-03
-7.932887595746453482e-03
-7.508741727474965884e-03
-7.060864238264909568e-03
-6.589362970672659088e-03
-6.094576836887763936e-03
-5.577066532831711360e-03
-5.037601774419366366e-03
-4.477145496406037019e-03
-3.896835152829826888e-03
-3.297961616402216457e-03
-2.681946081869854802e-03
-2.050315360228384051e-03
-1.404676107332554838e-03
-7.466883221807595191e-04
-7.803865394273398922e-05
5.995860739117474247e-04
1.284524655564368628e-03
1.975166249442212967e-03
2.669973720403801681e-03
3.367505104421856816e-03
4.066432976018826556e-03
4.765561448793891562e-03
5.463840560962008805e-03
6.160377851014164387e-03
6.854447073010672652e-03
7.545493867875607656e-03
8.233138462673995558e-03
8.917175366220090119e-03
9.597570146854784989e-03
1.027445339014747619e-02
1.094811202525768426e-02
1.161897816078759534e-02
1.228761570317236061e-02
1.295470505010334721e-02
1.362102601093275432e-02
1.428743946403418681e-02
1.495486785858276234e-02
1.562427506157879759e-02
1.629664575649868510e-02
1.697296481484489306e-02
1.765419693227407438e-02
1.834126682404527489e-02
1.903504029472813733e-02
1.973630643476341137e-02
2.044576126502161556e-02
2.116399302224983639e-02
2.189146928397605468e-02
2.262852602441422015e-02
2.337535882121839770e-02
2.413201632848931133e-02
2.489839595423937180e-02
2.567424189178449737e-02
2.645914542201616843e-02
2.725254747177620340e-02
2.805374334430696739e-02
2.886188947843267016e-02
2.967601218970761581e-02
3.049501804318365331e-02
3.131770597742335877e-02
3.214278057746573075e-02
3.296886665176473191e-02
3.379452467086877659e-02
3.461826687129528762e-02
3.543857374659980380e-02
3.625391070706627389e-02
3.706274472967542588e-02
3.786356068377363937e-02
3.865487708546076762e-02
3.943526110511938465e-02
4.020334263927394236e-02
4.095782725916233269e-02
4.169750782415464208e-02
4.242127474450397423e-02
4.312812462946668396e-02
4.381716732701890216e-02
4.448763131828041562e-02
4.513886735307873904e-02
4.577035035136003960e-02
4.638167955455653468e-02
4.697257708520930636e-02
4.754288483700677692e-02
4.809255990108588646e-02
4.862166853218666263e-02
4.913037887884032923e-02
4.961895254202466909e-02
5.008773516171297763e-02
5.053714616050616892e-02
5.096766783711294962e-02
5.137983408781431754e-02
5.177421881354397903e-02
5.215142420316068450e-02
5.251206907925567990e-02
5.285677759105261025e-02
5.318616829509142940e-02
5.350084384142724664e-02
5.380138135490827173e-02
5.408832366690762700e-02
5.436217149916279523e-02
5.462337673984332675e-02
5.487233685158594831e-02
5.510939046668021646e-02
5.533481413398692872e-02
5.554882040115994429e-02
5.575155700682167537e-02
5.594310734754494308e-02
5.612349207347617358e-02
5.629267178941474437e-02
5.645055066701291230e-02
5.659698114530771484e-02
5.673176928304999450e-02
5.685468083638128833e-02
5.696544790045544870e-02
5.706377597432354953e-02
5.714935124551049489e-02
5.722184804156110749e-02
5.728093627221271522e-02
5.732628868056348359e-02
5.735758782702501252e-02
5.737453265827183180e-02
5.737684447641433483e-02
5.736427226530696477e-02
5.733659725592234191e-02
5.729363664647750543e-02
5.723524641725894618e-02
5.716132315311223122e-02
5.707180484065526443e-02
5.696667063100063766e-02
5.684593959460062379e-02
5.670966841813380316e-02
5.655794813270444837e-02
5.639089988035062007e-02
5.620866979885019710e-02
5.601142315286320589e-02
5.579933766722017241e-02
5.557259632457711013e-02
5.533137960364296892e-02
5.507585741119125355e-02
5.480618072530602652e-02
5.452247314962582053e-02
5.422482253576704075e-02
5.391327267466090867e-02
5.358781534953827724e-02
5.324838284296686680e-02
5.289484099169314973e-02
5.252698292501693789e-02
5.214452360988380136e-02
5.174709526028904716e-02
5.133424375397751399e-02
5.090542618020674898e-02
5.046000945317805075e-02
4.999727007019503372e-02
4.951639515281087978e-02
4.901648471428329129e-02
4.849655513821545666e-02
4.795554386007578468e-02
4.739231527164797925e-02
4.680566777615184637e-02
4.619434193081706913e-02
4.555702953402841759e-02
4.489238375941361631e-02
4.419903004627561555e-02
4.347557775745241465e-02
4.272063239272321650e-02
4.193280837184500814e-02
4.111074212478708217e-02
4.025310541291680227e-02
3.935861880050540995e-02
3.842606498401969495e-02
3.745430206192919276e-02
3.644227646982065721e-02
3.538903541163199856e-02
3.429373879054760377e-02
3.315567039412096323e-02
3.197424837243011131e-02
3.074903474751368437e-02
2.947974396649165330e-02
2.816625036933701268e-02
2.680859447433149578e-02
2.540698810752310688e-02
2.396181824390413925e-02
2.247364961484243570e-02
2.094322587553770765e-02
1.937146949836445961e-02
1.775948030534045194e-02
1.610853269311539326e-02
1.442007154878504130e-02
1.269570692454984051e-02
1.093720746053898109e-02
9.146492596688001950e-03
7.325623781481478344e-03
5.476794588182947766e-03
3.602319891382667859e-03
1.704624180439220493e-03
-2.137708641692377231e-04
-2.150259418777064526e-03
-4.102165153778665647e-03
-6.066755275748562937e-03
-8.041254828112220573e-03
-1.002286127109047222e-02
-1.200875910290128551e-02
-1.399613442690129765e-02
-1.598218931264818593e-02
-1.796415591970614012e-02
-1.993931019639875318e-02
-2.190498502185798599e-02
-2.385858279299562720e-02
-2.579758725917362730e-02
-2.771957449138923862e-02
-2.962222294083698138e-02
-3.150332249548058738e-02
-3.336078247626469290e-02
-3.519263850137874933e-02
-3.699705815694200040e-02
-3.877234539766902938e-02
-4.051694371136123352e-02
-4.222943796707068209e-02
-4.390855498102427812e-02
-4.555316281584671084e-02
-4.716226880638979546e-02
-4.873501635463236420e-02
-5.027068051415650024e-02
-5.176866242283899994e-02
-5.322848270875495114e-02
-5.464977388640539224e-02
-5.603227191018129300e-02
-5.737580691137183359e-02
-5.868029330974586927e-02
-5.994571933889112497e-02
-6.117213614413621880e-02
-6.235964668385671206e-02
-6.350839439405610298e-02
-6.461855193711588119e-02
-6.569031006795666983e-02
-6.672386684742621921e-02
-6.771941728312469433e-02
-6.867714355055372366e-02
-6.959720594258207715e-02
-7.047973466846249591e-02
-7.132482262508499371e-02
-7.213251921884457352e-02
-7.290282538760781139e-02
-7.363568985049903648e-02
-7.433100669089914847e-02
-7.498861420445122883e-02
-7.560829525422134434e-02
-7.618977899163298373e-02
-7.673274390766143815e-02
-7.723682228038039610e-02
-7.770160590793333266e-02
-7.812665314516269166e-02
-7.851149703536736135e-02
-7.885565454353497816e-02
-7.915863668932925090e-02
-7.941995951437094692e-02
-7.963915566064917739e-02
-7.981578644906299480e-02
-7.994945429756500355e-02
-8.003981525755922422e-02
-8.008659145180209438e-02
-8.008958335798525840e-02
-8.004868163745948451e-02
-7.996387834494753100e-02
-7.983527731313617981e-02
-7.966310360180714478e-02
-7.944771188637456127e-02
-7.918959347994952713e-02
-7.888938194238497015e-02
-7.854785723967898370e-02
-7.816594821872277499e-02
-7.774473342683575761e-02
-7.728544020289730698e-02
-7.678944188516788338e-02
-7.625825334097484365e-02
-7.569352467059869971e-02
-7.509703320454901021e-02
-7.447067384378261434e-02
-7.381644781716864556e-02
-7.313645005999364068e-02
-7.243285523446958696e-02
-7.170790256533819684e-02
-7.096387980821732000e-02
-7.020310629138666603e-02
-6.942791549172765142e-02
-6.864063716413902616e-02
-6.784357933957184394e-02
-6.703901037989085099e-02
-6.622914132076523908e-02
-6.541610869663909422e-02
-6.460195811544053313e-02
-6.378862875763555151e-02
-6.297793902120049636e-02
-6.217157338565870717e-02
-6.137107080582528823e-02
-6.057781467603538805e-02
-5.979302446937867499e-02
-5.901774922970459691e-02
-5.825286294336268211e-02
-5.749906186755402576e-02
-5.675686375862902533e-02
-5.602660902683440775e-02
-5.530846384827218382e-02
-5.460242507117879507e-02
-5.390832695215744264e-02
-5.322584948283479861e-02
-5.255452828640313351e-02
-5.189376589316748584e-02
-5.124284423107288572e-02
-5.060093809068006571e-02
-4.996712947505829033e-02
-4.934042261854609812e-02
-4.871975938416225893e-02
-4.810403494882847797e-02
-4.749211353707374905e-02
-4.688284391823236558e-02
-4.627507454936679449e-02
-4.566766820872310978e-02
-4.505951587625576377e-02
-4.444954971197061927e-02
