-3.925886496284001700e-03
-4.084826782690992482e-03
-4.240021269581857773e-03
-4.388651185090693130e-03
-4.527967596283563254e-03
-4.655341528206962884e-03
-4.768313298278622873e-03
-4.864640111779051229e-03
-4.942341003864094209e-03
-4.999738337417904480e-03
-5.035494906181693653e-03
-5.048645917526167932e-03
-5.038625247566143502e-03
-5.005285165079358979e-03
-4.948909164789569610e-03
-4.870217458781734426e-03
-4.770364932713630317e-03
-4.650931331601030998e-03
-4.513903750012161417e-03
-4.361651506123800232e-03
-4.196893768441753957e-03
-4.022660344913569878e-03
-3.842246194797265674e-03
-3.659160297539754830e-03
-3.477069793589188020e-03
-3.299740186730217885e-03
-3.130972702776609572e-03
-2.974539829942788975e-03
-2.834120158018314448e-03
-2.713233694291775772e-03
-2.615178778547968836e-03
-2.542971769369022257e-03
-2.499290640852257477e-03
-2.486423504251411218e-03
-2.506223053563860076e-03
-2.560067856306821096e-03
-2.648831223371719053e-03
-2.772858343307843965e-03
-2.931952138738638889e-03
-3.125368200115338693e-03
-3.351819004790005004e-03
-3.609487342594747475e-03
-3.896048943882250183e-03
-4.208703775520172656e-03
-4.544215602278482181e-03
-4.898959123947186321e-03
-5.268973848279621605e-03
-5.650023766619648516e-03
-6.037661766629748121e-03
-6.427297503769369320e-03
-6.814267707235395835e-03
-7.193907354346886288e-03
-7.561620495323005502e-03
-7.912949386737002516e-03
-8.243640622551279620e-03
-8.549707027234820442e-03
-8.827484016206199602e-03
-9.073679315453478736e-03
-9.285415322351654038e-03
-9.460262997109799774e-03
-9.596266697228728743e-03
-9.691959625605260295e-03
-9.746369394633117370e-03
-9.759013712520253278e-03
-9.729886214162201952e-03
-9.659432923599184026e-03
-9.548519639130059744e-03
-9.398391023593116039e-03
-9.210622329911995199e-03
-8.987064737990333244e-03
-8.729785467801277205e-03
-8.441003994411330064e-03
-8.123025712196654813e-03
-7.778174637295728021e-03
-7.408726504406200862e-03
-7.016843857091100388e-03
-6.604514541798570983e-03
-6.173495111650269089e-03
-5.725260375767920497e-03
-5.260960460313363236e-03
-4.781386238371413203e-03
-4.286944202055942288e-03
-3.777641486596193011e-03
-3.253081482513229573e-03
-2.712470276478372994e-03
-2.154633978158523346e-03
-1.578046785709270265e-03
-9.808693250927312621e-04
-3.609964389561864874e-04
2.838863186895492093e-04
9.562387524989977806e-04
1.658595808027472744e-03
2.393492750385236255e-03
3.163387284913177829e-03
3.970580365950311316e-03
4.817137540705672058e-03
5.704812633855764828e-03
6.634975634722722719e-03
7.608546693072953081e-03
8.625937814165160825e-03
9.687003963721239549e-03
1.079100501601576445e-02
1.193657976623909572e-02
1.312173309301590575e-02
1.434383696462457683e-02
1.559964584420107415e-02
1.688532670194642024e-02
1.819650346976938934e-02
1.952831563453922073e-02
2.087549011453975964e-02
2.223242531030820285e-02
2.359328609109748176e-02
2.495210808027431906e-02
2.630290928723028401e-02
2.763980701644731808e-02
2.895713773243207764e-02
3.024957744587006281e-02
3.151226015033570249e-02
3.274089168768333502e-02
3.393185636565800023e-02
3.508231395845358425e-02
3.619028468255004044e-02
3.725471982816170452e-02
3.827555599441541390e-02
3.925375127480820042e-02
4.019130187128437670e-02
4.109123806476280144e-02
4.195759883693540165e-02
4.279538478681716579e-02
4.361048957249417241e-02
4.440961035093262538e-02
4.520013823384120416e-02
4.599003029839139611e-02
4.678766497648313705e-02
4.760168312380191891e-02
4.844081738120292052e-02
4.931371283097891328e-02
5.022874236302143913e-02
5.119382003633114742e-02
5.221621614591898802e-02
5.330237781874826858e-02
5.445775890625129123e-02
5.568666292006230895e-02
5.699210255167778960e-02
5.837567920449788367e-02
5.983748573293759532e-02
6.137603527648984036e-02
6.298821833923248792e-02
6.466929024015252714e-02
6.641289024962086784e-02
6.821109327029199754e-02
7.005449425816097364e-02
7.193232500429409815e-02
7.383260220135488827e-02
7.574230518683205959e-02
7.764758096788633435e-02
7.953397352430825740e-02
8.138667399558525972e-02
8.319078768280122049e-02
8.493161327637623048e-02
8.659492944997551622e-02
8.816728358458700288e-02
8.963627719928955739e-02
9.099084231038256920e-02
9.222150326544849286e-02
9.332061841894223608e-02
9.428259627309111546e-02
9.510408097428754703e-02
9.578410241438463368e-02
9.632418682112281472e-02
9.672842409676195297e-02
9.700348898030222711e-02
9.715861399660699615e-02
9.720551262063721609e-02
9.715825238363583194e-02
9.703307817962224247e-02
9.684818726888022589e-02
9.662345826793254655e-02
9.638013744829754259e-02
9.614048651405854296e-02
9.592739694754298663e-02
9.576397678735015795e-02
9.567311640397190009e-02
9.567704062980664226e-02
9.579685491487116566e-02
9.605209373238723924e-02
9.646027967329656727e-02
9.703650180494406696e-02
9.779302180822486978e-02
9.873891634970366482e-02
9.987976368837610253e-02
1.012173821008114233e-01
1.027496269586176680e-01
1.044702527031646372e-01
1.063688448284202948e-01
1.084308260419055564e-01
1.106375396615965206e-01
1.129664118881848339e-01
1.153911934246897447e-01
1.178822794328726747e-01
1.204071054583095435e-01
1.229306154346745950e-01
1.254157965851195600e-01
1.278242745983332596e-01
1.301169611093352108e-01
1.322547442973942278e-01
1.341992124696513855e-01
1.359133992704626426e-01
1.373625385407546973e-01
1.385148160290650687e-01
1.393421049018499225e-01
1.398206715519208221e-01
1.399318383215543971e-01
1.396625896971929737e-01
1.390061093458755670e-01
1.379622356898509150e-01
1.365378246121654870e-01
1.347470090168812196e-01
1.326113462002962151e-01
1.301598456289956018e-01
1.274288709591166191e-01
1.244619124264990662e-01
1.213092273642406987e-01
1.180273484967902103e-01
1.146784621552165429e-01
1.113296602042834760e-01
1.080520721092278064e-01
1.049198851134025556e-01
1.020092630210402695e-01
9.939717589676190512e-02
9.716015460797716718e-02
9.537298603231542105e-02
9.410736618581734547e-02
9.343052961706506399e-02
9.340387477591304000e-02
9.408160546270502578e-02
9.550940907834490345e-02
9.772319253775642311e-02
1.007478967375965984e-01
1.045964098225532074e-01
1.092685987656127344e-01
1.147504778134848247e-01
1.210135309106799423e-01
1.280142035962812674e-01
1.356935779296213063e-01
1.439772417524652626e-01
1.527753614573534868e-01
1.619829645230628223e-01
1.714804357136571478e-01
1.811342275476841013e-01
1.907977831492277399e-01
2.003126663780774863e-01
2.095098911431489963e-01
2.182114391057182745e-01
2.262319518669360097e-01
2.333805813300224019e-01
2.394629790671471137e-01
2.442834035099746282e-01
2.476469215184478878e-01
2.493616791567017377e-01
2.492412150557551942e-01
2.471067886080549891e-01
2.427896942300756533e-01
2.361335329846408482e-01
2.269964123115894294e-01
2.152530452785448301e-01
2.007967214520045840e-01
1.835411226200289458e-01
1.634219580795887306e-01
1.403983960975636047e-01
1.144542704044991671e-01
8.559904284756476855e-02
5.386850651769762438e-02
1.932521633792962101e-02
-1.794136261225302148e-02
-5.781499515823138730e-02
-1.001531072786244342e-01
-1.447875078501726920e-01
-1.915253963727849562e-01
-2.401506486612540459e-01
-2.904253692994365754e-01
-3.420916958843421840e-01
-3.948738370354706873e-01
-4.484803233442420933e-01
-5.026064474309717145e-01
-5.569368669891843204e-01
-6.111483427003017166e-01
-6.649125808988186614e-01
-7.178991497482606343e-01
-7.697784364811515179e-01
-8.202246128593668750e-01
-8.689185758263531234e-01
-9.155508305099593347e-01
-9.598242835696156883e-01
-1.001456915834971984e+00
-1.040184304696396111e+00
-1.075761968638651922e+00
-1.107967508464241746e+00
-1.136602522187942776e+00
-1.161494273540579325e+00
-1.182497096850491536e+00
-1.199493524501003439e+00
-1.212395126431063730e+00
-1.221143054606064648e+00
-1.225708289023432540e+00
-1.226091585412289131e+00
-1.222323128247449597e+00
-1.214461896261437523e+00
-1.202594750778528399e+00
-1.186835260583977147e+00
-1.167322279884524416e+00
-1.144218298701314307e+00
-1.117707587346027154e+00
-1.087994158949585399e+00
-1.055299575633905418e+00
-1.019860625495896400e+00
-9.819268985755881252e-01
-9.417582907539886472e-01
-8.996224647946098329e-01
-8.557922977046792390e-01
-8.105433432242870051e-01
-7.641513373329005265e-01
-7.168897738675968911e-01
-6.690275754208711012e-01
-6.208268833565776523e-01
-5.725409884683595463e-01
-5.244124219001542464e-01
-4.766712231499012908e-01
-4.295333996046472036e-01
-3.831995891767632223e-01
-3.378539349360435429e-01
-2.936631775743322459e-01
-2.507759688263206943e-01
-2.093224060719549862e-01
-1.694137856386355723e-01
-1.311425695646667167e-01
-9.458255799580193857e-02
-5.978925740262464733e-02
-2.680043222690470239e-02
4.363174120817410809e-03
3.369696466654822226e-02
6.121147785313348771e-02
8.693125839463886062e-02
1.108936293794001715e-01
1.331473850837527062e-01
1.537514246503991211e-01
1.727733466798387907e-01
1.902880242774630248e-01
2.063761798618096166e-01
2.211229781306511544e-01
2.346166543867820586e-01
2.469471945564847559e-01
2.582050814146691908e-01
2.684801203359009070e-01
2.778603560542873829e-01
2.864310899616296369e-01
2.942740059637181105e-01
3.014664107225229484e-01
3.080805922868676272e-01
3.141832992807132019e-01
3.198353410285243448e-01
3.250913069717750736e-01
3.299994023365673823e-01
3.346013953116234174e-01
3.389326696044365206e-01
3.430223748519609095e-01
3.468936665438992484e-01
3.505640259982693019e-01
3.540456500901473236e-01
3.573459000557894782e-01
3.604677983608282066e-01
3.634105622661727431e-01
3.661701628785681839e-01
3.687398987043338239e-01
3.711109728490831761e-01
3.732730637831668252e-01
3.752148801711359116e-01
3.769246909299185933e-01
3.783908226334828928e-01
3.796021174391288611e-01
3.805483455864230313e-01
3.812205678138014808e-01
3.816114439680764470e-01
3.817154853203110210e-01
3.815292492416875736e-01
3.810514758499609633e-01
3.802831674465261269e-01
3.792276125173683066e-01
3.778903568920559675e-01
3.762791255821288372e-01
3.744036995572507798e-01
3.722757521993600993e-01
3.699086508781844751e-01
3.673172293190352100e-01
3.645175368656409232e-01
3.615265706605546026e-01
3.583619971147582461e-01
3.550418686736153684e-01
3.515843418247281971e-01
3.480074021306329146e-01
3.443286013976984972e-01
3.405648118955810766e-01
3.367320018414965976e-01
3.328450359678673531e-01
3.289175041609196382e-01
3.249615805627344423e-01
3.209879148888853395e-01
3.170055569924360439e-01
3.130219150354902613e-01
3.090427469071646560e-01
3.050721839509347721e-01
3.011127854246574698e-01
2.971656217259545096e-01
2.932303836665050567e-01
2.893055147877325317e-01
2.853883634576581674e-01
2.814753510631848865e-01
2.775621525524837874e-01
2.736438852225274720e-01
2.697153018921685796e-01
2.657709845141972838e-01
2.618055343174822691e-01
2.578137548379966226e-01
2.537908244366489097e-01
2.497324551948920668e-01
2.456350352972946904e-01
2.414957526841981228e-01
2.373126979053318264e-01
2.330849447057956048e-01
2.288126072916630283e-01
2.244968737191954111e-01
2.201400153025770134e-01
2.157453724397342398e-01
2.113173175726209829e-01
2.068611965976988598e-01
2.023832503174357589e-01
1.978905178817347843e-01
1.933907243875135629e-01
1.888921551716523373e-01
1.844035195306786556e-01
1.799338066553247684e-01
1.754921367369038643e-01
1.710876100922300580e-01
1.667291573280471340e-01
1.624253932984076332e-01
1.581844776461261426e-01
1.540139843902646188e-01
1.499207828874299375e-01
1.459109322380485740e-01
1.419895908517200267e-01
1.381609426711100375e-01
1.344281411632673451e-01
1.307932718311942966e-01
1.272573336070579320e-01
1.238202392852130879e-01
1.204808346102688027e-01
1.172369353856646396e-01
1.140853818031269534e-01
1.110221085881361869e-01
1.080422295612746969e-01
1.051401347744697484e-01
1.023095984103638278e-01
9.954389532993303258e-02
9.683592408164568011e-02
9.417833400729136439e-02
9.156365428803932283e-02
8.898442246150337076e-02
8.643331030860339215e-02
8.390324492281010793e-02
8.138752294969330003e-02
7.887991604142263746e-02
7.637476591145044014e-02
7.386706763951859933e-02
7.135253986698764095e-02
6.882768091007829270e-02
6.628981020773025423e-02
6.373709461180027125e-02
6.116855936093870683e-02
5.858408387065467543e-02
5.598438284263893006e-02
5.337097312294555168e-02
5.074612729664322586e-02
4.811281517199601093e-02
4.547463437590890806e-02
4.283573146249443353e-02
4.020071522259942992e-02
3.757456374031216406e-02
3.496252717422067974e-02
3.237002786103872903e-02
2.980255964128603399e-02
2.726558823036813808e-02
2.476445422899308663e-02
2.230428068032464656e-02
1.988988644655211024e-02
1.752570691606661693e-02
1.521572325420091944e-02
1.296340140602596398e-02
1.077164152945811817e-02
8.642738583025954408e-03
6.578354678840071627e-03
4.579503270095281603e-03
2.646545255840424514e-03
7.791968962866087454e-04
-1.023450929224814466e-03
-2.762902656833117650e-03
-4.441217836969466731e-03
-6.060961885838119130e-03
-7.625148644076888173e-03
-9.137176113263961036e-03
-1.060075651726649117e-02
-1.201984199116790282e-02
-1.339854743486825449e-02
-1.474107184719903804e-02
-1.605161963382576579e-02
-1.733432318737893052e-02
-1.859316818788240774e-02
-1.983192282387510538e-02
-2.105407214294346963e-02
-2.226275861062932543e-02
-2.346072973189974528e-02
-2.465029369970822906e-02
-2.583328352633988342e-02
-2.701103031797183127e-02
-2.818434581932317134e-02
-2.935351461491814487e-02
-3.051829570315785223e-02
-3.167793354949946516e-02
-3.283117803528858708e-02
-3.397631294372351757e-02
-3.511119232985335931e-02
-3.623328396065012003e-02
-3.733971910281357748e-02
-3.842734753406431419e-02
-3.949279690125289538e-02
-4.053253527234354503e-02
-4.154293575268405703e-02
-4.252034207993052317e-02
-4.346113394079254705e-02
-4.436179108400629262e-02
-4.521895496069030379e-02
-4.602948706654377137e-02
-4.679052292649364675e-02
-4.749952088405925282e-02
-4.815430498761313211e-02
-4.875310132103030658e-02
-4.929456732285918824e-02
-4.977781357471788848e-02
-5.020241785145509311e-02
-5.056843145069334772e-02
-5.087637758037417968e-02
-5.112724215649292608e-02
-5.132245711887744449e-02
-5.146387678833736629e-02
-5.155374767249457091e-02
-5.159467234162185001e-02
-5.158956802034436046e-02
-5.154162076621653793e-02
-5.145423594880890739e-02
-5.133098592294917800e-02
-5.117555578020951262e-02
-5.099168824421008300e-02
-5.078312837270581442e-02
-5.055356913699164678e-02
-5.030659870437897280e-02
-5.004565019253928021e-02
-4.977395485412724335e-02
-4.949449915107154152e-02
-4.920998649471031855e-02
-4.892280411781864402e-02
-4.863499560718410886e-02
-4.834823936752710716e-02
-4.806383322531636304e-02
-4.778268536995469024e-02
-4.750531164347430307e-02
-4.723183914334370265e-02
-4.696201586178375131e-02
-4.669522618739148367e-02
-4.643051179991975613e-02
-4.616659765873622201e-02
-4.590192240327463369e-02
-4.563467273046854095e-02
-4.536282105198855691e-02
-4.508416570093148196e-02
-4.479637310615620927e-02
-4.449702107803631818e-02
-4.418364263029062045e-02
-4.385376941662186279e-02
-4.350497438647057263e-02
-4.313491272725173548e-02
-4.274136049732180087e-02
-4.232225048716765914e-02
-4.187570471191259108e-02
-4.140006308821559539e-02
-4.089390790475458393e-02
-4.035608382140375844e-02
-3.978571314905592071e-02
-3.918220619573208052e-02
-3.854526675702447946e-02
-3.787489268440856482e-02
-3.717137162027828873e-02
-3.643527214300133765e-02
-3.566743050857249658e-02
-3.486893332995726069e-02
-3.404109663694226268e-02
-3.318544162191337799e-02
-3.230366767326457722e-02
-3.139762312540057831e-02
-3.046927430214360633e-02
-2.952067340341660642e-02
-2.855392582948545685e-02
-2.757115740502620593e-02
-2.657448218198310563e-02
-2.556597132702099345e-02
-2.454762345174793872e-02
-2.352133707887789707e-02
-2.248888552922708936e-02
-2.145189463898259860e-02
-2.041182358250946335e-02
-1.936994912937821736e-02
-1.832735350251957218e-02
-1.728491599034316997e-02
-1.624330837197663843e-02
-1.520299409759570501e-02
-1.416423125135334894e-02
-1.312707916876967515e-02
-1.209140845404146729e-02
-1.105691427429395142e-02
-1.002313251922635519e-02
-8.989458566289345795e-03
-7.955168301243091544e-03
-6.919440891690751411e-03
-5.881383018464242732e-03
-4.840054046186211857e-03
-3.794491715521374885e-03
-2.743737887482972093e-03
-1.686863900531427240e-03
-6.229951359090202517e-04
4.486656777391275701e-04
1.528816759538557815e-03
2.618037533236117296e-03
3.716771155218324529e-03
4.825309585618872688e-03
5.943781404378571838e-03
7.072142652581182680e-03
8.210170662815881315e-03
9.357461047772941062e-03
1.051342783769594960e-02
1.167730674986731422e-02
1.284816145461538904e-02
1.402489277646565453e-02
1.520625056175604027e-02
1.639084810515090140e-02
1.757717873945342790e-02
1.876363436135992588e-02
1.994852558716126920e-02
2.113010312711171082e-02
2.230658015813222206e-02
2.347615514567140058e-02
2.463703479578273348e-02
2.578745685498394502e-02
2.692571228391102758e-02
2.805016647955173650e-02
2.915927927139338321e-02
3.025162329080946164e-02
3.132590055666946427e-02
3.238095687241223514e-02
3.341579402008600097e-02
3.442957938495450065e-02
3.542165300770712399e-02
3.639153199916561610e-02
3.733891223157059097e-02
3.826366723460214447e-02
3.916584447104261985e-02
4.004565898119578221e-02
4.090348461394845148e-02
4.173984293109523486e-02
4.255539001754810730e-02
4.335090141334353719e-02
4.412725541644356431e-02
4.488541506251124413e-02
4.562640907373382432e-02
4.635131195070258531e-02
4.706122364719534518e-02
4.775724921428440434e-02
4.844047855583685780e-02
4.911196666368662644e-02
4.977271458117939890e-02
5.042365144236918978e-02
5.106561785186090191e-02
5.169935069569130820e-02
5.232546976408354589e-02
5.294446615824904834e-02
5.355669283208225329e-02
5.416235723803302510e-02
5.476151618211430594e-02
5.535407296210687056e-02
5.593977669798290420e-02
5.651822393703423431e-02
5.708886243451381098e-02
5.765099697999081368e-02
5.820379720925945854e-02
5.874630721804436490e-02
5.927745674115516422e-02
5.979607386261345109e-02
6.030089886728566551e-02
6.079059918929894529e-02
6.126378509896150681e-02
6.171902594292570654e-02
6.215486669713054385e-02
6.256984454227063064e-02
6.296250526814484161e-02
6.333141932728886259e-02
6.367519731040059694e-02
6.399250450357581166e-02
6.428207451766919378e-02
6.454272177711749270e-02
6.477335265349341842e-02
6.497297523022187160e-02
6.514070752607539760e-02
6.527578408510752161e-02
6.537756101015627930e-02
6.544551925389793801e-02
6.547926624116158500e-02
6.547853585483827399e-02
6.544318685339219066e-02
6.537319969314582535e-02
6.526867195497147722e-02
6.512981237231882381e-02
6.495693364058975627e-02
6.475044412177985431e-02
6.451083854036696041e-02
6.423868789480925712e-02
6.393462871127982006e-02
6.359935182833463541e-02
6.323359074562924509e-02
6.283810981562287790e-02
6.241369248948551440e-02
6.196112961297124688e-02
6.148120794607098843e-02
6.097469920108093688e-02
6.044234953703096769e-02
5.988486971628429606e-02
5.930292605480521478e-02
5.869713214621506692e-02
5.806804155058690325e-02
5.741614152069047378e-02
5.674184772667646703e-02
5.604550001112904023e-02
5.532735932977166093e-02
5.458760575598427256e-02
5.382633764414870153e-02
5.304357182873539744e-02
5.223924499943436578e-02
5.141321605344927742e-02
5.056526947354138268e-02
4.969511962022605395e-02
4.880241590633964399e-02
4.788674888380489020e-02
4.694765701303022648e-02
4.598463405951386945e-02
4.499713715038840267e-02
4.398459530592613298e-02
4.294641838886819468e-02
4.188200635090079393e-02
4.079075881753785326e-02
3.967208475139948065e-02
3.852541217271898688e-02
3.735019790220978075e-02
3.614593713004915498e-02
3.491217285317690933e-02
3.364850497283166514e-02
3.235459909684829105e-02
3.103019492727770307e-02
2.967511404345688983e-02
2.828926721397963598e-02
2.687266097464892367e-02
2.542540362812590812e-02
2.394771039422469161e-02
2.243990783033255124e-02
2.090243738946950813e-02
1.933585810135722213e-02
1.774084836107803556e-02
1.611820674083624602e-02
1.446885188131326674e-02
1.279382141700760936e-02
1.109426999936928560e-02
9.371466313213025132e-03
7.626789193905753571e-03
5.861722834278351030e-03
4.077851107039519134e-03
2.276851080271863684e-03
4.604857130145574508e-04
-1.369404165137192179e-03
-3.210908487795251405e-03
-5.062057198707862679e-03
-6.920829979975865950e-03
-8.785166411193466932e-03
-1.065297644035850290e-02
-1.252215107482836966e-02
-1.439057313200353336e-02
-1.625612806951721306e-02
-1.811671469074015162e-02
-1.997025563289194991e-02
-2.181470755224165434e-02
-2.364807091672969583e-02
-2.546839923663509267e-02
-2.727380769304780725e-02
-2.906248108679208159e-02
-3.083268098361133941e-02
-3.258275206274122149e-02
-3.431112745064359565e-02
-3.601633318531246436e-02
-3.769699165210872727e-02
-3.935182399132505782e-02
-4.097965139754247699e-02
-4.257939544148341832e-02
-4.415007740766550837e-02
-4.569081660114752974e-02
-4.720082773538258197e-02
-4.867941738254323580e-02
-5.012597967308742714e-02
-5.153999117418742865e-02
-5.292100519521341501e-02
-5.426864554047934608e-02
-5.558259979501806169e-02
-5.686261236788505563e-02
-5.810847723707789070e-02
-5.932003074787482733e-02
-6.049714432445999629e-02
-6.163971741887559752e-02
-6.274767078364118511e-02
-6.382094008490191150e-02
-6.485947007980381873e-02
-6.586320937749209903e-02
-6.683210583595686205e-02
-6.776610278410818977e-02
-6.866513606285537530e-02
-6.952913195412974146e-02
-7.035800592310315071e-02
-7.115166231565346611e-02
-7.190999500743178174e-02
-7.263288889105733170e-02
-7.332022220932547796e-02
-7.397186971046454396e-02
-7.458770652572743742e-02
-7.516761269265737067e-02
-7.571147818967063903e-02
-7.621920851793324847e-02
-7.669073052490690823e-02
-7.712599851433697695e-02
-7.752500034305290222e-02
-7.788776354055400308e-02
-7.821436126272456046e-02
-7.850491787654567677e-02
-7.875961415743645833e-02
-7.897869187751493936e-02
-7.916245779551726869e-02
-7.931128677801405069e-02
-7.942562416449344687e-02
-7.950598709908182626e-02
-7.955296493872322794e-02
-7.956721856644023705e-02
-7.954947867078161761e-02
-7.950054289751296022e-02
-7.942127203843635241e-02
-7.931258510582682442e-02
-7.917545342778006812e-02
-7.901089386953949467e-02
-7.881996118769755977e-02
-7.860373967036561604e-02
-7.836333410249293752e-02
-7.809986036115088015e-02
-7.781443552673635022e-02
-7.750816788538811286e-02
-7.718214679655313604e-02
-7.683743265241571585e-02
-7.647504708360551573e-02
-7.609596360741882615e-02
-7.570109875479243133e-02
-7.529130388653237915e-02
-7.486735792665689948e-02
-7.442996092900010241e-02
-7.397972871315565413e-02
-7.351718863779646562e-02
-7.304277655957965021e-02
-7.255683507719115632e-02
-7.205961310903236106e-02
-7.155126670729396177e-02
-7.103186127451695253e-02
-7.050137499432115873e-02
-6.995970354981675965e-02
-6.940666601919080747e-02
-6.884201183498120380e-02
-6.826542882241998234e-02
-6.767655205152234288e-02
-6.707497344964902242e-02
-6.646025207826851411e-02
-6.583192486176968339e-02
-6.518951760919293459e-02
-6.453255622135027625e-02
-6.386057788661599066e-02
-6.317314209881329246e-02
-6.246984138616430704e-02
-6.175031149418129528e-02
-6.101424098917036104e-02
-6.026138012858314047e-02
-5.949154886167928175e-02
-5.870464383905298761e-02
-5.790064430367157511e-02
-5.707961691433616203e-02
-5.624171934736833106e-02
-5.538720265513470686e-02
-5.451641238367189307e-02
-5.362978846464883792e-02
-5.272786387087274873e-02
-5.181126205212083224e-02
-5.088069330138601104e-02
-4.993695004253627390e-02
-4.898090112661579454e-02
-4.801348527708045044e-02
-4.703570377904214839e-02
-4.604861254122160491e-02
-4.505331366002992416e-02
-4.405094658381869532e-02
-4.304267902630684595e-02
-4.202969778906429088e-02
-4.101319968268145322e-02
-3.999438249489842279e-02
-3.897443632358455617e-02
-3.795453529845297519e-02
-3.693582979070042516e-02
-3.591943918729359475e-02
-3.490644541965086389e-02
-3.389788719793070115e-02
-3.289475506999793575e-02
-3.189798726090678493e-02
-3.090846637904093655e-02
-2.992701709423694484e-02
-2.895440452910906168e-02
-2.799133355019241959e-02
-2.703844889854272251e-02
-2.609633596997576119e-02
-2.516552238657026805e-02
-2.424648007799207888e-02
-2.333962801120394517e-02
-2.244533532991308672e-02
-2.156392482412117922e-02
-2.069567673849142392e-02
-1.984083269685929171e-02
-1.899959975412238156e-02
-1.817215440126908679e-02
-1.735864650632964329e-02
-1.655920312811562378e-02
-1.577393195983844282e-02
-1.500292452570185266e-02
-1.424625903791685438e-02
-1.350400274469969707e-02
-1.277621392090148161e-02
-1.206294331218627988e-02
-1.136423513983234046e-02
-1.068012751868824967e-02
-1.001065251118727316e-02
-9.355835663631061408e-03
-8.715695095547492527e-03
-8.090240248494620992e-03
-7.479470291307826167e-03
-6.883372177517269562e-03
-6.301918547218078245e-03
-5.735065496948134681e-03
-5.182750235727307322e-03
-4.644888705804424249e-03
-4.121373335585953347e-03
-3.612070865313202813e-03
-3.116820402306060174e-03
-2.635431768173354498e-03
-2.167684172861515917e-03
-1.713325205425487085e-03
-1.272070307565834708e-03
-8.436027559555040779e-04
-4.275740563219899417e-04
-2.360486238374725793e-05
3.687135728051969428e-04
7.498174052535270867e-04
1.120167749206714934e-03
1.480247722566612736e-03
1.830558976519271836e-03
2.171617926400523819e-03
2.503951540425590049e-03
2.828092802785553243e-03
3.144575998423490733e-03
3.453931758569536541e-03
3.756681986322590872e-03
4.053334731937255180e-03
4.344379190243047653e-03
4.630280705221648078e-03
4.911475957115452214e-03
5.188368522567258188e-03
5.461324656517131497e-03
5.730669468772565771e-03
5.996683619857370341e-03
6.259600472519178879e-03
6.519603759827679625e-03
6.776825927465301817e-03
7.031347045236641981e-03
7.283194355322398887e-03
7.532342416048027657e-03
7.778714032865355343e-03
8.022181749928188749e-03
8.262569986798631513e-03
8.499657782405104986e-03
8.733182068046218757e-03
8.962841597083088738e-03
9.188301304732460900e-03
9.409197066917032032e-03
9.625140826220388024e-03
9.835726134872331550e-03
1.004053388643787008e-02
1.023913820469454089e-02
1.043111239949068639e-02
1.061603506983982426e-02
1.079349610311804500e-02
1.096310252077742874e-02
1.112448419581754840e-02
1.127729932028464187e-02
1.142123954016437126e-02
1.155603463438186623e-02
1.168145691680394331e-02
1.179732505285481688e-02
1.190350740584847529e-02
1.199992473858542061e-02
1.208655246571743551e-02
1.216342219487795244e-02
1.223062264295652138e-02
1.228829994522470659e-02
1.233665732647910677e-02
1.237595412905464175e-02
1.240650419487339569e-02
1.242867364085763204e-02
1.244287811660635748e-02
1.244957951348955351e-02
1.244928215050313501e-02
1.244252845045456038e-02
1.242989419118801717e-02
1.241198348606882031e-02
1.238942337414945631e-02
1.236285819997174663e-02
1.233294370651881466e-02
1.230034108071568870e-02
1.226571090074816614e-02
1.222970704434332007e-02
1.219297071477871627e-02
1.215612456109597256e-02
1.211976693458666904e-02
1.208446641237969493e-02
1.205075660989326711e-02
1.201913132703284585e-02
1.199004014427313553e-02
1.196388444698830850e-02
1.194101390544982308e-02
1.192172348357468416e-02
1.190625098984084314e-02
1.189477529362205008e-02
1.188741509188180438e-02
1.188422827748888445e-02
1.188521192689248607e-02
1.189030292490910606e-02
1.189937923978260335e-02
1.191226180264454322e-02
1.192871693038278190e-02
1.194845934527771943e-02
1.197115568364852736e-02
1.199642856938367037e-02
1.202386111624938886e-02
1.205300181942195285e-02
1.208336973996882238e-02
1.211446004300186646e-02
1.214574977586509869e-02
1.217670376697840319e-02
1.220678062752630737e-02
1.223543880380518339e-02
1.226214250308564103e-02
1.228636761190871063e-02
1.230760739738810151e-02
1.232537792632481220e-02
1.233922317751455326e-02
1.234871981254188900e-02
1.235348142909202356e-02
1.235316248995693179e-02
1.234746158015494893e-02
1.233612414921776007e-02
1.231894465252890425e-02
1.229576805455570229e-02
1.226649075034665949e-02
1.223106073581225854e-02
1.218947719069820440e-02
1.214178946449929845e-02
1.208809542451092650e-02
1.202853916301246072e-02
1.196330818259954722e-02
1.189263005202024007e-02
1.181676861262504104e-02
1.173601972622712909e-02
1.165070675714336909e-02
1.156117573022898658e-02
1.146779026229166956e-02
1.137092635215725470e-02
1.127096712008318798e-02
1.116829752471000178e-02
1.106329922001989333e-02
1.095634556058229514e-02
1.084779679939896005e-02
1.073799555278819214e-02
1.062726270512781915e-02
1.051589365232650196e-02
1.040415504476899754e-02
1.029228201769871384e-02
1.018047595747500686e-02
1.006890283045254637e-02
9.957692085087233025e-03
9.846936176549976605e-03
9.736690608825432011e-03
9.626974593760296087e-03
9.517772235572742601e-03
9.409034254236369951e-03
9.300680122674299943e-03
9.192600744553263217e-03
9.084661388238152516e-03
8.976705101742567250e-03
8.868556281018067852e-03
8.760024477384368083e-03
8.650908324431220292e-03
8.540999549210816222e-03
8.430086968211574980e-03
8.317960376491300920e-03
8.204414321017018674e-03
8.089251720785789121e-03
7.972287192301539052e-03
7.853350050498310655e-03
7.732286959649835832e-03
7.608964233562954746e-03
7.483269639663773197e-03
7.355113831364627243e-03
7.224431285592876513e-03
7.091180795859395626e-03
6.955345501562213567e-03
6.816932446600305721e-03
6.675971824763936129e-03
6.532515754402072085e-03
6.386636660716302205e-03
6.238425443823885329e-03
6.087989311033003420e-03
5.935449427097973935e-03
5.780938397060779443e-03
5.624597665536633893e-03
5.466574877688928566e-03
5.307021284826564551e-03
5.146089135816368093e-03
4.983929332417174306e-03
4.820689159222551340e-03
4.656510286685632688e-03
4.491526980139178178e-03
4.325864719059824282e-03
4.159639086164340117e-03
3.992954984087076532e-03
3.825906243009466728e-03
3.658575507827041984e-03
3.491034580853274397e-03
3.323345031725727199e-03
3.155559129081902774e-03
2.987721043891546253e-03
2.819868349463038916e-03
2.652033684116002384e-03
2.484246576756206012e-03
2.316535360549453783e-03
2.148929175748057110e-03
1.981459965378911444e-03
1.814164380463622467e-03
1.647085632648375266e-03
1.480275121645718969e-03
1.313793899208478026e-03
1.147713842272063368e-03
9.821185797914168403e-04
8.171040725316228810e-04
6.527788317325695531e-04
4.892638079469247307e-04
3.266918647161108830e-04
1.652069509348409249e-04
4.962810288477254990e-06
-1.538784861851689534e-04
-3.111484183699018426e-04
-4.666741625329343611e-04
-6.202809539921047858e-04
-7.717946053179800025e-04
-9.210441669629370600e-04
-1.067864659690746657e-03
-1.212099773460964449e-03
-1.353604480311079109e-03
-1.492247563814099289e-03
-1.627913903116286762e-03
-1.760506515949711998e-03
-1.889948267570599593e-03
-2.016183200047317638e-03
-2.139177410821561584e-03
-2.258919546248545820e-03
-2.375420705476553093e-03
-2.488713893049453868e-03
-2.598852914378693875e-03
-2.705910778230380918e-03
-2.809977608803562645e-03
-2.911158026987590609e-03
-3.009568125499334241e-03
-3.105332033209888109e-03
-3.198578174881893787e-03
-3.289435180823660140e-03
-3.378027725161327714e-03
-3.464472155014923331e-03
-3.548872090914965017e-03
-3.631314140070195529e-03
-3.711863770857387612e-03
-3.790561418951305522e-03
-3.867418995778258532e-03
-3.942416805723964780e-03
-4.015500986315827595e-03
-4.086581589835767622e-03
-4.155531320588031451e-03
-4.222184980433956597e-03
-4.286339737542096961e-03
-4.347756150123358553e-03
-4.406160069860166374e-03
-4.461245349059781914e-03
-4.512677378042521427e-03
-4.560097410254741572e-03
-4.603127648291358356e-03
-4.641376976150224029e-03
-4.674447331095924092e-03
-4.701940584540854028e-03
-4.723465839837392814e-03
-4.738647003884402693e-03
-4.747130576418329313e-03
-4.748593473906471095e-03
-4.742750780077045064e-03
-4.729363231000183708e-03
-4.708244349359388091e-03
-4.679267081801920247e-03
-4.642369790651545459e-03
-4.597561501925834238e-03
-4.544926254195728182e-03
-4.484626435286575251e-03
-4.416905096392550675e-03
-4.342087064695831708e-03
-4.260578882834654448e-03
-4.172867514521646885e-03
-4.079517736115037367e-03
-3.981168295593270554e-03
-3.878526815207305935e-03
-3.772363550371601523e-03
-3.663503935872495631e-03
-3.552820183568988505e-03
-3.441221907668369669e-03
-3.329645958396497147e-03
-3.219045552252954977e-03
-3.110378939773688570e-03
-3.004597719255108074e-03
-2.902634928517612480e-03
-2.805393183006714593e-03
-2.713733055980103222e-03
-2.628461776963411916e-03
-2.550322532835453977e-03
-2.479984483963438083e-03
-2.418033667353711343e-03
-2.364965009343945445e-03
-2.321175541805834980e-03
-2.286958875727087160e-03
-2.262501143634270372e-03
-2.247878436140528235e-03
-2.243055767354935545e-03
-2.247887646625885277e-03
-2.262120234307536757e-03
-2.285395088638409074e-03
-2.317254382094074191e-03
-2.357147639836877900e-03
-2.404439800721982611e-03
-2.458420528107978578e-03
-2.518314522740463992e-03
-2.583292893176899682e-03
-2.652485235899000419e-03
-2.724992291933438227e-03
-2.799898922476803595e-03
-2.876287255325537130e-03
-2.953249823730039712e-03
-3.029902379143759907e-03
-3.105396286260554608e-03
-3.178930179946355943e-03
-3.249760771783336000e-03
-3.317212619592247239e-03
-3.380686682174460084e-03
-3.439667560578969080e-03
-3.493729238485548689e-03
-3.542539261343246020e-03
-3.585861333282540104e-03
-3.623556234346992765e-03
-3.655581083983115796e-03
-3.681986945812036702e-03
-3.702914839743490314e-03
-3.718590269562752678e-03
-3.729316235846392644e-03
-3.735465006361463319e-03
-3.737468783060862981e-03
-3.735809381616129413e-03
-3.731007081721476101e-03
-3.723609007468945721e-03
-3.714177050603262396e-03
-3.703275689495832620e-03
-3.691459916220031934e-03
-3.679263395939634269e-03
-3.667187251731162528e-03
-3.655689529887760133e-03
-3.645175591847717601e-03
-3.635989620893203666e-03
-3.628407416461228944e-03
-3.622630562084046355e-03
-3.618782178137592426e-03
-3.616904218970512508e-03
-3.616956448788360371e-03
-3.618817106549291392e-03
-3.622285272749420099e-03
-3.627084852956563923e-03
-3.632870151226199381e-03
-3.639232947291824467e-03
-3.645710884666851850e-03
-3.651797072116890613e-03
-3.656950698060611876e-03
-3.660608505440208875e-03
-3.662196881072375156e-03
-3.661144377080234082e-03
-3.656894301813440069e-03
-3.648917278797917697e-03
-3.636723503209838507e-03
-3.619874395916063310e-03
-3.597993464884741231e-03
-3.570776190246807355e-03
-3.537998658136778680e-03
-3.499524806858157061e-03
-3.455312153900943952e-03
-3.405415774714182307e-03
-3.349990548812115717e-03
-3.289291528248541874e-03
-3.223672380376349251e-03
-3.153581985424111587e-03
-3.079559095586565081e-03
-3.002225190939059127e-03
-2.922275664426382622e-03
-2.840469396424779702e-03
-2.757616974422196204e-03
-2.674567601469220873e-03
-2.592195019044768196e-03
-2.511382656988670435e-03
-2.433008210403746468e-03
-2.357928044447824781e-03
-2.286961546689079972e-03
-2.220875708331641798e-03
-2.160370334575307995e-03
-2.106064097559061030e-03
-2.058481651021529680e-03
-2.018042097737691477e-03
-1.985049015807299495e-03
-1.959682243305314615e-03
-1.941991597788102989e-03
-1.931892734652683680e-03
-1.929165109213723181e-03
-1.933452236665811948e-03
-1.944264248491983519e-03
-1.960982764480311523e-03
-1.982868005180917804e-03
-2.009068058743596931e-03
-2.038630205563304269e-03
-2.070514130485911434e-03
-2.103606883800702813e-03
-2.136739282965632609e-03
-2.168703592947607370e-03
-2.198272154879909492e-03
-2.224216695921901049e-03
-2.245328004460724752e-03
-2.260435669722858643e-03
-2.268427483235431648e-03
-2.268268328430336680e-03
-2.259018171489258348e-03
-2.239848814634019976e-03
-2.210059202581356966e-03
-2.169088915832088557e-03
-2.116529721832344571e-03
-2.052134896297875492e-03
-1.975826166842596567e-03
-1.887698118205477461e-03
-1.788020032165702150e-03
-1.677235030830697164e-03
-1.555956499365993700e-03
-1.424961841989727702e-03
-1.285183692238061216e-03
-1.137698581013323962e-03
-9.837133598048360909e-04
-8.245493827659992848e-04
-6.616248358895459279e-04
-4.964353850707752197e-04
-3.305334712695511489e-04
-1.655065373370319631e-04
-2.954507270013045738e-06
1.555331157129882531e-04
3.084002080342039737e-04
4.541466467970180156e-04
5.913503744150610565e-04
7.186883805543770607e-04
8.349564321460988328e-04
9.390871675973515948e-04
1.030166273154933245e-03
1.107446509479523234e-03
1.170359405692766213e-03
1.218524376567495845e-03
1.251755140397525865e-03
1.270063422495579415e-03
1.273659710036986140e-03
1.262951189281186866e-03
1.238536835798845215e-03
1.201199741800547654e-03
1.151896770362527368e-03
1.091745764600226100e-03
1.022010458631742889e-03
9.440832764633941363e-04
8.594663832653131772e-04
7.697511491083811833e-04
6.765964542015980021e-04
5.817060959129819603e-04
4.868056193287460961e-04
3.936190095690984435e-04
3.038454721092245596e-04
2.191367255457746482e-04
1.410750962873144935e-04
7.115275067261754441e-05
1.075239768491213614e-05
-3.887035192893028510e-05
-7.660268760976629500e-05
-1.014880423257282643e-04
-1.127372678339740221e-04
-1.097373348073289929e-04
-9.205741033696615029e-05
-5.945230849071883627e-05
-1.186329337347949602e-05
5.058378596656549212e-05
1.275829130149618918e-04
2.186548370169063985e-04
3.231562824700093045e-04
4.402913419412315585e-04
5.691248617452594142e-04
7.085975052392387303e-04
8.575423298699504570e-04
1.014702555317027093e-03
1.178750212737758726e-03
1.348305437522481515e-03
1.521955984716980232e-03
1.698276867038926849e-03
1.875849572550871260e-03
2.053280846126404394e-03
2.229220468017412658e-03
2.402377980735982254e-03
2.571538058933870319e-03
2.735574320632327278e-03
2.893461380209180062e-03
3.044285027918587887e-03
3.187250448459522968e-03
3.321688311993776458e-03
3.447058770835099983e-03
3.562953268300886930e-03
3.669094307147063774e-03
3.765333096356802793e-03
3.851645286949925522e-03
3.928124836349551098e-03
3.994976199163372335e-03
4.052504984752860161e-03
4.101107310459583925e-03
4.141258035507047915e-03
4.173498095679475071e-03
4.198421251908252862e-03
4.216660390797586679e-03
4.228873680575359270e-03
4.235730805937244076e-03
4.237899524403171761e-03
4.236032772004597220e-03
4.230756528808105391e-03
4.222658594598738963e-03
4.212278559902396871e-03
4.200098970670825167e-03
4.186537906460136710e-03
4.171943103335320341e-03
4.156587561616629720e-03
4.140666858829045519e-03
4.124298001859824127e-03
4.107519908367881362e-03
4.090295465825405027e-03
4.072515055671258911e-03
4.054001498140188606e-03
4.034516277725093067e-03
4.013766928922625661e-03
3.991415391124547574e-03
3.967087199122701184e-03
3.940381337059047084e-03
3.910880497324797922e-03
3.878161638906966590e-03
3.841806679101266667e-03
3.801412959164607655e-03
3.756603423552714888e-03
3.707036356995693782e-03
3.652414423411261008e-03
3.592492890042207117e-03
3.527086931108407847e-03
3.456077844507375596e-03
3.379418105731826424e-03
3.297135164887374237e-03
3.209333952778494099e-03
3.116198033581337509e-03
3.017989462173796631e-03
2.915047245625504782e-03
2.807784510950302702e-03
2.696684468397367307e-03
2.582295172152559645e-03
2.465223237513008286e-03
2.346126526070417724e-03
2.225706005827591486e-03
2.104696935421261367e-03
1.983859423247443746e-03
1.863968612736911041e-03
1.745804619701234878e-03
1.630142311990486186e-03
1.517741112914489142e-03
1.409335050809696786e-03
1.305623174805586569e-03
1.207260389831450688e-03
1.114848925536073877e-03
1.028930526283931965e-03
9.499794948565296613e-04
8.783966031225259180e-04
8.145040117834324855e-04
7.585412688642118734e-04
7.106622546770167059e-04
6.709333986481126437e-04
6.393329352760484998e-04
6.157512216096455585e-04
5.999922023527890771e-04
5.917758312502355332e-04
5.907415294941835123e-04
5.964525596762988236e-04
6.084012079059035981e-04
6.260146716547971418e-04
6.486617159917518107e-04
6.756598229951587880e-04
7.062827818301097927e-04
7.397686566715025707e-04
7.753280113931034076e-04
8.121522344023931247e-04
8.494219527646941232e-04
8.863153277004281409e-04
9.220162768951042876e-04
9.557223710373950309e-04
9.866525045191354253e-04
1.014054107157394413e-03
1.037209927636161336e-03
1.055444327524931655e-03
1.068128993001371454e-03
1.074688069739440860e-03
1.074602690349256949e-03
1.067414862326950551e-03
1.052730723043064209e-03
1.030223124048136596e-03
9.996336145151707257e-04
9.607737261407166187e-04
9.135256996271566565e-04
8.578425980561155259e-04
7.937478842575094746e-04
7.213344090091479638e-04
6.407628923581962493e-04
5.522599918487405488e-04
4.561158873526545096e-04
3.526814514392616578e-04
2.423650767346814899e-04
1.256291378171788789e-04
2.986166555659523366e-06
-1.250052636266686722e-04
-2.577448319080911520e-04
-3.945950539361392181e-04
-5.348860053931804104e-04
-6.779201839464358160e-04
-8.229775361459959991e-04
-9.693205764859524768e-04
-1.116199542709751281e-03
-1.262857618357451439e-03
-1.408536235355647677e-03
-1.552480276303049413e-03
-1.693943281489261425e-03
-1.832192633966810320e-03
-1.966514629707742049e-03
-2.096219386703395728e-03
-2.220645665983301317e-03
-2.339165530590391322e-03
-2.451188693101480267e-03
-2.556166724031323084e-03
-2.653596861802465148e-03
-2.743025600659840073e-03
-2.824051821252521015e-03
-2.896329643540581939e-03
-2.959570786391031195e-03
-3.013546494165245809e-03
-3.058088981871904567e-03
-3.093092345568460542e-03
-3.118513015513743776e-03
-3.134369635563768845e-03
-3.140742395374460788e-03
-3.137771799505803712e-03
-3.125656907440558553e-03
-3.104653050231073394e-03
-3.075069011977728424e-03
-3.037263668725541637e-03
-2.991642229588222218e-03
-2.938652046390468654e-03
-2.878777996735837428e-03
-2.812537582035780186e-03
-2.740475736368333092e-03
-2.663159476434261413e-03
-2.581172276125988894e-03
-2.495108515761243397e-03
-2.405567871957825336e-03
-2.313149815278622411e-03
-2.218448211245495089e-03
-2.122046197182031815e-03
-2.024511310087808835e-03
-1.926390995715604633e-03
-1.828208558685104476e-03
-1.730459575373428970e-03
-1.633608751282705036e-03
-1.538087376379998180e-03
-1.444291384117601549e-03
-1.352579972244524493e-03
-1.263274891866045854e-03
-1.176660312223539936e-03
-1.092983196037360235e-03
-1.012454257896529741e-03
-9.352495051062515059e-04
-8.615122025732746026e-04
-7.913552526650097793e-04
-7.248638729205713997e-04
-6.620986174380574579e-04
-6.030985794897771729e-04
-5.478846825749722396e-04
-4.964630327098364061e-04
-4.488282202946966754e-04
-4.049664208466196365e-04
-3.648583295886555981e-04
-3.284817833738656011e-04
-2.958140117198437206e-04
-2.668335021140305413e-04
-2.415213213349196313e-04
-2.198619740571609534e-04
-2.018436895703109256e-04
-1.874581387104954212e-04
-1.766996301646681653e-04
-1.695637136108164237e-04
-1.660452684585116601e-04
-1.661361565861291234e-04
-1.698223808720751452e-04
-1.770809610511970438e-04
-1.878765003428830801e-04
-2.021575845088378789e-04
-2.198530989458412908e-04
-2.408685290159009486e-04
-2.650824387984680817e-04
-2.923431631207063170e-04
-3.224658792836870630e-04
-3.552300826169020880e-04
-3.903776696793134879e-04
-4.276116848155036166e-04
-4.665957986740498970e-04
-5.069545300574289370e-04
-5.482744486219596385e-04
-5.901062026073707317e-04
-6.319675184558926810e-04
-6.733471081910723417e-04
-7.137094774118960200e-04
-7.525006286372199924e-04
-7.891545658708957415e-04
-8.231004717503676146e-04
-8.537706326273572987e-04
-8.806087837053481852e-04
-9.030788818389953558e-04
-9.206740634647387960e-04
-9.329256883067149316e-04
-9.394122669567878765e-04
-9.397681550320372348e-04
-9.336917481862287401e-04
-9.209530643510229538e-04
-9.014004880520459437e-04
-8.749665951270559506e-04
-8.416728249890561425e-04
-8.016328368529104667e-04
-7.550545769860552998e-04
-7.022408044840865778e-04
-6.435881061735572017e-04
-5.795843131838545681e-04
-5.108042904489354212e-04
-4.379041323962508370e-04
-3.616138367101896268e-04
-2.827284088049070209e-04
-2.020977393283364669e-04
-1.206151960781574233e-04
-3.920505843036960057e-05
4.119085760332444606e-05
1.196272059598968136e-04
1.951696142285343281e-04
2.669093313656486946e-04
3.339777936086092800e-04
3.955609292477840679e-04
4.509127432340070897e-04
4.993681054225967931e-04
5.403543724627360521e-04
5.734016779139268927e-04
5.981515996913026921e-04
6.143640321359135608e-04
6.219221244642200849e-04
6.208351018845186453e-04
6.112388823544160450e-04
5.933944633882461952e-04
5.676839433553143620e-04
5.346043312098988556e-04
4.947591803009417089e-04
4.488480746084748982e-04
3.976541784917772917e-04
3.420300957668518087e-04
2.828821753713635693e-04
2.211535826591000062e-04
1.578063382097377493e-04
9.380285695346720666e-05
3.008708616857956377e-05
-3.243421879429964853e-05
-9.290983753846035291e-05
-1.505615912487244155e-04
-2.047007012573025405e-04
-2.547426821633493217e-04
-3.002203734271461071e-04
-3.407949108676921481e-04
-3.762642276215976377e-04
-4.065690642138380397e-04
-4.317961456740470141e-04
-4.521784577196052393e-04
-4.680925466232991185e-04
-4.800528758484238069e-04
-4.887031624872723891e-04
-4.948049465219375980e-04
-4.992234022944317361e-04
-5.029107623809819880e-04
-5.068874934797599043e-04
-5.122215977594728751e-04
-5.200064618387127214e-04
-5.313375101837436660e-04
-5.472882515148448082e-04
-5.688860879752274729e-04
-5.970884120894649413e-04
-6.327594970626190286e-04
-6.766486149394553310e-04
-7.293697903762063261e-04
-7.913837473509543379e-04
-8.629824060934280757e-04
-9.442763470743437354e-04
-1.035185559717901249e-03
-1.135433676370564519e-03
-1.244546008850309828e-03
-1.361851450911639051e-03
-1.486488359508360800e-03
-1.617414385316768037e-03
-1.753420174040165201e-03
-1.893146767324180172e-03
-2.035106477167575919e-03
-2.177706896401291475e-03
-2.319277698613717888e-03
-2.458099741260879982e-03
-2.592436000930863505e-03
-2.720563754051873954e-03
-2.840807428263731650e-03
-2.951571511234268082e-03
-3.051372897603736242e-03
-3.138871943399424661e-03
-3.212901736833480727e-03
-3.272494857737770057e-03
-3.316907106487559671e-03
-3.345637656014818252e-03
-3.358445084441806245e-03
-3.355358973356456324e-03
-3.336686712976457553e-03
-3.303015207449550017e-03
-3.255207355052162996e-03
-3.194393255229172664e-03
-3.121956223247192384e-03
-3.039513643728627024e-03
-2.948892939488107802e-03
-2.852103087402108918e-03
-2.751302049231726943e-03
-2.648760606540075981e-03
-2.546823336269134642e-03
-2.447867227278604629e-03
-2.354258843913065429e-03
-2.268310767076722398e-03
-2.192238050232945840e-03
-2.128115617012737212e-03
-2.077837362010500916e-03
-2.043077900029693049e-03
-2.025257590571850029e-03
-2.025511725114041966e-03
-2.044664430416516087e-03
-2.083208009932463727e-03
-2.141288093964872647e-03
-2.218695196188096280e-03
-2.314862824121330636e-03
-2.428872366590579829e-03
-2.559464796061631121e-03
-2.705059176060831821e-03
-2.863777603055787241e-03
-3.033476404791530384e-03
-3.211783058858598289e-03
-3.396138249494548653e-03
-3.583842340996818733e-03
-3.772105503260307115e-03
-3.958100556571858032e-03
-4.139017640949252917e-03
-4.312119590652324468e-03
-4.474797099503873866e-03
-4.624622454868429489e-03
-4.759400942550161620e-03
-4.877218736193821187e-03
-4.976486395607489059e-03
-5.055976894556596553e-03
-5.114857539026107167e-03
-5.152714864807163460e-03
-5.169571948195506896e-03
-5.165897640170656092e-03
-5.142607357310069981e-03
-5.101055230286076839e-03
-5.043017687929704854e-03
-4.970668463771500505e-03
-4.886545394460792974e-03
-4.793509482785956663e-03
-4.694696767716175292e-03
-4.593463885628974556e-03
-4.493328230489005044e-03
-4.397903584489598096e-03
-4.310832504998742161e-03
-4.235716620046956100e-03
-4.176046076396541101e-03
-4.135129581241166717e-03
-4.116026220081093166e-03
-4.121480471852182609e-03
-4.153861624829146768e-03
-4.215108901801466364e-03
-4.306683357191376689e-03
-4.429527575233567320e-03
-4.584034081057278796e-03
-4.770023215141086341e-03
-4.986730959931408649e-03
-5.232807224133664663e-03
-5.506324707164377344e-03
-5.804798324231911187e-03
-6.125215017976662520e-03
-6.464073547749605089e-03
-6.817433640494532758e-03
-7.180973655579512768e-03
-7.550055905554650323e-03
-7.919798396924361897e-03
-8.285151724446890645e-03
-8.640979790190982113e-03
-8.982142820488914908e-03
-9.303581113430117733e-03
-9.600398000997240056e-03
-9.867940363618170688e-03
-1.010187515650527376e-02
-1.029826043329654280e-02
-1.045360953383166029e-02
-1.056494700544926765e-02
-1.062985516977648856e-02
-1.064651030406041018e-02
-1.061370781951617714e-02
-1.053087562439793817e-02
-1.039807538776460656e-02
-1.021599162617377668e-02
-9.985908759046945027e-03
-9.709676434891730684e-03
-9.389663707605909113e-03
-9.028702951571501711e-03
-8.630024600593999909e-03
-8.197183841823428921e-03
-7.733980858451107616e-03
-7.244376079877511143e-03
-6.732402149219422587e-03
-6.202074451498269456e-03
-5.657302018374587779e-03
-5.101800702601052943e-03
-4.539010421042250984e-03
-3.972018296462400538e-03
-3.403489349541470414e-03
-2.835606349816441937e-03
-2.270020122480429642e-03
-1.707811559146771904e-03
-1.149466364798835266e-03
-5.948632030743358301e-04
-4.327558042662266012e-05
5.066122579931751435e-04
1.056675480229682818e-03
1.609305542550226210e-03
2.167354227882764984e-03
2.734066025740164180e-03
3.313000050172911805e-03
3.907943026153077627e-03
4.522815226091658758e-03
5.161571033427669701e-03
5.828096427446543062e-03
6.526105466671301356e-03
7.259038100762009622e-03
8.029961570398327919e-03
8.841477711870660006e-03
9.695638336419447334e-03
1.059387075245423436e-02
1.153691532805625405e-02
1.252477688422454737e-02
1.355669131081812390e-02
1.463110858177290100e-02
1.574569309546646617e-02
1.689734170197318419e-02
1.808221971126378405e-02
1.929581458425645712e-02
2.053300670827802599e-02
2.178815632840238117e-02
2.305520515363966919e-02
2.432779104159264044e-02
2.559937366580747331e-02
2.686336883753206312e-02
2.811328897661124343e-02
2.934288683073279710e-02
3.054629958573334275e-02
3.171819029013378533e-02
3.285388348391268115e-02
3.394949199318658684e-02
3.500203191475739772e-02
3.600952296783507811e-02
3.697107149795828690e-02
3.788693387513358130e-02
3.875855826428950546e-02
3.958860297766435971e-02
4.038093028356620762e-02
4.114057487170987709e-02
4.187368674398530416e-02
4.258744864798567897e-02
4.328996882690877568e-02
4.399015033036206279e-02
4.469753877719395002e-02
4.542215069387800508e-02
4.617428532973471417e-02
4.696432292167388584e-02
4.780251307680748185e-02
4.869875709615090198e-02
4.966238845057871498e-02
5.070195558460807023e-02
5.182501143200791971e-02
5.303791413689395301e-02
5.434564330866051979e-02
5.575163597929251591e-02
5.725764628788303223e-02
5.886363237506819085e-02
6.056767382880835771e-02
6.236592240034082024e-02
6.425258813818039705e-02
6.621996252605906463e-02
6.825847958074486577e-02
7.035681505108085099e-02
7.250202326998284041e-02
7.467971035690382231e-02
7.687424178619103876e-02
7.906898160368630579e-02
8.124655986689408027e-02
8.338916417926173219e-02
8.547885068735681935e-02
8.749786934629454060e-02
8.942899759624731160e-02
9.125587673025672975e-02
9.296334443589171492e-02
9.453775715379486577e-02
9.596729584221846965e-02
9.724224867402603278e-02
9.835526461701174505e-02
9.930157198319002065e-02
1.000791566404705124e-01
1.006888950393246690e-01
1.011346380151744856e-01
1.014232419670176022e-01
1.015645448561581787e-01
1.015712855908455642e-01
1.014589662791799268e-01
1.012456576882781456e-01
1.009517496636404693e-01
1.005996489864379034e-01
1.002134284754795795e-01
9.981843200114523529e-02
9.944084113346028653e-02
9.910721007646759728e-02
9.884397623010894585e-02
9.867695456190755943e-02
9.863082451675204976e-02
9.872861862466451865e-02
9.899122218612191326e-02
9.943689373629310824e-02
1.000808158048207552e-01
1.009346853320441662e-01
1.020063527848914242e-01
1.032995183324168648e-01
1.048134927506074315e-01
1.065430300655701712e-01
1.084782375785093012e-01
1.106045678970201951e-01
1.129028964481685882e-01
1.153496863252428256e-01
1.179172409798802251e-01
1.205740437199650655e-01
1.232851813761383225e-01
1.260128478726054990e-01
1.287169221668648667e-01
1.313556130554832668e-01
1.338861623253795596e-01
1.362655961482566180e-01
1.384515135023188237e-01
1.404028993556160620e-01
1.420809494048148880e-01
1.434498924644621032e-01
1.444777962041614017e-01
1.451373415317497306e-01
1.454065510458992239e-01
1.452694571477050056e-01
1.447166957098553197e-01
1.437460121729097762e-01
1.423626677405145369e-01
1.405797343551898337e-01
1.384182690267215243e-01
1.359073592236445804e-01
1.330840329707105307e-01
1.299930292875652316e-01
1.266864267242575615e-01
1.232231297388160368e-01
1.196682152756825129e-01
1.160921436953678970e-01
1.125698410148334577e-01
1.091796612442327702e-01
1.060022400781209378e-01
1.031192532363284092e-01
1.006120945288410257e-01
9.856049061312149862e-02
9.704107098016730160e-02
9.612591298137398987e-02
9.588108275732090680e-02
9.636519365288123695e-02
9.762800430975045185e-02
9.970907846130265539e-02
1.026365288243499818e-01
1.064258662571447300e-01
1.110789750446347646e-01
1.165832338233455806e-01
1.229108000519040511e-01
1.300180742312050386e-01
1.378453580138404300e-01
1.463167179835499210e-01
1.553400642409006327e-01
1.648074503164015658e-01
1.745955979633180000e-01
1.845666472078452969e-01
1.945691291954556867e-01
2.044391559335550779e-01
2.140018181902099692e-01
2.230727795199901331e-01
2.314600515454634799e-01
2.389659328048614473e-01
2.453890908115924085e-01
2.505267645745086202e-01
2.541770627880173827e-01
2.561413310603527504e-01
2.562265599772549640e-01
2.542478048368742582e-01
2.500305870147534471e-01
2.434132466948742135e-01
2.342492166757027816e-01
2.224091873734092284e-01
2.077831343591001745e-01
1.902821806669832694e-01
1.698402677679554662e-01
1.464156116632201465e-01
1.199919222575111244e-01
9.057936736668517619e-02
5.821526535650174694e-02
2.296449388505816119e-02
-1.508039452489907256e-02
-5.579935588150471831e-02
-9.904533894880195033e-02
-1.446450686506482453e-01
-1.924001232717221788e-01
-2.420882962358141544e-01
-2.934652298815190741e-01
-3.462663050391131536e-01
-4.002087670573600264e-01
-4.549940659605191673e-01
-5.103103854434042352e-01
-5.658353333469295920e-01
-6.212387639892816837e-01
-6.761857010363399034e-01
-7.303393283856017826e-01
-7.833640155866566923e-01
-8.349283439512956706e-01
-8.847080994263412101e-01
-9.323891988514328988e-01
-9.776705168344772545e-01
-1.020266582007899103e+00
-1.059910113024342015e+00
-1.096354366418137660e+00
-1.129375271179175799e+00
-1.158773327426598554e+00
-1.184375249496551818e+00
-1.206035336958507953e+00
-1.223636560448548627e+00
-1.237091352699840607e+00
-1.246342098870537374e+00
-1.251361323698839234e+00
-1.252151576877578387e+00
-1.248745021523197440e+00
-1.241202733952446069e+00
-1.229613726647259986e+00
-1.214093709116634834e+00
-1.194783604686406653e+00
-1.171847843270091172e+00
-1.145472453160663040e+00
-1.115862976610466184e+00
-1.083242235650911711e+00
-1.047847976024927075e+00
-1.009930417934985059e+00
-9.697497430045788347e-01
-9.275735467917989308e-01
-8.836742863993518604e-01
-8.383267516573045253e-01
-7.918055877225534944e-01
-7.443828956380618145e-01
-6.963259356147749601e-01
-6.478949563065129480e-01
-5.993411707544566980e-01
-5.509048976623608374e-01
-5.028138838858463577e-01
-4.552818216915801020e-01
-4.085070711050352577e-01
-3.626715951297382889e-01
-3.179401126933006361e-01
-2.744594711631906936e-01
-2.323582375891787566e-01
-1.917465051285182076e-01
-1.527159084388222676e-01
-1.153398394506762181e-01
-7.967385263361130565e-02
-4.575624692073489153e-02
-1.360880947179285254e-02
1.676229476519143502e-02
4.536550526297463554e-02
7.222273844358689798e-02
9.736816957250381266e-02
1.208469436747724307e-01
1.427138352559329804e-01
1.630318762904998109e-01
1.818709717453293184e-01
1.993065211243472412e-01
2.154180636918755776e-01
2.302879638024629971e-01
2.440001516004113857e-01
2.566389328620489740e-01
2.682878800616040893e-01
2.790288151867993394e-01
2.889408928694391920e-01
2.980997906917612350e-01
3.065770116275219892e-01
3.144393016482640579e-01
3.217481838633314828e-01
3.285596086120823323e-01
3.349237173436264703e-01
3.408847165254874079e-01
3.464808564958603010e-01
3.517445086490571526e-01
3.567023333383162464e-01
3.613755299424773471e-01
3.657801596208112294e-01
3.699275306785952400e-01
3.738246362516082777e-01
3.774746334207852438e-01
3.808773530073206737e-01
3.840298294482054620e-01
3.869268403032721793e-01
3.895614454019950545e-01
3.919255162205011467e-01
3.940102468016687398e-01
3.958066382820890072e-01
3.973059499063241740e-01
3.985001105660975762e-01
3.993820856754367599e-01
3.999461956226165182e-01
4.001883825914946957e-01
4.001064240262102722e-01
3.997000918938352632e-01
3.989712579509476775e-01
3.979239460941783602e-01
3.965643338658728090e-01
3.949007059756969307e-01
3.929433633927862934e-01
3.907044921785322034e-01
3.881979967987734814e-01
3.854393030166254341e-01
3.824451358551166358e-01
3.792332782232804012e-01
3.758223158161826949e-01
3.722313741235385165e-01
3.684798530319244314e-01
3.645871643174040111e-01
3.605724770956889591e-01
3.564544758174487127e-01
3.522511351217426090e-01
3.479795149918677999e-01
3.436555795413439029e-01
3.392940418703759287e-01
3.349082368941698751e-01
3.305100235180506996e-01
3.261097167217825721e-01
3.217160496974368900e-01
3.173361656712602730e-01
3.129756381702316070e-01
3.086385182428758589e-01
3.043274066776808784e-01
3.000435487822751823e-01
2.957869490712416449e-01
2.915565027521576646e-01
2.873501409400414097e-01
2.831649861357466991e-01
2.789975146066079881e-01
2.748437222985450346e-01
2.706992909565935634e-01
2.665597512298748528e-01
2.624206396505476824e-01
2.582776468028874506e-01
2.541267541781966899e-01
2.499643574596666640e-01
2.457873744462954202e-01
2.415933359943583936e-01
2.373804590472179676e-01
2.331477009150925706e-01
2.288947945968936304e-01
2.246222650560608103e-01
2.203314269812213511e-01
2.160243647962647451e-01
2.117038959345677318e-01
2.073735187868317453e-01
2.030373470038820682e-01
1.987000318610330496e-01
1.943666748219311513e-01
1.900427322300402566e-01
1.857339145280911541e-01
1.814460821528262047e-01
1.771851402534393161e-01
1.729569344825720723e-01
1.687671498863648201e-01
1.646212149636470945e-01
1.605242124636716838e-01
1.564807986024015773e-01
1.524951321311317776e-01
1.485708143087336175e-01
1.447108406640847944e-01
1.409175651942588814e-01
1.371926774194137388e-01
1.335371922761997288e-01
1.299514527925978991e-01
1.264351450213146433e-01
1.229873248515293144e-01
1.196064556441893412e-01
1.162904557088296903e-01
1.130367544720809331e-01
1.098423560391397213e-01
1.067039087203498493e-01
1.036177790125691472e-01
1.005801284985554378e-01
9.758699213351189339e-02
9.463435638903903990e-02
9.171823581748736465e-02
8.883474655981213330e-02
8.598017550502258521e-02
8.315104392803997213e-02
8.034416468361715857e-02
7.755669189637000305e-02
7.478616244445356054e-02
7.203052877124674347e-02
6.928818270690720316e-02
6.655797006239920488e-02
6.383919590924634624e-02
6.113162091521983504e-02
5.843544902842131433e-02
5.575130698568604021e-02
5.308021625503796248e-02
5.042355834414230520e-02
4.778303422951410417e-02
4.516061892014743007e-02
4.255851213530952026e-02
3.997908635959310231e-02
3.742483314007321454e-02
3.489830882448644728e-02
3.240208088056463487e-02
2.993867580521294980e-02
2.751052948799538947e-02
2.511994112576545687e-02
2.276903133144506097e-02
2.045970511052193699e-02
1.819362055415242943e-02
1.597216337791900267e-02
1.379642779821488134e-02
1.166720392775208448e-02
9.584971793839026921e-03
7.549901831997692450e-03
5.561861660339812753e-03
3.620428916906828862e-03
1.724909627082076100e-03
-1.256383905730555520e-04
-1.932377603143046454e-03
-3.696659075293658604e-03
-5.419987870569384185e-03
-7.103986061799819236e-03
-8.750354324834390407e-03
-1.036083294612475530e-02
-1.193716296668040702e-02
-1.348104823150194677e-02
-1.499411912830786626e-02
-1.647789883777365724e-02
-1.793377243287000086e-02
-1.936295967432771770e-02
-2.076649181712843933e-02
-2.214519288067513803e-02
-2.349966568319667229e-02
-2.483028272161674072e-02
-2.613718217855135612e-02
-2.742026881463137736e-02
-2.867921991590713024e-02
-2.991349584664000291e-02
-3.112235510285840667e-02
-3.230487338620935400e-02
-3.345996630768161006e-02
-3.458641518978006896e-02
-3.568289551035867119e-02
-3.674800724473343411e-02
-3.778030663329957212e-02
-3.877833857271382328e-02
-3.974066924198114970e-02
-4.066591805186725583e-02
-4.155278849502331423e-02
-4.240009723075075648e-02
-4.320680091220097108e-02
-4.397202023680640143e-02
-4.469506082928566271e-02
-4.537543053052013609e-02
-4.601285277025371490e-02
-4.660727602451585766e-02
-4.715887894765620481e-02
-4.766807131458038194e-02
-4.813549066865693837e-02
-4.856199474325522542e-02
-4.894865006479660885e-02
-4.929671670104296410e-02
-4.960762961503265012e-02
-4.988297691415229801e-02
-5.012447542039884241e-02
-5.033394408263620196e-02
-5.051327564301400647e-02
-5.066440706329861793e-02
-5.078928933976552956e-02
-5.088985713422561341e-02
-5.096799880697806817e-02
-5.102552731196792479e-02
-5.106415252720996473e-02
-5.108545545000802574e-02
-5.109086465631352408e-02
-5.108163541114571493e-02
-5.105883185829958315e-02
-5.102331242010437612e-02
-5.097571874328078040e-02
-5.091646829853578582e-02
-5.084575068620009880e-02
-5.076352782732969360e-02
-5.066953784654837367e-02
-5.056330259946064526e-02
-5.044413874231849088e-02
-5.031117215452391572e-02
-5.016335537231170899e-02
-4.999948772518119505e-02
-4.981823791858121936e-02
-4.961816869473675840e-02
-4.939776304869063217e-02
-4.915545164517132887e-02
-4.888964105687736844e-02
-4.859874227186644635e-02
-4.828119910138971294e-02
-4.793551603457603394e-02
-4.756028503901273824e-02
-4.715421117253207339e-02
-4.671613631470765415e-02
-4.624506089573179185e-02
-4.574016317688225225e-02
-4.520081599223177427e-02
-4.462660053635127133e-02
-4.401731720232685691e-02
-4.337299322580133454e-02
-4.269388718632794594e-02
-4.198049011905539973e-02
-4.123352351945069882e-02
-4.045393414650908653e-02
-3.964288576518590346e-02
-3.880174799868201657e-02
-3.793208249880824362e-02
-3.703562661498423919e-02
-3.611427486036780654e-02
-3.517005838498189763e-02
-3.420512289294522917e-02
-3.322170521466934895e-02
-3.222210887837585053e-02
-3.120867904247712557e-02
-3.018377714599077347e-02
-2.914975557358443284e-02
-2.810893271509902827e-02
-2.706356866771323852e-02
-2.601584193311141935e-02
-2.496782739553190036e-02
-2.392147587240973580e-02
-2.287859530250553608e-02
-2.184083394879994186e-02
-2.080966576508597871e-02
-1.978637803670568046e-02
-1.877206140250768304e-02
-1.776760237861228081e-02
-1.677367832927347674e-02
-1.579075503294394972e-02
-1.481908671858208140e-02
-1.385871856802813398e-02
-1.290949166861179651e-02
-1.197105018282037907e-02
-1.104285062342218009e-02
-1.012417324205764670e-02
-9.214135173351019337e-03
-8.311705241963569801e-03
-7.415720230525816095e-03
-6.524902326094174192e-03
-5.637877615323631797e-03
-4.753195339616368871e-03
-3.869347713955270749e-03
-2.984790045878838675e-03
-2.097960940640171065e-03
-1.207302410065935142e-03
-3.112795994611988596e-04
5.916000183118480917e-04
1.502768156570725381e-03
2.423578243850966346e-03
3.355288950634952808e-03
4.299049017137128621e-03
5.255883387694617985e-03
6.226680889773715706e-03
7.212183497223592643e-03
8.212977199633072004e-03
9.229484658499487182e-03
1.026195958900523800e-02
1.131048292642402968e-02
1.237496076590976005e-02
1.345512412245536589e-02
1.455053040682893588e-02
1.566056656679389383e-02
1.678445390511172294e-02
1.792125439653438623e-02
1.906987848783165199e-02
2.022909425353477259e-02
2.139753783528950543e-02
2.257372493441015329e-02
2.375606333355694336e-02
2.494286627228381806e-02
2.613236655564893027e-02
2.732273117234897131e-02
2.851207635418384970e-02
2.969848291362094800e-02
3.088001171548673818e-02
3.205471907952294613e-02
3.322067198806619853e-02
3.437596308328457612e-02
3.551872509307184983e-02
3.664714477323729319e-02
3.775947611743702553e-02
3.885405270582625165e-02
3.992929918293945668e-02
4.098374174601508019e-02
4.201601749063216956e-02
4.302488264013761693e-02
4.400921955217600851e-02
4.496804241439163186e-02
4.590050168337751757e-02
4.680588721150333309e-02
4.768362998659520652e-02
4.853330261599907852e-02
4.935461849509199805e-02
5.014742970845716130e-02
5.091172358362736766e-02
5.164761819921992458e-02
5.235535668026189415e-02
5.303530051745828505e-02
5.368792188133349880e-02
5.431379509130579430e-02
5.491358728290709340e-02
5.548804837066443479e-02
5.603800050717259312e-02
5.656432698352555077e-02
5.706796083922875684e-02
5.754987323468317012e-02
5.801106173954394263e-02
5.845253858406102010e-02
5.887531896685388455e-02
5.928040960684268640e-02
5.966879766250729467e-02
6.004144000326355063e-02
6.039925299632913080e-02
6.074310286612141785e-02
6.107379667597781503e-02
6.139207412276343617e-02
6.169860007931076556e-02
6.199395795179778179e-02
6.227864395965062444e-02
6.255306222765286139e-02
6.281752089990808030e-02
6.307222908962252517e-02
6.331729483708502249e-02
6.355272398814236501e-02
6.377841990477431389e-02
6.399418414658959720e-02
6.419971793133433247e-02
6.439462438647465536e-02
6.457841164128948208e-02
6.475049659589109108e-02
6.491020929931620720e-02
6.505679793909860398e-02
6.518943443963301498e-02
6.530722043219333584e-02
6.540919360510449865e-02
6.549433448814122316e-02
6.556157343513330238e-02
6.560979783985110281e-02
6.563785943907253506e-02
6.564458174499611387e-02
6.562876745726911598e-02
6.558920593577852176e-02
6.552468045703209454e-02
6.543397543104124969e-02
6.531588338726102005e-02
6.516921179062860892e-02
6.499278955533802082e-02
6.478547337056982103e-02
6.454615360694747339e-02
6.427375993181203007e-02
6.396726667138570577e-02
6.362569770839832106e-02
6.324813102189372205e-02
6.283370290711302875e-02
6.238161172543935790e-02
6.189112136130395236e-02
6.136156421813807743e-02
6.079234386248941885e-02
6.018293732092507703e-02
5.953289697297470262e-02
5.884185208797578642e-02
5.810950999907196074e-02
5.733565690816472271e-02
5.652015839352346471e-02
5.566295959868368393e-02
5.476408505108319030e-02
5.382363816107782473e-02
5.284180052052547816e-02
5.181883083196924672e-02
5.075506355074903275e-02
4.965090743472092699e-02
4.850684367366186328e-02
4.732342387838701231e-02
4.610126786297045337e-02
4.484106117446413908e-02
4.354355246767815935e-02
4.220955075897140502e-02
4.083992251051683092e-02
3.943558860124495025e-02
3.799752122733811993e-02
3.652674066912058731e-02
3.502431196084864612e-02
3.349134165380677347e-02
3.192897450005529464e-02
3.033839008962019648e-02
2.872079963085138327e-02
2.707744270059889852e-02
2.540958406969858266e-02
2.371851062655347397e-02
2.200552841677533636e-02
2.027195983660110695e-02
1.851914089285938703e-02
1.674841860998608351e-02
1.496114869447346014e-02
1.315869323320829204e-02
1.134241862137511624e-02
9.513693680170742795e-03
7.673887897655007513e-03
5.824369841438860676e-03
3.966505774194031310e-03
2.101658294436815812e-03
2.311851573896166016e-04
-1.643561706468755004e-03
-3.521237230693909266e-03
-5.400504105515608819e-03
-7.280033598847290323e-03
-9.158506344417775835e-03
-1.103461319091791557e-02
-1.290705604092334119e-02
-1.477454870132242568e-02
-1.663581781372308610e-02
-1.848960376461029897e-02
-2.033466187801429362e-02
-2.216976352450972590e-02
-2.399369746468973247e-02
-2.580527125219258741e-02
-2.760331275767287026e-02
-2.938667183570322847e-02
-3.115422211500899416e-02
-3.290486285589183657e-02
-3.463752089983530152e-02
-3.635115268458421339e-02
-3.804474629165420507e-02
-3.971732357379893080e-02
-4.136794217939440688e-02
-4.299569755877993837e-02
-4.459972491307518522e-02
-4.617920087413122238e-02
-4.773334518283171846e-02
-4.926142213281090726e-02
-5.076274169276025899e-02
-5.223666038411895612e-02
-5.368258183996573590e-02
-5.509995693287391555e-02
-5.648828367351856755e-02
-5.784710660301108781e-02
-5.917601581035861896e-02
-6.047464545940350183e-02
-6.174267191702059038e-02
-6.297981146134667974e-02
-6.418581755779999287e-02
-6.536047770547014080e-02
-6.650360989647001453e-02
-6.761505879807432062e-02
-6.869469158840467438e-02
-6.974239356838553283e-02
-7.075806360297560993e-02
-7.174160933965059717e-02
-7.269294250183643002e-02
-7.361197408398373332e-02
-7.449860963944508752e-02
-7.535274483726782380e-02
-7.617426122384894638e-02
-7.696302225485783521e-02
-7.771886978550135439e-02
-7.844162104725356521e-02
-7.913106614987394649e-02
-7.978696619217102992e-02
-8.040905213482275882e-02
-8.099702424681685942e-02
-8.155055244283299087e-02
-8.206927733373294009e-02
-8.255281211927283092e-02
-8.300074529630360742e-02
-8.341264412524440619e-02
-8.378805895953084226e-02
-8.412652824361430137e-02
-8.442758429253385821e-02
-8.469075966611626372e-02
-8.491559412697013975e-02
-8.510164211361170850e-02
-8.524848058387024530e-02
-8.535571714851501735e-02
-8.542299846024754839e-02
-8.545001861572922019e-02
-8.543652745561874928e-02
-8.538233879724745068e-02
-8.528733837565977138e-02
-8.515149119168753666e-02
-8.497484850692228753e-02
-8.475755406267482250e-02
-8.449984956427425420e-02
-8.420207923091918567e-02
-8.386469344310951146e-02
-8.348825133809945065e-02
-8.307342217886523605e-02
-8.262098563959080488e-02
-8.213183086660917620e-02
-8.160695424482558580e-02
-8.104745596435636301e-02
-8.045453539309539714e-02
-7.982948518207647060e-02
-7.917368428326665430e-02
-7.848858981743164764e-02
-7.777572802745710834e-02
-7.703668425635759598e-02
-7.627309220301280168e-02
-7.548662246774115459e-02
-7.467897054675658175e-02
-7.385184455166179940e-02
-7.300695260794813624e-02
-7.214599025746006034e-02
-7.127062790494874400e-02
-7.038249857585100744e-02
-6.948318606817138754e-02
-6.857421364969075450e-02
-6.765703353220277327e-02
-6.673301722232496958e-02
-6.580344689054197505e-02
-6.486950783104697416e-02
-6.393228217110633049e-02
-6.299274386994478669e-02
-6.205175518251813266e-02
-6.111006446086232613e-02
-6.016830554182785867e-02
-5.922699856161845605e-02
-5.828655218655699743e-02
-5.734726743185747377e-02
-5.640934275131913311e-02
-5.547288060574890461e-02
-5.453789505809959054e-02
-5.360432065082285785e-02
-5.267202229479247405e-02
-5.174080597425406713e-02
-5.081043017484062480e-02
-4.988061790592432376e-02
-4.895106912693145129e-02
-4.802147335658323024e-02
-4.709152233306623803e-02
-4.616092249270611902e-02
-4.522940718763612811e-02
-4.429674832105814919e-02
-4.336276738166579964e-02
-4.242734566071917901e-02
-4.149043339321764612e-02
-4.055205789225790891e-02
-3.961233034918038715e-02
-3.867145142952998355e-02
-3.772971536553895722e-02
-3.678751256550528287e-02
-3.584533074147418230e-02
-3.490375439234780913e-02
-3.396346280703173293e-02
-3.302522654914819000e-02
-3.208990237954956193e-02
-3.115842679819907229e-02
-3.023180821262146101e-02
-2.931111784613170401e-02
-2.839747950261132733e-02
-2.749205841859699712e-02
-2.659604914983064103e-02
-2.571066279071428790e-02
-2.483711373611697387e-02
-2.397660605399030975e-02
-2.313031967198796168e-02
-2.229939667077700249e-02
-2.148492768980146683e-02
-2.068793875371421551e-02
-1.990937870327413525e-02
-1.915010733387827527e-02
-1.841088443837624739e-02
-1.769235988973848553e-02
-1.699506498569202176e-02
-1.631940498364788800e-02
-1.566565313352625069e-02
-1.503394615144320635e-02
-1.442428128506881291e-02
-1.383651504371846697e-02
-1.327036345461269327e-02
-1.272540403836979958e-02
-1.220107947695459917e-02
-1.169670271060456977e-02
-1.121146364802789834e-02
-1.074443738415390738e-02
-1.029459369303254573e-02
-9.860807794480360919e-03
-9.441872309848336683e-03
-9.036510099777390545e-03
-8.643387953773526075e-03
-8.261130997056245068e-03
-7.888337563084935056e-03
-7.523594316339240161e-03
-7.165491543832043161e-03
-6.812638422868048070e-03
-6.463677985200458678e-03
-6.117301704547690490e-03
-5.772263505427782659e-03
-5.427392973529477152e-03
-5.081607725231373357e-03
-4.733924620882634833e-03
-4.383469795820526746e-03
-4.029487462584374451e-03
-3.671347248129985894e-03
-3.308550007158981253e-03
-2.940732101966036030e-03
-2.567668083917547771e-03
-2.189271761453335727e-03
-1.805595544961780463e-03
-1.416828231009097452e-03
-1.023291208874339440e-03
-6.254330455661688938e-04
-2.238226528663746359e-04
1.808589193459570236e-04
5.878279726302321814e-04
9.962088210487441298e-04
1.405045510244968187e-03
1.813314378149053635e-03
2.219937345359361720e-03
2.623795765851257358e-03
3.023744702299332923e-03
3.418627399508395587e-03
3.807289754559797183e-03
4.188594735825901423e-03
4.561436441370833421e-03
4.924753712851013057e-03
5.277543128036437346e-03
5.618871123535248112e-03
5.947885301514016856e-03
6.263824635670839185e-03
6.566028421011642011e-03
6.853944034941346526e-03
7.127133316520507626e-03
7.385277479445216155e-03
7.628180609791534138e-03
7.855771598740617090e-03
8.068104542429455073e-03
8.265357597036671056e-03
8.447830430727406789e-03
8.615940160968770314e-03
8.770215912893302226e-03
8.911292045666917641e-03
9.039900149363868515e-03
9.156860014290045882e-03
9.263069585700554540e-03
9.359494016713897080e-03
9.447154053962269690e-03
9.527113754108843327e-03
9.600468009463597463e-03
9.668329702969191350e-03
9.731816795070786022e-03
9.792039412881510876e-03
9.850087330483895884e-03
9.907017759007798186e-03
9.963843689095209719e-03
1.002152286505057083e-02
1.008094769451589948e-02
1.014293595675967198e-02
1.020822262129265218e-02
1.027745267927457871e-02
1.035117531992564045e-02
1.042983923016506387e-02
1.051378921192120015e-02
1.060326411651730215e-02
1.069839611527025405e-02
1.079921125527909774e-02
1.090563119240953172e-02
1.101747628557876030e-02
1.113446981005243586e-02
1.125624317908650342e-02
1.138234223656963383e-02
1.151223442559866188e-02
1.164531677286985249e-02
1.178092442733233262e-02
1.191833981884369772e-02
1.205680221257173466e-02
1.219551755778119223e-02
1.233366839550699423e-02
1.247042377081196939e-02
1.260494908460494876e-02
1.273641567356610486e-02
1.286400997689049648e-02
1.298694224706847290e-02
1.310445465059410959e-02
1.321582869583217204e-02
1.332039197848703359e-02
1.341752406135505483e-02
1.350666149468441636e-02
1.358730188181463301e-02
1.365900714084934166e-02
1.372140578793603662e-02
1.377419425377290549e-02
1.381713732495222849e-02
1.385006779640572672e-02
1.387288526513397353e-02
1.388555412846745329e-02
1.388810087947855466e-02
1.388061089847031360e-02
1.386322463557136328e-02
1.383613332851036000e-02
1.379957437951046494e-02
1.375382654549123750e-02
1.369920487448154228e-02
1.363605562453445129e-02
1.356475113738789956e-02
1.348568486087577643e-02
1.339926649737376019e-02
1.330591748732082476e-02
1.320606675697293987e-02
1.310014682086867339e-02
1.298859027912245383e-02
1.287182680899616807e-02
1.275028054400893958e-02
1.262436798662428666e-02
1.249449638755567062e-02
1.236106252454018117e-02
1.222445201227286005e-02
1.208503902642357047e-02
1.194318633546228962e-02
1.179924566980988972e-02
1.165355837378637301e-02
1.150645633025526235e-02
1.135826297115254471e-02
1.120929442001594202e-02
1.105986070562528685e-02
1.091026687877387491e-02
1.076081403319963450e-02
1.061180032780344000e-02
1.046352168451416403e-02
1.031627227765744524e-02
1.017034476954345977e-02
1.002603025475995446e-02
9.883617819884567279e-03
9.743393783642756087e-03
9.605640674537908527e-03
9.470635770290121436e-03
9.338649361258026180e-03
9.209942773359895696e-03
9.084766089403048528e-03
8.963355675163523287e-03
8.845931498419126737e-03
8.732694406109775195e-03
8.623823274355350149e-03
8.519472236402057808e-03
8.419767960507792970e-03
8.324807120635690713e-03
8.234654016209643976e-03
8.149338492257435229e-03
8.068854178567065952e-03
7.993157140863460519e-03
7.922164945724086485e-03
7.855756228589104440e-03
7.793770713442265546e-03
7.736009879593319476e-03
7.682238060084584964e-03
7.632184156846001655e-03
7.585543810934698011e-03
7.541982178812323481e-03
7.501137125664380546e-03
7.462622925837963939e-03
7.426034359004059747e-03
7.390951052068698950e-03
7.356942214795087094e-03
7.323571494495205274e-03
7.290402003542677083e-03
7.257001362389135964e-03
7.222946624153850186e-03
7.187829222983458700e-03
7.151259603584133283e-03
7.112871574925782106e-03
7.072326260303109235e-03
7.029315646194560056e-03
6.983565588652526634e-03
6.934838282511446989e-03
6.882934071981498293e-03
6.827692634681506792e-03
6.768993538563053587e-03
6.706756078469651265e-03
6.640938440899346422e-03
6.571536165039505717e-03
6.498580042988029264e-03
6.422133368598888399e-03
6.342288638621738570e-03
6.259163775634303192e-03
6.172897945291730415e-03
6.083647084452355018e-03
5.991579144996210700e-03
5.896869167221368592e-03
5.799694348668832725e-03
5.700229122899151159e-03
5.598640390648323799e-03
5.495082978329133075e-03
5.389695489259091477e-03
5.282596524830609173e-03
5.173881429327491059e-03
5.063619568052457609e-03
4.951852288703499118e-03
4.838591563135799870e-03
4.723819329161961338e-03
4.607487589837439695e-03
4.489519261130548583e-03
4.369809760126812728e-03
4.248229317911527032e-03
4.124625927769355951e-03
3.998829059155814547e-03
3.870653829413994457e-03
3.739905713281874503e-03
3.606385640594014178e-03
3.469895500267900640e-03
3.330243733850331723e-03
3.187251095431058341e-03
3.040756382745499285e-03
2.890622102473607100e-03
2.736739771778505005e-03
2.579034990304833377e-03
2.417472013636370615e-03
2.252057720944649049e-03
2.082844981138939986e-03
1.909935238164655507e-03
1.733480322414959014e-03
1.553683392213575133e-03
1.370798879524250851e-03
1.185131693502313593e-03
9.970353676927246403e-04
8.069092694413344466e-04
6.151949004669594661e-04
4.223713417571359902e-04
2.289499028147570824e-04
3.546801490258156262e-05
-1.575175154131345113e-04
-3.494377964520649122e-04
-5.397195638705104244e-04
-7.277932071260968892e-04
-9.131009867877961381e-04
-1.095105340498681848e-03
-1.273297036617009395e-03
-1.447203101558155970e-03
-1.616394388768050252e-03
-1.780492648296591379e-03
-1.939176971290504977e-03
-2.092189445518391651e-03
-2.239340009339963519e-03
-2.380510327514248972e-03
-2.515656615398871847e-03
-2.644811378269432221e-03
-2.768084023711399680e-03
-2.885660237003490145e-03
-2.997800220166399552e-03
-3.104835723481883577e-03
-3.207165939175796697e-03
-3.305252268311405922e-03
-3.399612039019418112e-03
-3.490811258985540393e-03
-3.579456470704612831e-03
-3.666185912788703320e-03
-3.751659993467429920e-03
-3.836551255896554925e-03
-3.921534039693963351e-03
-4.007273895557621549e-03
-4.094416928307349421e-03
-4.183579321995695502e-03
-4.275337048253853751e-03
-4.370216072787781562e-03
-4.468683000486738457e-03
-4.571136512091088233e-03
-4.677899623219986154e-03
-4.789212872953158701e-03
-4.905228611614373055e-03
-5.026006368335592459e-03
-5.151509477510816774e-03
-5.281602929994199530e-03
-5.416052599896649042e-03
-5.554525773170611996e-03
-5.696592956975555545e-03
-5.841731069839341088e-03
-5.989327838087415458e-03
-6.138687430521824230e-03
-6.289037196025885554e-03
-6.439535543003528130e-03
-6.589280682860433440e-03
-6.737320277802293089e-03
-6.882661710927368177e-03
-7.024282997560212134e-03
-7.161144137933581587e-03
-7.292198716931678690e-03
-7.416405637936922951e-03
-7.532740921598449040e-03
-7.640209295619542103e-03
-7.737855465843768155e-03
-7.824775033675282140e-03
-7.900124801117751686e-03
-7.963132390133327923e-03
-8.013105062990862060e-03
-8.049437647481528027e-03
-8.071619492393860423e-03
-8.079240372022856650e-03
-8.071995242370752152e-03
-8.049687890088443737e-03
-8.012233396451113807e-03
-7.959659352704973739e-03
-7.892105887614790649e-03
-7.809824551852429138e-03
-7.713176003203398023e-03
-7.602626645136850540e-03
-7.478744156585791919e-03
-7.342192103966254865e-03
-7.193723471956476462e-03
-7.034173533781099517e-03
-6.864451863913239270e-03
-6.685533780075045805e-03
-6.498451201060910683e-03
-6.304283120615627664e-03
-6.104145673727062911e-03
-5.899182048501691589e-03
-5.690552266757840406e-03
-5.479422868272239115e-03
-5.266956792022037953e-03
-5.054303402879325828e-03
-4.842588850913398871e-03
-4.632906774480962005e-03
-4.426309448420573910e-03
-4.223799485193181942e-03
-4.026322197872526237e-03
-3.834758565673540304e-03
-3.649918965240591708e-03
-3.472537648239550512e-03
-3.303268025335058967e-03
-3.142678818946921873e-03
-2.991251107063325112e-03
-2.849376190765129640e-03
-2.717354413217182643e-03
-2.595394806103133896e-03
-2.483615634364215886e-03
-2.382045821808981712e-03
-2.290627202287516106e-03
-2.209217592660743263e-03
-2.137594608135018944e-03
-2.075460218547245297e-03
-2.022446003436405466e-03
-1.978118937339673825e-03
-1.941987845424473320e-03
-1.913510321757675619e-03
-1.892100022950460401e-03
-1.877134354534568290e-03
-1.867962476764897664e-03
-1.863913426572397659e-03
-1.864304306192221322e-03
-1.868448609418398108e-03
-1.875664393088460630e-03
-1.885282323982833026e-03
-1.896653476831151050e-03
-1.909156825493671427e-03
-1.922206300601516423e-03
-1.935257389419158284e-03
-1.947813099845512345e-03
-1.959429339683727272e-03
-1.969719582210082212e-03
-1.978358718676310243e-03
-1.985086083207287903e-03
-1.989707688062946310e-03
-1.992097475950020246e-03
-1.992197697883692047e-03
-1.990018388781773350e-03
-1.985635824044166154e-03
-1.979190045381260844e-03
-1.970881523535477405e-03
-1.960966894987088097e-03
-1.949753927189147324e-03
-1.937595622731187218e-03
-1.924883697177472066e-03
-1.912041436797772389e-03
-1.899515974752463482e-03
-1.887770170814443088e-03
-1.877274168884365000e-03
-1.868496692786321238e-03
-1.861896357704350118e-03
-1.857913016861103325e-03
-1.856959188889323060e-03
-1.859411826726178885e-03
-1.865604570504316405e-03
-1.875820481347499451e-03
-1.890285480853145942e-03
-1.909162617699572320e-03
-1.932547149273051339e-03
-1.960462647989612544e-03
-1.992858170893530359e-03
-2.029606476247725923e-03
-2.070503448211944136e-03
-2.115268760767117281e-03
-2.163547724901295714e-03
-2.214914317549717109e-03
-2.268875470540258291e-03
-2.324876426998457452e-03
-2.382307150319654902e-03
-2.440509845289736204e-03
-2.498787292709974458e-03
-2.556411960215873580e-03
-2.612635846202198461e-03
-2.666700777548202620e-03
-2.717849064058600484e-03
-2.765334377691071061e-03
-2.808432648083967597e-03
-2.846452836510562391e-03
-2.878747366267255751e-03
-2.904722030857758396e-03
-2.923845362936723213e-03
-2.935657044516447323e-03
-2.939775429341792961e-03
-2.935903974873872290e-03
-2.923836389400432008e-03
-2.903460508579565249e-03
-2.874760749349288859e-03
-2.837819030214992939e-03
-2.792814226129650829e-03
-2.740020122718337791e-03
-2.679801791751454214e-03
-2.612610486376988617e-03
-2.538977156229310726e-03
-2.459504617191133648e-03
-2.374858410488557732e-03
-2.285756580520051633e-03
-2.192958543567533058e-03
-2.097253146703628290e-03
-1.999446146191607640e-03
-1.900347210905019941e-03
-1.800756823900511762e-03
-1.701453077968948261e-03
-1.603178770412384954e-03
-1.506628934547153730e-03
-1.412439044056221053e-03
-1.321174021900613314e-03
-1.233318362592827682e-03
-1.149267484901917271e-03
-1.069320427173130325e-03
-9.936740929439706084e-04
-9.224191637373336475e-04
-8.555377619095410648e-04
-7.929029031018005420e-04
-7.342798104233223171e-04
-6.793290939510309833e-04
-6.276117288836870547e-04
-5.785957606158175079e-04
-5.316648092151474159e-04
-4.861280745592930436e-04
-4.412317766840940375e-04
-3.961719275437036942e-04
-3.501081243173863712e-04
-3.021782409454205225e-04
-2.515137838109223921e-04
-1.972556508434436409e-04
-1.385700595306291205e-04
-7.466440444847545867e-05
-4.802756957646843090e-06
7.167924237838503825e-05
1.553602716660919150e-04
2.467203578990868548e-04
3.461291966045172046e-04
4.538359467913921207e-04
5.699607323184155416e-04
6.944879213576001659e-04
8.272614409934524009e-04
9.679821305575707661e-04
1.116207186424446980e-03
1.271351904495759532e-03
1.432693524592960075e-03
1.599377183981582490e-03
1.770424001369291442e-03
1.944741126067650507e-03
2.121133703925181906e-03
2.298318486237911195e-03
2.474938998126048704e-03
2.649581976444281579e-03
2.820794930006175968e-03
2.987104550027523068e-03
3.147035654062599070e-03
3.299130474653821400e-03
3.441968012439189980e-03
3.574183127097722412e-03
3.694485059478671077e-03
3.801675310705128312e-03
3.894664431081219704e-03
3.972487484696265135e-03
4.034318121560647244e-03
4.079480875210292172e-03
4.107461638682348946e-03
4.117916133558654698e-03
4.110676233332635938e-03
4.085754079424038128e-03
4.043343924477941706e-03
3.983821690258830366e-03
3.907742211865273228e-03
3.815834275268923260e-03
3.708993466527939816e-03
3.588272945177255896e-03
3.454872308222216304e-03
3.310124646454969642e-03
3.155482029235367851e-03
2.992499526523548312e-03
2.822818156459055289e-03
2.648146768187011058e-03
2.470243280292231270e-03
2.290895367871916780e-03
2.111901039520120912e-03
1.935049110053576379e-03
1.762100072063897769e-03
1.594767354033875756e-03
1.434699369521030528e-03
1.283462439439175557e-03
1.142524896080988504e-03
1.013242428670813175e-03
8.968448525504697224e-04
7.944245665988217435e-04
7.069265511757029255e-04
6.351402277108281333e-04
5.796930614196233421e-04
5.410460515408892831e-04
5.194910558727985385e-04
5.151499281243862756e-04
5.279754529211376328e-04
5.577540406175512467e-04
6.041100697570488121e-04
6.665117611188603767e-04
7.442785145652128318e-04
8.365895244015966866e-04
9.424936647513705709e-04
1.060920266308045846e-03
1.190690908002819308e-03
1.330531951095382387e-03
1.479087575485274909e-03
1.634933320745008767e-03
1.796589849699366769e-03
1.962536916061393810e-03
2.131227301819152865e-03
2.301100638355732357e-03
2.470597013100618404e-03
2.638170174477089906e-03
2.802300316718304551e-03
2.961506361254361962e-03
3.114357612881268195e-03
3.259484730924761681e-03
3.395589944941023938e-03
3.521456534800996522e-03
3.635957476214349195e-03
3.738063267763444032e-03
3.826848938177507351e-03
3.901500123710829795e-03
3.961318321016487828e-03
4.005725245262747522e-03
4.034266313278489849e-03
4.046613332589125631e-03
4.042566267948268649e-03
4.022054191942544925e-03
3.985135375094721669e-03
3.931996542107978401e-03
3.862951340472127373e-03
3.778437979630407551e-03
3.679016088987097002e-03
3.565362788017731235e-03
3.438267987488532844e-03
3.298628905791093670e-03
3.147443843201330575e-03
2.985805271804116770e-03
2.814892095281747164e-03
2.635961286929104207e-03
2.450338839533564884e-03
2.259410123637065320e-03
2.064609612166931965e-03
1.867410056013325608e-03
1.669311178695671253e-03
1.471827922217003922e-03
1.276478351961119265e-03
1.084771282802427959e-03
8.981937083949784574e-04
7.181981079626398833e-04
5.461898626593100726e-04
3.835146910814851706e-04
2.314463695792393159e-04
9.117484837020148694e-05
-3.620520468546438176e-05
-1.497051520895084176e-04
-2.484524697016826851e-04
-3.316998888820573929e-04
-3.988335021658816529e-04
-4.493798542803150212e-04
-4.830117152758095977e-04
-4.995525721247774621e-04
-4.989796696698498273e-04
-4.814255879462315288e-04
-4.471782250380572062e-04
-3.966792561331496710e-04
-3.305208969121942002e-04
-2.494411275386801776e-04
-1.543172535852907121e-04
-4.615796674783240704e-05
7.390607525589917555e-05
2.046331420493425481e-04
3.446825776331953082e-04
4.926281378843532953e-04
6.469723822713388224e-04
8.061618647580038200e-04
9.686031681532479001e-04
1.132679330596872728e-03
1.296766613207686212e-03
1.459251395059928515e-03
1.618546954538082477e-03
1.773109947646891657e-03
1.921456284847144341e-03
2.062176363522784991e-03
2.193949373304175925e-03
2.315556415504413292e-03
2.425892385325423718e-03
2.523976418975673423e-03
2.608960710810094390e-03
2.680137714368444578e-03
2.736945539363432132e-03
2.778971540092801083e-03
2.805953985694999934e-03
2.817781873371714031e-03
2.814492860183704682e-03
2.796269447604162166e-03
2.763433358444215317e-03
2.716438283209087964e-03
2.655861157279526888e-03
2.582392085724191828e-03
2.496823003846473498e-03
2.400035386247778135e-03
2.292987090852397457e-03
2.176698625388436698e-03
2.052239055537955718e-03
1.920711669733433501e-03
1.783239754758385613e-03
1.640952622401693544e-03
1.494972076499601369e-03
1.346399597771573853e-03
1.196304346844510392e-03
1.045712165806611570e-03
8.955957648153575366e-04
7.468662218842185736e-04
6.003658519517733995e-04
4.568624898287782237e-04
3.170453186973406102e-04
1.815222032100158864e-04
5.081852013066204488e-05
-7.462250223957228275e-05
-1.944380998418302896e-04
-3.083429496029374312e-04
-4.161249217907918383e-04
-5.176397711817934139e-04
-6.128047861511321448e-04
-7.015919258025291472e-04
-7.840202029196135852e-04
-8.601476929593022611e-04
-9.300632607347100430e-04
-9.938783453085299393e-04
-1.051718836240925128e-03
-1.103717377064522120e-03
-1.150006051374339753e-03
-1.190709839498374544e-03
-1.225940768529065489e-03
-1.255793065334499369e-03
-1.280339208310909667e-03
-1.299627161884225890e-03
-1.313678695829898022e-03
-1.322488862111090334e-03
-1.326026627209786609e-03
-1.324236658220192663e-03
-1.317042140612772767e-03
-1.304348583997902867e-03
-1.286048599434890319e-03
-1.262027398177665519e-03
-1.232168910509235131e-03
-1.196362481021732722e-03
-1.154509819142737108e-03
-1.106532172506447410e-03
-1.052377417112645595e-03
-9.920270052689130532e-04
-9.255025555347228547e-04
-8.528719319400633690e-04
-7.742546081185157662e-04
-6.898261871583476765e-04
-5.998220352787350836e-04
-5.045398208261580491e-04
-4.043409255054343835e-04
-2.996506281215991050e-04
-1.909570490197061356e-04
-7.880884793898922786e-05
3.618829849253326193e-05
1.533764208442738345e-04
2.720511402172688816e-04
3.914686358948803852e-04
5.108534980468792605e-04
6.294073883403608584e-04
7.463183615429590289e-04
8.607706668940499255e-04
9.719548673272057409e-04
1.079078078069128661e-03
1.181374189685793557e-03
1.278113822386817708e-03
1.368613807108860075e-03
1.452246087289245195e-03
1.528445864753667782e-03
1.596718787679704023e-03
1.656647017867197112e-03
1.707894147137291666e-03
1.750208777892185187e-03
1.783426863872058588e-03
1.807472547436471443e-03
1.822357590846437458e-03
1.828179357444899723e-03
1.825117399711950186e-03
1.813428801761851096e-03
1.793442213121070397e-03
1.765550781955105113e-03
1.730204080204868081e-03
1.687899197508078118e-03
1.639171167912623506e-03
1.584582838405487791e-03
1.524714460025489854e-03
1.460153140547247727e-03
1.391482414795661886e-03
1.319272050516831409e-03
1.244068371190462565e-03
1.166385092361695800e-03
1.086695067832600366e-03
1.005422962506042923e-03
9.229389607963615167e-04
8.395536933723935077e-04
7.555144857785229748e-04
6.710028065053722218e-04
5.861331821925726271e-04
5.009534853892751594e-04
4.154465457980591257e-04
3.295330629581192587e-04
2.430758155610862614e-04
1.558849850359923491e-04
6.772447864033827845e-05
-2.168074781172951783e-05
-1.126366783704350449e-04
-2.054716378967764284e-04
-3.005272172183394300e-04
-3.981489765157280583e-04
-4.986770440743684999e-04
-6.024368074582550203e-04
-7.097299186537062545e-04
-8.208256711810676086e-04
-9.359529739391361401e-04
-1.055293098247380400e-03
-1.178973161562451829e-03
-1.307060660660458711e-03
-1.439558921027342137e-03
-1.576403697818160553e-03
-1.717460839704739632e-03
-1.862525159985005136e-03
-2.011320389863410687e-03
-2.163500254667090426e-03
-2.318650562310764149e-03
-2.476292344175520278e-03
-2.635885810720078447e-03
-2.796835232387037250e-03
-2.958494420395724189e-03
-3.120172884221078784e-03
-3.281142434635891860e-03
-3.440644142160488323e-03
-3.597895512202534986e-03
-3.752097818355371126e-03
-3.902443404518536520e-03
-4.048122950044164350e-03
-4.188332463008396719e-03
-4.322280140674783847e-03
-4.449192806069875161e-03
-4.568322020302596070e-03
-4.678949739842287216e-03
-4.780393674734215517e-03
-4.872012108153152450e-03
-4.953208378424439964e-03
-5.023434912573601988e-03
-5.082196945070105269e-03
-5.129055935625514116e-03
-5.163632679157531026e-03
-5.185610290473672244e-03
-5.194736915500009281e-03
-5.190828420420074384e-03
-5.173770999412676160e-03
-5.143523696095973936e-03
-5.100120920638748917e-03
-5.043675030382975717e-03
-4.974378876885518844e-03
-4.892508310667409606e-03
-4.798424666003399050e-03
-4.692577067824013626e-03
-4.575504571823880984e-03
-4.447838047138708700e-03
-4.310301598559727713e-03
-4.163713534273121714e-03
-4.008986677100000173e-03
-3.847127897409344417e-03
-3.679236639358208528e-03
-3.506502475024094161e-03
-3.330201378148502610e-03
-3.151690720602827369e-03
-2.972402727237686594e-03
-2.793836400184418218e-03
-2.617547873880261139e-03
-2.445138993950008149e-03
-2.278244221581259433e-03
-2.118515897274247592e-03
-1.967607868411209819e-03
-1.827157565141352595e-03
-1.698766719107277839e-03
-1.583980939868714563e-03
-1.484268274573341019e-03
-1.400997022193448864e-03
-1.335413234456520742e-03
-1.288618184775314462e-03
-1.261546100247309260e-03
-1.254942727841653911e-03
-1.269344984265502810e-03
-1.305062200384709322e-03
-1.362159393309173147e-03
-1.440443002038020595e-03
-1.539449512381122149e-03
-1.658437328864214742e-03
-1.796382205997858758e-03
-1.951976849877991782e-03
-2.123634562685835538e-03
-2.309497376058425051e-03
-2.507448744071519905e-03
-2.715130945629544781e-03
-2.929967088840790962e-03
-3.149187719368279261e-03
-3.369861780182807284e-03
-3.588931740067262746e-03
-3.803252449115943241e-03
-4.009633337049691403e-03
-4.204883423982536117e-03
-4.385858550639889011e-03
-4.549510155385991933e-03
-4.692934870568483789e-03
-4.813424140455669839e-03
-4.908513075473101492e-03
-4.976027681581062477e-03
-5.014129620928630543e-03
-5.021357608871166757e-03
-4.996664742215014762e-03
-4.939450758863055471e-03
-4.849588672743348171e-03
-4.727445032927156052e-03
-4.573893210852848085e-03
-4.390319196923206206e-03
-4.178619539936113784e-03
-3.941191144176812988e-03
-3.680912820320395538e-03
-3.401118548437618520e-03
-3.105562611771646876e-03
-2.798376887072733400e-03
-2.484020622336236776e-03
-2.167223487865788372e-03
-1.852922392755970661e-03
-1.546192991146607765e-03
-1.252176839986956320e-03
-9.760052931983350267e-04
-7.227211903649104208e-04
-4.971996605057527746e-04
-3.040692544458413688e-04
-1.476347939201996589e-04
-3.180313079170369385e-05
3.998673158739385493e-05
6.482803619500335777e-05
4.040390645696673063e-05
-3.496290593587311426e-05
-1.622691904030688415e-04
-3.418002088236574360e-04
-5.731091068810642520e-04
-8.550074483838963858e-04
-1.185567216481946519e-03
-1.562134512912504531e-03
-1.981354955914124173e-03
-2.439210586220445700e-03
-2.931067903281554896e-03
-3.451736350507657574e-03
-3.995536539468016318e-03
-4.556377152702391006e-03
-5.127839454015452325e-03
-5.703268030047043899e-03
-6.275866256166336143e-03
-6.838795085810250342e-03
-7.385273424209730202e-03
-7.908678291926296219e-03
-8.402643206480897922e-03
-8.861153006180878811e-03
-9.278633315155578390e-03
-9.650033119980822721e-03
-9.970898976167342012e-03
-1.023743935916677540e-02
-1.044657791895089310e-02
-1.059599455923447564e-02
-1.068415360074369269e-02
-1.071031828900264292e-02
-1.067455124810811305e-02
-1.057770079932445796e-02
-1.042137323142104666e-02
-1.020789146828865110e-02
-9.940240744725220221e-03
-9.622002095956885825e-03
-9.257274890253408550e-03
-8.850589767943872407e-03
-8.406813514695573447e-03
-7.931047667501276571e-03
-7.428522565754765855e-03
-6.904489086187363435e-03
-6.364109889431725925e-03
-5.812352446935092898e-03
-5.253885795693402465e-03
-4.692983255194410272e-03
-4.133432937152777507e-03
-3.578457985305434196e-03
-3.030648230530650494e-03
-2.491904599670278792e-03
-1.963397795867401468e-03
-1.445542082246040238e-03
-9.379849807725097527e-04
-4.396132435962215299e-04
5.142477757179979585e-05
5.376805908336206507e-04
1.022351298385802947e-03
1.509210593996864695e-03
2.002526156470089188e-03
2.506964872237178298e-03
3.027487644777882708e-03
3.569235805297847966e-03
4.137411228948366035e-03
4.737152621832742966e-03
5.373410341281632634e-03
6.050822380593108216e-03
6.773594163906469963e-03
7.545384581314249807e-03
8.369200837481547903e-03
9.247304508474302187e-03
1.018113091533172365e-02
1.117122394074357428e-02
1.221718786297305154e-02
1.331765772792656809e-02
1.447028929420046163e-02
1.567176916778112786e-02
1.691784559881762129e-02
1.820337976932197288e-02
1.952241704938227282e-02
2.086827726195658594e-02
2.223366275626373692e-02
2.361078246203229467e-02
2.499148991353175586e-02
2.636743274564432027e-02
2.773021109027832415e-02
2.907154180266671370e-02
3.038342538399718337e-02
3.165831235510623010e-02
3.288926570729962251e-02
3.407011605885838096e-02
3.519560616169963713e-02
3.626152161761957149e-02
3.726480475999140868e-02
3.820364898519346825e-02
3.907757099294610625e-02
3.988745899224623026e-02
4.063559508653198649e-02
4.132565068287416543e-02
4.196265423295773150e-02
4.255293116690172378e-02
4.310401633862336740e-02
4.362453986478013329e-02
4.412408793417672837e-02
4.461304052155721372e-02
4.510238848837255787e-02
4.560353305994920003e-02
4.612807112732457415e-02
4.668757009961898435e-02
4.729333649391378319e-02
4.795618253821217619e-02
4.868619523626858958e-02
4.949251257080074934e-02
5.038311135489442760e-02
5.136461128176124380e-02
5.244209939886036731e-02
5.361897907529975665e-02
5.489684713584886550e-02
5.627540236827425352e-02
5.775238816101987277e-02
5.932357139012372355e-02
6.098275909139651285e-02
6.272185371715532920e-02
6.453094711860191124e-02
6.639845255145808423e-02
6.831127346170361159e-02
7.025500673464477042e-02
7.221417765494914098e-02
7.417250306542533256e-02
7.611317841554955665e-02
7.801918396127177635e-02
7.987360486963496209e-02
8.165995939935727366e-02
8.336252917395474415e-02
8.496668522787627353e-02
8.645920342657491264e-02
8.782856284857358531e-02
8.906522088849874730e-02
9.016185901821427429e-02
9.111359353103251624e-02
9.191814609318463281e-02
9.257596951704354094e-02
9.309032489251535536e-02
9.346730690326003621e-02
9.371581520136521015e-02
9.384747046141808657e-02
9.387647493028847268e-02
9.381941817509892312e-02
9.369502985774767756e-02
9.352388241821758819e-02
9.332804747958817204e-02
9.313071100096871613e-02
9.295575287960212985e-02
9.282729778414955391e-02
9.276924460528999938e-02
9.280478263719053877e-02
9.295590321858510086e-02
9.324291569626391718e-02
9.368397705527853336e-02
9.429464457327602078e-02
9.508746059637823711e-02
9.607157857237959286e-02
9.725243875243820557e-02
9.863150159912675852e-02
1.002060459581920054e-01
1.019690383902344122e-01
1.039090787821119743e-01
1.060104261984664425e-01
1.082531077613413800e-01
1.106131119042386840e-01
1.130626657869100160e-01
1.155705952680810139e-01
1.181027642706298508e-01
1.206225887740607072e-01
1.230916193293433020e-01
1.254701843105351655e-01
1.277180850736815976e-01
1.297953327387287858e-01
1.316629150768867385e-01
1.332835813809870318e-01
1.346226321286326522e-01
1.356486997570453268e-01
1.363345065091767228e-01
1.366575850860104191e-01
1.366009480484891569e-01
1.361536921781510423e-01
1.353115243993127936e-01
1.340771969794960494e-01
1.324608405745455464e-01
1.304801849176500939e-01
1.281606584148521355e-01
1.255353597516216946e-01
1.226448961533144061e-01
1.195370851708621174e-01
1.162665186421475705e-01
1.128939899515454676e-01
1.094857877816431124e-01
1.061128617038774591e-01
1.028498674129193630e-01
9.977410138260778272e-02
9.696433683218166899e-02
9.449957496251640277e-02
9.245772705054398910e-02
9.091424484721795374e-02
8.994071792428083578e-02
8.960345778338027478e-02
8.996208958973141157e-02
9.106817278173016950e-02
9.296387232520036958e-02
9.568070209141846250e-02
9.923836156901717775e-02
1.036436867653433985e-01
1.088897346511757402e-01
1.149550193959214400e-01
1.218029171086667112e-01
1.293812538605155771e-01
1.376220894237728809e-01
1.464417069627492463e-01
1.557408161258899693e-01
1.654049744272846623e-01
1.753052285403099431e-01
1.852989744410951378e-01
1.952310321480176802e-01
2.049349277051848717e-01
2.142343720077739266e-01
2.229449232117927115e-01
2.308758165178574906e-01
2.378319426261108205e-01
2.436159534147247230e-01
2.480304716568393353e-01
2.508803791565329400e-01
2.519751565095323942e-01
2.511312460204545016e-01
2.481744089664293385e-01
2.429420473078389986e-01
2.352854602749387403e-01
2.250720061640199554e-01
2.121871408176293772e-01
1.965363048639798826e-01
1.780466336959412033e-01
1.566684657107243472e-01
1.323766266896526655e-01
1.051714706946593469e-01
7.507966063591042793e-02
4.215467471102471442e-02
6.477028173302577276e-03
-3.184579644430274303e-02
-7.267971430227188057e-02
-1.158646981034401474e-01
-1.612157290716923208e-01
-2.085240314851358745e-01
-2.575585796818269380e-01
-3.080678630131833406e-01
-3.597818908939508509e-01
-4.124144170365029449e-01
-4.656653591541600190e-01
-5.192233879157325260e-01
-5.727686566468167539e-01
-6.259756416541144564e-01
-6.785160612519397505e-01
-7.300618409862459357e-01
-7.802880916978335302e-01
-8.288760667348696876e-01
-8.755160651627610369e-01
-9.199102482753113152e-01
-9.617753379253292101e-01
-1.000845166702525990e+00
-1.036873051696289849e+00
-1.069633965830071975e+00
-1.098926483512137287e+00
-1.124574479900557922e+00
-1.146428566394880777e+00
-1.164367247976057618e+00
-1.178297791696337526e+00
-1.188156799037555000e+00
-1.193910478560986865e+00
-1.195554618783997158e+00
-1.193114264999201257e+00
-1.186643107008226394e+00
-1.176222588261327306e+00
-1.161960750291383349e+00
-1.143990828912637703e+00
-1.122469621818292129e+00
-1.097575649497594119e+00
-1.069507133364459017e+00
-1.038479817246179548e+00
-1.004724659306478474e+00
-9.684854230653330287e-01
-9.300161964800971459e-01
-8.895788684965237891e-01
-8.474405926674488665e-01
-8.038712664402292152e-01
-7.591410544341010702e-01
-7.135179825395375763e-01
-6.672656283311688696e-01
-6.206409314108219943e-01
-5.738921453654166616e-01
-5.272569506582132082e-01
-4.809607451606870976e-01
-4.352151267651239719e-01
-3.902165792508598963e-01
-3.461453699862187539e-01
-3.031646652915379603e-01
-2.614198660634045046e-01
-2.210381635713614124e-01
-1.821283127204815777e-01
-1.447806170383832136e-01
-1.090671173929051163e-01
-7.504197422868892631e-02
-4.274203060014427485e-02
-1.218754164668187090e-02
1.661694534664101205e-02
4.368157799367768795e-02
6.903007129647641127e-02
9.269848484797844901e-02
1.147339245818031067e-01
1.351931892320470119e-01
1.541413813033843949e-01
1.716505022473245046e-01
1.877980509644259222e-01
2.026656436018993146e-01
2.163376719554871430e-01
2.289000162310149133e-01
2.404388265729732188e-01
2.510393860319532489e-01
2.607850662615145976e-01
2.697563850361547333e-01
2.780301729072883199e-01
2.856788546524667849e-01
2.927698489035143736e-01
2.993650876124996918e-01
3.055206553042619233e-01
3.112865460728293510e-01
3.167065348169009753e-01
3.218181575030790720e-01
3.266527940786087547e-01
3.312358462246601798e-01
3.355870011732618452e-01
3.397205720158713027e-01
3.436459040450060010e-01
3.473678364378054995e-01
3.508872079572393776e-01
3.542013955431818628e-01
3.573048746160087941e-01
3.601897900405199304e-01
3.628465273341484054e-01
3.652642740862156456e-01
3.674315622531325598e-01
3.693367830188537537e-01
3.709686664900544995e-01
3.723167198124203714e-01
3.733716181544258217e-01
3.741255442017208388e-01
3.745724727884537364e-01
3.747083987535218541e-01
3.745315068742710030e-01
3.740422838555533813e-01
3.732435735704476287e-01
3.721405777039673013e-01
3.707408045041049593e-01
3.690539695831882572e-01
3.670918530592677809e-01
3.648681180708807648e-01
3.623980962117087645e-01
3.596985455776567364e-01
3.567873875771097603e-01
3.536834286898855595e-01
3.504060731991887612e-01
3.469750330511667813e-01
3.434100407105106223e-01
3.397305704116174718e-01
3.359555729408227887e-01
3.321032287038357400e-01
3.281907229895185130e-01
3.242340470255834495e-01
3.202478276966265192e-01
3.162451881408810395e-01
3.122376405974673919e-01
3.082350125595718082e-01
3.042454062592025998e-01
3.002751911118246575e-01
2.963290279451937792e-01
2.924099233782683216e-01
2.885193124538844023e-01
2.846571665347993330e-01
2.808221236958053368e-01
2.770116382521398135e-01
2.732221458062942809e-01
2.694492401432934114e-01
2.656878582837338132e-01
2.619324695823585514e-01
2.581772653035399046e-01
2.544163449251790610e-01
2.506438957876571672e-01
2.468543627477814140e-01
2.430426050112451386e-01
2.392040375832723553e-01
2.353347551164376439e-01
2.314316363549069888e-01
2.274924278583781156e-01
2.235158060867041274e-01
2.195014173616348652e-01
2.154498957285779226e-01
2.113628590639040628e-01
2.072428842560825324e-01
2.030934626456009640e-01
1.989189371752846380e-01
1.947244231291551941e-01
1.905157145408992170e-01
1.862991785028218217e-01
1.820816398571492856e-01
1.778702588514535221e-01
1.736724042450491223e-01
1.694955245899847640e-01
1.653470202604933881e-01
1.612341186459544662e-01
1.571637549403060441e-01
1.531424605724877319e-01
1.491762613489673317e-01
1.452705870254323850e-01
1.414301936370229995e-01
1.376590999082781264e-01
1.339605384529423404e-01
1.303369224551726990e-01
1.267898279458512245e-01
1.233199917550097252e-01
1.199273246872796655e-01
1.166109393516738257e-01
1.133691916612649259e-01
1.101997349655220587e-01
1.070995854352688181e-01
1.040651972013754700e-01
1.010925455731283285e-01
9.817721661182925164e-02
9.531450116759866698e-02
9.249949156051145982e-02
8.972717909783232970e-02
8.699255047645393368e-02
8.429068136622371032e-02
8.161682544809326090e-02
7.896649753885898182e-02
7.633554926628892401e-02
7.372023623792312019e-02
7.111727563486656967e-02
6.852389332824536383e-02
6.593786009973692797e-02
6.335751657350630062e-02
6.078178667538110258e-02
5.821017968456851377e-02
5.564278129560880359e-02
5.308023408137012983e-02
5.052370799916724303e-02
4.797486184571913420e-02
4.543579666940901485e-02
4.290900226397523914e-02
4.039729779261443804e-02
3.790376810068132873e-02
3.543169679113673115e-02
3.298449753666333334e-02
3.056564499176765703e-02
2.817860660362922487e-02
2.582677647458947456e-02
2.351341269337494863e-02
2.124157895969706542e-02
1.901409161773928019e-02
1.683347296669418167e-02
1.470191149229111739e-02
1.262122950267290794e-02
1.059285872410021222e-02
8.617823919464579277e-03
6.696734657375763393e-03
4.829785220989032263e-03
3.016762278035254631e-03
1.257059997950403995e-03
-4.502978310217773273e-04
-2.106629491566073056e-03
-3.713561431585838454e-03
-5.272989554294552593e-03
-6.787036711010264317e-03
-8.258007314907316737e-03
-9.688339868271878680e-03
-1.108055866819009257e-02
-1.243722532733750573e-02
-1.376089136568180681e-02
-1.505405249074706284e-02
-1.631910563432856232e-02
-1.755830931162595532e-02
-1.877374805057647686e-02
-1.996730148258331339e-02
-2.114061854744225116e-02
-2.229509706653442364e-02
-2.343186909960893669e-02
-2.455179200383306518e-02
-2.565544535045623589e-02
-2.674313345667392663e-02
-2.781489343779263226e-02
-2.887050827659288707e-02
-2.990952472262754444e-02
-3.093127526918746165e-02
-3.193490383692940138e-02
-3.291939437306751204e-02
-3.388360187659338052e-02
-3.482628492622080046e-02
-3.574613923263931375e-02
-3.664183129048571158e-02
-3.751203161537877695e-02
-3.835544667114435674e-02
-3.917084908800590182e-02
-3.995710542326163378e-02
-4.071320105602382888e-02
-4.143826167812781486e-02
-4.213157108035350124e-02
-4.279258496066221107e-02
-4.342094039639002312e-02
-4.401646115701592782e-02
-4.457915861433643656e-02
-4.510922834143319543e-02
-4.560704273852517199e-02
-4.607313971912516126e-02
-4.650820783002707071e-02
-4.691306827199431817e-02
-4.728865418009883109e-02
-4.763598756951329533e-02
-4.795615470405575204e-02
-4.825028022087956420e-02
-4.851950061724528279e-02
-4.876493782127764437e-02
-4.898767318868598591e-02
-4.918872256446767816e-02
-4.936901299266659854e-02
-4.952936147243360704e-02
-4.967045612886461514e-02
-4.979284031947411870e-02
-4.989689981591969442e-02
-4.998285349594730476e-02
-5.005074757255830592e-02
-5.010045339957289873e-02
-5.013166912119774304e-02
-5.014392493154405661e-02
-5.013659180989526315e-02
-5.010889361412945719e-02
-5.005992232131849934e-02
-4.998865599232687335e-02
-4.989397915655918725e-02
-4.977470519924670489e-02
-4.962960041424748642e-02
-4.945740904729246240e-02
-4.925687898789519320e-02
-4.902678761292807857e-02
-4.876596719351931203e-02
-4.847332957243404017e-02
-4.814788950481718038e-02
-4.778878624128842650e-02
-4.739530299667824020e-02
-4.696688396998079801e-02
-4.650314859420855845e-02
-4.600390278809962652e-02
-4.546914692710638667e-02
-4.489908060927949585e-02
-4.429410401006172310e-02
-4.365481587475207592e-02
-4.298200814647495233e-02
-4.227665747877891456e-02
-4.153991370165925623e-02
-4.077308558534786104e-02
-3.997762410068405464e-02
-3.915510357417253950e-02
-3.830720105747582177e-02
-3.743567437946578036e-02
-3.654233912900998332e-02
-3.562904519768363143e-02
-3.469765320085341220e-02
-3.375001128892703151e-02
-3.278793263060129914e-02
-3.181317409990352257e-02
-3.082741651395495136e-02
-2.983224671498029001e-02
-2.882914174638842239e-02
-2.781945559702266035e-02
-2.680440846545712949e-02
-2.578507883362707309e-02
-2.476239841288418314e-02
-2.373715004747168136e-02
-2.270996852800259008e-02
-2.168134423051208334e-02
-2.065162951868567201e-02
-1.962104765968275891e-02
-1.858970410087933470e-02
-1.755759982329432173e-02
-1.652464651808441612e-02
-1.549068310113383209e-02
-1.445549342756280616e-02
-1.341882469501713519e-02
-1.238040621745854428e-02
-1.133996812854918060e-02
-1.029725969674952224e-02
-9.252066836723729995e-03
-8.204228474027621884e-03
-7.153651425883240586e-03
-6.100323582150676133e-03
-5.044324930748989369e-03
-3.985836420767584383e-03
-2.925146385404571534e-03
-1.862654426572354525e-03
-7.988725783048425486e-04
2.655761059343903353e-04
1.329961664338305668e-03
2.393453898653194641e-03
3.455131471897612740e-03
4.513993350075367998e-03
5.568972245343845225e-03
6.618949914380758449e-03
7.662774032263849379e-03
8.699276233030194677e-03
9.727291052898528328e-03
1.074567539270879918e-02
1.175332813268988030e-02
1.274920956568355822e-02
1.373236021394784977e-02
1.470191872387941953e-02
1.565713851067659229e-02
1.659740273603941066e-02
1.752223741701656665e-02
1.843132239890891630e-02
1.932449988695457421e-02
2.020178040306346706e-02
2.106334607899124078e-02
2.190955111712885456e-02
2.274091941428423719e-02
2.355813926631899341e-02
2.436205535650557211e-02
2.515365803186314295e-02
2.593406997611581721e-02
2.670453057704122793e-02
2.746637810408468494e-02
2.822103003805129240e-02
2.896996191517648561e-02
2.971468477649669843e-02
3.045672179385260775e-02
3.119758434758615126e-02
3.193874794004190193e-02
3.268162831171935595e-02
3.342755809859719596e-02
3.417776446137392454e-02
3.493334794991854314e-02
3.569526302525468514e-02
3.646430040748437074e-02
3.724107165845163409e-02
3.802599613199333234e-02
3.881929056179124482e-02
3.962096136252449968e-02
4.043079974527774567e-02
4.124837985423628756e-02
4.207305982936920125e-02
4.290398580548918095e-02
4.374009876119735324e-02
4.458014409073816908e-02
4.542268377167394539e-02
4.626611096998341222e-02
4.710866679991108918e-02
4.794845896695899834e-02
4.878348209294261495e-02
4.961163933557764805e-02
5.043076503917860026e-02
5.123864804617953711e-02
5.203305533457535520e-02
5.281175570965757071e-02
5.357254306923534687e-02
5.431325904219233558e-02
5.503181466394956034e-02
5.572621080173621039e-02
5.639455701137184584e-02
5.703508868951079336e-02
5.764618224254505069e-02
5.822636804305307556e-02
5.877434111455658722e-02
5.928896945148185577e-02
5.976929993014104547e-02
6.021456170349616388e-02
6.062416706283441786e-02
6.099770992104089351e-02
6.133496200716842539e-02
6.163586681169123949e-02
6.190053143419359249e-02
6.212921650778767402e-02
6.232232449745994662e-02
6.248038644222989740e-02
6.260404747184200591e-02
6.269405136362990461e-02
6.275122429217215581e-02
6.277645814335226782e-02
6.277069355300149422e-02
6.273490303486999042e-02
6.267007431781447535e-02
6.257719425132274305e-02
6.245723335007417193e-02
6.231113139871008455e-02
6.213978404863636229e-02
6.194403074554741956e-02
6.172464403780879294e-02
6.148232042389468327e-02
6.121767269517145588e-02
6.093122400219640883e-02
6.062340355197809449e-02
6.029454399642988210e-02
5.994488040353235236e-02
5.957455080670249342e-02
5.918359834357608124e-02
5.877197477473304621e-02
5.833954525519297052e-02
5.788609436132862579e-02
5.741133311106008663e-02
5.691490687218888483e-02
5.639640403289220005e-02
5.585536526258752521e-02
5.529129308567036494e-02
5.470366184962407313e-02
5.409192767741498320e-02
5.345553839674573732e-02
5.279394330993718992e-02
5.210660263678329462e-02
5.139299645121560983e-02
5.065263312418497726e-02
4.988505714108507766e-02
4.908985620509354053e-02
4.826666757779383282e-02
4.741518356333550982e-02
4.653515623747595670e-02
4.562640131509885372e-02
4.468880114112543794e-02
4.372230690066362946e-02
4.272693999864391606e-02
4.170279270517923687e-02
4.065002808661884875e-02
3.956887932044299977e-02
3.845964839705781624e-02
3.732270432192549836e-02
3.615848087648195625e-02
3.496747399676047863e-02
3.375023878166997365e-02
3.250738638492717963e-02
3.123958062683855272e-02
2.994753456054553842e-02
2.863200693851315759e-02
2.729379864055869048e-02
2.593374916357894799e-02
2.455273318769646620e-02
2.315165715052141734e-02
2.173145600672546363e-02
2.029309006277445204e-02
1.883754190211597845e-02
1.736581348119550089e-02
1.587892328330163874e-02
1.437790362165351082e-02
1.286379795251868866e-02
1.133765828302188763e-02
9.800542696306818388e-03
8.253512802787028868e-03
6.697631259115209221e-03
5.133959319139762799e-03
3.563554294694328429e-03
1.987467064861873824e-03
4.067394864114378577e-04
-1.177598157256392773e-03
-2.764529760932349194e-03
-4.353055960251614107e-03
-5.942196752063495964e-03
-7.530994074053684248e-03
-9.118514269888166809e-03
-1.070385047356728001e-02
-1.228612487373405802e-02
-1.386449077050230794e-02
-1.543813446755557678e-02
-1.700627687635216170e-02
-1.856817479478811705e-02
-2.012312186506756001e-02
-2.167044907628691910e-02
-2.320952484147810468e-02
-2.473975475937573859e-02
-2.626058070869132996e-02
-2.777147948945375699e-02
-2.927196095096266243e-02
-3.076156557486173226e-02
-3.223986154706015572e-02
-3.370644130891232992e-02
-3.516091764592672864e-02
-3.660291936284229553e-02
-3.803208646563964457e-02
-3.944806509703665393e-02
-4.085050217209358625e-02
-4.223903983344009377e-02
-4.361330974407261890e-02
-4.497292738522459116e-02
-4.631748642619212125e-02
-4.764655329580563814e-02
-4.895966196597820869e-02
-5.025630910603886420e-02
-5.153594975736530692e-02
-5.279799348991573438e-02
-5.404180128449120185e-02
-5.526668315205264526e-02
-5.647189651792876297e-02
-5.765664552904073425e-02
-5.882008126849944812e-02
-5.996130294878523892e-02
-6.107936012375215357e-02
-6.217325585585518899e-02
-6.324195092648021710e-02
-6.428436899496754731e-02
-6.529940278766691031e-02
-6.628592105644368071e-02
-6.724277635186010071e-02
-6.816881365526332448e-02
-6.906287957295949298e-02
-6.992383202323880498e-02
-7.075055033626187484e-02
-7.154194564493401853e-02
-7.229697140304217062e-02
-7.301463384641856957e-02
-7.369400225464257936e-02
-7.433421902080943056e-02
-7.493450910305808621e-02
-7.549418892085087152e-02
-7.601267446622923807e-02
-7.648948855987561246e-02
-7.692426706027724603e-02
-7.731676396440588517e-02
-7.766685528476330314e-02
-7.797454168314837952e-02
-7.823994963833554028e-02
-7.846333138273377250e-02
-7.864506329486919967e-02
-7.878564297966621222e-02
-7.888568488275841950e-02
-7.894591459575955872e-02
-7.896716190215181952e-02
-7.895035262507217599e-02
-7.889649932714946912e-02
-7.880669106029657145e-02
-7.868208232382790934e-02
-7.852388128312701165e-02
-7.833333746693245392e-02
-7.811172909747401971e-02
-7.786035027495338823e-02
-7.758049816302280133e-02
-7.727346034055899981e-02
-7.694050245217660955e-02
-7.658285648332642526e-02
-7.620170970834251600e-02
-7.579819451355726545e-02
-7.537337922192843820e-02
-7.492826006870466349e-02
-7.446375444418557032e-02
-7.398069547289561065e-02
-7.347982809772099499e-02
-7.296180661003066892e-02
-7.242719369691380527e-02
-7.187646102506363432e-02
-7.130999137345298000e-02
-7.072808220104850885e-02
-7.013095070291960886e-02
-6.951874017478608392e-02
-6.889152757077160460e-02
-6.824933222378101738e-02
-6.759212553302046400e-02
-6.691984150819624277e-02
-6.623238793580372985e-02
-6.552965798904972217e-02
-6.481154214323370244e-02
-6.407794027560205496e-02
-6.332877352790031167e-02
-6.256399600850351406e-02
-6.178360586265155274e-02
-6.098765583104954341e-02
-6.017626292634427332e-02
-5.934961713494341096e-02
-5.850798897787851116e-02
-5.765173578745321631e-02
-5.678130663079658524e-02
-5.589724581530255282e-02
-5.500019489539766798e-02
-5.409089302608684202e-02
-5.317017583152785359e-02
-5.223897270820884037e-02
-5.129830249962500505e-02
-5.034926781545123742e-02
-4.939304786865692659e-02
-4.843089009213549095e-02
-4.746410046738181593e-02
-4.649403287377430749e-02
-4.552207762304359695e-02
-4.454964910264779671e-02
-4.357817300770792934e-02
-4.260907319812359817e-02
-4.164375832327858740e-02
-4.068360851820838897e-02
-3.972996242112101367e-02
-3.878410447766045960e-02
-3.784725287623832285e-02
-3.692054838358217045e-02
-3.600504396270855917e-02
-3.510169557706629972e-02
-3.421135426432857229e-02
-3.333475945914626121e-02
-3.247253376848169976e-02
-3.162517934505531397e-02
-3.079307566121842685e-02
-2.997647898994288893e-02
-2.917552347126535148e-02
-2.839022361541052725e-02
-2.762047840153944098e-02
-2.686607685290790318e-02
-2.612670483450623901e-02
-2.540195317641477657e-02
-2.469132694876290807e-02
-2.399425556383043279e-02
-2.331010372731501940e-02
-2.263818309479680851e-02
-2.197776428538448720e-02
-2.132808916348953587e-02
-2.068838321907671279e-02
-2.005786782786357636e-02
-1.943577215868913868e-02
-1.882134464418372052e-02
-1.821386380830109994e-02
-1.761264818687589134e-02
-1.701706534863110451e-02
-1.642653988668345971e-02
-1.584056004820928384e-02
-1.525868318211674908e-02
-1.468053985330134564e-02
-1.410583643175824034e-02
-1.353435633644631438e-02
-1.296595983362071845e-02
-1.240058238915994759e-02
-1.183823169517924691e-02
-1.127898342187472550e-02
-1.072297571768570865e-02
-1.017040261962482046e-02
-9.621506547037235110e-03
-9.076569989497487029e-03
-8.535906461868365824e-03
-7.999851022294989303e-03
-7.468750437460764356e-03
-6.942953314456952636e-03
-6.422800144630702590e-03
-5.908613662784775906e-03
-5.400689638106554759e-03
-4.899288172742471276e-03
-4.404625832810231054e-03
-3.916868654586012563e-03
-3.436126161317383347e-03
-2.962446568186462813e-03
-2.495813248569500858e-03
-2.036142455681604763e-03
-1.583282504419529025e-03
-1.137014422069735926e-03
-6.970538907312584954e-04
-2.630546522572599008e-04
1.653866286581511490e-04
5.887243459682952413e-04
1.007456602907323999e-03
1.422116804099766117e-03
1.833264302274631571e-03
2.241474128194375498e-03
2.647326173443240432e-03
3.051393818202945835e-03
3.454232207121163325e-03
3.856366554651447995e-03
4.258280484700916260e-03
4.660404611488601009e-03
5.063105700505726378e-03
5.466676545551055026e-03
5.871326579563665785e-03
6.277173709771568383e-03
6.684237280971777086e-03
7.092432415954639732e-03
7.501565781002926363e-03
7.911333041662903590e-03
8.321317881220162763e-03
8.730992797352997783e-03
9.139721563570374352e-03
9.546763513023383968e-03
9.951279529845003316e-03
1.035233957942921675e-02
1.074893193690330644e-02
1.113997387325185544e-02
1.152432352999523124e-02
1.190079316580792274e-02
1.226816331827425624e-02
1.262519771760944876e-02
1.297065890902615939e-02
1.330332419273910251e-02
1.362200171597145910e-02
1.392554650350289087e-02
1.421287618107661480e-02
1.448298614291661582e-02
1.473496389639776874e-02
1.496800241122874311e-02
1.518141229352116574e-02
1.537463254530722044e-02
1.554723971562770035e-02
1.569895538093687981e-02
1.582965173541862891e-02
1.593935520264737685e-02
1.602824803671635059e-02
1.609666784481282586e-02
1.614510503038090253e-02
1.617419818904219583e-02
1.618472740826578521e-02
1.617760568373228028e-02
1.615386848204480169e-02
1.611466154664764269e-02
1.606122729198152660e-02
1.599488975840743232e-02
1.591703843361322313e-02
1.582911114557418453e-02
1.573257626603895981e-02
1.562891452888155383e-02
1.551960064423224192e-02
1.540608497280481978e-02
1.528977567361984938e-02
1.517202136210909352e-02
1.505409470893181306e-02
1.493717707586206429e-02
1.482234456808191429e-02
1.471055553829091894e-02
1.460263990541647156e-02
1.449929027846713452e-02
1.440105515015970700e-02
1.430833417163908210e-02
1.422137558561922463e-02
1.414027591940263118e-02
1.406498191941398836e-02
1.399529464728859786e-02
1.393087571803239971e-02
1.387125558548595733e-02
