-6.051082594248033755e-03
-6.048127609379894999e-03
-6.045172903534960090e-03
-6.042218476874446423e-03
-6.039264329559416999e-03
-6.036310461750783903e-03
-6.033356873609308293e-03
-6.030403565295607352e-03
-6.027450536970150805e-03
-6.024497788793265265e-03
-6.021545320925127294e-03
-6.018593133525765998e-03
-6.015641226755063901e-03
-6.012689600772757811e-03
-6.009738255738431879e-03
-6.006787191811527142e-03
-6.003836409151338052e-03
-6.000885907917009876e-03
-5.997935688267537827e-03
-5.994985750361770532e-03
-5.992036094358408303e-03
-5.989086720416006600e-03
-5.986137628692975166e-03
-5.983188819347568486e-03
-5.980240292537891862e-03
-5.977292048421904876e-03
-5.974344087157416189e-03
-5.971396408902086145e-03
-5.968449013813430237e-03
-5.965501902048819111e-03
-5.962555073765471621e-03
-5.959608529120462642e-03
-5.956662268270719596e-03
-5.953716291373025923e-03
-5.950770598584017614e-03
-5.947825190060179734e-03
-5.944880065957856841e-03
-5.941935226433250374e-03
-5.938990671642411720e-03
-5.936046401741244816e-03
-5.933102416885503542e-03
-5.930158717230799535e-03
-5.927215302932597844e-03
-5.924272174146220406e-03
-5.921329331026843439e-03
-5.918386773729503517e-03
-5.915444502409088028e-03
-5.912502517220336040e-03
-5.909560818317840906e-03
-5.906619405856050262e-03
-5.903678279989272963e-03
-5.900737440871673019e-03
-5.897796888657266118e-03
-5.894856623499919630e-03
-5.891916645553356945e-03
-5.888976954971156599e-03
-5.886037551906752284e-03
-5.883098436513433706e-03
-5.880159608944345723e-03
-5.877221069352489211e-03
-5.874282817890718461e-03
-5.871344854711740315e-03
-5.868407179968115027e-03
-5.865469793812255403e-03
-5.862532696396430265e-03
-5.859595887872762719e-03
-5.856659368393229287e-03
-5.853723138109659906e-03
-5.850787197173735327e-03
-5.847851545736990585e-03
-5.844916183950811528e-03
-5.841981111966438288e-03
-5.839046329934965279e-03
-5.836111838007344670e-03
-5.833177636334387246e-03
-5.830243725066758947e-03
-5.827310104354983464e-03
-5.824376774349439637e-03
-5.821443735200369264e-03
-5.818510987057866693e-03
-5.815578530071881420e-03
-5.812646364392218094e-03
-5.809714490168538248e-03
-5.806782907550356830e-03
-5.803851616687043941e-03
-5.800920617727832636e-03
-5.797989910821817194e-03
-5.795059496117952250e-03
-5.792129373765048453e-03
-5.789199543911773341e-03
-5.786270006706652202e-03
-5.783340762298068080e-03
-5.780411810834258299e-03
-5.777483152463317936e-03
-5.774554787333204160e-03
-5.771626715591735360e-03
-5.768698937386586810e-03
-5.765771452865293273e-03
-5.762844262175248998e-03
-5.759917365463705988e-03
-5.756990762877772262e-03
-5.754064454564411860e-03
-5.751138440670447438e-03
-5.748212721342561143e-03
-5.745287296727291139e-03
-5.742362166971035943e-03
-5.739437332220054429e-03
-5.736512792620468426e-03
-5.733588548318259252e-03
-5.730664599459269447e-03
-5.727740946189196700e-03
-5.724817588653599056e-03
-5.721894526997894914e-03
-5.718971761367363897e-03
-5.716049291907143379e-03
-5.713127118762231955e-03
-5.710205242077490313e-03
-5.707283661997638625e-03
-5.704362378667259155e-03
-5.701441392230795387e-03
-5.698520702832549426e-03
-5.695600310616679395e-03
-5.692680215727202904e-03
-5.689760418307997919e-03
-5.686840918502806229e-03
-5.683921716455228243e-03
-5.681002812308723858e-03
-5.678084206206614193e-03
-5.675165898292084191e-03
-5.672247888708186088e-03
-5.669330177597836813e-03
-5.666412765103814517e-03
-5.663495651368758571e-03
-5.660578836535169571e-03
-5.657662320745410200e-03
-5.654746104141701764e-03
-5.651830186866130257e-03
-5.648914569060643764e-03
-5.645999250867049860e-03
-5.643084232427019072e-03
-5.640169513882084019e-03
-5.637255095373642881e-03
-5.634340977042961128e-03
-5.631427159031171525e-03
-5.628513641479269795e-03
-5.625600424528115484e-03
-5.622687508318428493e-03
-5.619774892990792546e-03
-5.616862578685656929e-03
-5.613950565543332147e-03
-5.611038853703992531e-03
-5.608127443307680572e-03
-5.605216334494299985e-03
-5.602305527403613102e-03
-5.599395022175252153e-03
-5.596484818948715793e-03
-5.593574917863368239e-03
-5.590665319058446200e-03
-5.587756022673049348e-03
-5.584847028846147247e-03
-5.581938337716572419e-03
-5.579029949423023813e-03
-5.576121864104071138e-03
-5.573214081898152268e-03
-5.570306602943569767e-03
-5.567399427378487420e-03
-5.564492555340939776e-03
-5.561585986968828679e-03
-5.558679722399921530e-03
-5.555773761771851289e-03
-5.552868105222115609e-03
-5.549962752888074231e-03
-5.547057704906956793e-03
-5.544152961415859358e-03
-5.541248522551744417e-03
-5.538344388451443487e-03
-5.535440559251660585e-03
-5.532537035088970490e-03
-5.529633816099812672e-03
-5.526730902420497367e-03
-5.523828294187204703e-03
-5.520925991535982104e-03
-5.518023994602745154e-03
-5.515122303523274129e-03
-5.512220918433218333e-03
-5.509319839468092631e-03
-5.506419066763280044e-03
-5.503518600454035230e-03
-5.500618440675485339e-03
-5.497718587562620482e-03
-5.494819041250299796e-03
-5.491919801873252314e-03
-5.489020869566077834e-03
-5.486122244463246048e-03
-5.483223926699096543e-03
-5.480325916407838803e-03
-5.477428213723553076e-03
-5.474530818780191238e-03
-5.471633731711573329e-03
-5.468736952651394485e-03
-5.465840481733224947e-03
-5.462944319090506581e-03
-5.460048464856552888e-03
-5.457152919164545528e-03
-5.454257682147542127e-03
-5.451362753938470210e-03
-5.448468134670126327e-03
-5.445573824475182997e-03
-5.442679823486186973e-03
-5.439786131835562706e-03
-5.436892749655614088e-03
-5.433999677078521842e-03
-5.431106914236341794e-03
-5.428214461261004001e-03
-5.425322318284316221e-03
-5.422430485437957845e-03
-5.419538962853482494e-03
-5.416647750662318024e-03
-5.413756848995768256e-03
-5.410866257985006908e-03
-5.407975977761083665e-03
-5.405086008454919842e-03
-5.402196350197309253e-03
-5.399307003118925148e-03
-5.396417967350314142e-03
-5.393529243021897082e-03
-5.390640830263970784e-03
-5.387752729206712367e-03
-5.384864939980174049e-03
-5.381977462714282283e-03
-5.379090297538840354e-03
-5.376203444583526649e-03
-5.373316903977898989e-03
-5.370430675851396371e-03
-5.367544760333338959e-03
-5.364659157552922018e-03
-5.361773867639220252e-03
-5.358888890721188666e-03
-5.356004226927661704e-03
-5.353119876387348909e-03
-5.350235839228839260e-03
-5.347352115580599440e-03
-5.344468705570980770e-03
-5.341585609328217479e-03
-5.338702826980424102e-03
-5.335820358655593738e-03
-5.332938204481603266e-03
-5.330056364586206394e-03
-5.327174839097036270e-03
-5.324293628141608080e-03
-5.321412731847318181e-03
-5.318532150341442367e-03
-5.315651883751135870e-03
-5.312771932203435958e-03
-5.309892295825255001e-03
-5.307012974743388276e-03
-5.304133969084511360e-03
-5.301255278975183609e-03
-5.298376904541841209e-03
-5.295498845910803255e-03
-5.292621103208265676e-03
-5.289743676560306439e-03
-5.286866566092887285e-03
-5.283989771931850259e-03
-5.281113294202915975e-03
-5.278237133031690557e-03
-5.275361288543665636e-03
-5.272485760864217483e-03
-5.269610550118604408e-03
-5.266735656431967630e-03
-5.263861079929333872e-03
-5.260986820735609297e-03
-5.258112878975590779e-03
-5.255239254773952026e-03
-5.252365948255249654e-03
-5.249492959543919715e-03
-5.246620288764282901e-03
-5.243747936040541076e-03
-5.240875901496776408e-03
-5.238004185256958309e-03
-5.235132787444944300e-03
-5.232261708184473940e-03
-5.229390947599171433e-03
-5.226520505812549088e-03
-5.223650382948009062e-03
-5.220780579128836418e-03
-5.217911094478201728e-03
-5.215041929119161937e-03
-5.212173083174662103e-03
-5.209304556767531055e-03
-5.206436350020484001e-03
-5.203568463056125991e-03
-5.200700895996951054e-03
-5.197833648965337859e-03
-5.194966722083551453e-03
-5.192100115473743255e-03
-5.189233829257951063e-03
-5.186367863558100783e-03
-5.183502218496008167e-03
-5.180636894193377945e-03
-5.177771890771802957e-03
-5.174907208352768490e-03
-5.172042847057647941e-03
-5.169178807007705420e-03
-5.166315088324089679e-03
-5.163451691127835842e-03
-5.160588615539870617e-03
-5.157725861681013158e-03
-5.154863429671972461e-03
-5.152001319633345636e-03
-5.149139531685623106e-03
-5.146278065949183404e-03
-5.143416922544292308e-03
-5.140556101591107173e-03
-5.137695603209672598e-03
-5.134835427519922162e-03
-5.131975574641679284e-03
-5.129116044694658968e-03
-5.126256837798465194e-03
-5.123397954072592651e-03
-5.120539393636425879e-03
-5.117681156609240993e-03
-5.114823243110205690e-03
-5.111965653258380114e-03
-5.109108387172717723e-03
-5.106251444972063555e-03
-5.103394826775155095e-03
-5.100538532700618806e-03
-5.097682562866969261e-03
-5.094826917392614347e-03
-5.091971596395849196e-03
-5.089116599994858783e-03
-5.086261928307724001e-03
-5.083407581452418188e-03
-5.080553559546808866e-03
-5.077699862708657738e-03
-5.074846491055620690e-03
-5.071993444705249522e-03
-5.069140723774991086e-03
-5.066288328382186415e-03
-5.063436258644069855e-03
-5.060584514677770804e-03
-5.057733096600312839e-03
-5.054882004528611986e-03
-5.052031238579480187e-03
-5.049180798869621831e-03
-5.046330685515639826e-03
-5.043480898634034731e-03
-5.040631438341202156e-03
-5.037782304753430154e-03
-5.034933497986899230e-03
-5.032085018157688404e-03
-5.029236865381771747e-03
-5.026389039775022716e-03
-5.023541541453210683e-03
-5.020694370532000073e-03
-5.017847527126951222e-03
-5.015001011353522990e-03
-5.012154823327071886e-03
-5.009308963162850334e-03
-5.006463430976008412e-03
-5.003618226881592114e-03
-5.000773350994543349e-03
-4.997928803429699945e-03
-4.995084584301796513e-03
-4.992240693725468782e-03
-4.989397131815251872e-03
-4.986553898685575081e-03
-4.983710994450763626e-03
-4.980868419225042108e-03
-4.978026173122534516e-03
-4.975184256257264223e-03
-4.972342668743153990e-03
-4.969501410694023361e-03
-4.966660482223589530e-03
-4.963819883445470815e-03
-4.960979614473183183e-03
-4.958139675420141987e-03
-4.955300066399661967e-03
-4.952460787524955513e-03
-4.949621838909137005e-03
-4.946783220665220207e-03
-4.943944932906120873e-03
-4.941106975744655877e-03
-4.938269349293544948e-03
-4.935432053665411538e-03
-4.932595088972779353e-03
-4.929758455328074954e-03
-4.926922152843627757e-03
-4.924086181631670903e-03
-4.921250541804338650e-03
-4.918415233473667249e-03
-4.915580256751594067e-03
-4.912745611749961064e-03
-4.909911298580511320e-03
-4.907077317354887301e-03
-4.904243668184634329e-03
-4.901410351181200581e-03
-4.898577366455939691e-03
-4.895744714120109885e-03
-4.892912394284872242e-03
-4.890080407061288964e-03
-4.887248752560325107e-03
-4.884417430892848584e-03
-4.881586442169630162e-03
-4.878755786501345199e-03
-4.875925463998577979e-03
-4.873095474771816510e-03
-4.870265818931454258e-03
-4.867436496587789277e-03
-4.864607507851024214e-03
-4.861778852831269773e-03
-4.858950531638546455e-03
-4.856122544382780216e-03
-4.853294891173802472e-03
-4.850467572121349227e-03
-4.847640587335059342e-03
-4.844813936924474533e-03
-4.841987620999047177e-03
-4.839161639668133376e-03
-4.836335993040995554e-03
-4.833510681226803329e-03
-4.830685704334634380e-03
-4.827861062473471840e-03
-4.825036755752210374e-03
-4.822212784279648369e-03
-4.819389148164490537e-03
-4.816565847515349649e-03
-4.813742882440745670e-03
-4.810920253049108357e-03
-4.808097959448776396e-03
-4.805276001747995664e-03
-4.802454380054921833e-03
-4.799633094477617767e-03
-4.796812145124051789e-03
-4.793991532102099412e-03
-4.791171255519546812e-03
-4.788351315484090827e-03
-4.785531712103336353e-03
-4.782712445484799818e-03
-4.779893515735907442e-03
-4.777074922963996106e-03
-4.774256667276317694e-03
-4.771438748780033878e-03
-4.768621167582214396e-03
-4.765803923789840510e-03
-4.762987017509805014e-03
-4.760170448848912231e-03
-4.757354217913879746e-03
-4.754538324811335807e-03
-4.751722769647820192e-03
-4.748907552529781605e-03
-4.746092673563579410e-03
-4.743278132855481034e-03
-4.740463930511670636e-03
-4.737650066638246504e-03
-4.734836541341219326e-03
-4.732023354726511317e-03
-4.729210506899955355e-03
-4.726397997967297579e-03
-4.723585828034196528e-03
-4.720773997206223135e-03
-4.717962505588865936e-03
-4.715151353287526728e-03
-4.712340540407519707e-03
-4.709530067054073198e-03
-4.706719933332332260e-03
-4.703910139347356953e-03
-4.701100685204119729e-03
-4.698291571007508043e-03
-4.695482796862324344e-03
-4.692674362873285217e-03
-4.689866269145022241e-03
-4.687058515782083733e-03
-4.684251102888931269e-03
-4.681444030569941427e-03
-4.678637298929409251e-03
-4.675830908071543050e-03
-4.673024858100469602e-03
-4.670219149120233282e-03
-4.667413781234796936e-03
-4.664608754548038409e-03
-4.661804069163754012e-03
-4.658999725185659392e-03
-4.656195722717388664e-03
-4.653392061862491810e-03
-4.650588742724434677e-03
-4.647785765406601578e-03
-4.644983130012297033e-03
-4.642180836644744027e-03
-4.639378885407085748e-03
-4.636577276402384720e-03
-4.633776009733621068e-03
-4.630975085503695986e-03
-4.628174503815427401e-03
-4.625374264771553445e-03
-4.622574368474730716e-03
-4.619774815027536015e-03
-4.616975604532466346e-03
-4.614176737091933711e-03
-4.611378212808271183e-03
-4.608580031783732905e-03
-4.605782194120495825e-03
-4.602984699920657091e-03
-4.600187549286234058e-03
-4.597390742319166015e-03
-4.594594279121315926e-03
-4.591798159794472159e-03
-4.589002384440343286e-03
-4.586206953160561553e-03
-4.583411866056681140e-03
-4.580617123230174698e-03
-4.577822724782435078e-03
-4.575028670814778806e-03
-4.572234961428441741e-03
-4.569441596724584283e-03
-4.566648576804291371e-03
-4.563855901768570748e-03
-4.561063571718352964e-03
-4.558271586754490505e-03
-4.555479946977758661e-03
-4.552688652488858130e-03
-4.549897703388412415e-03
-4.547107099776971292e-03
-4.544316841755007344e-03
-4.541526929422918558e-03
-4.538737362881028331e-03
-4.535948142229584597e-03
-4.533159267568756361e-03
-4.530370738998636300e-03
-4.527582556619243366e-03
-4.524794720530519315e-03
-4.522007230832330443e-03
-4.519220087624466718e-03
-4.516433291006644382e-03
-4.513646841078503349e-03
-4.510860737939605472e-03
-4.508074981689440611e-03
-4.505289572427428370e-03
-4.502504510252915496e-03
-4.499719795265175008e-03
-4.496935427563406203e-03
-4.494151407246734647e-03
-4.491367734414211318e-03
-4.488584409164815200e-03
-4.485801431597454154e-03
-4.483018801810963183e-03
-4.480236519904104431e-03
-4.477454585975566316e-03
-4.474673000123963532e-03
-4.471891762447840514e-03
-4.469110873045669709e-03
-4.466330332015848968e-03
-4.463550139456704154e-03
-4.460770295466491737e-03
-4.457990800143395334e-03
-4.455211653585532637e-03
-4.452432855890948483e-03
-4.449654407157620055e-03
-4.446876307483452542e-03
-4.444098556966284350e-03
-4.441321155703882757e-03
-4.438544103793948259e-03
-4.435767401334107622e-03
-4.432991048421918226e-03
-4.430215045154870662e-03
-4.427439391630388736e-03
-4.424664087945825129e-03
-4.421889134198465736e-03
-4.419114530485527929e-03
-4.416340276904163163e-03
-4.413566373551456104e-03
-4.410792820524425499e-03
-4.408019617920019839e-03
-4.405246765835120829e-03
-4.402474264366545119e-03
-4.399702113611041708e-03
-4.396930313665292807e-03
-4.394158864625913839e-03
-4.391387766589452575e-03
-4.388617019652391732e-03
-4.385846623911146373e-03
-4.383076579462065643e-03
-4.380306886401432766e-03
-4.377537544825467648e-03
-4.374768554830326880e-03
-4.371999916512101132e-03
-4.369231629966816889e-03
-4.366463695290433850e-03
-4.363696112578845793e-03
-4.360928881927877976e-03
-4.358162003433291472e-03
-4.355395477190782301e-03
-4.352629303295979697e-03
-4.349863481844450444e-03
-4.347098012931695406e-03
-4.344332896653150394e-03
-4.341568133104187037e-03
-4.338803722380113644e-03
-4.336039664576178676e-03
-4.333275959787566411e-03
-4.330512608109399544e-03
-4.327749609636737452e-03
-4.324986964464578795e-03
-4.322224672687858052e-03
-4.319462734401448983e-03
-4.316701149700165503e-03
-4.313939918678756473e-03
-4.311179041431905702e-03
-4.308418518054231948e-03
-4.305658348640294120e-03
-4.302898533284589544e-03
-4.300139072081551363e-03
-4.297379965125550268e-03
-4.294621212510897103e-03
-4.291862814331840262e-03
-4.289104770682566556e-03
-4.286347081657202948e-03
-4.283589747349815686e-03
-4.280832767854411171e-03
-4.278076143264931616e-03
-4.275319873675256788e-03
-4.272563959179204000e-03
-4.269808399870528119e-03
-4.267053195842926763e-03
-4.264298347190035969e-03
-4.261543854005431925e-03
-4.258789716382627502e-03
-4.256035934415073989e-03
-4.253282508196164560e-03
-4.250529437819236013e-03
-4.247776723377564428e-03
-4.245024364964369509e-03
-4.242272362672815447e-03
-4.239520716596006586e-03
-4.236769426826984819e-03
-4.234018493458733927e-03
-4.231267916584182179e-03
-4.228517696296197129e-03
-4.225767832687590819e-03
-4.223018325851116313e-03
-4.220269175879472028e-03
-4.217520382865300871e-03
-4.214771946901189371e-03
-4.212023868079666812e-03
-4.209276146493206097e-03
-4.206528782234221150e-03
-4.203781775395070384e-03
-4.201035126068054966e-03
-4.198288834345418816e-03
-4.195542900319348609e-03
-4.192797324081976376e-03
-4.190052105725379505e-03
-4.187307245341579873e-03
-4.184562743022545578e-03
-4.181818598860190944e-03
-4.179074812946373917e-03
-4.176331385372898664e-03
-4.173588316231512975e-03
-4.170845605613909129e-03
-4.168103253611723895e-03
-4.165361260316544599e-03
-4.162619625819903059e-03
-4.159878350213278182e-03
-4.157137433588092498e-03
-4.154396876035715627e-03
-4.151656677647465148e-03
-4.148916838514604861e-03
-4.146177358728343060e-03
-4.143438238379834257e-03
-4.140699477560181793e-03
-4.137961076360434365e-03
-4.135223034871586892e-03
-4.132485353184580518e-03
-4.129748031390300007e-03
-4.127011069579577217e-03
-4.124274467843191960e-03
-4.121538226271870275e-03
-4.118802344956287893e-03
-4.116066823987070238e-03
-4.113331663454789823e-03
-4.110596863449967990e-03
-4.107862424063072303e-03
-4.105128345384516549e-03
-4.102394627504663341e-03
-4.099661270513824118e-03
-4.096928274502260880e-03
-4.094195639560184452e-03
-4.091463365777757953e-03
-4.088731453245095064e-03
-4.085999902052259158e-03
-4.083268712289263302e-03
-4.080537884046073725e-03
-4.077807417412608951e-03
-4.075077312478740665e-03
-4.072347569334292851e-03
-4.069618188069040049e-03
-4.066889168772706495e-03
-4.064160511534966116e-03
-4.061432216445446004e-03
-4.058704283593724677e-03
-4.055976713069332079e-03
-4.053249504961748718e-03
-4.050522659360407396e-03
-4.047796176354694075e-03
-4.045070056033948751e-03
-4.042344298487468048e-03
-4.039618903804501754e-03
-4.036893872074251953e-03
-4.034169203385873023e-03
-4.031444897828471638e-03
-4.028720955491106766e-03
-4.025997376462785333e-03
-4.023274160832469165e-03
-4.020551308689074982e-03
-4.017828820121472667e-03
-4.015106695218487003e-03
-4.012384934068895931e-03
-4.009663536761429690e-03
-4.006942503384771682e-03
-4.004221834027557603e-03
-4.001501528778379779e-03
-3.998781587725782835e-03
-3.996062010958267158e-03
-3.993342798564288899e-03
-3.990623950632259977e-03
-3.987905467250548071e-03
-3.985187348507475760e-03
-3.982469594491324857e-03
-3.979752205290337276e-03
-3.977035180992708092e-03
-3.974318521686585545e-03
-3.971602227460072770e-03
-3.968886298401229536e-03
-3.966170734598072241e-03
-3.963455536138573050e-03
-3.960740703110663362e-03
-3.958026235602232941e-03
-3.955312133701125582e-03
-3.952598397495143447e-03
-3.949885027072043593e-03
-3.947172022519537110e-03
-3.944459383925292585e-03
-3.941747111376937840e-03
-3.939035204962058195e-03
-3.936323664768194737e-03
-3.933612490882845182e-03
-3.930901683393465615e-03
-3.928191242387472221e-03
-3.925481167952237817e-03
-3.922771460175097057e-03
-3.920062119143340358e-03
-3.917353144944214771e-03
-3.914644537664924845e-03
-3.911936297392634362e-03
-3.909228424214468076e-03
-3.906520918217510838e-03
-3.903813779488806302e-03
-3.901107008115357357e-03
-3.898400604184126123e-03
-3.895694567782033955e-03
-3.892988898995961011e-03
-3.890283597912748415e-03
-3.887578664619199126e-03
-3.884874099202077508e-03
-3.882169901748107593e-03
-3.879466072343974812e-03
-3.876762611076327737e-03
-3.874059518031774171e-03
-3.871356793296884622e-03
-3.868654436958191434e-03
-3.865952449102185752e-03
-3.863250829815321422e-03
-3.860549579184013261e-03
-3.857848697294638789e-03
-3.855148184233535193e-03
-3.852448040086999329e-03
-3.849748264941289452e-03
-3.847048858882625658e-03
-3.844349821997189876e-03
-3.841651154371124571e-03
-3.838952856090534476e-03
-3.836254927241486163e-03
-3.833557367910011941e-03
-3.830860178182103355e-03
-3.828163358143712915e-03
-3.825466907880757574e-03
-3.822770827479118720e-03
-3.820075117024640879e-03
-3.817379776603132147e-03
-3.814684806300362458e-03
-3.811990206202065315e-03
-3.809295976393937792e-03
-3.806602116961638801e-03
-3.803908627990791255e-03
-3.801215509566980774e-03
-3.798522761775756981e-03
-3.795830384702633502e-03
-3.793138378433088403e-03
-3.790446743052565924e-03
-3.787755478646475174e-03
-3.785064585300188834e-03
-3.782374063099044458e-03
-3.779683912128344470e-03
-3.776994132473358336e-03
-3.774304724219320825e-03
-3.771615687451430714e-03
-3.768927022254850781e-03
-3.766238728714707811e-03
-3.763550806916094761e-03
-3.760863256944072062e-03
-3.758176078883664582e-03
-3.755489272819863798e-03
-3.752802838837625624e-03
-3.750116777021871278e-03
-3.747431087457490755e-03
-3.744745770229341957e-03
-3.742060825422249826e-03
-3.739376253121003309e-03
-3.736692053410358393e-03
-3.734008226375038538e-03
-3.731324772099731211e-03
-3.728641690669091350e-03
-3.725958982167740068e-03
-3.723276646680268118e-03
-3.720594684291232430e-03
-3.717913095085159571e-03
-3.715231879146542720e-03
-3.712551036559840357e-03
-3.709870567409481474e-03
-3.707190471779862103e-03
-3.704510749755343581e-03
-3.701831401420256022e-03
-3.699152426858896576e-03
-3.696473826155531606e-03
-3.693795599394393645e-03
-3.691117746659684437e-03
-3.688440268035573198e-03
-3.685763163606199221e-03
-3.683086433455670140e-03
-3.680410077668063232e-03
-3.677734096327425848e-03
-3.675058489517773683e-03
-3.672383257323092506e-03
-3.669708399827336862e-03
-3.667033917114431805e-03
-3.664359809268273333e-03
-3.661686076372728388e-03
-3.659012718511633119e-03
-3.656339735768792884e-03
-3.653667128227982251e-03
-3.650994895972947164e-03
-3.648323039087404945e-03
-3.645651557655042990e-03
-3.642980451759518339e-03
-3.640309721484457674e-03
-3.637639366913459921e-03
-3.634969388130094518e-03
-3.632299785217899674e-03
-3.629630558260385845e-03
-3.626961707341037466e-03
-3.624293232543309481e-03
-3.621625133950626043e-03
-3.618957411646382249e-03
-3.616290065713945873e-03
-3.613623096236654331e-03
-3.610956503297818154e-03
-3.608290286980719679e-03
-3.605624447368611322e-03
-3.602958984544716876e-03
-3.600293898592231510e-03
-3.597629189594320469e-03
-3.594964857634122980e-03
-3.592300902794752244e-03
-3.589637325159291976e-03
-3.586974124810799868e-03
-3.584311301832306292e-03
-3.581648856306814295e-03
-3.578986788317299605e-03
-3.576325097946712796e-03
-3.573663785277975818e-03
-3.571002850393981999e-03
-3.568342293377599079e-03
-3.565682114311666175e-03
-3.563022313278994650e-03
-3.560362890362369411e-03
-3.557703845644548477e-03
-3.555045179208263413e-03
-3.552386891136220196e-03
-3.549728981511097482e-03
-3.547071450415550942e-03
-3.544414297932209790e-03
-3.541757524143679826e-03
-3.539101129132541691e-03
-3.536445112981351745e-03
-3.533789475772641190e-03
-3.531134217588916512e-03
-3.528479338512658606e-03
-3.525824838626323218e-03
-3.523170718012343106e-03
-3.520516976753124139e-03
-3.517863614931049637e-03
-3.515210632628478632e-03
-3.512558029927743269e-03
-3.509905806911150974e-03
-3.507253963660985317e-03
-3.504602500259504285e-03
-3.501951416788943311e-03
-3.499300713331512241e-03
-3.496650389969395336e-03
-3.494000446784751267e-03
-3.491350883859713553e-03
-3.488701701276391860e-03
-3.486052899116872002e-03
-3.483404477463215073e-03
-3.480756436397459182e-03
-3.478108776001619454e-03
-3.475461496357686291e-03
-3.472814597547626680e-03
-3.470168079653386788e-03
-3.467521942756892402e-03
-3.464876186940046322e-03
-3.462230812284728364e-03
-3.459585818872794490e-03
-3.456941206786076810e-03
-3.454296976106387054e-03
-3.451653126915516564e-03
-3.449009659295234568e-03
-3.446366573327288609e-03
-3.443723869093404111e-03
-3.441081546675283081e-03
-3.438439606154606275e-03
-3.435798047613031030e-03
-3.433156871132193432e-03
-3.430516076793706584e-03
-3.427875664679162337e-03
-3.425235634870131725e-03
-3.422595987448164533e-03
-3.419956722494789294e-03
-3.417317840091512425e-03
-3.414679340319818224e-03
-3.412041223261170174e-03
-3.409403488997009637e-03
-3.406766137608757596e-03
-3.404129169177810745e-03
-3.401492583785545396e-03
-3.398856381513318346e-03
-3.396220562442465139e-03
-3.393585126654302675e-03
-3.390950074230127467e-03
-3.388315405251216515e-03
-3.385681119798827736e-03
-3.383047217954196061e-03
-3.380413699798536474e-03
-3.377780565413040972e-03
-3.375147814878881169e-03
-3.372515448277206562e-03
-3.369883465689148868e-03
-3.367251867195820286e-03
-3.364620652878316104e-03
-3.361989822817712959e-03
-3.359359377095070143e-03
-3.356729315791428733e-03
-3.354099638987810290e-03
-3.351470346765215991e-03
-3.348841439204627932e-03
-3.346212916387009996e-03
-3.343584778393306547e-03
-3.340957025304442003e-03
-3.338329657201321264e-03
-3.335702674164829715e-03
-3.333076076275834961e-03
-3.330449863615185090e-03
-3.327824036263708676e-03
-3.325198594302215642e-03
-3.322573537811495097e-03
-3.319948866872316634e-03
-3.317324581565429028e-03
-3.314700681971563707e-03
-3.312077168171433453e-03
-3.309454040245734131e-03
-3.306831298275141225e-03
-3.304208942340312004e-03
-3.301586972521885089e-03
-3.298965388900480453e-03
-3.296344191556698118e-03
-3.293723380571121628e-03
-3.291102956024316746e-03
-3.288482917996834922e-03
-3.285863266569208959e-03
-3.283244001821955180e-03
-3.280625123835570825e-03
-3.278006632690535355e-03
-3.275388528467311749e-03
-3.272770811246345207e-03
-3.270153481108063580e-03
-3.267536538132879108e-03
-3.264919982401188418e-03
-3.262303813993370355e-03
-3.259688032989784684e-03
-3.257072639470775990e-03
-3.254457633516673245e-03
-3.251843015207788509e-03
-3.249228784624418661e-03
-3.246614941846843235e-03
-3.244001486955326585e-03
-3.241388420030118320e-03
-3.238775741151452871e-03
-3.236163450399549488e-03
-3.233551547854610943e-03
-3.230940033596823094e-03
-3.228328907706356620e-03
-3.225718170263367456e-03
-3.223107821347996789e-03
-3.220497861040371498e-03
-3.217888289420602413e-03
-3.215279106568787355e-03
-3.212670312565009401e-03
-3.210061907489338614e-03
-3.207453891421827279e-03
-3.204846264442511635e-03
-3.202239026631413174e-03
-3.199632178068535608e-03
-3.197025718833868772e-03
-3.194419649007386886e-03
-3.191813968669046393e-03
-3.189208677898791155e-03
-3.186603776776549424e-03
-3.183999265382235141e-03
-3.181395143795749669e-03
-3.178791412096980493e-03
-3.176188070365801221e-03
-3.173585118682068114e-03
-3.170982557125622252e-03
-3.168380385776289540e-03
-3.165778604713881568e-03
-3.163177214018193881e-03
-3.160576213769008581e-03
-3.157975604046090855e-03
-3.155375384929190279e-03
-3.152775556498039512e-03
-3.150176118832357774e-03
-3.147577072011850403e-03
-3.144978416116207560e-03
-3.142380151225105962e-03
-3.139782277418206712e-03
-3.137184794775154002e-03
-3.134587703375577277e-03
-3.131991003299092538e-03
-3.129394694625300174e-03
-3.126798777433787563e-03
-3.124203251804127338e-03
-3.121608117815876521e-03
-3.119013375548576952e-03
-3.116419025081755730e-03
-3.113825066494923469e-03
-3.111231499867577344e-03
-3.108638325279198915e-03
-3.106045542809254562e-03
-3.103453152537198091e-03
-3.100861154542468995e-03
-3.098269548904491587e-03
-3.095678335702674571e-03
-3.093087515016413203e-03
-3.090497086925086262e-03
-3.087907051508057780e-03
-3.085317408844677044e-03
-3.082728159014276863e-03
-3.080139302096173565e-03
-3.077550838169666562e-03
-3.074962767314038357e-03
-3.072375089608554970e-03
-3.069787805132465942e-03
-3.067200913965007804e-03
-3.064614416185404075e-03
-3.062028311872863097e-03
-3.059442601106579767e-03
-3.056857283965734671e-03
-3.054272360529495384e-03
-3.051687830877013868e-03
-3.049103695087428643e-03
-3.046519953239863916e-03
-3.043936605413431317e-03
-3.041353651687227298e-03
-3.038771092140330962e-03
-3.036188926851806236e-03
-3.033607155900701000e-03
-3.031025779366046651e-03
-3.028444797326858978e-03
-3.025864209862135553e-03
-3.023284017050857902e-03
-3.020704218971990637e-03
-3.018124815704484494e-03
-3.015545807327275028e-03
-3.012967193919283051e-03
-3.010388975559414194e-03
-3.007811152326557175e-03
-3.005233724299585969e-03
-3.002656691557357635e-03
-3.000080054178712319e-03
-2.997503812242474988e-03
-2.994927965827456733e-03
-2.992352515012453463e-03
-2.989777459876246345e-03
-2.987202800497599630e-03
-2.984628536955261958e-03
-2.982054669327966357e-03
-2.979481197694430240e-03
-2.976908122133355844e-03
-2.974335442723430225e-03
-2.971763159543324827e-03
-2.969191272671694182e-03
-2.966619782187175907e-03
-2.964048688168389838e-03
-2.961477990693938030e-03
-2.958907689842406926e-03
-2.956337785692366056e-03
-2.953768278322369770e-03
-2.951199167810958108e-03
-2.948630454236654628e-03
-2.946062137677968578e-03
-2.943494218213392292e-03
-2.940926695921400758e-03
-2.938359570880450748e-03
-2.935792843168981252e-03
-2.933226512865415650e-03
-2.930660580048159540e-03
-2.928095044795602040e-03
-2.925529907186116222e-03
-2.922965167298059112e-03
-2.920400825209772989e-03
-2.917836880999580187e-03
-2.915273334745788290e-03
-2.912710186526685369e-03
-2.910147436420539978e-03
-2.907585084505600291e-03
-2.905023130860097565e-03
-2.902461575562244843e-03
-2.899900418690240424e-03
-2.897339660322266128e-03
-2.894779300536486858e-03
-2.892219339411048872e-03
-2.889659777024078044e-03
-2.887100613453682900e-03
-2.884541848777953318e-03
-2.881983483074960530e-03
-2.879425516422758416e-03
-2.876867948899383947e-03
-2.874310780582855444e-03
-2.871754011551173446e-03
-2.869197641882318978e-03
-2.866641671654253983e-03
-2.864086100944921321e-03
-2.861530929832246505e-03
-2.858976158394139003e-03
-2.856421786708486597e-03
-2.853867814853157554e-03
-2.851314242906001061e-03
-2.848761070944846787e-03
-2.846208299047505753e-03
-2.843655927291772502e-03
-2.841103955755423793e-03
-2.838552384516217740e-03
-2.836001213651894240e-03
-2.833450443240175410e-03
-2.830900073358766453e-03
-2.828350104085355227e-03
-2.825800535497610937e-03
-2.823251367673182410e-03
-2.820702600689701123e-03
-2.818154234624779906e-03
-2.815606269556012939e-03
-2.813058705560973587e-03
-2.810511542717216132e-03
-2.807964781102275341e-03
-2.805418420793666465e-03
-2.802872461868883940e-03
-2.800326904405402682e-03
-2.797781748480677663e-03
-2.795236994172142601e-03
-2.792692641557211700e-03
-2.790148690713279214e-03
-2.787605141717717713e-03
-2.785061994647877650e-03
-2.782519249581086058e-03
-2.779976906594646986e-03
-2.777434965765844099e-03
-2.774893427171938511e-03
-2.772352290890172256e-03
-2.769811556997766547e-03
-2.767271225571922219e-03
-2.764731296689817985e-03
-2.762191770428609576e-03
-2.759652646865431470e-03
-2.757113926077395596e-03
-2.754575608141590897e-03
-2.752037693135084631e-03
-2.749500181134921072e-03
-2.746963072218118040e-03
-2.744426366461669934e-03
-2.741890063942549471e-03
-2.739354164737707251e-03
-2.736818668924071753e-03
-2.734283576578548040e-03
-2.731748887778019056e-03
-2.729214602599341725e-03
-2.726680721119350420e-03
-2.724147243414856961e-03
-2.721614169562647147e-03
-2.719081499639484228e-03
-2.716549233722106733e-03
-2.714017371887230204e-03
-2.711485914211545466e-03
-2.708954860771716454e-03
-2.706424211644380649e-03
-2.703893966906152115e-03
-2.701364126633622794e-03
-2.698834690903359045e-03
-2.696305659791899470e-03
-2.693777033375755782e-03
-2.691248811731414541e-03
-2.688720994935335853e-03
-2.686193583063953370e-03
-2.683666576193672985e-03
-2.681139974400874575e-03
-2.678613777761909825e-03
-2.676087986353103531e-03
-2.673562600250754036e-03
-2.671037619531133230e-03
-2.668513044270485676e-03
-2.665988874545026886e-03
-2.663465110430945481e-03
-2.660941752004402760e-03
-2.658418799341532267e-03
-2.655896252518441525e-03
-2.653374111611210302e-03
-2.650852376695890609e-03
-2.648331047848504968e-03
-2.645810125145045977e-03
-2.643289608661477611e-03
-2.640769498473735655e-03
-2.638249794657725970e-03
-2.635730497289325361e-03
-2.633211606444381143e-03
-2.630693122198711573e-03
-2.628175044628102818e-03
-2.625657373808313721e-03
-2.623140109815073201e-03
-2.620623252724080254e-03
-2.618106802611004386e-03
-2.615590759551483444e-03
-2.613075123621123614e-03
-2.610559894895502896e-03
-2.608045073450170667e-03
-2.605530659360642907e-03
-2.603016652702406109e-03
-2.600503053550914673e-03
-2.597989861981590039e-03
-2.595477078069821121e-03
-2.592964701890964306e-03
-2.590452733520344757e-03
-2.587941173033255545e-03
-2.585430020504957214e-03
-2.582919276010677348e-03
-2.580408939625610572e-03
-2.577899011424918552e-03
-2.575389491483728692e-03
-2.572880379877135436e-03
-2.570371676680199835e-03
-2.567863381967950415e-03
-2.565355495815381005e-03
-2.562848018297451177e-03
-2.560340949489084503e-03
-2.557834289465169431e-03
-2.555328038300561013e-03
-2.552822196070080474e-03
-2.550316762848514780e-03
-2.547811738710616634e-03
-2.545307123731104047e-03
-2.542802917984660332e-03
-2.540299121545933243e-03
-2.537795734489534105e-03
-2.535292756890039113e-03
-2.532790188821986300e-03
-2.530288030359878135e-03
-2.527786281578179792e-03
-2.525284942551320015e-03
-2.522784013353690687e-03
-2.520283494059646825e-03
-2.517783384743506585e-03
-2.515283685479548659e-03
-2.512784396342012273e-03
-2.510285517405098921e-03
-2.507787048742971935e-03
-2.505288990429757352e-03
-2.502791342539543908e-03
-2.500294105146381313e-03
-2.497797278324280675e-03
-2.495300862147213205e-03
-2.492804856689111084e-03
-2.490309262023867459e-03
-2.487814078225334281e-03
-2.485319305367324465e-03
-2.482824943523611032e-03
-2.480330992767927970e-03
-2.477837453173967631e-03
-2.475344324815381171e-03
-2.472851607765779846e-03
-2.470359302098735013e-03
-2.467867407887776830e-03
-2.465375925206394689e-03
-2.462884854128035046e-03
-2.460394194726102726e-03
-2.457903947073961787e-03
-2.455414111244933785e-03
-2.452924687312297344e-03
-2.450435675349287284e-03
-2.447947075429094625e-03
-2.445458887624867451e-03
-2.442971112009712214e-03
-2.440483748656690263e-03
-2.437996797638819144e-03
-2.435510259029073036e-03
-2.433024132900382316e-03
-2.430538419325631392e-03
-2.428053118377660000e-03
-2.425568230129261909e-03
-2.423083754653185783e-03
-2.420599692022136484e-03
-2.418116042308772907e-03
-2.415632805585706672e-03
-2.413149981925503430e-03
-2.410667571400684165e-03
-2.408185574083722153e-03
-2.405703990047043401e-03
-2.403222819363027511e-03
-2.400742062104007247e-03
-2.398261718342268537e-03
-2.395781788150048736e-03
-2.393302271599537928e-03
-2.390823168762878492e-03
-2.388344479712164233e-03
-2.385866204519439520e-03
-2.383388343256698846e-03
-2.380910895995888999e-03
-2.378433862808907763e-03
-2.375957243767603047e-03
-2.373481038943774189e-03
-2.371005248409170218e-03
-2.368529872235489858e-03
-2.366054910494383261e-03
-2.363580363257448969e-03
-2.361106230596233483e-03
-2.358632512582231264e-03
-2.356159209286886030e-03
-2.353686320781588157e-03
-2.351213847137677282e-03
-2.348741788426439697e-03
-2.346270144719107918e-03
-2.343798916086861119e-03
-2.341328102600825131e-03
-2.338857704332072442e-03
-2.336387721351621330e-03
-2.333918153730436731e-03
-2.331449001539427635e-03
-2.328980264849447954e-03
-2.326511943731296092e-03
-2.324044038255714938e-03
-2.321576548493391873e-03
-2.319109474514959197e-03
-2.316642816390994571e-03
-2.314176574192018405e-03
-2.311710747988494734e-03
-2.309245337850829912e-03
-2.306780343849374349e-03
-2.304315766054422076e-03
-2.301851604536209444e-03
-2.299387859364913824e-03
-2.296924530610653607e-03
-2.294461618343488635e-03
-2.291999122633421072e-03
-2.289537043550394536e-03
-2.287075381164293229e-03
-2.284614135544941506e-03
-2.282153306762103439e-03
-2.279692894885483687e-03
-2.277232899984725761e-03
-2.274773322129412453e-03
-2.272314161389064977e-03
-2.269855417833143395e-03
-2.267397091531045319e-03
-2.264939182552106779e-03
-2.262481690965599621e-03
-2.260024616840732806e-03
-2.257567960246653280e-03
-2.255111721252445970e-03
-2.252655899927132489e-03
-2.250200496339671563e-03
-2.247745510558956869e-03
-2.245290942653819198e-03
-2.242836792693025591e-03
-2.240383060745279337e-03
-2.237929746879218675e-03
-2.235476851163418956e-03
-2.233024373666389617e-03
-2.230572314456574171e-03
-2.228120673602350648e-03
-2.225669451172032458e-03
-2.223218647233866224e-03
-2.220768261856031350e-03
-2.218318295106638718e-03
-2.215868747053733288e-03
-2.213419617765291503e-03
-2.210970907309221713e-03
-2.208522615753364619e-03
-2.206074743165492829e-03
-2.203627289613310433e-03
-2.201180255164453432e-03
-2.198733639886490607e-03
-2.196287443846921348e-03
-2.193841667113175659e-03
-2.191396309752614586e-03
-2.188951371832529788e-03
-2.186506853420144402e-03
-2.184062754582610875e-03
-2.181619075387012264e-03
-2.179175815900360504e-03
-2.176732976189597272e-03
-2.174290556321593990e-03
-2.171848556363150957e-03
-2.169406976380996912e-03
-2.166965816441787738e-03
-2.164525076612108193e-03
-2.162084756958470612e-03
-2.159644857547314035e-03
-2.157205378445003780e-03
-2.154766319717830569e-03
-2.152327681432010965e-03
-2.149889463653688673e-03
-2.147451666448934107e-03
-2.145014289883743087e-03
-2.142577334024036839e-03
-2.140140798935662864e-03
-2.137704684684394504e-03
-2.135268991335929640e-03
-2.132833718955891994e-03
-2.130398867609831996e-03
-2.127964437363225915e-03
-2.125530428281475429e-03
-2.123096840429905888e-03
-2.120663673873766312e-03
-2.118230928678229395e-03
-2.115798604908391504e-03
-2.113366702629271374e-03
-2.110935221905810549e-03
-2.108504162802872506e-03
-2.106073525385243096e-03
-2.103643309717631409e-03
-2.101213515864669337e-03
-2.098784143890910711e-03
-2.096355193860830867e-03
-2.093926665838827077e-03
-2.091498559889217249e-03
-2.089070876076242530e-03
-2.086643614464064704e-03
-2.084216775116764890e-03
-2.081790358098345277e-03
-2.079364363472728690e-03
-2.076938791303759892e-03
-2.074513641655203848e-03
-2.072088914590745727e-03
-2.069664610173990900e-03
-2.067240728468464940e-03
-2.064817269537612323e-03
-2.062394233444796859e-03
-2.059971620253300828e-03
-2.057549430026326710e-03
-2.055127662826995456e-03
-2.052706318718346915e-03
-2.050285397763341143e-03
-2.047864900024854926e-03
-2.045444825565684386e-03
-2.043025174448544114e-03
-2.040605946736067603e-03
-2.038187142490805077e-03
-2.035768761775223062e-03
-2.033350804651704383e-03
-2.030933271182546861e-03
-2.028516161429964187e-03
-2.026099475456086350e-03
-2.023683213322960070e-03
-2.021267375092546201e-03
-2.018851960826721463e-03
-2.016436970587279307e-03
-2.014022404435927751e-03
-2.011608262434291979e-03
-2.009194544643914775e-03
-2.006781251126253923e-03
-2.004368381942682638e-03
-2.001955937154488701e-03
-1.999543916822874891e-03
-1.997132321008958118e-03
-1.994721149773768121e-03
-1.992310403178249208e-03
-1.989900081283260680e-03
-1.987490184149575106e-03
-1.985080711837880485e-03
-1.982671664408778515e-03
-1.980263041922783289e-03
-1.977854844440321298e-03
-1.975447072021730994e-03
-1.973039724727264528e-03
-1.970632802617087748e-03
-1.968226305751279333e-03
-1.965820234189829489e-03
-1.963414587992641253e-03
-1.961009367219530061e-03
-1.958604571930223741e-03
-1.956200202184361220e-03
-1.953796258041492952e-03
-1.951392739561081356e-03
-1.948989646802499077e-03
-1.946586979825030072e-03
-1.944184738687869179e-03
-1.941782923450121028e-03
-1.939381534170799178e-03
-1.936980570908826979e-03
-1.934580033723037364e-03
-1.932179922672173488e-03
-1.929780237814888739e-03
-1.927380979209746513e-03
-1.924982146915220219e-03
-1.922583740989692409e-03
-1.920185761491456080e-03
-1.917788208478712940e-03
-1.915391082009573623e-03
-1.912994382142055522e-03
-1.910598108934085174e-03
-1.908202262443496741e-03
-1.905806842728031579e-03
-1.903411849845339969e-03
-1.901017283852981339e-03
-1.898623144808422088e-03
-1.896229432769036246e-03
-1.893836147792105464e-03
-1.891443289934819022e-03
-1.889050859254272959e-03
-1.886658855807470938e-03
-1.884267279651322948e-03
-1.881876130842645954e-03
-1.879485409438162377e-03
-1.877095115494501615e-03
-1.874705249068200040e-03
-1.872315810215700134e-03
-1.869926798993351135e-03
-1.867538215457406224e-03
-1.865150059664025771e-03
-1.862762331669275823e-03
-1.860375031529128967e-03
-1.857988159299463898e-03
-1.855601715036064555e-03
-1.853215698794621197e-03
-1.850830110630728243e-03
-1.848444950599884918e-03
-1.846060218757496554e-03
-1.843675915158873510e-03
-1.841292039859229865e-03
-1.838908592913685155e-03
-1.836525574377264377e-03
-1.834142984304896465e-03
-1.831760822751415810e-03
-1.829379089771560963e-03
-1.826997785419973977e-03
-1.824616909751202148e-03
-1.822236462819696711e-03
-1.819856444679812842e-03
-1.817476855385809003e-03
-1.815097694991846733e-03
-1.812718963551991289e-03
-1.810340661120211003e-03
-1.807962787750377279e-03
-1.805585343496265028e-03
-1.803208328411551797e-03
-1.800831742549817774e-03
-1.798455585964544700e-03
-1.796079858709117823e-03
-1.793704560836824162e-03
-1.791329692400852941e-03
-1.788955253454296455e-03
-1.786581244050150074e-03
-1.784207664241312021e-03
-1.781834514080581858e-03
-1.779461793620661352e-03
-1.777089502914155125e-03
-1.774717642013570653e-03
-1.772346210971317403e-03
-1.769975209839705745e-03
-1.767604638670946735e-03
-1.765234497517154067e-03
-1.762864786430343210e-03
-1.760495505462431835e-03
-1.758126654665238950e-03
-1.755758234090484468e-03
-1.753390243789787256e-03
-1.751022683814667299e-03
-1.748655554216545054e-03
-1.746288855046741447e-03
-1.743922586356477875e-03
-1.741556748196876206e-03
-1.739191340618957476e-03
-1.736826363673642758e-03
-1.734461817411751643e-03
-1.732097701884003109e-03
-1.729734017141016170e-03
-1.727370763233310527e-03
-1.725007940211306786e-03
-1.722645548125326673e-03
-1.720283587025590215e-03
-1.717922056962217911e-03
-1.715560957985229860e-03
-1.713200290144544250e-03
-1.710840053489979086e-03
-1.708480248071250459e-03
-1.706120873937974278e-03
-1.703761931139665189e-03
-1.701403419725737226e-03
-1.699045339745503154e-03
-1.696687691248173610e-03
-1.694330474282858831e-03
-1.691973688898567793e-03
-1.689617335144208638e-03
-1.687261413068588895e-03
-1.684905922720414829e-03
-1.682550864148291223e-03
-1.680196237400720513e-03
-1.677842042526105169e-03
-1.675488279572746831e-03
-1.673134948588844793e-03
-1.670782049622496863e-03
-1.668429582721698287e-03
-1.666077547934342396e-03
-1.663725945308219952e-03
-1.661374774891019373e-03
-1.659024036730326508e-03
-1.656673730873625293e-03
-1.654323857368298831e-03
-1.651974416261626794e-03
-1.649625407600786939e-03
-1.647276831432855325e-03
-1.644928687804806311e-03
-1.642580976763511258e-03
-1.640233698355739612e-03
-1.637886852628158254e-03
-1.635540439627332148e-03
-1.633194459399722612e-03
-1.630848911991689045e-03
-1.628503797449487199e-03
-1.626159115819270041e-03
-1.623814867147087108e-03
-1.621471051478886021e-03
-1.619127668860512268e-03
-1.616784719337707689e-03
-1.614442202956111990e-03
-1.612100119761261229e-03
-1.609758469798588899e-03
-1.607417253113426359e-03
-1.605076469751001321e-03
-1.602736119756438928e-03
-1.600396203174762194e-03
-1.598056720050890266e-03
-1.595717670429640375e-03
-1.593379054355726103e-03
-1.591040871873756731e-03
-1.588703123028238108e-03
-1.586365807863572217e-03
-1.584028926424057172e-03
-1.581692478753886572e-03
-1.579356464897150366e-03
-1.577020884897833986e-03
-1.574685738799820080e-03
-1.572351026646886998e-03
-1.570016748482709655e-03
-1.567682904350859319e-03
-1.565349494294803606e-03
-1.563016518357906483e-03
-1.560683976583427616e-03
-1.558351869014523239e-03
-1.556020195694245937e-03
-1.553688956665543993e-03
-1.551358151971261390e-03
-1.549027781654138680e-03
-1.546697845756813197e-03
-1.544368344321817759e-03
-1.542039277391581533e-03
-1.539710645008429604e-03
-1.537382447214582105e-03
-1.535054684052155087e-03
-1.532727355563160299e-03
-1.530400461789506276e-03
-1.528074002772998553e-03
-1.525747978555339231e-03
-1.523422389178126979e-03
-1.521097234682856599e-03
-1.518772515110919027e-03
-1.516448230503601117e-03
-1.514124380902085853e-03
-1.511800966347452355e-03
-1.509477986880675008e-03
-1.507155442542623463e-03
-1.504833333374062639e-03
-1.502511659415653802e-03
-1.500190420707954355e-03
-1.497869617291417181e-03
-1.495549249206392598e-03
-1.493229316493126409e-03
-1.490909819191759897e-03
-1.488590757342330697e-03
-1.486272130984773012e-03
-1.483953940158916742e-03
-1.481636184904489006e-03
-1.479318865261111974e-03
-1.477001981268303947e-03
-1.474685532965479794e-03
-1.472369520391950083e-03
-1.470053943586922167e-03
-1.467738802589499533e-03
-1.465424097438680932e-03
-1.463109828173361901e-03
-1.460795994832334108e-03
-1.458482597454286442e-03
-1.456169636077802405e-03
-1.453857110741361850e-03
-1.451545021483340112e-03
-1.449233368342008662e-03
-1.446922151355535318e-03
-1.444611370561983818e-03
-1.442301025999315331e-03
-1.439991117705387595e-03
-1.437681645717954265e-03
-1.435372610074665779e-03
-1.433064010813070227e-03
-1.430755847970611614e-03
-1.428448121584630732e-03
-1.426140831692366238e-03
-1.423833978330952274e-03
-1.421527561537419115e-03
-1.419221581348693167e-03
-1.416916037801597408e-03
-1.414610930932851379e-03
-1.412306260779072706e-03
-1.410002027376775586e-03
-1.407698230762370129e-03
-1.405394870972162362e-03
-1.403091948042354230e-03
-1.400789462009044460e-03
-1.398487412908228566e-03
-1.396185800775798192e-03
-1.393884625647541335e-03
-1.391583887559142991e-03
-1.389283586546185374e-03
-1.386983722644146398e-03
-1.384684295888401195e-03
-1.382385306314221464e-03
-1.380086753956775688e-03
-1.377788638851128265e-03
-1.375490961032241246e-03
-1.373193720534974334e-03
-1.370896917394084230e-03
-1.368600551644224856e-03
-1.366304623319948867e-03
-1.364009132455706137e-03
-1.361714079085843973e-03
-1.359419463244607770e-03
-1.357125284966141220e-03
-1.354831544284485672e-03
-1.352538241233580121e-03
-1.350245375847262952e-03
-1.347952948159270416e-03
-1.345660958203235983e-03
-1.343369406012690989e-03
-1.341078291621065725e-03
-1.338787615061687915e-03
-1.336497376367783369e-03
-1.334207575572477281e-03
-1.331918212708792498e-03
-1.329629287809650168e-03
-1.327340800907869309e-03
-1.325052752036167021e-03
-1.322765141227159359e-03
-1.320477968513361113e-03
-1.318191233927184939e-03
-1.315904937500941797e-03
-1.313619079266842033e-03
-1.311333659256994511e-03
-1.309048677503406614e-03
-1.306764134037983376e-03
-1.304480028892530084e-03
-1.302196362098752063e-03
-1.299913133688253373e-03
-1.297630343692536808e-03
-1.295347992143004549e-03
-1.293066079070958165e-03
-1.290784604507598824e-03
-1.288503568484026651e-03
-1.286222971031240284e-03
-1.283942812180137536e-03
-1.281663091961515602e-03
-1.279383810406071065e-03
-1.277104967544399677e-03
-1.274826563406997225e-03
-1.272548598024259969e-03
-1.270271071426483551e-03
-1.267993983643863438e-03
-1.265717334706494912e-03
-1.263441124644372861e-03
-1.261165353487391774e-03
-1.258890021265345310e-03
-1.256615128007927814e-03
-1.254340673744732369e-03
-1.252066658505253394e-03
-1.249793082318886427e-03
-1.247519945214927263e-03
-1.245247247222571515e-03
-1.242974988370915048e-03
-1.240703168688953766e-03
-1.238431788205583391e-03
-1.236160846949600550e-03
-1.233890344949701906e-03
-1.231620282234485459e-03
-1.229350658832449898e-03
-1.227081474771994380e-03
-1.224812730081418751e-03
-1.222544424788924626e-03
-1.220276558922614527e-03
-1.218009132510492094e-03
-1.215742145580461873e-03
-1.213475598160330179e-03
-1.211209490277805534e-03
-1.208943821960497145e-03
-1.206678593235915560e-03
-1.204413804131471795e-03
-1.202149454674477768e-03
-1.199885544892147823e-03
-1.197622074811596988e-03
-1.195359044459842713e-03
-1.193096453863804005e-03
-1.190834303050302074e-03
-1.188572592046060116e-03
-1.186311320877702236e-03
-1.184050489571754523e-03
-1.181790098154645056e-03
-1.179530146652703901e-03
-1.177270635092162246e-03
-1.175011563499153483e-03
-1.172752931899713425e-03
-1.170494740319779443e-03
-1.168236988785190675e-03
-1.165979677321689551e-03
-1.163722805954921138e-03
-1.161466374710432709e-03
-1.159210383613674174e-03
-1.156954832689998085e-03
-1.154699721964658980e-03
-1.152445051462813166e-03
-1.150190821209520460e-03
-1.147937031229743750e-03
-1.145683681548348778e-03
-1.143430772190104795e-03
-1.141178303179683903e-03
-1.138926274541661498e-03
-1.136674686300516044e-03
-1.134423538480629516e-03
-1.132172831106286522e-03
-1.129922564201674530e-03
-1.127672737790884295e-03
-1.125423351897909645e-03
-1.123174406546648347e-03
-1.120925901760902324e-03
-1.118677837564378309e-03
-1.116430213980686538e-03
-1.114183031033340971e-03
-1.111936288745759508e-03
-1.109689987141264855e-03
-1.107444126243084092e-03
-1.105198706074348239e-03
-1.102953726658092905e-03
-1.100709188017258509e-03
-1.098465090174689405e-03
-1.096221433153134108e-03
-1.093978216975245504e-03
-1.091735441663581286e-03
-1.089493107240603739e-03
-1.087251213728678868e-03
-1.085009761150077488e-03
-1.082768749526974786e-03
-1.080528178881451189e-03
-1.078288049235491281e-03
-1.076048360610983804e-03
-1.073809113029722522e-03
-1.071570306513406441e-03
-1.069331941083639806e-03
-1.067094016761932105e-03
-1.064856533569697849e-03
-1.062619491528256138e-03
-1.060382890658831748e-03
-1.058146730982554478e-03
-1.055911012520459151e-03
-1.053675735293486265e-03
-1.051440899322481776e-03
-1.049206504628196878e-03
-1.046972551231288009e-03
-1.044739039152318147e-03
-1.042505968411756379e-03
-1.040273339029977899e-03
-1.038041151027263792e-03
-1.035809404423801471e-03
-1.033578099239684453e-03
-1.031347235494911715e-03
-1.029116813209387908e-03
-1.026886832402923791e-03
-1.024657293095236014e-03
-1.022428195305947335e-03
-1.020199539054587271e-03
-1.017971324360591881e-03
-1.015743551243303115e-03
-1.013516219721970115e-03
-1.011289329815749432e-03
-1.009062881543703076e-03
-1.006836874924799162e-03
-1.004611309977913218e-03
-1.002386186721827962e-03
-1.000161505175233088e-03
-9.979372653567248307e-04
-9.957134672848053179e-04
-9.934901109778843022e-04
-9.912671964542789458e-04
-9.890447237322140366e-04
-9.868226928298215548e-04
-9.846011037651406731e-04
-9.823799565561184069e-04
-9.801592512206091807e-04
-9.779389877763743945e-04
-9.757191662410827490e-04
-9.734997866323111130e-04
-9.712808489675437643e-04
-9.690623532641720649e-04
-9.668442995394953277e-04
-9.646266878107206000e-04
-9.624095180949635312e-04
-9.601927904092479385e-04
-9.579765047705060240e-04
-9.557606611955785916e-04
-9.535452597012147218e-04
-9.513303003040725304e-04
-9.491157830207188435e-04
-9.469017078676285467e-04
-9.446880748611854528e-04
-9.424748840176824100e-04
-9.402621353533209764e-04
-9.380498288842110954e-04
-9.358379646263713120e-04
-9.336265425957292067e-04
-9.314155628081213951e-04
-9.292050252792937457e-04
-9.269949300249009450e-04
-9.247852770605074742e-04
-9.225760664015873920e-04
-9.203672980635239009e-04
-9.181589720616098894e-04
-9.159510884110471729e-04
-9.137436471269474699e-04
-9.115366482243325097e-04
-9.093300917181335995e-04
-9.071239776231917323e-04
-9.049183059542576955e-04
-9.027130767259921793e-04
-9.005082899529659934e-04
-8.983039456496606096e-04
-8.961000438304677273e-04
-8.938965845096888407e-04
-8.916935677015353466e-04
-8.894909934201291951e-04
-8.872888616795025643e-04
-8.850871724935982943e-04
-8.828859258762704288e-04
-8.806851218412834565e-04
-8.784847604023123110e-04
-8.762848415729421539e-04
-8.740853653666681581e-04
-8.718863317968959413e-04
-8.696877408769425419e-04
-8.674895926200364192e-04
-8.652918870393170193e-04
-8.630946241478342331e-04
-8.608978039585498060e-04
-8.587014264843367958e-04
-8.565054917379793555e-04
-8.543099997321725167e-04
-8.521149504795225149e-04
-8.499203439925473317e-04
-8.477261802836769111e-04
-8.455324593652531603e-04
-8.433391812495301659e-04
-8.411463459486734351e-04
-8.389539534747602213e-04
-8.367620038397800657e-04
-8.345704970556341471e-04
-8.323794331341359326e-04
-8.301888120870103095e-04
-8.279986339258943451e-04
-8.258088986623375030e-04
-8.236196063078019686e-04
-8.214307568736622153e-04
-8.192423503712044624e-04
-8.170543868116272174e-04
-8.148668662060419262e-04
-8.126797885654730817e-04
-8.104931539008578987e-04
-8.083069622230464220e-04
-8.061212135428019602e-04
-8.039359078708004352e-04
-8.017510452176300571e-04
-7.995666255937925165e-04
-7.973826490097023342e-04
-7.951991154756875117e-04
-7.930160250019894228e-04
-7.908333775987624881e-04
-7.886511732760745005e-04
-7.864694120439066254e-04
-7.842880939121538338e-04
-7.821072188906250111e-04
-7.799267869890426320e-04
-7.777467982170428685e-04
-7.755672525841761323e-04
-7.733881500999064242e-04
-7.712094907736126350e-04
-7.690312746145876784e-04
-7.668535016320387077e-04
-7.646761718350872242e-04
-7.624992852327690772e-04
-7.603228418340341388e-04
-7.581468416477468459e-04
-7.559712846826863088e-04
-7.537961709475460943e-04
-7.516215004509342254e-04
-7.494472732013731818e-04
-7.472734892073001163e-04
-7.451001484770669635e-04
-7.429272510189405482e-04
-7.407547968411026936e-04
-7.385827859516502216e-04
-7.364112183585950610e-04
-7.342400940698643559e-04
-7.320694130933005743e-04
-7.298991754366611828e-04
-7.277293811076190801e-04
-7.255600301137623805e-04
-7.233911224625950639e-04
-7.212226581615369765e-04
-7.190546372179233963e-04
-7.168870596390047086e-04
-7.147199254319479235e-04
-7.125532346038358084e-04
-7.103869871616664547e-04
-7.082211831123540365e-04
-7.060558224627284853e-04
-7.038909052195358156e-04
-7.017264313894382328e-04
-6.995624009790147842e-04
-6.973988139947605996e-04
-6.952356704430873256e-04
-6.930729703303232332e-04
-6.909107136627134355e-04
-6.887489004464195617e-04
-6.865875306875200831e-04
-6.844266043920099870e-04
-6.822661215658011027e-04
-6.801060822147216673e-04
-6.779464863445163261e-04
-6.757873339608472165e-04
-6.736286250692940765e-04
-6.714703596753539196e-04
-6.693125377844407094e-04
-6.671551594018861183e-04
-6.649982245329396366e-04
-6.628417331827680297e-04
-6.606856853564550131e-04
-6.585300810590016861e-04
-6.563749202953273994e-04
-6.542202030702694293e-04
-6.520659293885834118e-04
-6.499120992549428004e-04
-6.477587126739396250e-04
-6.456057696500846002e-04
-6.434532701878063667e-04
-6.413012142914520331e-04
-6.391496019652872845e-04
-6.369984332134958401e-04
-6.348477080401794537e-04
-6.326974264493583468e-04
-6.305475884449712092e-04
-6.283981940308754153e-04
-6.262492432108469160e-04
-6.241007359885804556e-04
-6.219526723676895713e-04
-6.198050523517068108e-04
-6.176578759440840569e-04
-6.155111431481923110e-04
-6.133648539673218015e-04
-6.112190084046820919e-04
-6.090736064634021899e-04
-6.069286481465304382e-04
-6.047841334570347319e-04
-6.026400623978025181e-04
-6.004964349716406880e-04
-5.983532511812759015e-04
-5.962105110293548045e-04
-5.940682145184443541e-04
-5.919263616510316017e-04
-5.897849524295235846e-04
-5.876439868562474342e-04
-5.855034649334505932e-04
-5.833633866633008156e-04
-5.812237520478863830e-04
-5.790845610892161053e-04
-5.769458137892191033e-04
-5.748075101497451345e-04
-5.726696501725645925e-04
-5.705322338593686159e-04
-5.683952612117691965e-04
-5.662587322312986372e-04
-5.641226469194102026e-04
-5.619870052774781190e-04
-5.598518073067973574e-04
-5.577170530085840674e-04
-5.555827423839757940e-04
-5.534488754340316941e-04
-5.513154521597319951e-04
-5.491824725619786447e-04
-5.470499366415956365e-04
-5.449178443993287933e-04
-5.427861958358456583e-04
-5.406549909517357122e-04
-5.385242297475101563e-04
-5.363939122236019126e-04
-5.342640383803657321e-04
-5.321346082180787368e-04
-5.300056217369397693e-04
-5.278770789370703688e-04
-5.257489798185145538e-04
-5.236213243812390394e-04
-5.214941126251330201e-04
-5.193673445500078447e-04
-5.172410201555978837e-04
-5.151151394415605291e-04
-5.129897024074761948e-04
-5.108647090528479909e-04
-5.087401593771019408e-04
-5.066160533795869810e-04
-5.044923910595749614e-04
-5.023691724162608618e-04
-5.002463974487634428e-04
-4.981240661561247033e-04
-4.960021785373106397e-04
-4.938807345912110290e-04
-4.917597343166389950e-04
-4.896391777123313338e-04
-4.875190647769485678e-04
-4.853993955090749458e-04
-4.832801699072185515e-04
-4.811613879698115742e-04
-4.790430496952100383e-04
-4.769251550816938027e-04
-4.748077041274668324e-04
-4.726906968306574149e-04
-4.705741331893180520e-04
-4.684580132014255142e-04
-4.663423368648810029e-04
-4.642271041775099878e-04
-4.621123151370626412e-04
-4.599979697412136205e-04
-4.578840679875621766e-04
-4.557706098736323715e-04
-4.536575953968732941e-04
-4.515450245546593863e-04
-4.494328973442902257e-04
-4.473212137629904717e-04
-4.452099738079099735e-04
-4.430991774761240416e-04
-4.409888247646335559e-04
-4.388789156703650743e-04
-4.367694501901705616e-04
-4.346604283208272811e-04
-4.325518500590382824e-04
-4.304437154014325098e-04
-4.283360243445649652e-04
-4.262287768849164367e-04
-4.241219730188939326e-04
-4.220156127428307895e-04
-4.199096960529866726e-04
-4.178042229455474128e-04
-4.156991934166251153e-04
-4.135946074622588102e-04
-4.114904650784143437e-04
-4.093867662609843787e-04
-4.072835110057883398e-04
-4.051806993085724142e-04
-4.030783311650100388e-04
-4.009764065707017923e-04
-3.988749255211755575e-04
-3.967738880118866843e-04
-3.946732940382181518e-04
-3.925731435954804061e-04
-3.904734366789114688e-04
-3.883741732836773161e-04
-3.862753534048719872e-04
-3.841769770375177474e-04
-3.820790441765650877e-04
-3.799815548168928333e-04
-3.778845089533081980e-04
-3.757879065805470008e-04
-3.736917476932736116e-04
-3.715960322860812227e-04
-3.695007603534920652e-04
-3.674059318899573550e-04
-3.653115468898576182e-04
-3.632176053475026363e-04
-3.611241072571319891e-04
-3.590310526129143493e-04
-3.569384414089483504e-04
-3.548462736392625320e-04
-3.527545492978153945e-04
-3.506632683784953442e-04
-3.485724308751211279e-04
-3.464820367814417778e-04
-3.443920860911367748e-04
-3.423025787978161566e-04
-3.402135148950211681e-04
-3.381248943762239908e-04
-3.360367172348278507e-04
-3.339489834641674523e-04
-3.318616930575089244e-04
-3.297748460080497657e-04
-3.276884423089193327e-04
-3.256024819531786775e-04
-3.235169649338207097e-04
-3.214318912437702513e-04
-3.193472608758843615e-04
-3.172630738229527164e-04
-3.151793300776976631e-04
-3.130960296327744367e-04
-3.110131724807714310e-04
-3.089307586142101989e-04
-3.068487880255455608e-04
-3.047672607071656584e-04
-3.026861766513921719e-04
-3.006055358504805368e-04
-2.985253382966202148e-04
-2.964455839819347483e-04
-2.943662728984819768e-04
-2.922874050382541456e-04
-2.902089803931782856e-04
-2.881309989551159956e-04
-2.860534607158637141e-04
-2.839763656671531527e-04
-2.818997138006513505e-04
-2.798235051079606193e-04
-2.777477395806189782e-04
-2.756724172101004781e-04
-2.735975379878150936e-04
-2.715231019051089940e-04
-2.694491089532648686e-04
-2.673755591235021435e-04
-2.653024524069767104e-04
-2.632297887947815233e-04
-2.611575682779468150e-04
-2.590857908474401513e-04
-2.570144564941664856e-04
-2.549435652089683752e-04
-2.528731169826261985e-04
-2.508031118058583176e-04
-2.487335496693211865e-04
-2.466644305636097310e-04
-2.445957544792576191e-04
-2.425275214067373702e-04
-2.404597313364606524e-04
-2.383923842587784732e-04
-2.363254801639813141e-04
-2.342590190422994564e-04
-2.321930008839033065e-04
-2.301274256789034227e-04
-2.280622934173507320e-04
-2.259976040892367475e-04
-2.239333576844940014e-04
-2.218695541929959912e-04
-2.198061936045575049e-04
-2.177432759089349191e-04
-2.156808010958262531e-04
-2.136187691548712775e-04
-2.115571800756518666e-04
-2.094960338476921336e-04
-2.074353304604588377e-04
-2.053750699033613295e-04
-2.033152521657516864e-04
-2.012558772369252551e-04
-1.991969451061208142e-04
-1.971384557625206822e-04
-1.950804091952510703e-04
-1.930228053933822447e-04
-1.909656443459288523e-04
-1.889089260418500829e-04
-1.868526504700500216e-04
-1.847968176193778660e-04
-1.827414274786280885e-04
-1.806864800365407886e-04
-1.786319752818017205e-04
-1.765779132030426721e-04
-1.745242937888416275e-04
-1.724711170277231200e-04
-1.704183829081582586e-04
-1.683660914185650809e-04
-1.663142425473089318e-04
-1.642628362827026542e-04
-1.622118726130068593e-04
-1.601613515264301165e-04
-1.581112730111290893e-04
-1.560616370552088601e-04
-1.540124436467230930e-04
-1.519636927736744405e-04
-1.499153844240147602e-04
-1.478675185856453587e-04
-1.458200952464172356e-04
-1.437731143941311650e-04
-1.417265760165382102e-04
-1.396804801013400220e-04
-1.376348266361890826e-04
-1.355896156086888141e-04
-1.335448470063938225e-04
-1.315005208168101684e-04
-1.294566370273955843e-04
-1.274131956255598809e-04
-1.253701965986652454e-04
-1.233276399340263766e-04
-1.212855256189109194e-04
-1.192438536405396673e-04
-1.172026239860867933e-04
-1.151618366426801341e-04
-1.131214915974014344e-04
-1.110815888372867534e-04
-1.090421283493266406e-04
-1.070031101204664618e-04
-1.049645341376066830e-04
-1.029264003876031281e-04
-1.008887088572672368e-04
-9.885145953336644349e-05
-9.681465240262440795e-05
-9.477828745172128637e-05
-9.274236466729409724e-05
-9.070688403593696531e-05
-8.867184554420140617e-05
-8.663724917859661086e-05
-8.460309492558964919e-05
-8.256938277160576786e-05
-8.053611270302878350e-05
-7.850328470620142145e-05
-7.647089876742562754e-05
-7.443895487296283905e-05
-7.240745300903425586e-05
-7.037639316182115205e-05
-6.834577531746516060e-05
-6.631559946206859858e-05
-6.428586558169477891e-05
-6.225657366236828137e-05
-6.022772369007526434e-05
-5.819931565076378325e-05
-5.617134953034411588e-05
-5.414382531468906726e-05
-5.211674298963430173e-05
-5.009010254097862752e-05
-4.806390395448432204e-05
-4.603814721587745710e-05
-4.401283231084825132e-05
-4.198795922505135471e-05
-3.996352794410620103e-05
-3.793953845359726530e-05
-3.591599073907442293e-05
-3.389288478605327501e-05
-3.187022058001546675e-05
-2.984799810640901955e-05
-2.782621735064863932e-05
-2.580487829811605865e-05
-2.378398093416036211e-05
-2.176352524409830809e-05
-1.974351121321468798e-05
-1.772393882676264460e-05
-1.570480806996403140e-05
-1.368611892800974445e-05
-1.166787138606005113e-05
-9.650065429244925508e-06
-7.632701042664400749e-06
-5.615778211388905364e-06
-3.599296920459609230e-06
-1.583257154888760282e-06
4.323411003399630646e-07
2.447497860271105744e-06
4.462213139977087805e-06
6.476486954557854690e-06
8.490319319140526299e-06
1.050371024887904214e-05
1.251665975895381064e-05
1.452916786457136189e-05
1.654123458096399442e-05
1.855285992338940080e-05
2.056404390713032374e-05
2.257478654749419360e-05
2.458508785981277427e-05
2.659494785944179732e-05
2.860436656176059601e-05
3.061334398217175978e-05
3.262188013610073774e-05
3.462997503899545591e-05
3.663762870632598174e-05
3.864484115358414804e-05
4.065161239628320059e-05
4.265794244995741195e-05
4.466383133016168161e-05
4.666927905247121751e-05
4.867428563248112950e-05
5.067885108580604306e-05
5.268297542807969951e-05
5.468665867495460363e-05
5.668990084210166454e-05
5.869270194520979591e-05
6.069506199998553645e-05
6.269698102215265692e-05
6.469845902745177387e-05
