9.058752816297159852e-03
1.115961258643885685e-02
7.538199977384613115e-03
9.846185391455416179e-04
-2.498771093231142316e-03
-3.601259669990843071e-03
-3.738259445328411586e-03
-1.833702825762065919e-03
-5.906402800811121241e-03
-1.093877356542592889e-02
-1.123569575665286924e-02
-7.906375683770712134e-03
-4.144852903488223557e-03
1.010635752586535371e-03
1.082818341191031479e-02
1.713036786380671764e-02
1.584144642550432136e-02
1.048466188847990005e-02
4.699326288136482753e-03
-2.489047265856325110e-03
-5.829036905029776928e-03
-6.650893511875178264e-03
-8.582674506588120616e-03
-8.994517314840485764e-03
-8.908452980863698287e-03
-3.227950310673573069e-03
3.851569542635965675e-03
5.401258019570329659e-03
5.333716677606284082e-03
4.510542924710054385e-03
2.260821486085487497e-03
-2.863016465109649925e-03
-6.530358937537100901e-03
-6.115010459273535585e-03
-1.005570331099011824e-03
8.305587127592094568e-03
7.859307731371778516e-03
1.355992154796653235e-03
-2.355777114964919400e-03
-2.398192497343654053e-03
2.381867215081924678e-03
6.860383410896156789e-03
8.344683406640740486e-03
2.466279390217319002e-03
-3.377608630697501862e-03
-7.405274906537873299e-03
-1.069159820138602425e-02
-1.029228852089284114e-02
-6.715803123693382150e-03
-3.160684654862216079e-03
-1.553682210044005866e-03
3.238895057709668523e-03
9.207995966196870843e-03
6.272803984978953841e-03
4.344281077771252296e-03
3.255165164226949716e-03
4.655152813021905082e-03
7.125446777421710898e-03
5.417207055659230101e-03
2.663513724418330175e-03
-4.108997271509098707e-03
-9.017955084695394169e-03
-9.829641260834498170e-03
-1.222626527996610417e-02
-1.637724293296271769e-02
-1.114492978645936598e-02
4.086308005695037625e-03
1.604049621229745523e-02
1.935607087289854464e-02
1.596287218875366148e-02
9.580236315767865635e-03
3.272277419840621988e-03
-5.127470624117739552e-03
-9.734168360280725033e-03
-1.186125543342654923e-02
-1.039802461330696474e-02
-6.379677745242695076e-03
-5.729416329727878877e-03
-2.014981364332558804e-03
3.102645560735343803e-03
7.800155489047253671e-03
1.237699663180005620e-02
1.223426933445241269e-02
7.183640283166731200e-03
-7.360030034447335870e-05
-1.801612460344285439e-03
-4.902372643034065558e-03
-6.031177476056825450e-03
-6.538185686351331849e-03
-7.423214541325134051e-03
-5.972559637906510281e-03
-3.081271266090122168e-03
-1.119417366164054527e-03
1.813326375066326933e-04
3.260498754837284387e-03
4.783094933764301011e-03
7.530121674882276663e-03
7.876124053101920403e-03
4.783849490449726578e-03
2.087852303517196036e-03
-3.257151093843994004e-03
-4.544286018082835388e-03
-4.386741013476180666e-03
-5.560963786175423737e-03
-6.428178442609572794e-03
-3.071067620481851904e-03
6.335182685638442472e-04
5.371139574210003799e-03
7.536228541839331933e-03
6.705990550847012316e-03
4.570771106531712653e-03
2.798183622884817603e-03
-2.000098565008523108e-03
-6.210451153196264347e-03
-9.589544008289830820e-03
-9.310501864785420897e-03
-2.860892994361494482e-03
-1.776604910062730240e-03
-3.641966373079666614e-04
5.069122511866449091e-03
1.071869488140617804e-02
1.199438538641965472e-02
9.014895829797834811e-03
3.713599812682192962e-03
-3.967261986284301330e-03
-5.383467041695758244e-03
-4.690159223279775913e-03
-5.400783328300928256e-03
-5.492873827944883339e-03
-6.402646573602804696e-03
-4.476179819295172772e-03
-3.482279871703111620e-03
-2.257889097994208137e-03
1.315941075357914946e-03
5.877802302385259740e-03
7.336608301382048329e-03
7.709911574487978737e-03
6.263875601465363971e-03
1.947549866508691864e-03
5.605299231740264133e-04
-3.100880627237038653e-03
-4.032819757685068320e-03
-5.789850125887633682e-03
-3.697786616530464050e-03
-2.094268067117664549e-03
-1.968401944269772448e-03
1.632755635315527240e-03
3.886222793008009893e-03
3.313766165783961319e-03
2.237881830678274155e-03
3.881409745344532349e-03
3.211851409259270946e-03
-1.919367853933281239e-03
-6.045920674723569317e-03
-8.140442387048670361e-03
-7.342322526093427587e-03
-6.163609511083874455e-03
1.104770373744918405e-03
7.637382262782614964e-03
8.566789285921404609e-03
8.001004876897433934e-03
8.649018227511252530e-03
7.248642183710203753e-03
4.952151990268855754e-03
4.730793310875448603e-04
-5.625833081562179976e-03
-1.030648897649991472e-02
-1.399255780843839878e-02
-1.537188483605627688e-02
-1.185058302548128682e-02
-3.523393067946430264e-03
3.459902184216303613e-03
1.015523321096243291e-02
1.092180313300918255e-02
1.049514686375540434e-02
6.120216906834857577e-03
6.157468189983052002e-03
6.580144619681151455e-03
2.877500830074270453e-03
-7.837038874686266506e-04
-5.282366087249723216e-03
-5.087453405077309830e-03
-6.557323877131717403e-03
-1.053569150396056579e-02
-1.234643885840411119e-02
-8.354591601822837846e-03
-3.142829547902761117e-03
-6.051770176158505064e-05
1.036036103062785464e-02
1.987402573531571459e-02
2.036149235233895849e-02
8.399528230518111399e-03
-4.977717144169848361e-03
-1.136797173486645690e-02
-9.727222265198244219e-03
-8.043065024616451522e-03
-8.071467084907349085e-03
-7.165383232265846308e-03
-3.615417823672415105e-03
1.974609843815841419e-03
8.973092736845742629e-03
1.412373220373971949e-02
1.032419053860187882e-02
6.313076816544103964e-03
1.958500598158878503e-03
1.393014485470843791e-03
3.648730453580941130e-04
-3.520425325296533403e-03
-9.103366875516449158e-03
-9.822986074844221663e-03
-9.878670599130808319e-03
-6.980625747023269483e-03
-2.114668660679013337e-03
-1.073600236458810073e-03
-5.827890127510340678e-04
3.749933361715906358e-03
9.024087941858955492e-03
8.690129312679898896e-03
3.976054268101923174e-03
-1.620854285754699982e-03
-2.498523839515823068e-03
1.564624946018613409e-03
2.963120254384708253e-03
2.131502430888037453e-03
-1.762833823684314873e-03
-3.797474052406397266e-03
-1.563609339618548763e-04
2.721450059665457728e-03
2.645122503187783726e-03
1.374909827260973379e-03
1.731201667555190733e-03
-1.795717617778618794e-04
-4.734659322354931379e-03
-7.874373967004777083e-03
-7.050577962608611457e-03
-7.178495001374333821e-03
-5.229838062899035481e-03
2.988941696995391583e-04
2.509688364093187393e-03
4.707514911862292588e-03
1.062436003655740577e-02
1.388309734635289130e-02
1.035395639353644572e-02
4.870692845669371586e-03
-6.633337758271043829e-04
-5.889088929057267538e-03
-8.008541547457576765e-03
-7.107984341984159224e-03
-4.157961600220851268e-03
-3.593349093991168169e-03
-6.284043418473828947e-03
-3.120187318729731804e-03
3.474837137537285098e-03
4.577984489153590249e-03
3.682696330533689454e-03
5.095490588961611514e-03
5.535748791289648446e-03
1.146263675255322807e-03
-5.801879996350346215e-03
-1.622691271178566819e-02
-1.593683398584022290e-02
-3.413023055302938716e-03
1.170165135925692497e-02
1.682834800490237009e-02
1.276656903864778654e-02
8.192085724912430422e-03
3.021103356920322967e-03
-3.805892232753431935e-03
-5.924894168494788428e-03
-2.188930745934993525e-04
2.208525693746345338e-03
-2.286111429156287289e-03
-8.042817365931691914e-03
-8.327783293085857727e-03
-6.465440537035417254e-03
-4.849267347905989595e-03
-3.112068943250829826e-03
-2.708723911840728044e-03
1.773475132341590429e-03
9.025428698173633760e-03
1.207587752524668864e-02
1.247607238607333253e-02
8.701102398106072902e-03
1.493357117349955986e-03
-3.383183015134543468e-03
-3.676308704564784213e-03
-4.599089986230108645e-03
-5.998415432253377186e-03
-5.851977079347298223e-03
-5.294201146250315793e-03
-6.169509011337723399e-03
-6.454024937041893777e-03
-2.700977775295687697e-03
2.627034948374125205e-03
6.945428904854117000e-03
7.993064165861691814e-03
7.177152009631803178e-03
5.443153639229817570e-03
3.725133506630365528e-03
5.001547747664679367e-04
-3.024947365156158835e-03
-5.201342695917254670e-03
-4.851453453370705056e-03
-4.470840341471622043e-03
-3.817734147976161417e-03
-1.743497024482897582e-03
1.823070467994519425e-03
4.653424507845899637e-03
4.811331997042809713e-03
4.771154652461479483e-03
5.924009324528024291e-03
1.559209636053921107e-03
-4.976307552087218949e-03
-8.973643919398364630e-03
-8.938236579610566584e-03
-5.674391939234140099e-03
-2.592478833811292203e-03
1.001000105789595120e-03
3.184361247615769171e-03
5.519018080125848331e-03
9.230921464195874018e-03
1.139476634095972808e-02
6.767784516813345370e-03
2.292656480327383457e-03
-1.964848605748149932e-03
-4.409368307932103742e-03
-6.020199020297464614e-03
-6.063615207575440841e-03
-5.284173252964743418e-03
-5.895290194071018883e-03
-4.555352694695960838e-03
-3.659344513552859231e-03
-1.883334890381305757e-03
1.076218533361523230e-03
2.811891907882691291e-03
4.295081256436989771e-03
6.505268342296463557e-03
8.586577232486522840e-03
7.990602701211000150e-03
3.216627476093496772e-03
-4.054948992675428028e-03
-6.215735570931709038e-03
-4.680547249833032046e-03
-3.017593195482871048e-03
-3.740890475786529720e-03
-6.784557777486786194e-04
3.328784086439699579e-03
1.157417905563422854e-03
-1.966988143282612147e-03
-3.728471738888481887e-04
5.342304416815106712e-03
4.343320459220604592e-03
-4.871999471021469887e-04
-4.909168071236788382e-03
-3.935833416391093173e-03
-2.668137392507053882e-03
-3.783531852950120823e-03
-4.027957937086938840e-03
8.996247020074493684e-04
5.969925383646539942e-03
9.640627234824243955e-03
1.095939295947588599e-02
8.653601430750605672e-03
3.122685295211535816e-03
-2.634615944689942466e-03
-7.431749000114469712e-03
-1.081266780546824742e-02
-1.197222165322090956e-02
-1.142707119503243683e-02
-7.503830977693293908e-03
-1.835484222444006865e-03
6.276160914521785802e-03
1.145648989183388824e-02
9.416706589391346874e-03
4.723620007038382453e-03
6.975345157933438012e-03
5.770970868602193909e-03
3.106895110893481498e-04
-2.738748607167742349e-03
-2.209669571959091677e-03
-3.343339345777390087e-03
-5.119636337298344962e-03
-7.577241502026891597e-03
-1.028635070199026939e-02
-9.451429395135090353e-03
-2.189082978466812962e-03
5.986797097309084700e-03
1.229396593727733779e-02
1.377284347507374412e-02
9.262426330084056261e-03
5.347041520583016225e-03
-4.283034176010567574e-04
-4.447845391302598581e-03
-6.021171968220900665e-03
-1.088507388514749381e-02
-9.834151715023832854e-03
-4.350417382903076953e-03
-1.565383921647519640e-03
8.460163137614834820e-04
6.423665536307113580e-03
9.390985478463762665e-03
1.006428524243607736e-02
5.392150873308591309e-03
-8.187713176639146344e-04
-4.307511868281446721e-03
-5.234728297834908770e-03
-5.733592711029238988e-03
-3.951445944875221945e-03
-4.522561941178900578e-04
2.856046229648935390e-03
2.113993098763410419e-03
-2.484851591490751612e-04
-7.001573104500785931e-04
-1.018353723681594087e-03
-1.729765879899100925e-03
1.091029515335946963e-03
2.085146406178886927e-03
2.779751726219466951e-03
2.428622983148887027e-03
-8.430930642513877118e-06
-2.818071139109019560e-03
-3.521525663805215832e-03
-2.541617131431495816e-03
-3.360982560833540404e-03
-6.119815895049617559e-03
-3.655641461315283988e-03
2.620371234550838199e-03
9.583443615393738221e-03
1.300104767531307798e-02
1.210922305527741862e-02
8.852424806976363567e-03
1.787122544832850206e-03
-5.820336367690409109e-03
-1.071132417754442484e-02
-1.481066426172697112e-02
-1.438342205563539894e-02
-1.300017979700323137e-02
-7.957870562440173129e-03
2.846869337060118667e-03
8.546781881744411682e-03
1.123055954951607781e-02
1.769051132440286819e-02
1.606757663972369771e-02
8.959511138333341174e-03
-1.561675164838657371e-04
-6.912547225574240499e-03
-6.038778080676279747e-03
-4.160193169872043913e-03
-4.827104680057252295e-03
-6.973159895587652257e-03
-9.022969715012296374e-03
-6.290547347962443213e-03
-1.658137443663656660e-03
-5.436593897751256345e-04
5.360841472748903479e-04
5.715121934492209399e-03
8.932307627929335705e-03
7.651794561337012419e-03
2.394013784405404736e-03
5.411889479912571728e-04
-7.592906783644646747e-04
-3.613133265312149997e-03
-5.567396770023711090e-03
-2.969388863993040195e-03
-2.564881002104674266e-03
2.456800538130975847e-03
5.300921918721233743e-03
1.740928899043851829e-03
4.945618282567598592e-04
3.236137830151279357e-03
3.530961450329883622e-03
-6.488813758110322742e-04
-2.952984732848942199e-03
-5.280374871601092521e-03
-5.721373070208131059e-03
-4.048363445232993837e-03
-3.418264767221946957e-04
-7.897677334134423121e-04
3.151614579981515027e-04
2.261905623199519152e-03
7.378390709959529829e-03
5.923311503676432707e-03
1.110367330821772011e-03
-2.181096574634623295e-03
4.483926266590661225e-06
4.602107591771755109e-03
4.586384136678945712e-03
2.103600882594027985e-03
-3.878040278121648674e-03
-9.319432562208195686e-03
-8.002255559820758979e-03
-6.172846440326308463e-03
-2.247192137077555323e-03
-2.378100737634104584e-03
1.052814567688547870e-03
4.706239956343793301e-03
4.344756416018272747e-03
3.976714722336432105e-03
4.859574798032180454e-03
5.491622283028090371e-03
4.658085740965101952e-03
-5.553543568081483308e-04
-4.692128025140155853e-03
-7.045918416306835332e-03
-5.860063220604876805e-03
-3.665929178405981891e-03
1.416145999381123594e-03
5.149040533525723294e-03
4.808471871285054447e-03
2.082367341819013964e-03
2.766311607168970080e-03
2.421529587842856379e-03
-3.247404524120318069e-03
-4.657871042549418042e-03
-4.898286347891313806e-03
-5.842623739547351223e-03
-6.778851364979268830e-03
-4.107313995900541310e-03
-3.484391480214578591e-04
5.464708375367588987e-03
1.289880351346637914e-02
1.676089625994453547e-02
1.259299622626121155e-02
1.255866930020970405e-03
-6.635117162721114632e-03
-8.243283092915058147e-03
-6.816381258729875027e-03
-5.415405230653078973e-03
-6.597088697462950325e-03
-7.370391729124511210e-03
-5.449514323450346288e-03
-2.765501198965147379e-03
3.253313234036968814e-04
4.725843348281644381e-03
7.855382210722350322e-03
8.062013943754005318e-03
5.679122967309256122e-03
3.932009743301987000e-03
4.659798711797326527e-03
1.446728423415411663e-03
-4.050325135873843879e-03
-6.524362133281352664e-03
-7.848776698330475060e-03
-7.614245332999191977e-03
-3.585364465836138499e-03
9.742522028344584263e-04
2.792391117433398046e-03
4.840391984919632275e-03
6.563339932465200172e-03
6.775816723333197636e-03
3.507419844929493893e-03
1.326950586548608646e-03
-2.388842129763062237e-03
-8.449893142073000921e-03
-1.020432141591640085e-02
-7.116935090424173806e-03
-3.395750555210798674e-03
2.461939205790725726e-04
6.588089721757822009e-03
8.318231986147948606e-03
1.076817373842375858e-02
1.177236798366951276e-02
6.403176782304060080e-03
-2.339550108706612425e-03
-1.007846152811793863e-02
-1.302972023860902821e-02
-8.906479757802248168e-03
-1.486806623092604661e-03
3.359833591477601709e-03
2.689529446530859887e-04
-3.107927751408372501e-03
-1.671341226166791040e-03
1.626697068409657795e-03
2.946689902254495241e-03
4.114804922100826802e-03
5.596076564184148359e-03
3.741220711550057552e-03
4.056847677607486324e-03
9.081573149886224645e-04
-3.561724661180385235e-03
-7.519547627255435650e-03
-6.543349421164603580e-03
-3.236868830546388558e-03
-2.502069933742674321e-03
-2.235531977071077495e-03
2.574666938718202214e-04
4.900248750341586017e-03
6.398226684074048189e-03
9.494376321751712630e-03
1.126851225593678528e-02
7.854015403331639569e-03
-2.199020421321180516e-03
-1.028565071776795826e-02
-1.238478842268674225e-02
-1.133923951345749449e-02
-8.915095239213431666e-03
-3.205607300630430347e-03
1.448587991357626510e-03
4.829991482881408095e-03
7.022050290308078958e-03
9.011725690644305578e-03
7.952897470547004577e-03
5.196629736309636661e-04
-3.055743789342929215e-03
-1.867737766272925710e-03
2.535645250531782385e-03
4.330816153355294094e-03
4.415957622446971438e-03
2.793792547168863407e-03
-3.094415081082697513e-03
-8.438997982663443836e-03
-8.681809298768692479e-03
-6.376783898240061775e-03
-5.543002375506426299e-03
-7.243761065243493370e-03
-8.680378857011689792e-03
-3.067867759921536993e-04
1.248626884637832508e-02
1.774591115651347195e-02
1.326779128708101968e-02
5.210068484485856806e-03
7.613175314978092674e-04
-4.527034579044314326e-03
-6.902697756871869171e-03
-7.377919604020126594e-03
-4.704399219239268834e-03
-5.550186832776437791e-04
2.160312540698542533e-03
3.419375463804494482e-03
5.481374742951494392e-03
3.735194296727900772e-03
-1.395686686592303126e-03
-6.281844057318813727e-03
-7.290986544462928036e-03
-6.281612307453702040e-03
-5.570359610370202719e-03
-2.138780094478111814e-03
1.220716775588628639e-03
2.458196781689484141e-03
6.820032126854393487e-03
1.509429584951731650e-02
1.414861127352516103e-02
5.161956805192225058e-03
-2.928467248841343067e-03
-5.011276161237730904e-03
-4.515467286086352963e-03
-5.459165794381889460e-03
-3.889043753676028718e-03
-6.330600226111808559e-03
-7.959387914910832917e-03
-7.093154055086284444e-03
-2.904608009316807238e-03
2.588358979914533869e-03
3.291308926729275951e-03
3.210573072003149522e-03
4.994736142482658972e-03
5.495699938857210448e-03
4.454207727881050530e-03
5.864051099148478823e-03
4.538706779475073887e-03
2.999026427092732288e-04
-3.394686699658090202e-03
-5.856907142324381185e-03
-7.637913429232672489e-03
-6.098831426846547561e-03
-2.121281220562488447e-03
6.575217070793553482e-04
5.153293650491581369e-03
5.118028853435947940e-03
2.840062918522436898e-03
4.566950590883756163e-03
6.163768663664033476e-03
7.451411846829558315e-04
-3.773861598616497399e-03
-8.020516106703822964e-03
-9.260638181554290554e-03
-7.197253500492511828e-03
-6.720562126064458588e-03
-5.860114043845714854e-03
-2.355402959127554652e-03
2.823868685308874964e-03
1.187619299708723118e-02
2.314166330961951387e-02
2.255454170832803251e-02
1.050302639317632521e-02
-3.041823421509558083e-03
-8.883788213007634202e-03
-1.002311118782044617e-02
-1.034156315499418048e-02
-1.076671358408166912e-02
-1.261310141766342797e-02
-1.330128931238564426e-02
-9.256798444384626429e-03
-9.533700872835427402e-04
9.361183893637216660e-03
1.306814196803542973e-02
1.194168003314090114e-02
1.049986136064068667e-02
5.612647429312376569e-03
2.665237404799051905e-03
5.989246334389659128e-04
-1.985945459974946398e-03
-4.690427918720727583e-03
-5.616392116257017467e-03
-6.700380325593775603e-03
-6.230436815276194432e-03
-2.045375538192223744e-03
3.738355524055003883e-03
4.728400822892405916e-03
2.158916574228234280e-03
4.890587894792937720e-03
4.996540546743369164e-03
3.454969283188156852e-04
-4.940281555648919597e-03
-9.335368573947703738e-03
-8.877196854942145249e-03
-4.035718989789310179e-03
-2.617821048013400757e-03
-2.074068116464182140e-03
3.474584024918256006e-03
1.148058728718470180e-02
1.661107289303589279e-02
1.440958255987069038e-02
5.878585813434872819e-03
-2.967895695239614919e-03
-6.429839170794962935e-03
-9.021620205668098164e-03
-8.516539838071829002e-03
-5.848794234647609544e-03
-4.338202148900409567e-03
-6.783876912405617521e-03
-8.596335969161929616e-03
-2.379300464066765042e-03
6.039565946348715748e-03
6.598810648968235146e-03
5.893426390950340897e-03
4.882804959948652823e-03
5.134360589907278546e-03
6.525143165118070868e-03
4.184047832644735045e-03
-3.716982693989781734e-04
-2.592756358273785519e-03
-5.270706103565305639e-03
-6.632198929463385337e-03
-5.370544858793310436e-03
-5.525890987254144203e-03
-1.988502436521281426e-03
3.173367509964337974e-03
4.678386165200747702e-03
4.252523782618686243e-03
6.353859032226749810e-03
6.879380174102670692e-03
7.941439813249974748e-04
-2.761345709110398557e-03
-6.714192710645660277e-03
-8.814614272647949486e-03
-7.433197074873248988e-03
-5.376235076098657799e-03
-8.856452068078435368e-04
3.354193476670357804e-03
5.857494530590472148e-03
9.384983988286970877e-03
1.193972195838069288e-02
9.668348275799185793e-03
2.665710957597308695e-03
-2.573383504959582228e-03
-5.805570918389199239e-03
-7.683580195690678689e-03
-6.690299238453561829e-03
-6.451288547937607080e-03
-5.198437129576724547e-03
-5.227415496031029632e-03
-5.117691807476984316e-03
-4.429109877790704384e-05
3.258392480544123736e-03
6.625809087298407951e-03
7.785586529313435686e-03
6.602002710476508399e-03
6.898103243741354404e-03
6.989954817832838389e-03
4.415514176432744874e-03
-2.537287632689408726e-03
-7.501580233580264385e-03
-8.537983694558583248e-03
-9.197633259367366323e-03
-1.088993392368432442e-02
-8.000170173378942304e-03
8.150253360546488813e-04
9.416406992852592236e-03
1.119263338830700331e-02
1.110635861815827824e-02
1.073415686488729363e-02
2.464767881729741823e-03
-5.323980237202653211e-03
-1.160847784210483104e-02
-1.005044750366389412e-02
-5.472350868143936037e-03
-2.257765045144055280e-03
-1.603468062539578805e-03
2.753006523990660440e-03
7.900764441533378660e-03
1.106352570365984681e-02
7.617887721576355360e-03
2.999714058874035534e-03
-1.021371171850227709e-03
-3.738173640019103704e-03
-5.952519497734740442e-03
-6.149396757969487204e-03
-3.345790965854027036e-04
2.724982644713990778e-04
-4.512001854520363182e-03
-8.718505793967226691e-03
-4.957188115999661658e-03
1.385117963848076818e-03
4.343057414790710453e-03
6.364951533062592100e-03
4.721739209892683066e-03
4.772480441367752194e-03
5.461022233024876577e-03
3.736341031208787952e-03
1.417187653205639192e-03
-1.521063984035615595e-03
-5.723264920993152878e-03
-5.890112509072949892e-03
-7.255056081194786316e-03
-6.509732428755104182e-03
-2.180972794084844527e-03
2.161652250857116347e-03
3.394128593351160034e-03
6.004028333168228045e-03
9.420515019753678693e-03
5.874360599055687346e-03
-1.903468449001940836e-03
-3.275097802751221650e-03
-9.028011823044602155e-04
-1.437255813534382568e-03
-4.526953347492691966e-03
-7.697129251101473418e-03
-4.515753823393827034e-03
4.546287492041312952e-04
2.643968160321858232e-03
7.393189034090067238e-03
1.011840903764468606e-02
2.874098981481877819e-03
-4.128336490812999429e-03
-5.250581182695003048e-03
1.037417884769978316e-03
6.824775970377094589e-03
5.143736215000927967e-03
6.585006301847395839e-04
-6.960266898190469592e-03
-1.219713458079328509e-02
-1.208279112929726111e-02
-9.553634493434874642e-03
-7.660631393388970048e-03
3.541917031435298270e-03
1.570178571280047425e-02
1.848105083498345277e-02
1.159767116529231493e-02
4.663908483299277798e-03
1.618346968091340272e-03
-2.324983785598158659e-03
-8.617491546393048554e-03
-1.033387902129326817e-02
-8.339533450088842600e-03
-6.097042857353075253e-03
-1.423407352046696280e-03
1.303250724805099341e-03
3.959108445385371190e-03
8.110056878632081190e-03
9.820199924767550673e-03
4.989731737398339292e-03
-8.807064724761331760e-04
-3.676164813407211372e-03
-4.938757423359113607e-03
-8.967444926109933295e-03
-8.474759155016159742e-03
-4.424973592034243258e-03
-2.680880422738216029e-03
1.097170926498020407e-03
4.660897023914509045e-03
1.427561766179114185e-02
1.648955991819136407e-02
9.721816756887565955e-03
9.127166852798033287e-04
-2.703720813498819257e-03
-5.790899127568724207e-03
-7.496951742118871526e-03
-5.862642619729435678e-03
-5.283708627168834035e-03
-8.718832120912000175e-03
-9.903188158595430460e-03
-6.014850332806279468e-03
-1.344397256361687734e-03
3.526378491758227172e-03
6.825873127437557565e-03
1.167915001385750294e-02
1.022270746019067304e-02
7.394959368841601786e-03
2.616608563799215949e-03
-9.059562216475999840e-04
-2.284377859082002346e-03
-4.776301055775983816e-03
-4.793976696529371646e-03
-3.952989445749842921e-03
-4.489391631253653210e-03
-2.389292547903178882e-03
1.016766822374793808e-03
1.648483984911377782e-03
2.593393369333570064e-03
5.102789890238667442e-03
4.317620504454514063e-03
-2.044893158528968157e-04
-3.117276445559928784e-03
-5.646789366822967983e-03
-6.590442990634315205e-03
-4.303225098714817502e-03
-1.278895383534515290e-03
-4.922015078500297696e-04
2.378701722749744160e-03
8.725433686927443200e-03
1.288827908528835872e-02
9.940269858336651596e-03
4.848640107279966575e-03
-7.900047684973921002e-04
-4.310982430775048106e-03
-9.442882041416002237e-03
-9.660191703734466798e-03
-4.954814076040619207e-03
-1.979236805351486557e-03
-4.123607992425794809e-03
-6.022864397757436532e-03
-3.022194834121540684e-03
2.252696821319134877e-03
4.003669581946989360e-03
6.369582313820760545e-03
6.018465219745489786e-03
8.616058154407491357e-03
8.676307298440282326e-03
3.442674287711317178e-03
5.929507708349491542e-05
-5.941348595171484087e-03
-9.424367776798234578e-03
-8.923050054006835541e-03
-7.093341460478362441e-03
-7.355983560319446189e-03
-2.759413122074623470e-03
3.264098436922498181e-03
8.947403457203564545e-03
1.448842547483538030e-02
1.731664400512555185e-02
1.163531883776433400e-02
-4.358003012249470260e-04
-1.053194621225864679e-02
-1.593672299401739656e-02
-1.591249957559277492e-02
-1.673174471466455648e-02
-1.245208142115269284e-02
-3.996642453431628085e-03
3.733371753738609806e-03
1.557722791823794826e-02
2.626435730032090216e-02
2.437168927155437814e-02
1.261470477697593413e-02
8.336461082519484823e-04
-6.963016756903716610e-03
-1.013746694828696060e-02
-1.094183362034013667e-02
-1.068072306943162846e-02
-8.623575526842038388e-03
-8.704551489779480469e-03
-8.681700068665006501e-03
-3.188867797318673501e-03
2.524575289608230882e-03
5.551610301922083913e-03
8.516513001709200351e-03
8.266876722446803161e-03
6.539337346961747628e-03
6.589927486760794630e-03
3.419471974019128689e-03
2.481354692486130247e-04
-3.692877265358157114e-03
-4.157100825376353580e-03
-3.476316064397654872e-03
-6.589658227141137470e-03
-7.307680076440298093e-03
-2.124202610330793773e-04
3.931561198621476988e-03
3.963694048819739295e-03
2.832818594284583318e-03
6.070041074607577906e-03
6.681996187308497648e-03
1.173027953381790278e-03
-5.112950744211805683e-03
-6.230677472794580833e-03
-8.450052100140994019e-03
-7.673859373829073488e-03
-6.530609944957242383e-03
-4.766888397450143484e-03
1.203196359152302643e-03
8.829753088791433488e-03
1.628691859601832589e-02
1.514512619747468598e-02
8.835572014913055036e-03
2.433961544253356903e-03
-1.599136806909604372e-03
-5.995012992719509111e-03
-5.381963410674231625e-03
-6.712320895277106708e-03
-9.561162620195044412e-03
-1.053816404413693633e-02
-7.094747113407936026e-03
-4.389289536076663306e-03
-3.384068325355972366e-04
5.217702861138835864e-03
7.449860035158228748e-03
7.968743194434406429e-03
6.722821202203364647e-03
4.121633322254605360e-03
4.382779642000831678e-03
5.912344078064822768e-03
2.064471601438988904e-03
-5.889615618034406593e-03
-1.639077414344951300e-02
-2.118328205578558915e-02
-7.757888293116522484e-03
7.990446814163386022e-03
1.425793789954061565e-02
1.232835027339915408e-02
9.243929127611256319e-03
8.953594831281006319e-03
3.465151954144258042e-03
-4.718128658814480653e-03
-8.692094742595350698e-03
-1.072205335219196705e-02
-1.094215507330195507e-02
-8.264329477174760588e-03
-2.969196162263129483e-03
2.072688245548439702e-03
2.770691620233836118e-03
8.152445175225489851e-03
1.304590359630523368e-02
9.520595615322329300e-03
3.519963508645209370e-03
2.168162007435067164e-04
-3.761428763584515750e-03
-5.674766479065183715e-03
-5.510284454888898092e-03
-3.988734574113015664e-03
-1.641136468662047175e-03
-1.855470274841466982e-03
-3.245477313120907759e-03
-3.772068429596315067e-03
-3.494556273939961651e-03
-9.158090351633304312e-04
3.193966534894012235e-03
8.533966970651120712e-03
8.396988164137137237e-03
5.836091329014609676e-03
2.215448241998278257e-03
1.175496871065983932e-03
-2.658022514427116692e-03
-3.072261373275292362e-03
-6.220285766572506737e-03
-7.577319928955262435e-03
-5.061572843811893048e-03
-1.323179195550188737e-03
2.204642349560095860e-03
4.386411722508324652e-03
5.295476988301435831e-03
6.820053530783693439e-03
4.267487778772539007e-03
-1.430761905414391910e-03
-5.245715027703824231e-03
-5.985244569988673255e-03
-5.835878772624537338e-03
-2.885932685519999180e-03
-2.112446296412200802e-03
2.906148410002165763e-05
5.380143829818631769e-03
9.043946287423824948e-03
1.098381349423332987e-02
8.703870188969486596e-03
3.665785170443322180e-03
-4.040772105909087690e-03
-8.361013904460276244e-03
-9.163827407066281114e-03
-1.116236799157075028e-02
-9.868164681133242272e-03
-3.947517046698663379e-03
2.488056425128930965e-03
5.674279195829777696e-03
5.999979616369428490e-03
5.555533677680420980e-03
3.697942697214783372e-03
1.620128192089400135e-03
3.413016980295290742e-03
2.786988132360235411e-03
1.076378665359233218e-03
-8.464007732574093572e-04
-2.110352712891365098e-03
-3.673577248054271053e-03
-5.726221718467526013e-03
-3.721324043344872209e-03
-3.633572187571744872e-03
-3.650892172113095677e-03
6.333416580642574302e-04
5.685905137504308933e-03
4.452106398113503914e-03
3.744244340983652643e-03
3.484064439755775022e-03
2.344483504665338235e-03
-1.031948846078189694e-03
-2.693073567450594147e-03
-2.684362634609058912e-03
-4.284697154829600167e-03
-4.697091687332537700e-03
-2.829478006696764525e-03
-1.582594682780391789e-03
-2.196367267376211408e-04
6.398306001325560627e-03
1.469286901347709520e-02
1.374738529479190008e-02
7.288408358925741251e-03
-6.454587495695686449e-04
-9.961591898194432568e-03
-1.396978324121567021e-02
-1.096564982143171350e-02
-8.188598985366748323e-03
-8.848092478257777241e-03
-4.344106083550190560e-03
3.141576083248268612e-03
5.820470771562404576e-03
7.219068408354825141e-03
7.056521356870320248e-03
5.655134984530353105e-03
5.912675422572126645e-03
5.360770669103552891e-03
4.707555082455795216e-03
8.209263881712108120e-04
-1.516049099706415649e-03
-3.634461728674794837e-03
-6.866196617922517599e-03
-8.414774830702015720e-03
-6.993887669323302358e-03
-3.433729058543688942e-03
1.150307307911566622e-03
7.765153566335127348e-04
-2.744950724903110970e-03
-8.890410529376456148e-04
6.162820705023786157e-03
8.749810938013075426e-03
6.338576364374892518e-03
3.549179662246043990e-03
-1.140540611993917132e-03
-4.410130732275119834e-03
-5.572639724942042919e-03
-7.640598425099057699e-03
-5.726447749660658164e-03
3.042514560594628513e-03
9.304474519754928410e-03
1.115166694851079353e-02
4.981558331691632140e-03
-1.511737842944181989e-04
6.916646973841447188e-04
-3.557485060782339219e-03
-4.711063986883692531e-03
-4.000718736115883856e-03
-3.980127154824199438e-03
-2.414737831159861122e-03
-4.638661334098737911e-03
-5.703536797698862196e-03
-4.422619047116398486e-03
-1.702241447796565624e-03
2.344339614840487956e-03
6.703631259339908749e-03
5.479490525717866864e-03
5.274362619008956393e-03
7.325505086879333973e-03
6.582289537690066798e-03
2.842261801938928030e-03
-1.078552977086161963e-03
-4.681325760101055951e-03
-5.199477445205867056e-03
-5.982657228059846781e-03
-5.197148382452168418e-03
-1.464809630258640492e-03
2.327186304472589687e-03
3.606982116667426484e-03
2.865874240095633504e-03
4.878903314342504689e-03
-6.465111919968727231e-05
-9.308022191181255720e-03
-5.388993241639078446e-03
-3.957482962915262296e-03
-5.259317375833768952e-03
-1.926481535501880105e-03
6.823064258551835536e-03
8.920383959265334312e-03
5.988584860936736753e-03
4.640998383767724542e-03
5.647081517527901585e-03
2.410555279387581202e-03
-2.237713325072873682e-03
-2.131520642848992817e-03
4.955213414089319019e-04
2.132198587044162818e-04
-2.129678513469141637e-03
-5.495357373671853202e-03
-6.204464913657930375e-03
-7.083933294740738483e-03
-7.545662960585004624e-03
-3.282903535787985369e-03
1.434672101481596572e-04
4.690468580518885287e-03
8.224674110890846379e-03
7.409192776617402540e-03
6.847827392445250683e-03
5.190776019687094213e-03
2.147851919036182326e-03
-2.277292643449067670e-03
-5.346191742474871653e-03
-6.467394608882103164e-03
-5.516734621690166929e-03
-5.735945951251201179e-03
-2.747105001094927654e-03
2.475202420318840628e-03
4.821366665904173489e-03
6.182224039256055056e-03
7.053996703220709839e-03
5.316408343853044026e-03
3.099956567294916837e-03
-2.366610117896717456e-03
-5.629651044515639711e-03
-7.196903629467677789e-03
-8.498532299231040602e-03
-8.070759423103130922e-03
-3.692893486107078245e-03
1.200749477184282626e-03
3.924590527879389008e-03
8.639918996234152368e-03
1.185479813742369715e-02
9.746699859120536158e-03
4.573372503491496786e-03
1.015301041952676605e-04
-3.876278652988327834e-03
-5.578175055289548434e-03
-5.949687715932973006e-03
-4.073409029735349657e-03
-2.804298206008457028e-03
-5.100449260026764832e-03
-5.780147635506038654e-03
-3.728388725687476813e-04
1.143310123375854050e-03
4.261956492586787561e-04
2.215016488297458230e-03
5.316821246438182581e-03
5.495153586775223045e-03
4.310898404393865256e-03
3.774484071924546005e-03
2.373774993390386813e-03
-3.402543349846806099e-03
-6.553397847365409479e-03
-4.976237958126354839e-03
-3.755077709547799316e-03
-1.579688107523855370e-03
3.913792881910055539e-03
6.376852106356060805e-03
3.565688051215648927e-03
2.071698049969034408e-03
1.911192103163635112e-03
-5.735887605403498660e-04
-3.557004549557984951e-03
-4.763529638655863291e-03
-7.265256597573267229e-03
-7.275729295369896821e-03
-4.071076861035484093e-03
9.206442293382236268e-04
1.061533553456779026e-03
4.486573292440490003e-03
1.060015926142243887e-02
1.556722338101202037e-02
1.017914356311770338e-02
2.291192443708976734e-03
-3.154723055455391917e-03
-6.403525183737220940e-03
-9.970712813647161429e-03
-6.876479436752540829e-03
-3.824976151962968147e-03
-2.578566386503419565e-03
-5.445949539116185997e-03
-5.821937224901888031e-03
-1.162671949717378628e-03
2.274575922736864382e-03
3.609292998360514974e-03
4.881731452059442228e-03
3.408677784574782460e-03
4.587190690617758831e-03
5.708994922736670280e-03
4.039487654656929820e-03
-4.403379617957236939e-04
-3.661849213053825457e-03
-2.197304080278499310e-03
-7.327355902814232250e-04
-1.228823418095744639e-03
-3.207003560488147693e-04
2.143643730298946080e-03
2.804662178419436210e-03
9.009014776164156685e-04
-1.115182857642725220e-03
1.206431946441072212e-03
-3.384161595615933424e-03
-1.040330542169101008e-02
-7.723475209494874184e-03
-3.197597387758946419e-03
-8.646487924242716875e-04
-2.487718361285592462e-03
-2.837739501412380946e-03
1.594807581628024775e-03
9.382953278636819647e-03
1.690081158833866767e-02
1.938822238124097291e-02
1.309058130712839954e-02
1.678851686256424385e-03
-4.952711230515479367e-03
-8.820909085638614297e-03
-1.329912687695117453e-02
-1.149568389780084889e-02
-7.747665968056050186e-03
-5.856740040752800476e-03
-6.945411163903619269e-03
-3.811439263561816268e-03
1.669880561753263153e-03
4.178403043643612834e-03
4.392495662285055523e-03
3.629398627178630904e-03
5.199498211241351982e-03
5.844214325459133087e-03
6.860956561862596899e-03
6.006187657543704886e-03
3.136016613149855692e-03
-2.522281967757747227e-04
-3.305665440188593207e-03
-7.030732185819084552e-03
-8.335128903538836440e-03
-6.734621110843439992e-03
2.305541958833095205e-04
3.572271379656774895e-03
4.982463580317066446e-03
6.458658150671667784e-03
5.269421557477458988e-03
-7.045601199818001198e-04
-5.646165814720694419e-03
-9.230366397637475295e-03
-1.006535311138394805e-02
-8.901555391848186075e-03
-4.518916002973270493e-03
2.601868472222721232e-03
9.811744845301203014e-03
1.335277181553197121e-02
1.430374496610406498e-02
1.674907967650973023e-02
9.321991734061762722e-03
-2.128993861573437625e-03
-8.407721466049653675e-03
-1.419227581211892492e-02
-2.061967994689242398e-02
-1.596101728817724691e-02
-3.291948205755855007e-04
8.680162015043246110e-03
6.046996597540790080e-03
-6.952850344824724549e-05
-1.769049533394320001e-03
4.904524006679472246e-04
1.388880267148038389e-03
3.438686425276705496e-04
2.261572098779984948e-03
3.183187209203887369e-03
7.062157757662736700e-03
1.141686998550603231e-02
7.940772238101525063e-03
-1.472380535381179190e-03
-1.006252797718436807e-02
-1.184075013834466096e-02
-8.142214976360974757e-03
-5.178023393743038522e-03
1.685453510550569654e-03
6.870629152205594975e-03
5.726260452761194365e-03
7.803952534522132353e-04
-7.052657491012976525e-04
-1.541251320334332403e-03
-5.460390323871009734e-03
-3.390771574785312551e-03
-4.702132798079025210e-04
1.341972511091445294e-03
2.037557158870526713e-03
-1.087104531707185962e-04
-4.564583029238754633e-04
2.842752532643562108e-03
8.693459697426046337e-03
1.153450783479590021e-02
6.382358467157043386e-03
-1.849376720033657495e-03
-6.727512777351572597e-03
-6.386282022874076834e-03
-4.121110119557225109e-03
-2.270205101612950659e-03
-3.576051065165840835e-03
-5.989686303825518705e-03
-4.651197195261296859e-03
-3.182770599878150322e-03
-1.792783135206217366e-03
1.951648716037397615e-03
5.025356665084764959e-03
4.730156774013167913e-03
6.921610527340479359e-03
6.008663237245501047e-03
4.018384895000349719e-03
2.045379652047284169e-03
-5.138131358747526469e-04
-4.129880037373239755e-03
-7.155790693964710764e-03
-8.571644106291258572e-03
-6.762771630673082221e-03
2.253722247923591889e-05
5.889870303868217222e-03
3.858078600381870549e-03
4.320704906351235247e-03
8.800324950414249031e-03
9.339571664818420438e-03
1.779891410766239190e-03
-4.009478140058057513e-03
-7.165577811222556374e-03
-7.890695201529414338e-03
-8.058020579809080028e-03
-8.616034457466134264e-03
-7.759694229085761785e-03
-3.530598552839228632e-03
9.856335989930813460e-04
4.362062872444924348e-03
1.032902409791045147e-02
1.769493989916263652e-02
1.805385199940709451e-02
1.165727801167125086e-02
1.472987726171924062e-03
-6.951572778109764601e-03
-9.588784740519796027e-03
-9.707295790392696938e-03
-1.174816214911766042e-02
-1.184837703959798656e-02
-8.054572210705197507e-03
-4.440585807174524634e-03
-5.839864334608765558e-04
4.878218166258530843e-04
1.131417358592920995e-03
7.542633961998266613e-03
1.371578518081967464e-02
1.439667994682311200e-02
9.799887439857071086e-03
1.633659489455320003e-03
-4.155933436782911598e-03
-8.674436209551491389e-03
-9.392827545152922231e-03
-7.465554798010298580e-03
-2.689358745475821898e-03
1.770880173045121485e-03
3.809863266926674479e-03
2.535669790098494386e-03
1.016607907210106184e-03
3.687084226717157829e-03
3.072281710566574387e-03
-8.332629231164570592e-04
-3.159760146158509513e-03
-4.996362333934642810e-03
-5.915600945975251282e-03
-4.738744897022812395e-03
-2.896461482815325828e-03
-1.229239764174297218e-03
3.059274155933689419e-03
9.378927532357328803e-03
1.314052614127058857e-02
1.125022893833236767e-02
5.166841360991234443e-03
-1.529594609787207279e-03
-5.718082361025369521e-03
-5.636308525283065772e-03
-6.815494190731006575e-03
-6.502185488367208388e-03
-6.159749163583188615e-03
-6.121794882675251313e-03
-5.896621948271148564e-03
-9.673433937783575349e-04
3.466222225731951934e-03
3.766779496943165051e-03
5.474959752289586257e-03
6.968396860218682709e-03
7.536366476413771352e-03
5.386281244438856884e-03
2.311115933593234167e-04
-3.051750559781851724e-03
-4.186544194981212108e-03
-5.056220016812259209e-03
-5.122330038829797476e-03
-3.100880003931894609e-03
1.361478072869106749e-03
3.874608038089154098e-03
4.919646051072891317e-03
5.883748491970666739e-03
5.248139533942027500e-03
8.805078316493451926e-04
-3.478397317223741133e-04
-4.072952572314441841e-03
-1.241386653119705766e-02
-1.481716898974532425e-02
-9.880398789343186605e-03
-2.002386756008553599e-03
1.505125279962574343e-03
6.121127218854907799e-03
1.057121066723034145e-02
1.627765777234311401e-02
1.835125686225560701e-02
1.047519871082561171e-02
-1.048482652572196687e-03
-5.676204495198607612e-03
-5.692749041774377780e-03
-1.023811439325305120e-02
-1.117695124969924833e-02
-6.731112564463406604e-03
-3.449755787750073167e-03
-5.520805400649269994e-03
-4.546631318363910518e-03
-1.369212621974406300e-03
1.549137256775277600e-03
2.400902544718652460e-03
6.121401066281380830e-03
1.109826682959330971e-02
1.144680415114395118e-02
6.918073962238342235e-03
3.655844874544783053e-03
-2.742527794603331730e-03
-8.761545375519470477e-03
-1.166181035429677583e-02
-9.018818502576774962e-03
-3.298405859896109092e-03
3.483933667587086995e-03
8.235118977181068306e-03
3.729063659321875217e-03
-3.850169283134520677e-03
-8.493208797729377701e-03
-1.012550180218821285e-03
9.744377008984098434e-03
1.276218769248403488e-02
5.385689272952481725e-03
-1.185199358153047645e-03
-5.847873786118684865e-03
-1.026750197199126705e-02
-8.647935912570410555e-03
-4.969127164256812411e-03
-1.345976481139435208e-05
7.263348530901997911e-03
1.149421311925566576e-02
7.921733981625211918e-03
4.885576312659115376e-04
-2.582830694489790697e-03
-5.110722337076366653e-03
-3.873668747086616779e-03
-3.528979487520318725e-04
1.562346117850286001e-03
6.144561551032970545e-04
-2.583163009836606655e-03
-5.393346764976111353e-03
-5.293555665849293372e-03
-3.542510880067603878e-03
-9.144550798863840734e-04
2.445047415512539412e-03
8.688422657035883498e-03
8.676988234328468150e-03
5.929998994529300620e-03
2.123915159159995604e-03
-1.689094488937979872e-03
-1.876618017265049235e-03
-4.126052970188402551e-03
-6.047186293034394027e-03
-6.630649403500643232e-03
-5.484169687315263407e-03
1.286537903982658618e-03
5.053801585928589628e-03
4.196083389770851636e-03
4.552502623892633674e-03
6.755562157873161271e-03
4.093791848146208050e-03
-1.313528205182181580e-03
-5.533756631639570427e-03
-8.922197547628407666e-03
-6.049436260438360163e-03
-3.705995543694957234e-03
-3.050397874530379368e-03
5.411588212732792265e-04
3.586305645578657941e-03
8.074178949264028057e-03
1.337723439056152756e-02
8.928787052851171885e-03
1.846713531443389990e-03
-4.725149119200010642e-03
-2.755182870317133582e-03
-2.961911515733040706e-03
-4.741152593779739133e-03
-5.157423531943840060e-03
-6.870309998221347386e-03
-8.975017338422297195e-03
-3.645775796356395294e-03
1.123778419004224302e-03
4.857987676922698693e-03
4.669814787821851589e-03
3.183179992083335144e-03
3.638323456716189772e-03
7.135061710248058117e-03
7.284597561615679603e-03
1.648998423016126945e-03
-3.530221232476820833e-03
-4.317625392718429239e-03
-5.947984655878028014e-03
-4.512950930417883311e-03
-4.201197883971288793e-03
-6.651263685705832750e-04
1.736691990367880863e-03
4.129209258583074228e-03
5.032333192390554821e-03
2.953698881567637727e-03
3.254578156942194642e-03
2.128485716838822948e-03
-1.495901292735364162e-03
-6.868960734492306729e-03
-7.146823919327294911e-03
-7.244549183418258313e-03
-5.222578950923617049e-03
-2.209035330832686585e-03
3.617130686447104512e-05
6.134486324879980315e-03
1.350358419759792490e-02
1.571223602120554869e-02
1.026439980536807996e-02
2.268413280172863582e-03
-4.553800415300774881e-03
-8.309002487384999774e-03
-8.152580000423645043e-03
-6.255710416719295619e-03
-4.282066053775146833e-03
-6.277443314747945327e-03
-5.085004914525618168e-03
-1.724842293525060896e-03
-1.127404005675488978e-03
-5.468444856301534927e-04
3.407017085193749222e-03
7.430189897456426253e-03
7.766565041909579553e-03
5.383595491799528752e-03
5.505136867746823065e-03
3.109764209735534600e-03
-1.507491027290730132e-03
-3.039460058657326297e-03
-4.896750623479300367e-03
-6.081207928035954439e-03
-6.827822135645874625e-03
-2.650950030363873750e-03
2.381963190679577992e-03
3.127243692584589542e-03
3.587523268102867178e-03
4.703618441810625099e-03
5.421956580274574396e-03
3.457626132396630220e-03
-2.415853489785530633e-03
-4.735704499771227309e-03
-7.337686797628271106e-03
-7.045394138524072383e-03
-6.794436602381007974e-03
-4.955021369682244443e-03
-1.441069199856375056e-03
5.792704646753015808e-03
1.265743879639897283e-02
1.533475609797687635e-02
9.818723644589322577e-03
3.517160719622118917e-03
-7.603418700188195644e-04
-3.415064810204508292e-03
-7.432052313683328200e-03
-6.766060026010192220e-03
-5.246577251732022044e-03
-6.647051838460598869e-03
-6.742382349691346949e-03
-6.428869400048591726e-03
-2.419150402830972692e-03
3.900057703685920474e-03
7.219529188218718960e-03
5.007835933928262394e-03
3.753353305539604973e-03
4.607830537616393503e-03
5.358855616399718635e-03
-3.651873070340076597e-05
-2.231633823487646356e-03
-1.448960288921446343e-04
-4.013273257093768510e-03
-6.858980914859750221e-03
-4.326045801254437516e-03
1.316308646607784543e-04
3.184747922103358872e-03
4.070179704270547420e-03
3.829022089373290520e-03
4.088294067631507295e-03
7.675547394076131548e-03
5.655116258344163732e-03
-1.606885773467571412e-03
-5.501959113909812848e-03
-9.007308704769673505e-03
-9.742137118370255977e-03
-1.003529978530824478e-02
-9.449636799928417749e-03
-4.787646204619563917e-03
4.405767359816559030e-03
1.018552512858288822e-02
1.175801640843708931e-02
9.214725647208340739e-03
8.256336894445423513e-03
9.205845014679638408e-03
6.556291615959263311e-03
-6.421446549990671203e-04
-6.477917905161261619e-03
-6.857927624867287027e-03
-8.645222636081162718e-03
-1.057049409343958392e-02
-1.161398411402547390e-02
-8.254454788420019853e-03
-2.405813756009285258e-03
2.542020859957138355e-03
4.914506830422838909e-03
8.246156318776745597e-03
8.141451395941206107e-03
5.840045098481968545e-03
2.253777009487845616e-03
1.926017985346176534e-03
3.110052809346456476e-03
1.584796397196231929e-03
-7.953468368602029321e-04
2.454775056760053766e-04
1.191397935059383944e-03
-4.038514056281003830e-04
-2.243759405749799762e-03
-2.162184770761164249e-03
-6.661225377540866410e-03
-1.305512878629221454e-02
-1.069234350445206864e-02
-4.155350850218237323e-03
4.275553500892979517e-03
9.571568223856347438e-03
4.853415370310992620e-03
-3.214989958752393143e-03
-2.071970854706558368e-03
2.772784387958698513e-03
9.244738134525139900e-03
1.503955511187357423e-02
1.411719175047989119e-02
5.409945376603530684e-03
-3.345694067046892095e-03
-5.504806130777552958e-03
-8.000716110574812925e-03
-8.278325471338743649e-03
-6.935349388131418873e-03
-6.787870793115889471e-03
-7.517139270208353027e-03
-9.326271140460083361e-03
-6.380949259199805192e-03
2.118175523044291283e-04
7.882577903997945931e-03
1.059797605109897255e-02
9.828037366692634128e-03
5.220296006572792795e-03
1.908808131652404809e-03
2.415637594354474484e-03
2.523781510509659834e-03
-7.915828248717056469e-04
-2.191581798250247324e-03
-2.925075742287877503e-03
-3.195807364162267343e-03
-5.515603603401920442e-03
-4.325230599015198775e-03
-2.777018107983313285e-03
-1.747815410571273813e-03
1.381292663490392078e-03
8.298936143571246718e-03
1.457467945427364311e-02
7.828178091209466935e-03
-3.124846488885842100e-03
-9.021550287984131042e-03
-1.052446916311435519e-02
-9.826533065104203421e-03
-7.293514584409259774e-03
-3.144573545190702812e-03
-5.088172441484676282e-05
5.250477926228199095e-03
1.355790648580351525e-02
1.511367619334604874e-02
8.218737702816220417e-03
3.508949750502068400e-03
1.075576564214306315e-03
-2.350259970336836864e-03
-6.210569615165796760e-03
-8.851186014363474422e-03
-9.948920832613497231e-03
-8.669801133929138162e-03
-6.257271766447045601e-03
-4.048306705522265389e-03
1.099120524654887548e-03
4.284320064271446120e-03
6.284402132664374842e-03
8.047640996024578788e-03
7.628939566764477744e-03
3.383535376665522572e-03
1.741384002944187763e-03
1.638914108427320070e-03
-1.362355266003702561e-03
-4.088437189847638799e-03
-5.516108553413175998e-03
-5.244309065957734883e-03
-3.644555118387443355e-03
-9.443524759303888226e-04
1.551892351022953788e-03
3.750461423871277126e-03
4.020023127204743439e-03
3.615093267845098744e-03
4.844044791401888074e-03
3.287101341124572338e-03
-4.573471107817416413e-03
-9.602930001412964336e-03
-7.255663611111041848e-03
-3.526369561312951532e-03
-1.066323107688626343e-03
5.047877069864596813e-05
3.696583484745974944e-03
4.564684981845506216e-03
6.323096357273926861e-03
8.645744966161683989e-03
7.825761706432380130e-03
2.275508312581888196e-03
-1.664842772171984918e-03
-3.905248333370923801e-03
-5.556561340283640467e-03
-5.865491028822624429e-03
-5.255230608091082320e-03
-6.080721044424277494e-03
-5.911406379014205563e-03
-3.941151840143587888e-03
-5.360536531471513664e-04
3.671969760896988833e-03
6.858245280703031792e-03
5.688009863045470106e-03
5.528429264476583498e-03
5.943451615099635058e-03
3.586578804389573168e-03
1.200329326366357530e-03
-1.997109616292104539e-03
-4.359075601053544191e-03
-5.469496166092859858e-03
-4.613911174193615315e-03
-5.202337346008190436e-03
-2.714195939417855113e-03
2.330582126188864359e-03
1.927484827399705749e-03
1.183170434364102077e-03
4.273583508270516022e-03
8.032043053428300841e-03
6.372252040009419513e-03
-5.569783738629759161e-04
-4.387254129580588601e-03
-6.992084364472859852e-03
-8.583445699507495641e-03
-8.321530609813264714e-03
-5.536418108731027202e-03
-1.883953076939442182e-04
7.891498489489679954e-03
1.182670421002505502e-02
1.417344843771719404e-02
1.059610039313116370e-02
2.233421130475659114e-03
-3.527494871660371428e-03
-5.243859845395417753e-03
-5.722684623006736929e-03
-5.749060286996018378e-03
-6.514371063980279111e-03
-8.386440100468000453e-03
-7.090812301555588816e-03
-4.546078427265090767e-03
-7.837082451966345198e-04
1.615368410783255557e-03
4.677763764724031208e-03
6.629398404234452223e-03
8.899317154507204244e-03
7.104233151476994738e-03
6.298377019391935942e-03
5.252609199853383072e-03
2.100521098665267088e-03
-1.639761376424544851e-04
-4.207915743111923131e-03
-7.822158071493282711e-03
-1.139020612220971972e-02
-1.101603779309252330e-02
-7.982421984551756056e-03
-3.717561060530974633e-03
4.013669697346000480e-03
1.179317118128035170e-02
1.572791993139262962e-02
1.113602531235786779e-02
4.750032182932504925e-04
-5.745790662052344989e-03
-7.886176745677073857e-03
-9.086077877275285097e-03
-5.954880761078069559e-03
-2.911963463100197130e-03
3.278738615683966600e-04
7.078248505584278094e-03
1.193499990421264569e-02
1.314068081487948167e-02
7.404094188846923295e-03
-6.288083469361567925e-04
-5.381174372466154994e-03
-1.131785921292757444e-02
-1.645324658381510860e-02
-1.264675770147464726e-02
-2.461224763784528925e-04
7.945435485815008705e-03
7.416641072968398543e-03
4.229069444631753522e-03
3.588274435086185959e-04
-2.804558761711650750e-03
-2.790272009768365695e-03
-2.922755093999397213e-03
4.864271155720356079e-04
6.076188540412198226e-03
1.002384304810651980e-02
8.025208509227296436e-03
3.381230945239692767e-03
-4.763403965360189286e-04
-5.015464282820822177e-03
-1.064675365018192751e-02
-1.519170050547548681e-02
-1.113179764061099017e-02
2.491453696274458472e-03
1.443018710277751103e-02
1.511348820253462406e-02
9.157233915416822939e-03
3.308347687388522515e-03
-3.167944878439105973e-03
-7.195149630501844820e-03
-1.180227223335434880e-02
-1.315392506672721264e-02
-1.367579292069629263e-02
-8.633290274162519137e-03
3.940671398619984868e-03
1.621534020306481666e-02
1.909633043256213011e-02
1.534077720736146989e-02
1.131587960824736658e-02
6.170500187264497081e-03
-2.354131794196069778e-03
-8.751132826380521312e-03
-9.492296126494093739e-03
-1.017799503868773228e-02
-8.580531058014725584e-03
-6.531151762572216975e-03
-3.960269013464368278e-03
-4.540893503204064194e-03
-3.790749659857208746e-03
5.424061788287915615e-04
5.720931898042525172e-03
8.884724763752920376e-03
8.103815455041834398e-03
7.247387698245340119e-03
5.902350305774369151e-03
4.096891850074248047e-03
4.667801574318834203e-04
-3.623993338109073557e-03
-7.437091988446523257e-03
-9.482633952810352179e-03
-8.583974008518251500e-03
-6.164870544890482806e-03
1.074186548105540533e-03
9.404164138955409258e-03
8.826717580185260495e-03
5.195730757721327489e-03
3.277437867406302399e-03
1.408935165485175525e-03
-2.244886128770318817e-03
-4.959037463742447562e-03
-5.396850352396000312e-03
-5.286393159688903935e-03
-2.705744853265721478e-03
-3.527801887323966587e-03
-2.196438470076009578e-03
2.648569082021557330e-04
5.099639571549743726e-03
1.062802435932257671e-02
1.239892568089772697e-02
6.397226569271901100e-03
3.662022598278994048e-05
-4.462494247506968922e-03
-5.788102177462604338e-03
-5.201625288566176682e-03
-2.100134427693386811e-03
-2.398061877374678061e-03
-4.329081290468835864e-03
-5.614117955806596262e-03
-4.835122355152795919e-03
-2.049919717455656390e-03
1.047175731513512540e-03
1.725057538951103690e-03
5.206470527260489978e-03
7.260982357232213455e-03
9.605771822663580414e-03
6.469853402258296353e-03
1.831668180158716776e-03
-3.552502015995803557e-03
-6.654375779912898720e-03
-5.222909033361798105e-03
-4.342766111689298943e-03
-5.140785116121667116e-03
-4.785388661362680561e-03
1.528748494136714965e-03
5.319578814459875564e-03
6.177045417308717895e-03
6.877614243310869492e-03
5.905919571766085792e-03
-1.019317748479340625e-03
-3.396079121840710029e-03
-4.165159383986395507e-03
-4.601118748373015863e-03
-6.293788867775519658e-03
-6.417337876535623986e-03
-2.919316380846640607e-03
8.990162122321118622e-04
2.482526628539114075e-03
8.258349491209843532e-03
1.135582585615286556e-02
7.933798466722097320e-03
3.745778627027738714e-03
-5.008645349427856596e-04
-3.488285283417197520e-03
-2.359663262009646309e-03
-1.708325696183357612e-03
-4.715090514522853916e-03
-7.950193803926605338e-03
-9.606645001090628050e-03
-7.362152788663117731e-03
-2.349454743354595712e-03
1.446414999393067034e-03
5.111499394613372611e-03
7.618048534773943538e-03
8.405012987685932940e-03
4.771968711857406918e-03
4.076769296868942676e-03
3.435377688343107215e-03
7.056894481945714210e-04
-1.392101463328484709e-03
-5.496293026146390794e-03
-9.071546214547756073e-03
-8.067638840490127389e-03
-1.494912189453427923e-03
2.014975268101471158e-03
2.823705714600383346e-03
2.959992648367271162e-03
5.354341083087086131e-03
8.191583480030868031e-03
5.215499346265898076e-03
-1.758194799219574452e-03
-6.196956446247118243e-03
-9.971873951360310864e-03
-9.318213326656081194e-03
-6.279786769672339626e-03
-1.081918797640261422e-03
1.760846150415324232e-03
5.646699365092398837e-03
1.150607338100730070e-02
1.352682520536954702e-02
8.158111893675278753e-03
1.897900860362460203e-03
-1.514608852412936864e-03
-5.205734041447886845e-03
-8.013576891543463740e-03
-7.677802530437483931e-03
-4.489269290147131740e-03
-4.027659133635144890e-03
-5.102468752887887211e-03
-5.093650140887232350e-03
-1.481864480891686986e-03
4.481538574536575621e-03
7.001452706473662579e-03
9.308459234112959751e-03
1.006840191556021037e-02
5.815679693804822435e-03
-8.125119633244300187e-04
-4.893894578248010434e-03
-5.325949431826270883e-03
-1.123546449542308853e-02
-1.237812735124502010e-02
-5.081820776670191615e-03
2.865221904287584311e-03
1.067074347105715845e-02
1.079851265612783232e-02
7.883523631393446127e-03
3.012483936424994665e-03
2.879669835755813145e-03
1.327951716215128829e-03
-1.112866445188718688e-03
-5.456909282593901643e-03
-8.149440089092555364e-03
-1.021392179403571472e-02
-5.039084922616723569e-03
-2.332425369808606430e-03
-5.022391007528703754e-04
3.573586881826831298e-03
6.150390199462847651e-03
7.750419611282006495e-03
7.054998254878853958e-03
7.495234419620920184e-04
-1.980673286107741300e-03
-2.641284212187515641e-03
-1.065078657151835887e-03
4.738056875168982786e-04
1.651980585850439608e-04
-8.895189245981075530e-04
-4.317437971080077819e-03
-5.771754983575690980e-03
-1.031594965636531500e-03
2.861459254680006475e-03
5.304782158448934602e-03
4.353147895328038190e-03
2.517142417791197028e-03
3.558826384123002246e-03
1.047561845485195549e-03
-7.755047832404977567e-03
-1.518300578315675241e-02
-8.357568612094743929e-03
4.256284764148159615e-03
9.168045678977916960e-03
3.415050956742349177e-03
-2.702300719781489113e-03
-3.484343345591132523e-03
2.185986414235781072e-05
5.813009904374439978e-03
8.940619430540032789e-03
1.051153201315892065e-02
7.313358099992501964e-03
-2.229623693470670666e-03
-9.656284023897159646e-03
-1.003958322745469867e-02
-6.860172807749882057e-03
-5.132502685570988592e-03
-4.076024877188291762e-03
-2.912189721713511793e-03
-3.154834934606256559e-03
4.051012193786554180e-03
1.061158771037756278e-02
1.345356371912768099e-02
8.419391760409128053e-03
1.408524902200549919e-03
-3.976076515998807313e-03
-3.519289935692466315e-03
-7.744147772121837874e-04
5.788604929342823112e-04
-9.645484601205736629e-04
-5.029784703422713124e-03
-6.149899638855823615e-03
-5.510919452446462648e-03
-4.695805149996496938e-03
-4.315778603306897644e-03
-2.340835125444406910e-03
-1.284017189856365799e-03
9.387136952237442244e-04
5.651781338627342131e-03
1.370983255019763911e-02
1.694003284674050133e-02
8.814475751504537854e-03
-2.888915062125228285e-03
-1.012367439483393035e-02
-1.021618634941157469e-02
-7.232755476143114086e-03
-3.580886054210671680e-03
1.979727348539327310e-03
3.659905231364917431e-03
2.376342417207009863e-03
3.159067831372612458e-03
2.792719960464365957e-03
6.508826693637578690e-04
-2.371730123322372125e-03
-6.148330162795612522e-03
-6.438410921663341446e-03
-5.876549952889532046e-03
-1.158944254468319106e-03
2.150480367923208146e-03
2.584541642698565903e-03
4.141303605551149847e-03
8.957065438722237524e-03
1.074548948772862528e-02
1.036606238159178649e-02
5.304462341015604016e-03
-3.962592231474375824e-04
-9.547640125490794438e-03
-1.272569665480396614e-02
-9.618069505427550431e-03
-6.723703704115206389e-03
-6.360277010243825004e-03
-5.748430320327801296e-03
-1.900189719936913081e-03
1.198872201810808431e-03
5.240529614554702113e-03
1.040696796828241739e-02
1.291479138278587950e-02
1.019108290828799925e-02
4.527646143262194396e-03
1.786061947875562466e-04
-4.573097671898940057e-03
-6.882925678320468178e-03
-6.968342839201469366e-03
-6.272060479408069107e-03
-4.711201780321814907e-03
-3.574524362094466320e-03
-9.453978740870230867e-04
2.191813191001660589e-03
5.762086523516416446e-03
7.695751851725575292e-03
7.433805773461792804e-03
4.551879963434052150e-03
-3.251061561206775572e-04
-3.843660770478969299e-03
-8.617421626168466145e-03
-8.882113969742247081e-03
-6.669121000778542238e-03
-2.498569541493683190e-03
1.413614346852055427e-03
2.677690667403138328e-03
5.745169030675771442e-03
1.061459835345329207e-02
1.145816177174777302e-02
3.796768879019168930e-03
-8.440847450027567965e-04
-1.473590425570913461e-03
-2.891841080422514598e-03
-3.925970300497385636e-03
-4.130046515492240104e-03
-5.299152380174885178e-03
-6.730829418471620008e-03
-6.747025451452975074e-03
-3.763154521391504515e-03
-1.787030280575384322e-03
5.574799313534924226e-04
1.777636129339724884e-03
5.431727309370137056e-03
7.754861476835097495e-03
6.191011461978311245e-03
7.165216811406625343e-03
5.783635426016797004e-03
3.837510648402345410e-03
-4.175779562139896929e-04
-6.457610066673676041e-03
-7.973102895654405817e-03
-8.730632977614291926e-03
-5.629361127610673157e-03
-3.193163550584451893e-03
-3.651680194667423704e-03
2.292579808728994139e-04
1.034249660139400888e-02
1.591030853824453722e-02
9.196209220430165768e-03
-1.528603191640705815e-03
-9.992713788901187721e-03
-1.818183320169564771e-02
-1.680902256984648929e-02
-2.864997727344349883e-03
1.030691484233362508e-02
1.574159623490924836e-02
1.391656168832235661e-02
1.061507595395337102e-02
5.638461917636556145e-03
-4.713375633049717906e-04
-3.977489504800643845e-03
-8.614015615078097002e-03
-9.243076982053110083e-03
-9.083394769279424727e-03
-6.272164739000979546e-03
-3.472625819621632734e-03
-2.075583615726092276e-03
-1.593953588481421095e-03
-1.045065588700333460e-03
2.563430102417946308e-03
8.269698041534887314e-03
7.330668490547695600e-03
8.083759847156110276e-03
6.948671476684338717e-03
3.836651779233061707e-03
7.796207288275866813e-04
1.054893218620159951e-04
-1.808744844758325074e-03
-5.066047264813648178e-03
-7.459945092098793813e-03
-6.755301420614799081e-03
-8.160558355173588505e-03
-6.627434506005155934e-03
-7.411479898986216746e-04
1.929745086045166289e-03
1.452549791781463338e-03
1.090257994087072933e-03
2.402958636812850459e-03
6.758891065162962210e-03
9.981471378936254343e-03
9.054424388348868841e-03
2.880481077333990614e-03
-3.598253684413738399e-03
-7.787835926022933578e-03
-7.603307936862551200e-03
-3.594693872435696103e-03
2.285015937355244255e-03
7.301999019829179087e-03
9.174386691958911696e-03
4.101037571957688761e-03
-5.901608923381831094e-03
-8.867333561327074912e-03
-5.146902162973873186e-03
-1.753613083355139851e-03
3.069298939405708747e-04
-9.805311841652915045e-04
-3.760181064140415662e-03
-5.820262249327668412e-03
-2.160347011329797739e-03
1.112087019313768351e-03
3.401207894296491736e-03
5.947964964411371104e-03
6.630494897517931301e-03
6.516248779352504066e-03
6.041596797254530395e-03
5.773040187840418683e-03
1.373983838323161386e-03
-4.488010244942571177e-03
-7.169207736729834614e-03
-8.128978866426534930e-03
-6.683306092567418109e-03
-5.798832887490601266e-03
-2.173599119032755891e-03
7.906629795674098527e-04
2.291158164948167274e-03
3.201286904632619050e-03
4.841907612060131205e-03
6.379659188057460427e-03
7.567199233581485031e-03
1.719803001904403501e-03
-4.297810453712516340e-03
-7.619415428452114107e-03
-7.087625445066410984e-03
-4.320798454832347826e-03
-3.550738382846197459e-04
1.304630273136615087e-03
3.230441121539604464e-03
8.275000393122672673e-03
1.194566453109214069e-02
5.614952072180579533e-03
-2.413429044377521544e-03
-5.051185521647838343e-03
-4.041996640326922519e-03
-2.929527521984256946e-03
-2.162990803373948147e-03
-1.987213904637047824e-03
-4.878345581901788984e-03
-7.760135779691077797e-03
-5.821104441430014625e-03
-1.828967250471477245e-03
3.014552293923891506e-03
5.856833136531818494e-03
6.911021797429721045e-03
7.917146848567693448e-03
5.264592723981408907e-03
1.733168479621487700e-03
5.372038519902438579e-04
-2.611007494830061733e-03
-5.920566919951277852e-03
-5.945318847252372210e-03
-5.058493003515841975e-03
-1.990310137340366853e-03
2.985473978419920377e-03
5.306093885553406220e-03
6.191847070723011104e-03
3.645453061750381606e-03
2.068356209811017012e-03
4.483319265032753922e-03
2.011401625293231590e-03
-3.997037010654835680e-03
-8.213544400945682611e-03
-1.063668802402024070e-02
-1.232024856942903063e-02
-1.217383656620209600e-02
-8.650840379775351710e-03
-1.592742559288776172e-03
1.218067170111650742e-02
2.695490743468902800e-02
2.917821697760315108e-02
1.454761391802260155e-02
-1.915522325225811791e-03
-8.587565936894981863e-03
-7.445650193571385321e-03
-8.245025726112471809e-03
-8.505195258180086801e-03
-7.525664732574888389e-03
-8.352169632745152714e-03
-9.068278017148391143e-03
-6.759108029605642373e-03
-5.668051068356568358e-04
3.263882014370177859e-03
4.340465315148659721e-03
5.815855109747079463e-03
8.876361456676732167e-03
6.315362241938369224e-03
4.491086823725907833e-03
2.410972928175140854e-03
5.748043232601901488e-04
-2.385247739662743442e-03
-2.685312958689383116e-03
-2.068297503331728050e-03
-3.985038996927295699e-03
-3.976481459037373677e-03
2.396565003734435310e-03
2.010297146159394782e-03
1.260821345301805022e-03
2.264098815895849558e-03
3.622204224771207251e-03
1.189183125119150407e-03
-3.534346150782310958e-03
-6.909543677249093373e-03
-8.195257171410548144e-03
-6.956756888059079970e-03
-5.512340089242083463e-03
-9.062908840548963710e-05
5.733000665533254624e-03
9.420225570847455196e-03
1.282013061280707668e-02
1.194293704991179414e-02
5.354425480827046044e-03
1.344040750243645651e-04
-2.606619467313773739e-03
-4.964671568147597039e-03
-5.815636251762681778e-03
-5.375133765942746548e-03
-4.572505371879985285e-03
-5.649085641129073312e-03
-4.673903584590039656e-03
-1.764648049299885092e-03
-3.273458833137877729e-04
1.786566768617631196e-03
1.130459213168388214e-03
-4.637127586669402730e-03
-1.050909810693207921e-03
9.118749097416717700e-03
1.012389311964445940e-02
3.286433560437515035e-03
8.852866140797087348e-04
2.194244534941459761e-03
9.564311163009993127e-04
-3.781325448301604050e-03
-4.766484859955616785e-03
-3.168726029067441344e-03
-1.830001494924549305e-04
5.334897140016006288e-04
4.945415395195376955e-04
2.115628785378162718e-03
3.223108434552800997e-03
-2.181273777806504600e-03
-6.677320065959870855e-03
-5.753812719507310144e-03
-5.287234094846960178e-03
-2.624199700869444749e-03
9.019374022812674417e-04
3.018196506066379240e-03
7.832494184665356532e-03
1.148904042666475459e-02
1.285181546637878015e-02
9.544189562751945535e-03
2.996010194340681040e-03
-5.202762978123000662e-03
-8.401100983562682575e-03
-9.211961080057236295e-03
-8.968028786800546007e-03
-1.167814826589186859e-02
-1.273150301588978246e-02
-8.361131640927393568e-03
-1.299982434621877424e-03
4.238125039050999118e-03
7.573582984542325848e-03
1.276015814063872350e-02
1.498481733677668910e-02
1.352213209984538464e-02
7.757558329345998725e-03
3.892543656865551037e-04
-4.246410019903204026e-03
-5.506389754789079750e-03
-7.191904565109824218e-03
-7.159813169633826198e-03
-7.992573950020034207e-03
-8.445216363374504279e-03
-4.662009487567884448e-03
-1.010508642641672755e-03
2.884219330532891354e-03
5.876477144532794329e-03
6.512275385484192838e-03
9.277291597744236062e-03
7.195285733011857858e-03
3.491485009619693831e-03
-2.599459473875236938e-03
-6.677249084666559038e-03
-8.023693064536945377e-03
-8.074244998246720914e-03
-3.397135682393434206e-03
7.268209297761999170e-04
1.137228408350608212e-03
2.591049487147253309e-03
7.843277846932816474e-03
9.102215661125442892e-03
3.595828537219007692e-03
1.816570164922894342e-03
-8.522361703787335050e-04
-2.153954631437760177e-03
-5.002248246349536194e-03
-2.059034565336047458e-03
-1.207348620036031647e-03
-5.402784103049384883e-03
-7.023878962895651126e-03
-3.588333589945450104e-03
-2.486510108565334609e-03
1.137265537725708512e-03
3.776296693658434244e-03
6.673661276355924259e-03
5.588315419696674065e-03
3.450474563347021191e-03
1.504074337148200192e-03
1.590558688559107030e-03
1.568616725631882380e-03
-1.087725830692119256e-04
-5.766811283550369975e-03
-8.284031840945935143e-03
-5.129063727709093183e-03
-1.911152011705407315e-04
3.238671381784677915e-03
3.534197865332146856e-03
6.989214652347222785e-03
7.522339338394139381e-03
2.851576912706737642e-03
-4.741446560005875728e-03
-6.883611760663300994e-03
-6.350836093930036820e-03
-4.554979736251283697e-03
-5.359393017844322864e-03
-3.942862260492213840e-03
-1.910416328043645483e-03
2.924506104523688643e-03
9.057975784787440990e-03
1.403867213019309446e-02
1.187370943559681695e-02
5.239930932437503359e-03
1.524373901544278666e-04
-2.566924276774210697e-03
-5.289595607930339984e-03
-5.933620199222882675e-03
-4.661357238472091553e-03
-5.544873599913623628e-03
-1.045398769726247311e-02
-1.172928935102145881e-02
-6.070994619640703895e-03
-3.464777565883792238e-04
5.027876093550424051e-03
1.149220893805636030e-02
1.301793316772048223e-02
9.214672525557011246e-03
5.776080196779419425e-03
3.333730618920006418e-03
-1.324481222908025120e-03
-2.587672634012386057e-03
-6.158834583797526997e-03
-9.059805358192151922e-03
-9.238595575949875086e-03
-4.497124272390045328e-03
4.916078898746606375e-04
2.575399345688390157e-03
6.681924013357068599e-03
7.657779951913602605e-03
5.677106647703678358e-03
1.662192119259104164e-03
-2.564388017530091005e-03
-4.126543665601305720e-03
-6.265196369785818939e-03
-7.351156511308370826e-03
-3.174102980073354764e-03
-6.768940274865304545e-04
9.628937496212371929e-04
3.616296048378847116e-03
6.386093522770498569e-03
1.109954076321992278e-02
1.056136040842856581e-02
2.749936819486206892e-03
-4.138578999678424637e-03
-8.769037747558551879e-03
-6.889640532415433616e-03
-2.306953264904859809e-03
-1.688802911698684961e-03
-4.335005421564186619e-03
-5.837353219406678576e-03
-5.405570946885130366e-03
-1.142401877049631625e-03
2.318797887678922601e-03
6.468860728513908809e-03
7.010569135262248799e-03
7.734868407512587689e-03
6.475872701062214062e-03
3.346898457646203112e-03
-3.279617041598761732e-04
-2.774108211118331974e-03
-4.508296149227242720e-03
-3.755452017226377278e-03
-3.310019777548232379e-03
-3.055569537998352632e-03
-3.473037592650818611e-03
-7.593614915450491937e-04
-2.090528052082584690e-03
-5.944578654319339871e-03
-5.620055543365801674e-03
1.751082051898693835e-03
1.244642336383806717e-02
1.553345522693647118e-02
1.071565864102658715e-02
5.475782738282819430e-04
-7.275206837016237778e-03
-8.608901581790732310e-03
-8.347673316617574071e-03
-6.530298686280753065e-03
-2.147239056044640722e-03
4.119679565239069315e-03
1.142948940248136175e-02
1.009096469968622997e-02
3.542404375006113267e-03
-2.473905628276908131e-03
-5.243259986393403703e-03
-6.290294427475478720e-03
-4.810027464272957458e-03
-3.155764329406339150e-03
-3.785324275046979183e-03
-5.753117083686103486e-03
-3.036786040603571372e-03
2.637326581241578906e-03
5.903936642630979066e-03
6.292843498845139029e-03
5.014279589596945877e-03
3.882307810578709828e-03
1.646890678349225562e-03
5.523802949726953513e-04
6.919178045669067056e-04
3.152566010384616545e-04
-3.520721241806311504e-04
-1.239506401503787927e-03
-2.120647104962346784e-03
-4.134234224186988070e-03
-4.745388274897561001e-03
-2.169516848516260098e-03
-4.223915681212007771e-03
-8.343011550962219428e-03
-3.263572822938354788e-03
9.757019846329669996e-03
1.769444092273630975e-02
1.024464116593515502e-02
-4.618922791991907952e-03
-9.652145428446981881e-03
-6.875930110145907735e-03
-2.012150833422542227e-03
1.010698613004407630e-03
1.737956633362220879e-03
1.818415024887422727e-03
5.008563231148410906e-03
9.244046317745091210e-03
7.868481446546895033e-03
-1.506274025460535744e-03
-8.901249597992164433e-03
-1.057385685468638890e-02
-8.396145615549006555e-03
-8.428193635728428073e-04
6.486637241535859848e-03
7.432694316737618011e-03
1.074965122180898854e-03
-2.623302514338041874e-03
-4.180599200016951039e-03
-4.226041873330948183e-03
-4.574278860315211630e-03
-5.182474139333213652e-03
-3.460343143654888822e-04
5.268217037942471599e-03
7.596934428434120277e-03
8.663256547279332351e-03
9.244925042784795863e-03
4.902692269507890124e-03
-3.339232435851452289e-03
-6.701933850132383089e-03
-9.551825033672047688e-03
-6.659810701024255521e-03
-7.441350838996537613e-04
2.263365267906006228e-03
1.459116992720034100e-03
3.562788807293944694e-03
6.285576630787363499e-03
4.128761273502674391e-03
-2.002930309592998795e-03
-4.953556929458390913e-03
-5.506651453238663174e-03
-5.824908493928067019e-03
-5.637914775408416242e-03
-4.687630762415315698e-03
-7.501823783619445936e-04
5.627930345939498140e-03
1.036162251781823883e-02
1.589498312456806214e-02
1.090770281670074872e-02
2.516316514289031712e-03
-3.094626248190245760e-03
-7.067716973796623128e-03
-7.786363165969042467e-03
-5.742151913177176263e-03
-4.284362108065006489e-03
-4.269481697841480232e-03
-4.666087518030992420e-03
-4.080023774962088755e-03
-2.741935509367253269e-03
1.146999991932079769e-03
4.080113571369726501e-03
6.388238849451857888e-03
6.123882143670269021e-03
4.848622488239032018e-03
5.488405772752584164e-03
3.783223236692724936e-03
1.867147141609865209e-04
-2.574788480857711018e-03
-6.519026760935838459e-03
-7.571086625764278377e-03
-6.852350172926915083e-03
-2.286917306910518990e-03
1.174531430251292419e-03
4.675246562406277888e-03
5.378593440386761869e-03
3.331352154260554081e-03
2.376724718003054345e-03
2.523559740192989238e-03
-5.374873776581524438e-05
-2.485723885453478780e-03
-3.598559448700569194e-03
-4.522885905192792176e-03
-4.572892531382132149e-03
-4.908418104729962879e-03
-1.516967509612962214e-03
1.204128181399325738e-03
5.094227821292918006e-03
1.075156312715205148e-02
1.066777453327120810e-02
4.185410433929320079e-03
-5.349562001751891608e-05
-2.865588901172892895e-03
-5.663957806971730603e-03
-3.731557374361943718e-03
-2.994123290110790002e-03
-2.920882368311220577e-03
-3.384892714317377406e-03
-6.644553482422417209e-03
-6.969765088070192793e-03
-2.244923271407812254e-03
1.748656867768114435e-03
3.832339929148876907e-03
6.500798039361577706e-03
6.905849350276489600e-03
7.220852393487130726e-03
5.019164339438201075e-03
3.187585544959735048e-03
4.649281500212747316e-04
-3.520314676795873766e-03
-8.245443373796261174e-03
-8.168137734891488602e-03
-4.775551507583520629e-03
2.727817576312679439e-03
4.147795323988750886e-03
2.258321933718406178e-03
2.883842892293816268e-03
5.591616911820499955e-03
1.250304455583035965e-03
-5.387238410870876307e-03
-7.281397367174548794e-03
-5.788789384245468690e-03
-3.951827483633665004e-03
-3.299627897505214968e-03
-1.871195498614057571e-03
1.504462901556100855e-03
6.438094978381290155e-03
1.005916115182230869e-02
1.388005440780740521e-02
1.113358714471891081e-02
3.107339568913195828e-03
-3.437953550332159720e-03
-6.780826234070697067e-03
-8.847820367477709017e-03
-7.566562780163178618e-03
-7.684558503093534901e-03
-6.110031765795533899e-03
-3.808236160093724301e-03
-7.658945619708558460e-04
1.410052700674526826e-03
3.908842133397770306e-03
3.685643464722737454e-03
3.977844650969815724e-03
3.611909476416779244e-03
5.995474295411434666e-03
5.070836549862796361e-03
1.025604637763999002e-03
-3.525453336276030900e-03
-5.983308656779532352e-03
-4.222745814499681213e-03
-3.306196777510565440e-03
-3.276983822883550168e-03
-1.143837920555765709e-03
3.471972503157209726e-03
7.267083077764969513e-03
4.781030509825852023e-03
2.892392372388561967e-03
4.035944716462106299e-03
2.391283189321619703e-03
-5.279109817806591255e-03
-1.031752524280838378e-02
-7.121079646237374154e-03
-3.363480357993408644e-03
-4.889800272049433030e-03
-2.750170242395744667e-03
5.492786898935721153e-04
4.924968097025192622e-03
9.199686450366444113e-03
1.445468764489497154e-02
7.548594461573763202e-03
-6.073664239532345667e-03
-4.357638985096474495e-03
2.695700748795799330e-03
4.628946881821945428e-03
2.139718639334819983e-03
-9.913955715453730451e-04
-4.600538625831897092e-03
-9.839921713380290341e-03
-1.306624131839867822e-02
-8.889424046686139266e-03
-5.434230882735920781e-03
-3.291761446238826525e-03
8.048968959292315600e-04
9.996659674564565418e-03
1.721000919070829471e-02
1.521168846127054358e-02
5.751517249273666206e-03
1.385952838518326145e-03
-6.404687552532982366e-06
-4.389055448453469885e-03
-1.225496263059491948e-02
-1.419584340758679036e-02
-8.597561936195321011e-03
4.160949415117913726e-03
9.806128170810746517e-03
5.802838172736001117e-03
-6.320586362842545722e-04
-6.198024617732968188e-04
5.086063973891792774e-04
1.215894346809546925e-03
1.010663636643771308e-03
-2.147365703216194081e-03
-2.234734465692861816e-03
-3.932807412416527981e-03
-4.622648516273188297e-03
-2.472445068591718875e-03
2.189129713831891762e-03
6.263200909157576497e-03
1.059666831796476048e-02
7.474416240161292982e-03
3.667420636065449671e-03
1.489173873579591688e-04
-1.484076961795240861e-03
-6.168238987181402094e-03
-5.676130268905174754e-03
-2.712899389598191768e-03
-3.583083619769721583e-03
-6.436629093362416891e-03
-5.846713533159813951e-03
-3.648756802541963402e-03
-4.678037154526320900e-03
-3.050893189386190158e-03
3.627723583377421256e-03
9.973847452613097270e-03
1.348864156301332953e-02
1.317103219051858447e-02
6.151256423377782397e-03
1.989562543227478358e-04
-2.144803299474880472e-03
-6.919085689542163117e-03
-1.011940298642953484e-02
-7.149456587719837421e-03
-4.257363248033056019e-03
-1.439852206060454436e-03
1.610459971508433445e-03
5.048862060308607382e-03
6.437218439283129597e-03
6.083892523897302743e-03
1.397221354066074343e-03
-2.586562637852726082e-03
-6.326592399641352803e-03
-8.149274652722861625e-03
-7.607773762037323834e-03
-5.333660375418601204e-03
1.534840359487628023e-03
4.392349281525439499e-03
5.895242877852010024e-03
9.885890764623466581e-03
1.299859751862502202e-02
9.697674958197710290e-03
8.299381226382853858e-04
-2.548468675448510405e-03
-4.791375309395429910e-03
-8.250650915579388345e-03
-9.597882354425176996e-03
-6.677346435211053630e-03
-4.295165827524692961e-03
-5.517824499259246090e-03
-2.060551298678868840e-03
2.055222195779774982e-03
2.240901094895473861e-03
2.635858416383581732e-03
3.581559231700478900e-03
7.559416968493887744e-03
8.193336284830588651e-03
5.805508011447402077e-03
8.504701911100979962e-04
-2.271366957416491063e-03
-2.231045665312265860e-03
-5.345108425940205306e-03
-6.497846232042174368e-03
-5.464372707002969516e-03
-3.093353505989392821e-03
1.898265861875155988e-03
3.311590886961805758e-03
2.722863672557123554e-03
5.361509321171581931e-03
5.917674992524137034e-03
1.511158593064810662e-03
-2.510442990045154681e-03
-4.930977562323464285e-03
-5.308457169956139372e-03
-5.653915472461904478e-03
-7.381345354727234659e-03
-3.223748638608875221e-03
2.468240054304876585e-03
4.707832715879912977e-03
9.617335545378070255e-03
1.397961491814721756e-02
1.073304794244145897e-02
1.642400100543996329e-03
-5.132266474149601437e-03
-5.550572879461511573e-03
-5.627548134409157861e-03
-6.007357632531584897e-03
-4.086729547398464980e-03
-4.076408297398885147e-03
-4.331315599083027622e-03
-4.369179524335852459e-03
-1.670250404463333779e-03
-1.450867767828789697e-03
3.009546292065038049e-03
7.010128755677746092e-03
7.843807811084329423e-03
6.617221910738052201e-03
5.037780206232750010e-03
3.272052580515240165e-03
-5.633688032028519164e-05
-3.898790059419794674e-03
-5.847460015938137599e-03
-9.456546899308857987e-03
-8.981241942006444254e-03
-2.194369636338914555e-03
3.661580020543107362e-03
7.130615064314672381e-03
7.351949286824479950e-03
5.582940341091213211e-03
3.518907259410315215e-03
2.412854390228453042e-04
-2.898170708037395467e-03
-7.310548041048559563e-03
-9.843366383837507880e-03
-6.288855275912105976e-03
-1.302454188746734152e-03
2.928335029955463575e-04
4.184724609470372517e-03
6.579834074553117702e-03
9.918774920414735741e-03
1.204353911599074720e-02
7.880496233380345286e-03
1.350377533241580059e-03
-6.827667660751266139e-03
-1.591911935250211671e-02
-1.600664249114592402e-02
-5.375325795013561302e-03
4.763105307565220804e-03
7.361940773760925101e-03
3.504848528537355887e-03
-3.397141937956049858e-03
-2.881841034284151042e-03
4.314614549994601005e-04
1.787840620390433646e-03
3.460794042320029969e-03
5.437621089713178847e-03
3.735607541766245744e-03
1.232257756898657956e-03
1.560244767919414816e-03
-6.579906942733019419e-04
-2.871527283012116800e-03
-3.754277370052328498e-03
-5.339557545809624044e-03
-5.542641953051300266e-03
-3.349618472727460428e-03
-1.931834250329884429e-04
2.790097249933757347e-03
5.670817197165964850e-03
6.823331907914666379e-03
9.636602937852100856e-03
5.728395851200409478e-03
-2.470752630981905285e-03
-9.191693661113683675e-03
-1.020610462734678099e-02
-8.011613559679404278e-03
-5.879599152889406107e-03
-2.668055588989044075e-03
2.598001016093919556e-03
8.433940884427948426e-03
1.089213975998151555e-02
1.347873787345872827e-02
8.539652430618152254e-03
-2.134528024761619090e-03
-7.299506555890194863e-03
-7.150415584675370861e-03
-5.680325614930539606e-03
-4.107905195906617554e-03
-1.021370652270321699e-03
-3.054282127494758851e-03
-5.962915213693903774e-03
-4.088531025424556840e-03
-5.857059961888820944e-04
2.641190062795330425e-03
7.218323837762317431e-03
1.035949913983018680e-02
7.911122656053768201e-03
5.486945472158340220e-03
1.834934183876749635e-03
-2.005585067722039615e-03
-4.225893010400581969e-03
-4.226912693648319543e-03
-7.040492283684454157e-03
-9.595014140529083829e-03
-8.041536134248752909e-03
-9.051222830905609334e-03
-5.716317910796900846e-03
3.516017789672460855e-03
1.528707697184557117e-02
2.055003794460031827e-02
1.615616072857278124e-02
4.391604197154821455e-03
-5.343595603346036789e-03
-9.499499886579292410e-03
-1.112925715395894459e-02
-6.449493924912485729e-03
-2.397640147996519589e-04
1.797545908249068188e-03
-8.503780457105627718e-04
-1.363513868944813030e-03
4.193012994504280444e-03
6.649633044405980041e-03
3.674793947107999974e-04
-9.740364382448055483e-03
-9.733435272168970004e-03
1.629958226815877097e-04
1.211834171798505284e-02
1.023726708762825836e-02
2.448671629585454437e-03
-5.588426541257739653e-03
-8.044691060295859966e-03
-6.703676895499470142e-03
-4.097214786828269270e-03
1.221983711003418738e-03
3.995447474792643630e-03
7.055917619979073380e-03
7.896073210653371463e-03
3.854299736528825175e-03
4.884188259994531330e-05
-1.607157232805191474e-03
-3.471137869304882426e-03
-2.860226193415349710e-03
-5.476506122663250126e-03
-7.553221616330411774e-03
-5.011092029678002220e-03
2.822709635423442122e-04
2.948449426118915449e-03
5.840894937129277077e-03
5.542268650603194950e-03
3.344850093372955541e-03
4.330881378058459505e-03
5.163710917522911122e-03
1.107373494794179625e-03
-4.357859620634989099e-03
-6.245631079358058939e-03
-6.451933085063047725e-03
-6.427848103531844451e-03
-7.330736183921962752e-03
-3.768674553240680333e-03
2.159260949790901829e-03
1.032048577888234307e-02
1.552748870804035973e-02
1.104705605619290924e-02
2.183558854249521321e-03
-3.785175156365844749e-03
-3.854062771243618561e-03
-4.314275268728652406e-03
-4.719241639630103111e-03
-3.977097984573919540e-03
-4.309400614166969574e-03
-6.363127177950371992e-03
-4.631692480213557041e-03
-5.799942971593062937e-04
2.995489140941552750e-03
4.094621158961559738e-03
5.623911555521521680e-03
7.757565450023282648e-03
4.572099213653663813e-03
3.666133701405006689e-04
-2.854012858208724093e-03
-3.703495713465572436e-03
-4.467602029755221929e-03
-2.560492367835792357e-03
-1.512459355520080024e-03
-4.432194374730442942e-04
-4.728974977566431496e-04
1.226439065517012346e-03
2.578491942418803182e-03
4.078135445878175620e-03
6.960241011796733553e-03
6.945089796927448288e-03
1.870993062334029480e-03
-4.181244196098379481e-03
-9.733283958549094825e-03
-8.580533170139594684e-03
-7.489715757006209541e-03
-6.820402341457587614e-03
-4.800799446915673431e-03
-1.043308320397728049e-03
6.957400844153940195e-03
1.435650937245200841e-02
1.688837146638176925e-02
1.101791722198188113e-02
4.473344753071098294e-03
-1.749595209127268944e-03
-4.370659734068146375e-03
-7.726327573759610851e-03
-8.798783914305581891e-03
-8.186803971931421939e-03
-7.195089961889114365e-03
-7.828099664642030470e-03
-4.550065450039764842e-03
4.506829494297162077e-04
1.981535278663359295e-03
4.649182299857590982e-03
7.127708213287117962e-03
9.162644647780776239e-03
8.811483448008262595e-03
4.265178304011453710e-03
-9.694359155251300363e-04
-2.191177919942551271e-03
-1.132364348865837330e-03
-4.581840532845301087e-03
-6.832769578227113581e-03
-6.462870859429903879e-03
-3.889584515490008068e-03
1.578234917622624452e-04
4.791534005447612050e-03
8.354710389852509217e-03
8.726553253712686017e-03
5.459138910615264281e-03
-5.260511472416196490e-04
-6.477770423619105822e-03
-7.812297648248039614e-03
-5.283363964162669964e-03
-5.440321213432474518e-03
-8.882137153344307756e-03
-8.280069581807950052e-03
-4.255735254524102389e-03
4.068917719308158196e-03
1.860371281045461109e-02
2.397212200964599429e-02
1.711060675942844070e-02
4.373282992695196915e-03
-3.492683853256533903e-03
-6.894391808014705206e-03
-1.157471343435784346e-02
-1.134920913358344538e-02
-8.839863052458967613e-03
-7.832282995136264497e-03
-7.775446889264002806e-03
-5.459933914044165157e-03
-1.738021388583892678e-03
3.347636596066164063e-03
9.023235569176961748e-03
1.132638546502830364e-02
8.889626604982034386e-03
9.642693808772558398e-03
5.628480557208101649e-03
1.617017266300661642e-04
-1.781473992097716910e-03
-4.238395607229127927e-03
-7.281882457944551142e-03
-8.080138547263715845e-03
-5.315096109401912065e-03
-1.467242209635445833e-03
2.367549671657376785e-04
-8.218708875397823807e-04
-2.965112663505407517e-03
-2.531768842619571986e-03
1.615989256299336430e-04
5.845378509780679507e-03
1.048832682583545305e-02
1.047690858354585405e-02
4.729591035719576063e-04
-8.126267984917882881e-03
-9.313556631820124609e-03
-4.453328182571113063e-03
-1.667695471199664645e-03
2.784025965105141505e-03
7.116357843639337447e-03
1.196009711530216825e-02
8.318155216563335660e-03
2.297824859651241211e-03
1.726845463465525687e-04
-2.891877423833066896e-03
-7.410350822440721005e-03
-9.409625036079666618e-03
-8.200086776249256373e-03
-9.116966502673400086e-03
-1.116218610745633652e-02
-8.691270811439666399e-03
-2.782652397309302362e-04
7.755063519841006586e-03
1.123520628410552662e-02
1.391327865002801693e-02
1.432356950278973647e-02
7.906253742003420751e-03
3.022331269487538684e-03
-2.559293795622300167e-04
-2.967089577760748977e-03
-5.266139520416552276e-03
-7.174221922836922921e-03
-9.022801371556829139e-03
-9.000111734291375842e-03
-4.972847532880614492e-03
3.230925436106857167e-03
8.788867405979842312e-03
7.802301185612818719e-03
7.533809330688936122e-03
3.820951398293485381e-03
-5.042387141452944581e-03
-1.556479943205133637e-02
-1.952256750483846032e-02
-1.480376832578259028e-02
-3.438222234248148983e-03
1.143822002336213582e-02
2.068438660936593176e-02
2.043130358213862685e-02
1.512552527497604445e-02
8.678485608566289047e-03
3.864406673201680083e-03
-4.224551871678586951e-03
-1.015032161707794985e-02
-1.168334806291971249e-02
-9.623968657868194054e-03
-7.168790656567002560e-03
-5.619931614149568759e-03
-2.236779192298694700e-03
-1.217036133964771033e-03
-1.796016467863603434e-03
-5.422271375641991246e-04
1.459798746213258501e-03
1.799591211627203299e-03
3.286208461414479205e-03
5.082276112369091617e-03
6.809358352008763014e-03
7.162712557777876736e-03
3.902711526775691324e-03
1.174208707376467667e-03
-1.938884490386684478e-03
-3.935310883766898228e-03
-5.013107947999212270e-03
-6.302862046194706268e-03
-5.439333340059066164e-03
-2.357680130039487010e-03
1.317516218674216234e-03
3.339693232418602942e-03
3.738087341041183322e-03
7.105218220807308152e-03
6.574612050271461117e-03
2.589820017244508395e-03
-2.586731545014253446e-03
-5.481206545641935900e-03
-7.203776027568753113e-03
-6.885380224139759676e-03
-5.187114142346303629e-03
-5.217888680799298400e-03
-2.162737769979973523e-03
3.588905995871334922e-03
1.116752080053961919e-02
1.403095744115100997e-02
7.744807442976811736e-03
2.802274014438950467e-03
1.285229205587123426e-03
-2.255559447170595228e-04
-2.701920377800385176e-03
-4.805772382586983617e-03
-7.604809921859863320e-03
-8.151724149819915971e-03
-8.631268137157052309e-03
-6.896524930817585566e-03
-2.116673725970352749e-03
2.927235607229296613e-03
2.441777749823890922e-03
5.155548266452269351e-03
7.297311445580585351e-03
8.299878491895352692e-03
5.907139090241817110e-03
4.864836853821692154e-03
1.963928448542781244e-03
-2.667596370422613099e-03
-8.308563908128060310e-03
-9.215712121987478314e-03
-8.352989809003185523e-03
-2.283088163229087322e-03
3.268971703542050862e-03
4.705943238521251119e-03
1.623941209602936843e-03
2.302843285499729057e-03
9.818642063634830733e-03
8.767364108331470243e-03
-1.928011771470668906e-03
-7.795099784897046441e-03
-1.054813509518602414e-02
-1.008090258158868095e-02
-5.229518182064920272e-03
-6.407646691543182659e-04
5.583847514898855613e-03
5.709229651918910908e-03
8.302654607567893155e-03
9.697803972948523463e-03
5.439980307308372835e-03
-9.600733616529135437e-05
-4.112335204596047193e-04
4.639029040002020927e-04
-2.709451897006119863e-03
-7.667897233978772896e-03
-7.380464241398908450e-03
-4.840398845873393995e-03
-4.819839095496753108e-03
-1.356208029043000016e-03
7.301748638858298343e-04
2.049794180928573493e-05
1.235157141294492781e-03
4.237073177561708447e-03
6.004699023455194011e-03
5.810204347357580436e-03
2.922579520031864594e-03
1.484637329070503074e-03
-1.087110033531302374e-03
-1.896817211292273035e-03
-4.165962253287416699e-03
-5.025627665145662032e-03
-3.145249275787918679e-03
-1.784269622738713680e-03
2.651332463623860825e-03
4.433528623152902491e-03
3.464478312904932435e-03
2.681444830465652684e-03
1.495050144483161484e-03
2.145583047195870753e-04
-3.308338925828228395e-03
-6.659721505182638300e-03
-3.778718693475787999e-03
-2.200666518160087747e-03
-2.307065870553949745e-03
-2.058747456072844949e-03
-1.271776693129472724e-03
2.957066776265444667e-03
9.687276225227388696e-03
1.337248905818864617e-02
1.027359018950177449e-02
3.502762946954226381e-03
-4.732401059913518061e-04
-5.244870780034539999e-03
-6.437009195280154507e-03
-5.272575090205224198e-03
-6.117260747515133358e-03
-6.704749006444975061e-03
-1.018806234963015762e-02
-1.629319669956395475e-02
-1.278482675718233853e-02
3.917583712699133740e-03
1.605390445724366039e-02
1.868034185405683875e-02
1.446042246625455635e-02
9.528783897350163665e-03
7.530696583420977246e-03
2.295852293982630042e-03
-1.557235527602616673e-03
-7.073862556662460256e-03
-1.075869885996985284e-02
-1.095355514893144554e-02
-7.519095880911096617e-03
-3.198176586766166528e-03
-5.581918978530927460e-04
2.740909137089375149e-03
7.078378654672099271e-03
6.290650016063107502e-03
3.076741345253467767e-03
-1.079341147770970094e-03
-6.983974252702962286e-03
-9.501914063710559591e-03
-5.804475608765928205e-03
-2.615274900057692011e-04
3.788701054535793204e-03
7.540129656281515692e-03
8.166734222973292753e-03
4.311750271019479906e-03
5.701052306648636027e-03
7.208432857602023111e-03
3.056334676829761468e-03
-3.251691203507827907e-03
-5.627622702836388574e-03
-6.519284215311912586e-03
-6.211010593451160057e-03
-4.791162940358200013e-03
-4.608360858592330301e-04
1.014493610288150736e-03
-1.330861875820131719e-03
-2.136483719465105333e-03
-1.010671925939558846e-03
-9.565860302813853017e-05
5.006709119288885656e-04
-2.494643285005381655e-03
-1.189127068215535543e-03
6.066860596551616573e-03
8.411160345550013073e-03
5.193799913321315090e-03
-7.465144528135378476e-04
-5.225947236011241684e-03
-5.924954533535422077e-03
-3.307020487097410508e-03
9.054863041327488758e-04
5.104187838903477548e-03
6.575055693764739022e-03
4.858225347291997114e-03
2.058140325498640164e-03
3.003153614118379139e-03
3.199666456713070456e-03
-2.918877873115748815e-03
-9.471120293263551870e-03
-1.102301188465982205e-02
-9.756296435462037328e-03
-8.756085240788656632e-03
-6.524170068862962350e-03
-4.314326296542872995e-03
1.024961531171547299e-03
7.574556056541736221e-03
1.473943643169202053e-02
2.308670508420610640e-02
1.877943785547407998e-02
1.020470949634392534e-02
5.254616590649934492e-03
-3.977128929071646461e-04
-6.634633363963201615e-03
-9.012656371377152087e-03
-1.154757906348336145e-02
-1.768536548877382847e-02
-2.357134193817624762e-02
-2.598008215707392488e-02
-2.842790712703217870e-02
9.921752319113146326e-03
2.529934858265035086e-02
2.247664040701424087e-02
1.887850454135288000e-02
1.463876989547740516e-02
8.745672320336997721e-03
1.769846059704322482e-03
4.340844423383017291e-04
1.288344379774612226e-03
-4.855344795105186705e-03
-8.493320440494306345e-03
-8.267078124070579084e-03
-6.823869794888423081e-03
-3.474036883570745006e-03
-1.259059321327910875e-04
3.152196943173725223e-03
-7.084394050530397726e-04
-2.576854009095403634e-03
-2.142801746023065106e-03
4.773075126067071925e-04
5.045426941506651712e-03
2.807990121102181026e-03
1.060154130399978360e-03
1.628090098355990459e-03
-1.422809426812028134e-03
-2.412371213572454386e-03
-2.054375207096734938e-03
-1.051667915675393418e-03
-8.634701860448016058e-04
-4.818534279420048943e-05
-6.703771668929329542e-05
3.562925175113622919e-04
5.003415912801667141e-04
6.932074724939437564e-04
9.359446289658754446e-04
1.511080151076099696e-03
2.372234005029560510e-03
2.535794920603730903e-03
2.679129085036041288e-03
2.552956813539001679e-03
2.057757087882626425e-03
1.406087753408800716e-03
-6.980149574401603050e-04
-2.776344830373696487e-03
-5.145265722741953519e-03
-8.536024812843637580e-03
-1.165051203963795613e-02
-2.922985515195719759e-03
-3.514981806673140642e-04
6.677143584095233302e-05
2.655061282353055226e-03
7.770205576153189908e-03
9.194631084739253793e-03
7.399476728666000251e-03
4.500425179617106516e-03
3.795131735765033300e-03
3.353703625670348409e-03
-3.826200264342224412e-03
-9.673073796104826941e-03
-1.102517618516784571e-02
-9.625922359167491185e-03
-5.559942057763888300e-03
-1.220136744984444931e-03
3.268094757801581068e-03
6.839653496470783980e-03
1.359098582591170348e-02
1.477471598981191722e-02
8.029365415864148786e-03
-7.816560711299643709e-04
-5.340125366391596136e-03
-6.335201980366861850e-03
-8.091071696971303615e-03
-6.193133383034120018e-03
-4.108878852251095920e-03
-4.788583244839778562e-03
-5.017409449506606868e-03
-1.826795950704532007e-03
3.836418434077502968e-03
3.437510685951042453e-03
6.778259720914557888e-04
2.936647641931335040e-03
4.016098808653732581e-03
3.508751057785055444e-03
5.720888359345149485e-03
5.933933317118120568e-03
3.066702797233752248e-03
-4.444136119182644229e-03
-7.655235746040866922e-03
-8.627815114094708124e-03
-4.707429406354331214e-03
7.977275534717993442e-04
3.043528914113590583e-03
3.890289982397379057e-03
3.357967568546557386e-03
4.966950016496674176e-03
5.362826751340928934e-03
7.264849576029650284e-04
-5.747275873850639892e-03
-9.646500013131846865e-03
-7.630389376007709785e-03
-5.212661645843432064e-03
-3.642665299449638489e-03
8.517765874509482900e-04
3.019212585804632951e-03
5.514789622065875349e-03
1.111286304000634433e-02
1.400725799094094427e-02
9.731652751316472935e-03
2.948701986297182567e-03
-6.118493686162263315e-03
-8.548637261805816165e-03
-7.304949601053448149e-03
-4.859615776676417913e-03
-3.027920090388758027e-03
-6.163381586881619585e-03
-7.115323945382595779e-03
-3.861707284274888598e-03
-1.498317666963157758e-03
2.857915238252395178e-03
7.544519645696577334e-03
8.629054016794623569e-03
6.305165984921504325e-03
4.271626967870625381e-03
7.219406203332862744e-04
1.309782576772806385e-03
-3.839032746601198976e-04
-5.760541359414581529e-03
-5.861578210100906391e-03
-5.627889669595603425e-03
-3.146246625156218571e-03
1.501249998338664848e-03
5.473984544388431350e-03
5.003123075614541483e-03
4.546194229201895240e-03
2.596286189394619512e-03
-3.892270646987580456e-03
-8.668945314887630677e-03
-2.441773345225339148e-03
2.404336769781530159e-03
2.325378555772239335e-03
1.396976982477404197e-03
-2.724847987223897976e-03
-4.309345956132882953e-03
-2.675300888720631622e-03
4.012471214371987594e-04
6.789107545590669819e-03
8.421014958859558697e-03
1.027329791640130621e-03
-5.180181987202396067e-03
-1.525503204803612973e-03
3.726548404220331786e-03
3.841060000015348273e-03
2.166447500467620201e-03
-3.687853307079118478e-04
-2.653180952526530949e-03
-4.910177787118992325e-03
-4.419335840806926617e-03
-2.684206247566284058e-03
-2.837752795768034610e-03
-4.457252013765965887e-03
-4.638697148883878969e-03
-3.194039562926584332e-03
3.593496045824324213e-03
9.529246940124989906e-03
1.100729704559767069e-02
7.305485721895673031e-03
4.087744604757931159e-03
-2.926510815074939188e-03
-7.363480932468190708e-03
-5.773366502057053311e-03
-1.289237509998233683e-03
-4.191419609509521569e-04
-2.255303562193642177e-04
-3.771429440650727141e-04
3.871933449980134029e-03
4.746358262939410697e-03
-1.264891324109895581e-03
-6.083842631826821661e-03
-2.098121458055959149e-03
2.904047851389886747e-04
-1.549169707744618967e-03
-5.226683319407650699e-03
-5.776614466671497680e-03
-2.987197986488528915e-03
3.935316969025987391e-03
1.239560016836340449e-02
1.472930384285411377e-02
9.191491190599905201e-03
8.786629020184655607e-04
-3.600899601641303037e-03
-4.505022579475532682e-03
-4.821382825426438930e-03
-4.147542705966682404e-03
-3.406438817230155423e-03
-3.003758458381473873e-03
-6.787867814098381102e-03
-6.178155305768972920e-03
-4.276453650109487449e-03
-3.362174212867425835e-03
8.946330059742185542e-04
7.517207031808354270e-03
1.112218881552148528e-02
1.014451153760725227e-02
4.383248951556668709e-03
2.621377585201795264e-03
-1.947143935804776689e-03
-9.290343409993509147e-03
-1.330265715943171854e-02
-8.519479000380863684e-03
3.015688810012426800e-03
1.068222482815887713e-02
1.176130318699434955e-02
4.417523960544016311e-03
5.190542401605581285e-04
1.076120497784642787e-03
3.680370283374546025e-04
-3.214788900379630769e-03
-6.857502831402463930e-03
-7.891623397359465164e-03
-6.842504671997775255e-03
-6.055100411746697393e-03
-5.271625140721175433e-03
9.564115370001489936e-04
4.949285651831262893e-03
5.268497783102534665e-03
1.052317653555395575e-02
1.372970407234006159e-02
7.263803057004297216e-03
-1.989096446281214876e-04
-2.900981112857471157e-03
-1.958616565572661016e-03
-3.516599165848538055e-03
-6.831958231660851914e-03
-6.091817438067019530e-03
-5.051348934725462606e-03
-4.972615146002647146e-03
-2.028167789777711970e-03
-1.203309914973375015e-04
-2.057595471451522848e-04
3.358032421350820931e-03
4.796854687068200646e-03
4.303799135993215466e-03
2.840672734877088684e-03
2.739108085708262183e-03
-8.880667093998708414e-05
-8.971125234052734808e-04
-1.673437826239234857e-03
-1.985656730207624107e-03
-3.560274250487246387e-03
-9.744512574971991121e-04
3.696354811887707023e-03
5.915268287304619767e-03
2.195799029872570578e-03
9.387711863611927820e-04
1.074021777420591968e-03
9.149389247172265253e-04
-2.447652532985463737e-03
-8.564635704979022338e-03
-1.210139425988176337e-02
-7.416760769361073653e-03
-3.166064846885303431e-04
1.704709095048811268e-03
3.340977965681684106e-03
7.579522979605922417e-03
6.843466689643811114e-03
9.232357736324355718e-03
1.044592847632862948e-02
5.385813529457561706e-03
3.726803780384722333e-04
-3.318946106897698728e-03
-6.544528809420954718e-03
-6.626118544834199743e-03
-7.559544641797232185e-03
-8.404866546692544085e-03
-6.329982360893363427e-03
-3.626987428047324068e-03
-1.458888753145048262e-03
3.031887371113363601e-03
3.437009291354923245e-03
3.294857346846755304e-03
5.242857043333980574e-03
6.884737020381059835e-03
6.425709028211337714e-03
3.427962348422908256e-03
7.903175450208118095e-04
-1.966382087996748802e-03
-3.814638482620746722e-03
-3.285034278701351972e-03
-5.634018978666699082e-03
-6.208497287499784717e-03
-2.093315088107922648e-04
1.287535209715828712e-03
1.693828469651780986e-04
2.740012395207183822e-03
5.832110858106863936e-03
6.876176093355306461e-03
1.610544350636098493e-03
-4.474789186799361419e-03
-6.055992800592342913e-03
-3.468048106798533176e-03
-1.178864047123838205e-03
-4.433303344013839534e-03
-5.674916102315703120e-03
-2.096461283957621290e-03
5.119854232403809810e-03
9.579160772551628331e-03
1.355874618951511193e-02
1.031015552930970858e-02
2.070554192786271813e-03
-3.131960675231153582e-03
-5.809207428422800967e-03
-7.064783496678370134e-03
-8.276086872207478323e-03
-8.032317591992231900e-03
-7.010964088347870424e-03
-4.313989517950408970e-03
-6.750729540793239851e-04
4.585382989345121278e-03
7.599993380596290794e-03
6.810584200919280948e-03
4.637112731554276883e-03
5.639128209794254214e-03
4.304153505344597563e-03
2.136091004224431253e-03
1.553111648808784724e-03
-1.433107376813588449e-03
-4.243073274660940676e-03
-8.864578494185709409e-03
-1.208523602760854312e-02
-1.297067222524656525e-02
-6.308612134115814708e-03
2.919626843051296452e-04
4.699063891081226019e-03
1.238046968986128947e-02
1.792831731052232577e-02
1.832551740180603586e-02
9.890604789791519399e-03
-3.022058982446029253e-03
-8.929617526769299124e-03
-1.133405802148344278e-02
-1.222960916827046073e-02
-1.010732481235639309e-02
-1.459505943333829631e-02
-1.166331337755961012e-02
4.636336860494091362e-03
2.194465388563492450e-02
2.622272510570058252e-02
1.456686888997541125e-02
1.008136322932368968e-03
-7.285853364540620901e-03
-9.696589852762128522e-03
-1.077056176540832494e-02
-1.044347571783329869e-02
-6.321620178125743339e-03
-1.002631931830902726e-03
5.977393090060561528e-05
1.475095490121621617e-04
7.415416693173337284e-04
4.258725890486013584e-03
7.938197886251999874e-03
7.189200906938154542e-03
5.197110139531391226e-03
2.085470345099829648e-03
-8.128240132763013591e-04
-2.480156279332656685e-03
-2.821598268934320808e-03
-4.950164161595955320e-03
-5.570654402873674062e-03
-5.506434104194025091e-03
-5.732257435548780353e-03
2.236632539301395758e-03
6.586048662586055195e-03
4.800182668391733513e-03
2.741427718573738546e-03
4.728517922018347745e-03
4.684407799575967743e-03
2.920751433721568285e-03
-2.405590240575095420e-03
-8.118479813611330712e-03
-8.613949498037860170e-03
-6.387083287467826449e-03
-3.639610359828907710e-03
-2.892033860945802080e-03
2.473575638735341954e-03
8.983748086120030979e-03
1.253110841848819289e-02
9.746898329249546397e-03
4.106979397568621439e-03
-1.081050708132897872e-03
-3.431372285795916254e-03
-6.046014382566682055e-03
-6.516360544725656630e-03
-5.304303435019089991e-03
-4.665261274546163121e-03
-4.064849642561443009e-03
-2.160337598053713344e-03
2.435290373863174037e-03
4.740851776877623783e-03
3.472249751086669157e-03
3.019917631903605397e-03
3.982423434712734252e-03
4.229551566304078948e-03
3.628721801606516091e-03
6.854259078598123152e-04
-2.118069402277082507e-03
-6.716923056560162447e-03
-1.092162330806805380e-02
-1.513660319016396812e-02
-1.153382416246870670e-02
1.899243738186106971e-03
1.493939440268677622e-02
1.945962021937417200e-02
1.460835633772404780e-02
7.568445270794311487e-03
5.777238928649457324e-03
2.286318645779858265e-03
-4.999427019993584777e-03
-9.338826094015541604e-03
-1.375444374294183640e-02
-1.484529466922658407e-02
-1.361267894432449492e-02
-1.378037223851903345e-02
-7.609504008678074326e-03
4.863899560977804661e-03
1.566117948693252632e-02
2.349384271152108600e-02
2.230688494076355291e-02
1.317421015498936379e-02
5.215746642431093837e-03
-3.313641796439192357e-03
-9.291037469789155748e-03
-1.080834488503168780e-02
-8.981864567336494617e-03
-7.627920164821266717e-03
-1.095966143777185771e-02
-1.060922476990277911e-02
-7.752382345175816251e-03
-3.349412206405187609e-03
5.046786452781909342e-03
1.213531710504567665e-02
1.354687696914592086e-02
1.238832556511021595e-02
7.937941011650453613e-03
2.198347224353815708e-03
1.266700120364629666e-03
-2.058826534832161777e-03
-8.743050927572352735e-03
-1.182911171742169650e-02
-9.249984814125570068e-03
-5.808070522420289566e-03
1.779839029167582486e-03
6.570771613852933318e-03
4.057151504596148012e-03
1.623137159035339559e-03
6.028517859324705741e-03
8.910037537232424337e-03
3.717359963205552585e-03
-4.826224226315243074e-03
-9.114802202494063157e-03
-9.339477966839716469e-03
-6.163477905835559011e-03
-3.622244853267508891e-03
-1.954517887028518579e-03
1.478138128046312637e-03
6.846545021920940645e-03
1.368199915708158236e-02
1.507774087637096978e-02
8.068759365887514731e-03
2.014788727350661792e-04
-4.949508162905165085e-03
-8.071224653340008937e-03
-9.671076873415588790e-03
-7.315481912643517597e-03
-4.010686325110024257e-03
-3.007811055828410463e-03
-2.460415086983763593e-03
-1.988926040432851747e-03
-1.772671380905456884e-03
7.960627868326221107e-04
2.401335751721949546e-03
5.691446927739472229e-03
8.126769917774405785e-03
9.140232146198827221e-03
6.619823491238230155e-03
1.482010506447881647e-03
-4.617649944065937116e-03
-5.772646585983428648e-03
-4.638844048548520713e-03
-6.784302741059669226e-03
-8.325996313866964108e-03
2.576749940083723571e-04
5.898654392114587898e-03
4.371565374530130867e-03
4.717415089933691547e-03
8.185336962615027273e-03
3.959781714461135978e-03
-3.067923226501329155e-03
-7.252084921760168848e-03
-8.142730792030306725e-03
-8.502365590284171812e-03
-7.289379900917912665e-03
-2.714625495012696656e-03
-3.021279997156556117e-05
3.416353684889623325e-03
1.085088862063225516e-02
1.706534873685078973e-02
1.757300187893184873e-02
6.172588726488481038e-03
-4.440742299769811531e-03
-6.767612865978921491e-03
-7.792350285894614377e-03
-5.921580979563739223e-03
-4.240550309283475615e-03
-6.073163733793509808e-03
-9.021583980810410006e-03
-8.014850268049747775e-03
-3.552103939373815744e-03
-3.390210551698050905e-04
1.242187182733966045e-03
4.046165889996481031e-03
4.836494678117636038e-03
6.625800567971703789e-03
9.045763843422463882e-03
1.138612749471687446e-02
8.620009992142291591e-03
2.083444879562349437e-03
-3.877751034526122006e-03
-7.393105908049961254e-03
-8.599230875175041186e-03
-8.560723444025213416e-03
-4.530243670471220847e-03
-9.276540980729083884e-04
7.349072932840322895e-04
3.990399274920535498e-03
5.513689726070196591e-03
3.053002553141770208e-03
-1.980397700063361941e-03
-5.127694740702835353e-03
-8.501435333687572260e-03
-5.685981960841086057e-03
1.623079812109906594e-03
2.848482242907842982e-03
2.023037401933576798e-03
4.357147246911960078e-03
1.257531543566660880e-02
1.761148007677333302e-02
1.311341351355690792e-02
2.780913598475532461e-03
-8.618439432707148198e-03
-1.339738039483784164e-02
-1.618738471379428320e-02
-1.591651555112392341e-02
-1.327562443070564799e-02
-8.884396199888431461e-03
5.183684889047871598e-04
1.107675256334860435e-02
1.561633820210028833e-02
1.293444590895386111e-02
5.952709881681888561e-03
2.009248035533734746e-03
9.482663456167821732e-04
-1.374375491043808642e-03
-8.840961674778650319e-04
-1.153683750457195050e-03
-1.343908708868558899e-03
-1.843549155129443678e-03
-3.348381195489854439e-03
-7.009429806621714047e-03
-8.021806615546913169e-03
-4.322059849830934414e-03
2.341524174705166342e-03
7.320390184815961550e-03
7.485771718029508685e-03
6.869685477195039067e-03
6.132882897931441098e-03
1.647711570641466859e-03
-3.667886977147860432e-03
-5.842002663828719210e-03
-7.323735301981107275e-03
-7.521731495797144909e-03
-6.466988741701712971e-03
-3.442391555173824821e-03
8.762893196497758717e-04
3.346386264110393083e-03
6.744962168218006544e-03
1.121995161657713368e-02
1.291624423796318422e-02
7.794240696261299506e-03
1.556906912654787076e-03
-7.127569717480251909e-04
-3.385022088863320899e-03
-6.837478043317502495e-03
-9.573857750417124127e-03
-1.065105106535835060e-02
-1.150062145745264948e-02
-7.685583764077252161e-03
1.483609379558483050e-03
4.242747598113839544e-03
4.284163317738405585e-03
5.176921427174093100e-03
5.467644617589227825e-03
7.973343709750035577e-03
5.883664139952134338e-03
2.283583947863856468e-03
1.451405571853462383e-03
3.131637406699905465e-04
-2.247066104122824332e-03
-3.551588305917046523e-03
-6.584125027327290304e-03
-8.540592817169149684e-03
-2.961437261243675921e-03
2.814463297249576528e-04
2.755936989133579360e-03
4.956262814200017644e-03
6.758820373618274792e-03
4.978853732940740316e-03
6.933225020734596440e-04
-5.184793322337676556e-03
-6.108381953857793499e-03
-3.171732348263569048e-03
-3.433213841180563636e-03
-4.658763602867379075e-03
-3.107262827881135132e-03
2.092757863343717799e-04
7.608902585012302343e-03
1.314031751188655082e-02
9.449036495256371571e-03
2.428982010134251614e-03
-2.503403475302999615e-03
-2.534816238306284927e-03
-1.866997192025197407e-03
-5.634356850960964324e-04
-2.011947094315739721e-03
-2.383300200271425400e-03
-3.438314476733580604e-03
-5.349392010622012507e-03
-5.324555234498132630e-03
-4.933599859486595927e-03
-6.147420107584483651e-03
-1.278115006572932977e-03
1.982266802690299101e-03
4.196437231774279367e-03
7.908958811339390424e-03
9.238525561640457268e-03
9.920102596904357625e-03
6.463187108293670484e-03
2.050529614818879555e-03
-4.141508777334990989e-03
-8.545420945589956782e-03
-7.620159075893564483e-03
-4.709483961524401317e-03
4.940389918657695596e-04
2.189359880433145757e-03
-3.899874367924586528e-04
8.412450952250612483e-04
4.815591629124126201e-03
1.007370092520113803e-03
-5.239201895547812744e-03
-6.445553836352224154e-03
-5.057117248615267124e-03
-2.919998667511190457e-03
1.154086963950816218e-03
3.293847615907423507e-03
4.175177277850998687e-03
6.575222263235553505e-03
1.033537704950283562e-02
7.938465108130570921e-03
2.062842423211769943e-03
-1.120911377865793819e-03
-3.532939892963122847e-03
-5.250434230919066858e-03
-5.712875223755018057e-03
-4.928990928099247042e-03
-5.602401882264492275e-03
-3.664765060780693362e-03
-4.295790512550359645e-03
-4.226032383547494338e-03
-2.890102475310843606e-04
3.549262699582742941e-03
5.790836803314941203e-03
8.308387809601879004e-03
6.109877845902566412e-03
3.350578084686017637e-03
1.119321465390211989e-03
-1.039170584841839738e-03
5.207368582731884644e-04
-1.711791704170202450e-03
-3.818387831143095663e-03
-5.859832812286161659e-03
-6.227745916909758865e-03
-1.337920086152803029e-03
9.420968775571291918e-04
2.196511011110610211e-03
6.135355406409431604e-03
9.132351628595852810e-03
5.106690871444860384e-03
-2.269966300405762763e-03
-6.439106846158322225e-03
-5.736251403963492368e-03
-5.068955904983706018e-03
-5.847013012282522952e-03
-7.206115583104668633e-03
-5.402404917236686317e-03
6.881152028677541650e-04
9.105377283366512114e-03
1.846237927704528353e-02
1.710977759341381077e-02
9.689419346017117199e-03
-1.014690834216743810e-03
-7.653488615657481550e-03
-8.213129516672603575e-03
-6.300817212096426582e-03
-6.701456707318022461e-03
-4.071025008436922853e-03
-4.288446286498817303e-03
-4.461717800057392325e-03
-5.441103558588258199e-03
-4.654091055486766181e-03
-3.746246128008287515e-03
1.474454148471929021e-03
8.813432005854748494e-03
1.196114180917753032e-02
1.039617803990596119e-02
1.242586363095787849e-02
9.240287158509632309e-03
2.377534243030401083e-03
-6.800786150760520891e-03
-1.572917277356165183e-02
-1.681577144464154600e-02
-1.101661364355158677e-02
-2.187264897101079582e-03
2.305162320384646253e-03
1.189486297890035137e-03
4.519344827367897916e-05
7.783803752750994946e-03
1.756719982915413980e-02
1.580472825186586203e-02
5.649961122882618363e-03
-5.814256267564879392e-03
-1.352075939136320425e-02
-1.257908110102432843e-02
-1.062717925722594242e-02
-7.378519373758762705e-03
-1.485050721843563133e-03
7.174891871776888606e-03
1.230794462049058201e-02
1.066546286473815663e-02
6.621972130740952193e-03
1.802624434261537387e-03
-3.327823546257856050e-04
-4.093982662647550029e-03
-5.833428413653221796e-03
-3.549018458286033826e-03
-3.283769037141177037e-03
-3.707778743535120308e-03
-3.744027792432670296e-03
-1.347442645095347710e-03
2.372174540264266381e-03
1.923496797167784491e-03
1.463554635976911482e-03
-1.233726689520856304e-03
-6.548352503109002715e-03
-2.343896398943219866e-03
7.335586914338801563e-03
1.431075114779232528e-02
8.395913173669122126e-03
-1.700989913728964860e-03
-4.249198775858761823e-03
-6.772123153885793549e-03
-6.900656959566067901e-03
-2.288505215339054454e-03
-3.752556611702701828e-04
1.299306861018820550e-03
4.415256669745988051e-03
6.363924862854927235e-03
3.300697877750752730e-03
-1.918994642756606441e-03
-4.773337574961900899e-03
-6.244066082200217492e-03
-3.507498387177114541e-03
-4.125151777375483941e-03
-4.224814949817234759e-03
9.688215875571685272e-04
6.450721328366063045e-03
9.488462707016569880e-03
1.282708809601244490e-02
9.281225702445586659e-03
-7.103195655099185700e-04
-5.412284454099242428e-03
-4.974059192138578778e-03
-4.855773271226744049e-03
-7.272206742676110523e-03
-5.996750670981608293e-03
-4.515637514284033191e-03
-5.348042288247272305e-03
-5.322169103617232708e-03
1.514709508675016539e-03
4.655777186100194982e-03
4.431424175975960146e-03
3.752626780531301276e-03
3.212542660503886482e-03
2.904694185852336324e-03
2.871667106167407821e-03
2.337627788119587494e-03
2.913021049727836445e-03
3.259305898642288722e-03
3.371463378932545822e-03
3.524153260851591116e-03
2.763525227735064930e-03
1.978963572214591498e-03
-1.959451562273170481e-04
-2.785824196498869372e-03
-5.965943732403495951e-03
-1.120267746641587063e-02
-1.636550964627599136e-02
-2.168136460939295088e-02
-2.501726728526786764e-02
5.105598114311367917e-03
2.129749188252234859e-02
2.025220507499125161e-02
1.341652843309035920e-02
7.124505103097675089e-03
4.254174372486366727e-03
5.893782869316173921e-03
5.541236096361847052e-03
6.048803404556779735e-03
3.464809204641711247e-03
-1.804571618881649743e-03
-5.730712673247495732e-03
-7.804583855416818462e-03
-1.085533577479773706e-02
-1.080149823304629719e-02
-8.380439210161410787e-03
-5.931264812353062750e-03
-3.727565208322905325e-03
-1.200228720588469335e-03
2.291401035532413585e-03
3.021895847362975496e-03
6.160045517003972897e-03
1.095292891595449174e-02
1.468029029134126397e-02
1.005126967390752163e-02
5.036127855215945422e-03
1.305322154743744439e-04
-7.063340017345436268e-03
-1.221854272046718481e-02
-1.389169308122328514e-02
-1.092699919038102839e-02
-3.374185044704428559e-03
2.719376990396604889e-05
3.045121351670290570e-03
1.339682230959003684e-03
-1.533411285922073927e-03
-1.313009922225859445e-03
3.898546807743894470e-03
5.229015591195837996e-03
4.541790500575016744e-03
8.939643359492781619e-03
1.749399470166423942e-02
2.614043575042573897e-02
2.980514101788255855e-03
-1.220270147519467857e-02
-1.670668829053521473e-02
-1.527297904199020548e-02
-1.135774620547017229e-02
-5.732513040721640314e-03
-3.485385170972057391e-03
-5.009781160279898338e-03
-6.157644656612760135e-03
2.256538194910727413e-04
2.465218829546482211e-03
2.994416508121221926e-03
4.750324174645784159e-03
5.502952003009486080e-03
9.275614139064610256e-03
8.013753155287767216e-03
3.846546205514546519e-03
1.293804026579556225e-03
-1.895275311050285440e-03
-3.146812825063267840e-03
-4.520458767193073595e-03
-5.075243727751545773e-03
-3.609911386901387166e-03
1.801835742623440068e-03
1.306464367485833666e-03
8.966382552953923056e-04
3.803554464598063803e-03
7.301298526963014360e-03
7.751683901662830868e-03
7.668627263610138618e-04
-4.132177189309193220e-03
-7.462828159506274851e-03
-1.031368574977296372e-02
-8.085528201199598461e-03
-9.414267499802215708e-03
-9.170459808573538582e-03
-2.815387907457063410e-03
2.900839465816213401e-03
8.535866262082808173e-03
9.576645885310595616e-03
1.168246452254241043e-02
1.587372475075259082e-02
2.112320222508062839e-02
1.047616198904006285e-02
-3.770018379148767050e-03
-1.514122173521121467e-02
-1.731775854330290521e-02
-1.525062166655761532e-02
-1.491934972455490407e-02
-1.141791166160672187e-02
-4.819292416444129375e-03
3.788878850528626559e-03
1.092217622134032326e-02
1.343357182613363204e-02
1.170464608829351570e-02
8.718704181512578269e-03
5.170165416631326664e-03
-3.863193860101461958e-04
-3.295496962817793564e-03
-2.868609562115748308e-03
-4.666907186951212844e-03
-6.458247769697282765e-03
-9.199549390789946851e-03
-8.185355943030598116e-03
-1.441974514702999352e-03
5.689965535329801274e-03
5.583530386642835547e-03
3.117791444636858113e-03
1.020613516498482080e-03
-4.442441862157814531e-04
1.857570528164835012e-03
5.535140034750968621e-03
5.112799138667408622e-03
2.713159543018910363e-03
2.721019054156234920e-03
1.932912794776287598e-04
-6.010564306502976135e-03
-7.422227094854786343e-03
-5.946730139280152413e-03
-5.465661959472817299e-03
-4.206429555072517708e-03
-4.357327215251769782e-03
-3.832871142696874997e-03
1.124939717706031905e-03
8.003925759197009354e-03
1.640673431107887367e-02
1.522869125176588671e-02
6.003010649395971489e-03
-3.961641884555566935e-03
-5.997715716169509798e-03
-6.088794301401280473e-03
-3.188951964693004064e-03
-2.332505936309541526e-03
-3.484147592832911172e-03
-4.887844545999120612e-03
-4.740856811374955827e-03
-3.176798107927644894e-03
-2.421423010929361821e-03
-2.068893387030105915e-03
4.113662527111684730e-03
7.576664342058711532e-03
8.018892713632055913e-03
6.665164072937457621e-03
3.513819819068291113e-03
6.907569886794002285e-04
-1.060090736356514469e-03
-2.382760654917634815e-04
-1.602413952870266212e-03
-7.316584877007508390e-03
-9.318597267255755365e-03
-1.037695841762531317e-02
-8.224430392215108937e-03
7.742315805272383762e-04
1.062806563935671245e-02
1.776559481100296184e-02
1.446570739384157867e-02
3.348184320144258035e-03
-6.290354387860945355e-03
-8.240822045076930114e-03
-9.449084803368283311e-03
-9.107358872445873652e-03
-5.211998160684912229e-03
-3.595580650171395693e-04
2.679426210518566498e-03
8.895871526692373382e-03
1.593771136080721074e-02
1.228277274854713656e-02
8.968693936728335979e-04
-5.638901993389303091e-03
-8.309099906578010925e-03
-6.849734883306968052e-03
-4.161202389916848939e-03
-3.247068462624011671e-03
-4.614365651879244641e-03
-4.135913039159740297e-03
-1.903224661457074245e-03
-9.690895667442304484e-05
1.428755720042330316e-03
2.998102978413788242e-03
4.949453064632712736e-03
7.471274315789863847e-03
7.541148566294775951e-03
4.412495067826405735e-03
1.900165572554535567e-03
-2.606085754644102588e-03
-7.000610123055281235e-03
-4.916394994733270726e-03
-3.422099032120780489e-03
-5.624996532031678424e-03
-5.940512085730230429e-03
-3.369121571099861941e-03
3.688175253318902447e-03
9.033105731239663913e-03
1.056770948653299423e-02
8.765514222718959886e-03
3.619048655288148973e-03
-3.069576918170211811e-03
-6.464181784116253097e-03
-7.997645357280229114e-03
-8.348540381695334842e-03
-5.454794317122072314e-03
-4.584178553524886901e-03
-2.162176465526308503e-03
2.627211173705282753e-03
7.836514856632262674e-03
1.073413584485394430e-02
1.146434256174390029e-02
6.792500706622444512e-03
3.338770068119552444e-04
-6.413973111812325137e-04
-3.659246460257391774e-03
-7.224380404899351758e-03
-7.673652420832207180e-03
-8.473005918153501612e-03
-7.240133158623094853e-03
-3.676006570544376392e-03
2.264789990674681737e-03
6.096384741465315192e-03
4.592041226890475857e-03
4.014664981937535876e-03
5.459109804681269718e-03
4.691305193169598153e-03
7.606431272242237520e-05
-3.003015026503075280e-03
-4.659603630149646014e-03
-5.624949919870401820e-03
-3.436200135214913416e-03
6.937993916410850571e-04
1.567553648863722043e-03
1.137894180244916186e-03
3.316383106334004106e-03
4.510165932177834930e-03
1.707840063681009650e-03
8.722157250868777705e-04
3.209599280704990981e-03
2.426946016777172237e-03
-2.293368321524091695e-03
-5.220252562528107307e-03
-6.886563422541447203e-03
-6.761488746963317115e-03
-4.775025024818429879e-03
-1.624021955670995263e-03
1.987874826671113225e-03
2.294348154426370003e-03
7.263239007839438627e-03
1.248469610979857126e-02
9.868147063988598131e-03
4.623577812306747608e-04
-3.402308674852448818e-03
-5.113181508805954463e-03
-4.386320572399004906e-03
-3.207065574833479257e-03
-2.311405060719455389e-03
-4.536099678954056205e-03
-5.812135028701970012e-03
-4.471944434492673877e-03
-1.099298910083036564e-03
4.212195995729076624e-03
5.596227167836331264e-03
4.071289117983908738e-03
5.703058502890821432e-03
6.951101220217592754e-03
4.584554465988614248e-03
4.122575803503311805e-04
-2.987781563506722304e-03
-5.011914676882439114e-03
-6.722708369053224595e-03
-6.422287231782977841e-03
-7.282549461560584164e-03
-5.142025529067235055e-03
-5.673527760341087441e-04
1.747442675172974479e-03
2.735423866262134355e-03
8.487787019970145438e-03
1.529061047330251312e-02
1.266996751550918468e-02
1.852359483206140502e-03
-5.454590043474301896e-03
-1.025077055189064883e-02
-1.296189635410563076e-02
-9.618209292199612556e-03
-7.413222451512792126e-03
-2.727901839104989075e-03
7.121426399107952561e-03
1.259223940823076676e-02
1.602631974826985647e-02
1.197016076053559336e-02
2.746967197275036049e-03
-1.989060984226170142e-03
-2.174785856593395867e-03
-6.405992713295599779e-03
-8.575626949179572869e-03
-8.002628536885426219e-03
-9.881934488381980894e-03
-1.124504563977772077e-02
-1.057880254498050170e-02
-5.549193865757154343e-03
1.487114218406277322e-03
1.078497859307147796e-02
1.938959978821266222e-02
1.943755146766321107e-02
1.187439820128856870e-02
3.089639447414651262e-03
-1.797494671631308903e-03
-2.746058601925560616e-03
-3.713389751716941398e-03
-8.215328590547559678e-03
-1.046099226247249395e-02
-7.699068375764144510e-03
-5.090812744726835003e-03
-5.985725812323586985e-04
2.197289607572852979e-03
1.723816347464896242e-03
-6.766021484795371483e-04
-1.460633863402654845e-04
-1.750660266763666081e-03
-1.877149932152261027e-03
2.294543167043583843e-03
6.677094219182171282e-03
8.964949958629696292e-03
3.899127955807657475e-03
-1.017124100038543748e-03
-1.536594632353093350e-03
3.186908033700851586e-03
4.506212269281376602e-03
4.436354285061829168e-03
2.395283015934328730e-03
-3.253657731804621752e-03
-1.015039121299979655e-02
-1.558659416294745810e-02
-1.542790656194665579e-02
-4.719768405273323635e-03
7.968300516888737750e-03
1.274385634546448993e-02
7.537615141364763759e-03
-2.287027508434602758e-04
-9.770227948818904773e-04
1.453917994426800336e-03
1.092595836900716287e-03
1.120614195954096511e-03
2.119759238120304430e-03
1.612406775070774744e-03
7.752345209238873302e-04
-1.052730754408251566e-03
-2.705874724740323783e-03
-2.105028367826597413e-03
5.404686564491498158e-04
-7.751919691784137914e-04
-3.052801663895451153e-03
-5.427937339807838851e-03
-2.917201909850121368e-03
-1.070395218092607802e-03
2.030061291388571363e-03
6.913789135796541592e-03
9.360672621811554073e-03
5.737823754426953603e-03
-7.461029014297176605e-04
-5.533933131843322278e-03
-5.007143536364983168e-03
-2.129236628332600856e-03
-2.476174786894547609e-03
-5.995055383097175512e-03
-4.714678493021305129e-03
-1.408122365877769095e-04
4.982925759988882618e-03
1.247322500510244202e-02
1.039782654744507429e-02
4.054560897954491601e-03
-8.067558261504339081e-04
-3.315711930203003432e-03
-5.639369284070714847e-03
-7.630474460028059853e-03
-3.307804369953456884e-03
2.061872981252197735e-03
-2.493347751465879573e-04
-5.033860494361499030e-03
-6.120415469228267062e-03
-2.635001691702301002e-03
1.754378838467164853e-03
3.100491588229532282e-03
5.558466383920610335e-03
5.353460759909804342e-03
3.741268912772374895e-03
3.796707798523230905e-03
2.626902395518940919e-03
-1.459280935173373067e-03
-3.915899574279460386e-03
-3.571602816396070215e-03
-5.679412173621059372e-03
