-4.019047695865210490e-03
-2.192743381169531738e-03
-1.159926686665996558e-03
-2.631052896057287874e-03
-7.230451766891887386e-03
-8.698923476971468297e-03
-1.532939769304107649e-04
1.125978852271748189e-02
1.412325480808105174e-02
7.697447767860800608e-03
-9.832200070335234306e-04
-6.877872936621650182e-03
-7.396888187246373689e-03
-1.179801629563941631e-03
3.514306613072092252e-03
-6.626587590567259997e-04
-3.819135170351324604e-03
2.104186056268333820e-03
6.245978791019707321e-03
3.545372118024637484e-05
-6.479212069547219364e-03
-4.160544602775517395e-03
2.554958998365166982e-03
7.865254442281552003e-03
5.824772260488310371e-03
-3.463395969372727568e-04
-3.601357859606600220e-03
-6.798736104163979194e-03
-8.511153885591399293e-03
-3.179343180180881773e-03
4.083768003611350575e-03
5.270135633117531068e-03
2.440412183591111808e-03
-2.048355987461468030e-03
-4.786310896759535770e-03
-3.605478301741070566e-03
4.317395660504476655e-04
6.080955526482979476e-03
1.099902895841163575e-02
1.052499087687233659e-02
6.687804999328252412e-03
1.348508916530787461e-03
-5.466803224461897967e-03
-1.219715609282771319e-02
-1.176697330693792821e-02
-5.766714385041615820e-03
-9.372263688458633453e-04
-7.759579090371557415e-04
-9.625190968035393646e-04
-2.335864547522738949e-03
-2.817369243322507665e-03
1.814174240041741687e-03
4.634878326508349265e-03
5.722191273876780365e-03
1.046741039855476549e-02
1.614277692855283983e-02
1.098553996045711217e-02
-4.282600645775111459e-03
-1.293720071675616770e-02
-9.095193998763071927e-03
-4.722190912304091021e-03
-4.903209812648859182e-03
-7.835922571424201732e-03
-8.947878786880339788e-03
-3.644663451932898032e-03
3.376990055758081598e-03
1.032848826065930516e-02
1.343801560062727642e-02
8.774086142267311164e-03
3.074386508456023511e-03
3.166144921711374510e-04
1.110181367859510663e-03
-1.981528387633816897e-04
-5.904894549147297889e-03
-9.145016437297233750e-03
-9.450781551255504898e-03
-7.866312478452101159e-03
-3.438689272700627252e-03
5.710051214730766864e-03
9.559077918320623563e-03
2.965631879489898266e-03
-1.830527395287545513e-03
5.248712309743820865e-04
3.155544827128761894e-03
5.568425522054980085e-03
6.940664300808863964e-03
3.987189847191135311e-03
-2.013751333367440246e-03
-5.822366963983443243e-03
-4.483783833379559672e-03
-3.879863899264551601e-03
-3.614885974890170734e-03
-6.141146196639341471e-05
3.266912452192400566e-03
1.208824192613078968e-03
-7.096111179359770524e-03
-1.180393665544378703e-02
-6.106767641425850726e-03
4.297201367361229603e-03
1.294227452980016915e-02
9.990812820030042091e-03
1.145535092893776915e-03
1.673402679287067888e-04
8.274588752397688679e-03
1.109415527677657352e-02
2.471721003146943717e-03
-8.499719807337210303e-03
-1.333806600063272736e-02
-1.011245873929969910e-02
-5.418564797333699778e-03
-4.303040815553729748e-03
-3.396580970867496812e-03
6.902316596433849712e-04
6.782655939289877929e-03
8.980796646493432664e-03
6.569138292107750722e-03
1.414959404939410918e-03
-2.647590010499908681e-03
-3.330173489282637917e-03
1.089138193408780412e-04
3.509064583554596245e-03
2.845807859538448774e-03
9.493038974385476034e-04
6.438608486418535186e-04
1.703126324479012571e-03
1.620406658103271330e-03
-2.705767810062216939e-03
-1.023543746293771421e-02
-1.181595320054628154e-02
-2.387808142671162589e-03
6.653778057754609204e-03
4.086006085361968895e-03
-1.769999859326778537e-03
-3.199172332311775880e-03
-5.779274557826637789e-04
4.942052238798845011e-03
8.375492290184584701e-03
8.070829410162263379e-03
5.098439117403243126e-03
2.006548749596440237e-04
-3.304355871796112436e-03
-4.856365258449615516e-03
-6.645397000181575177e-03
-7.958697446307703288e-03
-5.174955649565588997e-03
3.051342272469548516e-03
9.230019220866303442e-03
5.884820639322119358e-03
-3.004245472403585440e-03
-8.869896743572244086e-03
-5.732340542033731098e-03
2.014991597664357939e-03
5.552076802638184622e-03
4.597811757908976289e-03
5.395564840031267032e-04
-1.433552581183054203e-03
1.911729987120433006e-04
2.487282954655888143e-03
4.347211473798725211e-03
6.333194501685389735e-03
3.357935346698052038e-03
-6.306888258347842328e-03
-1.309006316712577576e-02
-1.137449620823495315e-02
-2.240513492260576018e-03
8.213479825055059955e-03
8.564420937864494071e-03
8.299473770578126401e-04
-1.518822350926619328e-03
3.856224156040872608e-03
2.206237277936630090e-03
-4.585201008747839813e-03
-4.718119673578926795e-03
1.701712750146810310e-03
2.965790580510066499e-03
-2.419458131600655485e-03
-7.566322478021260053e-03
-5.600825170648662983e-03
1.942387598981136238e-03
9.085334292286917357e-03
1.486643626471425422e-02
1.205046022052777555e-02
-5.076312253772309081e-04
-8.242664578906398753e-03
-8.183648868581323149e-03
-7.418718742803436308e-03
-7.065558912369202318e-03
-5.012796504793136029e-03
-9.535652467806015643e-04
4.223321691158620286e-03
6.140244502865436355e-03
1.502257736562354843e-03
-2.754624112606183280e-03
-1.524833683363530003e-03
2.204328924988909009e-03
4.519129461415772112e-03
5.000797421427847014e-03
3.672040545201352927e-03
8.448575015313269584e-04
2.213823040727760144e-05
1.492985538080910182e-03
1.116866932857800768e-03
-7.535391722569233404e-03
-1.624070559384083873e-02
-1.265074528130207508e-02
-1.502855177730095821e-03
4.378692603177023954e-03
8.033213671722952420e-03
1.233589424333353217e-02
1.633142059372659841e-02
1.355464577657758754e-02
1.952242962626956745e-03
-8.327726765787699451e-03
-1.262556094680363297e-02
-1.313198373802147018e-02
-9.570584522538651273e-03
-3.006197529831465976e-03
1.868225261808997058e-03
2.985264387090645188e-03
3.338317923925595686e-03
2.122843900960969150e-03
-8.566315760823993181e-05
6.416408188771966989e-04
-2.460963151124543908e-03
-1.685425768980326408e-03
5.306707713159419457e-03
7.697691317196384171e-03
4.400030474436847534e-03
4.973623846037260147e-03
6.132320076148931043e-03
1.517766019056458054e-03
-7.608957803129907591e-03
-1.403439255442566480e-02
-1.038028901911667440e-02
-1.912378130313717884e-03
5.214411240207380421e-03
6.399569357552573404e-03
1.037752726928897577e-03
-4.127103544008859683e-03
-1.872595448566092592e-03
2.374126325825785030e-03
7.534788240394353458e-04
-3.452970446820825216e-03
-3.916485542623340289e-03
3.400343099502847483e-04
8.445974703015677112e-03
1.218573427417089794e-02
5.609801507922697154e-03
-3.520539186642960682e-03
-7.920771018319481410e-03
-7.492056715449123099e-03
-4.432604296016182631e-03
3.634580109925916996e-03
1.039180529762651420e-02
4.951214895582322501e-03
-4.795135113034952774e-03
-7.583103712277031519e-03
-5.863726570219353167e-03
-4.358077074174042040e-03
-1.399632466922199031e-04
4.696392642680251653e-03
4.557801068704281193e-03
1.333166086687699765e-03
-2.173151383672661686e-03
-2.246201152200781245e-03
2.683788364905410461e-03
5.934983974674837813e-03
4.474198909597466335e-03
1.358147164833373600e-03
-3.420574138162603330e-03
-6.522468129133222360e-03
-5.378201749384038319e-03
-1.085111731168799266e-03
2.205237591743289000e-03
2.323892659581645957e-03
2.747642797082797562e-03
3.597326688322112064e-03
4.080534017386889915e-03
-1.016178213296542714e-03
-5.761267711564823160e-03
-6.351363471358215974e-03
-2.177957076786119460e-03
4.783395387314749898e-03
3.411124715219301506e-03
-4.714603872124022133e-04
-7.305891117622110523e-04
-8.430661760811762866e-04
-4.896822502521340839e-03
-6.913395494797316965e-03
-4.889953498313999274e-03
1.180425192464979855e-03
1.327281687591815897e-02
2.296935395958914564e-02
1.405461574373315960e-02
-4.215227765693817588e-03
-1.312582540348654174e-02
-1.089209232985788485e-02
-6.849842390614866924e-03
-5.579074210298711443e-03
-8.731569756935411708e-03
-1.182804010265342716e-02
-9.299948868065647731e-03
3.363742134246725576e-03
2.105871101902364109e-02
2.676346091030416818e-02
1.350153040491444863e-02
-2.541767058677435204e-03
-1.055364093512007641e-02
-9.666981004712995457e-03
-3.306903181196727253e-03
8.183147570271702247e-04
-1.797039594724777947e-03
-5.124074509416047703e-03
-2.511299766353323071e-03
5.080004454019178099e-03
4.042943924742904878e-03
-3.187545382587594813e-03
-4.086099549346114759e-03
-7.578582561118006383e-04
-6.334002053792978787e-04
-4.507460431465545501e-04
5.195369645195268768e-03
8.742775605656172289e-03
2.475012836954555099e-03
-8.207173666560336339e-03
-1.028209734254044092e-02
-6.608508959024225402e-03
2.534644781308757668e-03
1.181592741919785042e-02
8.712808133650207926e-03
6.712641548579103244e-04
-6.098204379397557072e-04
5.302890321539393192e-04
-3.005688076296661546e-03
-5.350309257657351325e-03
1.281929010959483820e-04
6.336472686975014312e-03
1.159271868398671461e-03
-6.901207185812442170e-03
-7.643019934551102332e-03
-2.285663818374270538e-03
1.412013536547611619e-03
-4.750269655040461540e-04
-2.091635873260599358e-03
2.731447940755256810e-03
1.009570181606939121e-02
1.106481208063064131e-02
1.578648058357858246e-03
-1.037789490195947101e-02
-1.423693978295508325e-02
-8.597981812244817612e-03
2.127789177962649114e-03
1.122540300694323430e-02
1.196348233668525878e-02
5.681079020767759377e-03
-1.414986136434960139e-03
-4.349598150443091671e-03
-1.814676892596769594e-03
2.617448030752220298e-03
3.095676585597108028e-03
-4.156273444820227244e-04
-5.793073230688557812e-03
-1.210776721592325168e-02
-1.428443723416175648e-02
-8.903202660767241955e-03
7.578327049614272913e-04
1.295220289090997373e-02
2.058726974050762229e-02
1.594404602041710542e-02
2.419007923601865489e-03
-7.920691801089271844e-03
-8.985023719444248935e-03
-5.998034226137812647e-03
-4.506334158073541096e-03
-1.981248791892537778e-03
3.946584891518960594e-03
7.252099680229038593e-03
5.574550383955579301e-03
2.815767012878580850e-03
-2.299682625148086884e-03
-9.506724526225559038e-03
-1.135118045666843982e-02
-6.463924335368563881e-03
-7.829796782131957268e-04
4.039439934983225095e-03
7.579861701581726979e-03
7.738703740669883487e-03
6.839085867917437528e-03
6.283606034625289355e-03
4.112891477921879618e-03
-8.720751246135125846e-04
-5.291056504314718169e-03
-9.724777164414189282e-03
-1.184474754014280297e-02
-1.053178401449217198e-02
-4.046872183017715535e-03
1.978891860582913346e-04
3.178925899553519761e-03
9.827022533076870334e-03
1.711713849356500186e-02
1.726715143827218038e-02
6.128778374883040933e-03
-5.517597119602554376e-03
-1.087637283678365152e-02
-9.568179380413429497e-03
-7.466954840629177852e-03
-7.383343778759100286e-03
-4.023520916539004462e-03
1.822381982566445829e-03
4.805063257831422921e-03
2.489183565368573853e-03
7.838048759965542719e-05
9.491340464305810833e-04
2.830806333330355019e-03
7.109355162616119717e-03
6.922947064546868326e-03
-1.394600216155228011e-03
-6.258213043103357139e-03
-2.954294417223985499e-03
-5.040516103714371386e-04
-5.028435205984341932e-03
-5.707787969638410119e-03
1.720896075003162506e-03
8.708198108146486885e-03
6.709365140060491103e-03
-2.592759542686210675e-03
-8.661314027602957932e-03
-3.702166175186340485e-03
5.739387095527133387e-03
7.628613399947044467e-03
3.972460404571850554e-03
-1.845274951945848150e-03
-7.352752893795273630e-03
-9.617100717324567755e-03
-1.012837056575410614e-02
-3.968155240368628767e-03
1.087912530205447509e-02
2.253620287247049686e-02
1.835282876564175991e-02
2.758052882123360455e-03
-1.555506540638150297e-02
-2.393069556086055774e-02
-1.596951636544056280e-02
-1.291839988636271728e-03
9.263328146952867770e-03
1.248598142810752355e-02
1.172354831384389909e-02
7.722724299358438467e-03
1.222321228149319487e-03
-6.130228789971909654e-03
-1.040296822149079994e-02
-1.086937353695000864e-02
-4.054770473927051325e-03
2.989868690269953302e-03
7.183711327149981327e-03
7.126289408527178293e-03
3.249074685580303698e-03
-1.574486311347612130e-03
-1.417859413631858845e-03
1.256282777463658615e-03
1.396902907630217724e-03
-5.454853654954528721e-04
-2.736154653765095635e-03
-7.142327832838061066e-03
-9.156556848944490817e-03
-8.019271231204413812e-04
8.513631714788312543e-03
9.846717781167380404e-03
5.548511247656980755e-03
1.063170028477371476e-04
-1.537179935068289354e-03
-3.140694611604136124e-03
-8.315547775375246170e-03
-1.259292458436173621e-02
-9.988087985467868427e-03
3.638521914536897630e-03
1.775906703147737270e-02
1.877073079902618485e-02
5.710158107345184725e-03
-1.963289532812630394e-03
-2.206842012627135703e-04
-1.981350516852450807e-03
-1.101061842275245090e-02
-1.565401182681518122e-02
-7.597390968113961265e-03
4.558320294356207197e-03
1.162679489252499594e-02
1.207647808591541354e-02
4.095048402601850733e-03
-5.714662165137102470e-03
-1.103418691370658400e-02
-1.086765290767654352e-02
-4.052900383433923406e-03
6.307363874032075740e-03
9.328360283760356308e-03
3.577224508372399241e-03
-2.019607948247308885e-03
-2.831787719456895207e-03
-4.023437553981089668e-03
-2.856188845137828600e-03
7.342523326481275280e-03
1.826014765319340302e-02
1.652188420587941825e-02
-3.178772035188541598e-03
-1.914821250326080929e-02
-1.502877526229744881e-02
-2.369413185633978142e-03
5.324562576766830174e-03
7.247116297103935699e-03
3.851164631218995278e-03
-7.270856596886535878e-03
-1.750432489707522826e-02
-1.698427862897387147e-02
-4.218092449198127154e-03
1.542792717182583234e-02
2.528970554835830234e-02
1.600830517797829228e-02
2.305065206719398348e-03
-4.641559375911933488e-03
-5.740708437206555430e-03
-5.287379069393647116e-03
-3.936646800218882719e-03
-1.137324156092701152e-03
-3.123450944410130123e-04
-2.138180087755878461e-03
3.434048245128728063e-04
3.571350646361378962e-03
-4.287327877000681234e-04
-8.327081138772386010e-03
-9.152460954037058838e-03
-7.736929070416812167e-04
9.944548549567144499e-03
1.339409576473595508e-02
5.001939868295783749e-03
-3.785482119592530493e-03
-3.355414816566140365e-03
-5.760714158178866819e-04
-2.009938199216720553e-03
-3.230432934231493910e-03
-1.484943023481001068e-03
1.862277063355310708e-04
-3.119710086969033983e-05
-1.811073915705869487e-03
-3.451818545175235845e-03
-2.794644096323873131e-03
1.400111467179678514e-03
7.008716656902620745e-03
1.052565703167631511e-02
8.283821727255342993e-03
1.186180192077929737e-03
-6.206380287184207027e-03
-8.111865715203014221e-03
-8.814008830520881146e-03
-8.468101600600613094e-03
-2.794431385780557237e-03
3.798129679009272768e-03
4.465156295058016721e-03
6.401969379335021269e-03
1.130822518413450439e-02
6.687302620833756803e-03
-5.773800966712637830e-03
-1.203534057068487984e-02
-7.828822115492989342e-03
2.260020468227043246e-03
6.165658686319253241e-03
3.874682177113398986e-03
-3.557356919902823311e-04
-1.811954512098839631e-03
5.571501973228185295e-04
1.699943140702058278e-03
3.815196437644207089e-04
-3.573328549487605772e-04
-2.659686484735182630e-03
-5.002032535735565291e-03
-4.941323409682796437e-03
-1.710364933519759132e-03
3.474777398642117654e-03
8.327662920490443849e-03
6.742507121644621473e-03
5.420174162603015079e-04
-3.269213831881373229e-03
-1.505976807521098399e-03
1.646787091727786045e-04
-1.086493180185012995e-04
