1.764248562721532423e-02
1.763722271358372784e-02
1.763195888630374533e-02
1.762669414557853365e-02
1.762142849161133645e-02
1.761616192460546682e-02
1.761089444476432106e-02
1.760562605229135796e-02
1.760035674739011263e-02
1.759508653026419997e-02
1.758981540111731467e-02
1.758454336015322431e-02
1.757927040757575540e-02
1.757399654358881430e-02
1.756872176839640101e-02
1.756344608220258147e-02
1.755816948521150139e-02
1.755289197762737938e-02
1.754761355965451380e-02
1.754233423149726204e-02
1.753705399336004736e-02
1.753177284544737632e-02
1.752649078796382834e-02
1.752120782111405567e-02
1.751592394510278691e-02
1.751063916013482699e-02
1.750535346641505022e-02
1.750006686414840376e-02
1.749477935353990765e-02
1.748949093479465824e-02
1.748420160811781782e-02
1.747891137371461803e-02
1.747362023179035648e-02
1.746832818255040706e-02
1.746303522620022350e-02
1.745774136294533235e-02
1.745244659299131917e-02
1.744715091654383890e-02
1.744185433380861239e-02
1.743655684499144376e-02
1.743125845029819612e-02
1.742595914993480197e-02
1.742065894410727012e-02
1.741535783302167184e-02
1.741005581688415821e-02
1.740475289590094968e-02
1.739944907027834650e-02
1.739414434022271486e-02
1.738883870594049724e-02
1.738353216763821596e-02
1.737822472552245229e-02
1.737291637979984996e-02
1.736760713067713596e-02
1.736229697836109975e-02
1.735698592305859669e-02
1.735167396497656542e-02
1.734636110432201395e-02
1.734104734130201969e-02
1.733573267612372251e-02
1.733041710899432472e-02
1.732510064012110149e-02
1.731978326971139390e-02
1.731446499797260202e-02
1.730914582511220226e-02
1.730382575133773346e-02
1.729850477685679691e-02
1.729318290187706331e-02
1.728786012660626925e-02
1.728253645125221380e-02
1.727721187602276193e-02
1.727188640112583065e-02
1.726656002676940291e-02
1.726123275316152755e-02
1.725590458051030895e-02
1.725057550902390699e-02
1.724524553891053705e-02
1.723991467037848391e-02
1.723458290363609827e-02
1.722925023889179327e-02
1.722391667635404799e-02
1.721858221623141783e-02
1.721324685873251367e-02
1.720791060406600542e-02
1.720257345244061500e-02
1.719723540406513373e-02
1.719189645914841191e-02
1.718655661789935188e-02
1.718121588052690107e-02
1.717587424724007980e-02
1.717053171824798816e-02
1.716518829375978869e-02
1.715984397398470640e-02
1.715449875913202873e-02
1.714915264941110559e-02
1.714380564503135626e-02
1.713845774620224166e-02
1.713310895313328863e-02
1.712775926603408300e-02
1.712240868511427996e-02
1.711705721058359719e-02
1.711170484265182173e-02
1.710635158152879615e-02
1.710099742742442544e-02
1.709564238054866667e-02
1.709028644111153586e-02
1.708492960932310803e-02
1.707957188539350676e-02
1.707421326953291116e-02
1.706885376195156623e-02
1.706349336285977597e-02
1.705813207246789295e-02
1.705276989098631832e-02
1.704740681862552606e-02
1.704204285559604917e-02
1.703667800210847613e-02
1.703131225837345095e-02
1.702594562460168007e-02
1.702057810100392893e-02
1.701520968779101847e-02
1.700984038517383209e-02
1.700447019336331564e-02
1.699909911257046699e-02
1.699372714300632914e-02
1.698835428488200405e-02
1.698298053840865615e-02
1.697760590379749149e-02
1.697223038125977163e-02
1.696685397100682058e-02
1.696147667325001093e-02
1.695609848820076385e-02
1.695071941607056987e-02
1.694533945707096811e-02
1.693995861141356016e-02
1.693457687931001349e-02
1.692919426097204069e-02
1.692381075661141682e-02
1.691842636643997935e-02
1.691304109066960742e-02
1.690765492951222526e-02
1.690226788317980219e-02
1.689687995188434572e-02
1.689149113583791190e-02
1.688610143525260537e-02
1.688071085034059324e-02
1.687531938131408421e-02
1.686992702838532518e-02
1.686453379176661507e-02
1.685913967167031180e-02
1.685374466830882184e-02
1.684834878189459678e-02
1.684295201264014719e-02
1.683755436075804607e-02
1.683215582646091502e-02
1.682675640996143113e-02
1.682135611147230966e-02
1.681595493120631099e-02
1.681055286937624058e-02
1.680514992619495246e-02
1.679974610187534578e-02
1.679434139663036826e-02
1.678893581067300578e-02
1.678352934421629625e-02
1.677812199747332617e-02
1.677271377065720631e-02
1.676730466398109604e-02
1.676189467765821367e-02
1.675648381190181571e-02
1.675107206692519335e-02
1.674565944294167247e-02
1.674024594016462752e-02
1.673483155880747461e-02
1.672941629908367492e-02
1.672400016120673127e-02
1.671858314539019508e-02
1.671316525184765936e-02
1.670774648079275185e-02
1.670232683243913843e-02
1.669690630700053705e-02
1.669148490469071072e-02
1.668606262572346760e-02
1.668063947031266439e-02
1.667521543867218903e-02
1.666979053101597455e-02
1.666436474755799910e-02
1.665893808851227204e-02
1.665351055409284090e-02
1.664808214451378790e-02
1.664265285998925079e-02
1.663722270073341586e-02
1.663179166696050065e-02
1.662635975888476086e-02
1.662092697672048688e-02
1.661549332068202114e-02
1.661005879098375118e-02
1.660462338784010616e-02
1.659918711146554648e-02
1.659374996207457417e-02
1.658831193988170860e-02
1.658287304510150731e-02
1.657743327794855559e-02
1.657199263863747343e-02
1.656655112738292246e-02
1.656110874439960592e-02
1.655566548990225831e-02
1.655022136410564185e-02
1.654477636722455694e-02
1.653933049947384909e-02
1.653388376106839502e-02
1.652843615222311310e-02
1.652298767315294598e-02
1.651753832407285710e-02
1.651208810519785158e-02
1.650663701674295880e-02
1.650118505892323936e-02
1.649573223195378163e-02
1.649027853604970520e-02
1.648482397142616782e-02
1.647936853829836540e-02
1.647391223688152856e-02
1.646845506739091913e-02
1.646299703004182671e-02
1.645753812504957558e-02
1.645207835262951432e-02
1.644661771299703312e-02
1.644115620636756731e-02
1.643569383295657993e-02
1.643023059297956182e-02
1.642476648665202807e-02
1.641930151418951114e-02
1.641383567580758512e-02
1.640836897172185532e-02
1.640290140214795828e-02
1.639743296730155134e-02
1.639196366739830921e-02
1.638649350265392393e-02
1.638102247328411878e-02
1.637555057950463785e-02
1.637007782153126687e-02
1.636460419957981929e-02
1.635912971386611903e-02
1.635365436460602465e-02
1.634817815201542249e-02
1.634270107631023011e-02
1.633722313770638590e-02
1.633174433641984905e-02
1.632626467266661691e-02
1.632078414666272501e-02
1.631530275862422621e-02
1.630982050876719422e-02
1.630433739730773393e-02
1.629885342446196761e-02
1.629336859044603833e-02
1.628788289547611345e-02
1.628239633976837075e-02
1.627690892353901228e-02
1.627142064700425397e-02
1.626593151038033258e-02
1.626044151388351955e-02
1.625495065773009673e-02
1.624945894213637720e-02
1.624396636731870180e-02
1.623847293349342177e-02
1.623297864087690917e-02
1.622748348968553952e-02
1.622198748013570224e-02
1.621649061244380408e-02
1.621099288682626566e-02
1.620549430349952844e-02
1.619999486268005121e-02
1.619449456458432052e-02
1.618899340942883333e-02
1.618349139743010742e-02
1.617798852880466751e-02
1.617248480376905911e-02
1.616698022253985553e-02
1.616147478533364393e-02
1.615596849236703575e-02
1.615046134385667367e-02
1.614495334001923160e-02
1.613944448107140078e-02
1.613393476722988634e-02
1.612842419871142116e-02
1.612291277573276588e-02
1.611740049851069154e-02
1.611188736726198653e-02
1.610637338220345313e-02
1.610085854355191443e-02
1.609534285152420391e-02
1.608982630633716895e-02
1.608430890820766387e-02
1.607879065735254992e-02
1.607327155398870916e-02
1.606775159833304101e-02
1.606223079060245529e-02
1.605670913101387570e-02
1.605118661978424330e-02
1.604566325713050953e-02
1.604013904326963974e-02
1.603461397841862354e-02
1.602908806279446444e-02
1.602356129661417633e-02
1.601803368009479742e-02
1.601250521345338323e-02
1.600697589690700320e-02
1.600144573067273368e-02
1.599591471496765796e-02
1.599038285000886628e-02
1.598485013601345234e-02
1.597931657319852025e-02
1.597378216178116719e-02
1.596824690197851115e-02
1.596271079400767706e-02
1.595717383808580025e-02
1.595163603443001954e-02
1.594609738325747719e-02
1.594055788478533284e-02
1.593501753923075304e-02
1.592947634681091823e-02
1.592393430774301580e-02
1.591839142224424006e-02
1.591284769053179574e-02
1.590730311282289450e-02
1.590175768933474801e-02
1.589621142028456446e-02
1.589066430588955553e-02
1.588511634636692593e-02
1.587956754193389081e-02
1.587401789280767223e-02
1.586846739920548185e-02
1.586291606134453483e-02
1.585736387944204628e-02
1.585181085371522094e-02
1.584625698438127048e-02
1.584070227165739961e-02
1.583514671576081306e-02
1.582959031690871210e-02
1.582403307531830144e-02
1.581847499120679276e-02
1.581291606479140119e-02
1.580735629628933145e-02
1.580179568591778827e-02
1.579623423389398679e-02
1.579067194043513520e-02
1.578510880575845210e-02
1.577954483008115957e-02
1.577398001362048663e-02
1.576841435659365881e-02
1.576284785921791207e-02
1.575728052171048582e-02
1.575171234428862296e-02
1.574614332716955598e-02
1.574057347057048958e-02
1.573500277470861811e-02
1.572943123980112892e-02
1.572385886606520941e-02
1.571828565371802960e-02
1.571271160297675260e-02
1.570713671405853801e-02
1.570156098718054200e-02
1.569598442255991724e-02
1.569040702041382337e-02
1.568482878095941654e-02
1.567924970441384250e-02
1.567366979099424004e-02
1.566808904091772370e-02
1.566250745440141146e-02
1.565692503166241090e-02
1.565134177291782613e-02
1.564575767838476128e-02
1.564017274828030657e-02
1.563458698282154183e-02
1.562900038222552260e-02
1.562341294670930268e-02
1.561782467648992374e-02
1.561223557178442224e-02
1.560664563280981555e-02
1.560105485978310544e-02
1.559546325292127979e-02
1.558987081244130046e-02
1.558427753856012066e-02
1.557868343149468489e-02
1.557308849146192380e-02
1.556749271867874720e-02
1.556189611336204932e-02
1.555629867572871396e-02
1.555070040599561623e-02
1.554510130437961567e-02
1.553950137109755443e-02
1.553390060636625908e-02
1.552829901040253188e-02
1.552269658342314909e-02
1.551709332564487134e-02
1.551148923728443499e-02
1.550588431855856250e-02
1.550027856968395033e-02
1.549467199087727759e-02
1.548906458235519736e-02
1.548345634433434363e-02
1.547784727703132440e-02
1.547223738066273377e-02
1.546662665544514675e-02
1.546101510159511930e-02
1.545540271932918479e-02
1.544978950886385406e-02
1.544417547041561888e-02
1.543856060420095017e-02
1.543294491043628765e-02
1.542732838933805542e-02
1.542171104112264289e-02
1.541609286600640477e-02
1.541047386420567322e-02
1.540485403593674918e-02
1.539923338141591103e-02
1.539361190085942847e-02
1.538798959448355215e-02
1.538236646250450840e-02
1.537674250513850101e-02
1.537111772260171642e-02
1.536549211511031680e-02
1.535986568288044522e-02
1.535423842612822047e-02
1.534861034506973011e-02
1.534298143992103569e-02
1.533735171089816753e-02
1.533172115821712124e-02
1.532608978209387164e-02
1.532045758274435537e-02
1.531482456038447612e-02
1.530919071523010461e-02
1.530355604749708553e-02
1.529792055740123412e-02
1.529228424515832394e-02
1.528664711098409561e-02
1.528100915509425506e-02
1.527537037770447352e-02
1.526973077903039447e-02
1.526409035928763362e-02
1.525844911869178415e-02
1.525280705745841667e-02
1.524716417580307404e-02
1.524152047394126269e-02
1.523587595208845263e-02
1.523023061046008611e-02
1.522458444927157588e-02
1.521893746873829653e-02
1.521328966907559317e-02
1.520764105049878315e-02
1.520199161322315258e-02
1.519634135746396157e-02
1.519069028343643379e-02
1.518503839135575822e-02
1.517938568143709262e-02
1.517373215389555483e-02
1.516807780894622627e-02
1.516242264680415022e-02
1.515676666768433697e-02
1.515110987180175867e-02
1.514545225937134927e-02
1.513979383060800460e-02
1.513413458572658923e-02
1.512847452494192960e-02
1.512281364846881915e-02
1.511715195652201665e-02
1.511148944931624098e-02
1.510582612706617978e-02
1.510016198998648251e-02
1.509449703829176051e-02
1.508883127219658518e-02
1.508316469191547937e-02
1.507749729766293123e-02
1.507182908965339595e-02
1.506616006810129575e-02
1.506049023322102512e-02
1.505481958522693169e-02
1.504914812433332319e-02
1.504347585075447441e-02
1.503780276470462023e-02
1.503212886639796082e-02
1.502645415604866169e-02
1.502077863387086057e-02
1.501510230007865355e-02
1.500942515488609512e-02
1.500374719850719983e-02
1.499806843115594757e-02
1.499238885304628177e-02
1.498670846439211293e-02
1.498102726540732552e-02
1.497534525630576062e-02
1.496966243730121597e-02
1.496397880860744767e-02
1.495829437043817017e-02
1.495260912300705632e-02
1.494692306652773729e-02
1.494123620121380266e-02
1.493554852727880557e-02
1.492986004493626270e-02
1.492417075439964914e-02
1.491848065588239833e-02
1.491278974959790900e-02
1.490709803575953653e-02
1.490140551458059986e-02
1.489571218627436938e-02
1.489001805105407208e-02
1.488432310913289855e-02
1.487862736072399772e-02
1.487293080604047517e-02
1.486723344529539310e-02
1.486153527870177904e-02
1.485583630647261712e-02
1.485013652882085505e-02
1.484443594595941107e-02
1.483873455810116697e-02
1.483303236545896291e-02
1.482732936824560956e-02
1.482162556667388116e-02
1.481592096095650339e-02
1.481021555130615161e-02
1.480450933793546302e-02
1.479880232105704532e-02
1.479309450088345766e-02
1.478738587762721754e-02
1.478167645150079215e-02
1.477596622271661747e-02
1.477025519148708610e-02
1.476454335802454901e-02
1.475883072254132768e-02
1.475311728524970022e-02
1.474740304636190311e-02
1.474168800609013640e-02
1.473597216464655503e-02
1.473025552224327059e-02
1.472453807909235302e-02
1.471881983540582889e-02
1.471310079139568142e-02
1.470738094727384523e-02
1.470166030325221855e-02
1.469593885954266141e-02
1.469021661635699222e-02
1.468449357390698082e-02
1.467876973240434500e-02
1.467304509206076094e-02
1.466731965308786315e-02
1.466159341569724973e-02
1.465586638010047717e-02
1.465013854650905854e-02
1.464440991513446359e-02
1.463868048618812562e-02
1.463295025988143455e-02
1.462721923642574043e-02
1.462148741603235859e-02
1.461575479891255927e-02
1.461002138527757108e-02
1.460428717533857577e-02
1.459855216930671176e-02
1.459281636739306713e-02
1.458707976980869528e-02
1.458134237676460103e-02
1.457560418847174064e-02
1.456986520514103566e-02
1.456412542698336601e-02
1.455838485420957694e-02
1.455264348703047897e-02
1.454690132565684794e-02
1.454115837029941807e-02
1.453541462116888887e-02
1.452967007847591127e-02
1.452392474243110153e-02
1.451817861324504119e-02
1.451243169112826498e-02
1.450668397629126770e-02
1.450093546894451642e-02
1.449518616929843830e-02
1.448943607756341366e-02
1.448368519394978120e-02
1.447793351866783797e-02
1.447218105192784113e-02
1.446642779394000967e-02
1.446067374491452270e-02
1.445491890506151768e-02
1.444916327459108522e-02
1.444340685371327086e-02
1.443764964263808022e-02
1.443189164157547902e-02
1.442613285073539482e-02
1.442037327032772223e-02
1.441461290056232115e-02
1.440885174164900639e-02
1.440308979379755633e-02
1.439732705721770943e-02
1.439156353211915734e-02
1.438579921871154660e-02
1.438003411720448037e-02
1.437426822780751845e-02
1.436850155073018075e-02
1.436273408618194032e-02
1.435696583437221993e-02
1.435119679551039897e-02
1.434542696980581171e-02
1.433965635746774908e-02
1.433388495870545169e-02
1.432811277372812199e-02
1.432233980274491732e-02
1.431656604596496553e-02
1.431079150359735978e-02
1.430501617585114987e-02
1.429924006293534222e-02
1.429346316505890162e-02
1.428768548243075642e-02
1.428190701525980551e-02
1.427612776375491305e-02
1.427034772812489985e-02
1.426456690857855897e-02
1.425878530532465049e-02
1.425300291857189809e-02
1.424721974852899073e-02
1.424143579540457748e-02
1.423565105940726577e-02
1.422986554074562315e-02
1.422407923962817726e-02
1.421829215626342104e-02
1.421250429085982661e-02
1.420671564362584009e-02
1.420092621476986942e-02
1.419513600450027571e-02
1.418934501302538016e-02
1.418355324055346582e-02
1.417776068729278971e-02
1.417196735345158283e-02
1.416617323923804669e-02
1.416037834486035159e-02
1.415458267052662790e-02
1.414878621644496959e-02
1.414298898282344633e-02
1.413719096987010350e-02
1.413139217779295700e-02
1.412559260679998457e-02
1.411979225709914139e-02
1.411399112889836008e-02
1.410818922240552990e-02
1.410238653782851237e-02
1.409658307537512735e-02
1.409077883525315829e-02
1.408497381767035220e-02
1.407916802283442140e-02
1.407336145095305045e-02
1.406755410223389617e-02
1.406174597688459454e-02
1.405593707511273993e-02
1.405012739712589200e-02
1.404431694313158611e-02
1.403850571333731950e-02
1.403269370795056856e-02
1.402688092717877498e-02
1.402106737122936139e-02
1.401525304030972092e-02
1.400943793462721548e-02
1.400362205438918616e-02
1.399780539980295495e-02
1.399198797107581438e-02
1.398616976841502747e-02
1.398035079202783297e-02
1.397453104212144706e-02
1.396871051890304950e-02
1.396288922257978189e-02
1.395706715335876327e-02
1.395124431144708493e-02
1.394542069705181561e-02
1.393959631038000149e-02
1.393377115163866795e-02
1.392794522103481258e-02
1.392211851877540700e-02
1.391629104506739503e-02
1.391046280011768409e-02
1.390463378413316249e-02
1.389880399732069255e-02
1.389297343988710361e-02
1.388714211203920072e-02
1.388131001398376294e-02
1.387547714592755714e-02
1.386964350807732595e-02
1.386380910063979288e-02
1.385797392382166413e-02
1.385213797782963024e-02
1.384630126287035752e-02
1.384046377915049662e-02
1.383462552687668261e-02
1.382878650625552625e-02
1.382294671749362269e-02
1.381710616079754629e-02
1.381126483637385750e-02
1.380542274442909598e-02
1.379957988516979268e-02
1.379373625880245778e-02
1.378789186553358408e-02
1.378204670556965744e-02
1.377620077911714119e-02
1.377035408638248824e-02
1.376450662757213415e-02
1.375865840289249541e-02
1.375280941254997114e-02
1.374695965675094833e-02
1.374110913570179664e-02
1.373525784960887702e-02
1.372940579867854005e-02
1.372355298311713281e-02
1.371769940313097291e-02
1.371184505892636407e-02
1.370598995070959440e-02
1.370013407868692946e-02
1.369427744306463482e-02
1.368842004404896041e-02
1.368256188184614232e-02
1.367670295666239925e-02
1.367084326870393607e-02
1.366498281817695067e-02
1.365912160528762360e-02
1.365325963024213718e-02
1.364739689324666154e-02
1.364153339450736337e-02
1.363566913423041281e-02
1.362980411262196961e-02
1.362393832988819699e-02
1.361807178623524253e-02
1.361220448186925384e-02
1.360633641699636985e-02
1.360046759182272601e-02
1.359459800655443695e-02
1.358872766139761212e-02
1.358285655655835228e-02
1.357698469224275124e-02
1.357111206865690457e-02
1.356523868600690089e-02
1.355936454449882360e-02
1.355348964433875959e-02
1.354761398573279228e-02
1.354173756888700161e-02
1.353586039400745712e-02
1.352998246130022487e-02
1.352410377097137441e-02
1.351822432322698567e-02
1.351234411827313686e-02
1.350646315631591314e-02
1.350058143756139965e-02
1.349469896221568155e-02
1.348881573048485091e-02
1.348293174257499984e-02
1.347704699869222041e-02
1.347116149904261338e-02
1.346527524383228126e-02
1.345938823326732828e-02
1.345350046755384825e-02
1.344761194689793847e-02
1.344172267150570838e-02
1.343583264158327781e-02
1.342994185733676835e-02
1.342405031897230677e-02
1.341815802669602681e-02
1.341226498071406911e-02
1.340637118123257435e-02
1.340047662845769011e-02
1.339458132259557094e-02
1.338868526385238525e-02
1.338278845243431013e-02
1.337689088854754002e-02
1.337099257239827803e-02
1.336509350419274288e-02
1.335919368413715849e-02
1.335329311243775401e-02
1.334739178930076722e-02
1.334148971493246023e-02
1.333558688953910207e-02
1.332968331332697563e-02
1.332377898650237077e-02
1.331787390927158948e-02
1.331196808184094763e-02
1.330606150441677842e-02
1.330015417720543068e-02
1.329424610041326713e-02
1.328833727424667301e-02
1.328242769891205786e-02
1.327651737461585553e-02
1.327060630156451197e-02
1.326469447996448531e-02
1.325878191002225794e-02
1.325286859194433134e-02
1.324695452593722088e-02
1.324103971220744885e-02
1.323512415096155838e-02
1.322920784240611339e-02
1.322329078674770730e-02
1.321737298419295090e-02
1.321145443494848443e-02
1.320553513922097764e-02
1.319961509721711765e-02
1.319369430914361582e-02
1.318777277520720957e-02
1.318185049561466232e-02
1.317592747057277046e-02
1.317000370028836506e-02
1.316407918496829629e-02
1.315815392481944207e-02
1.315222792004870460e-02
1.314630117086300690e-02
1.314037367746929280e-02
1.313444544007453738e-02
1.312851645888573823e-02
1.312258673410993115e-02
1.311665626595419180e-02
1.311072505462562710e-02
1.310479310033137688e-02
1.309886040327862093e-02
1.309292696367457196e-02
1.308699278172647043e-02
1.308105785764159673e-02
1.307512219162725899e-02
1.306918578389080349e-02
1.306324863463961990e-02
1.305731074408111869e-02
1.305137211242275372e-02
1.304543273987201005e-02
1.303949262663640397e-02
1.303355177292348996e-02
1.302761017894086756e-02
1.302166784489617625e-02
1.301572477099709017e-02
1.300978095745132339e-02
1.300383640446662985e-02
1.299789111225079820e-02
1.299194508101166566e-02
1.298599831095710588e-02
1.298005080229502894e-02
1.297410255523338656e-02
1.296815356998018073e-02
1.296220384674345166e-02
1.295625338573127769e-02
1.295030218715178920e-02
1.294435025121316168e-02
1.293839757812360880e-02
1.293244416809139104e-02
1.292649002132482440e-02
1.292053513803228561e-02
1.291457951842219128e-02
1.290862316270300139e-02
1.290266607108321931e-02
1.289670824377139521e-02
1.289074968097612787e-02
1.288479038290607503e-02
1.287883034976994474e-02
1.287286958177650230e-02
1.286690807913456504e-02
1.286094584205299540e-02
1.285498287074070267e-02
1.284901916540664990e-02
1.284305472625984525e-02
1.283708955350934891e-02
1.283112364736427487e-02
1.282515700803379434e-02
1.281918963572713406e-02
1.281322153065358148e-02
1.280725269302248129e-02
1.280128312304322676e-02
1.279531282092526666e-02
1.278934178687810876e-02
1.278337002111132499e-02
1.277739752383453761e-02
1.277142429525742091e-02
1.276545033558970990e-02
1.275947564504119336e-02
1.275350022382172425e-02
1.274752407214122148e-02
1.274154719020965942e-02
1.273556957823707321e-02
1.272959123643355867e-02
1.272361216500928101e-02
1.271763236417446097e-02
1.271165183413938173e-02
1.270567057511438197e-02
1.269968858730985764e-02
1.269370587093626365e-02
1.268772242620411911e-02
1.268173825332400556e-02
1.267575335250656181e-02
1.266976772396248563e-02
1.266378136790254072e-02
1.265779428453755150e-02
1.265180647407841696e-02
1.264581793673609511e-02
1.263982867272161852e-02
1.263383868224608915e-02
1.262784796552066970e-02
1.262185652275659743e-02
1.261586435416517903e-02
1.260987145995779053e-02
1.260387784034587913e-02
1.259788349554096312e-02
1.259188842575463714e-02
1.258589263119856520e-02
1.257989611208448245e-02
1.257389886862420383e-02
1.256790090102961541e-02
1.256190220951267610e-02
1.255590279428542635e-02
1.254990265555997082e-02
1.254390179354848700e-02
1.253790020846322871e-02
1.253189790051653131e-02
1.252589486992080475e-02
1.251989111688852838e-02
1.251388664163225611e-02
1.250788144436460955e-02
1.250187552529829355e-02
1.249586888464608234e-02
1.248986152262081956e-02
1.248385343943543384e-02
1.247784463530293188e-02
1.247183511043640364e-02
1.246582486504901194e-02
1.245981389935400634e-02
1.245380221356471272e-02
1.244778980789452982e-02
1.244177668255693793e-02
1.243576283776549711e-02
1.242974827373383336e-02
1.242373299067565245e-02
1.241771698880473479e-02
1.241170026833495095e-02
1.240568282948024612e-02
1.239966467245464526e-02
1.239364579747226358e-02
1.238762620474730125e-02
1.238160589449404693e-02
1.237558486692687774e-02
1.236956312226026276e-02
1.236354066070874218e-02
1.235751748248694638e-02
1.235149358780958384e-02
1.234546897689144107e-02
1.233944364994739654e-02
1.233341760719240850e-02
1.232739084884152195e-02
1.232136337510986862e-02
1.231533518621266525e-02
1.230930628236521357e-02
1.230327666378288991e-02
1.229724633068115386e-02
1.229121528327555349e-02
1.228518352178172360e-02
1.227915104641537879e-02
1.227311785739231519e-02
1.226708395492841913e-02
1.226104933923967411e-02
1.225501401054214685e-02
1.224897796905199260e-02
1.224294121498544982e-02
1.223690374855884201e-02
1.223086556998857592e-02
1.222482667949113637e-02
1.221878707728310011e-02
1.221274676358113410e-02
1.220670573860199726e-02
1.220066400256254215e-02
1.219462155567971502e-02
1.218857839817054887e-02
1.218253453025217557e-02
1.217648995214181892e-02
1.217044466405678947e-02
1.216439866621449838e-02
1.215835195883244527e-02
1.215230454212821998e-02
1.214625641631950081e-02
1.214020758162405976e-02
1.213415803825975553e-02
1.212810778644454225e-02
1.212205682639647120e-02
1.211600515833369078e-02
1.210995278247444656e-02
1.210389969903707258e-02
1.209784590824000000e-02
1.209179141030176582e-02
1.208573620544101113e-02
1.207968029387648107e-02
1.207362367582701795e-02
1.206756635151154909e-02
1.206150832114910240e-02
1.205544958495880468e-02
1.204939014315987988e-02
1.204332999597164562e-02
1.203726914361352707e-02
1.203120758630505348e-02
1.202514532426586166e-02
1.201908235771567690e-02
1.201301868687432509e-02
1.200695431196173966e-02
1.200088923319794776e-02
1.199482345080307190e-02
1.198875696499733697e-02
1.198268977600106151e-02
1.197662188403465257e-02
1.197055328931861430e-02
1.196448399207356017e-02
1.195841399252020425e-02
1.195234329087935601e-02
1.194627188737192383e-02
1.194019978221893576e-02
1.193412697564152913e-02
1.192805346786095060e-02
1.192197925909854392e-02
1.191590434957576390e-02
1.190982873951416249e-02
1.190375242913539744e-02
1.189767541866122713e-02
1.189159770831350708e-02
1.188551929831418996e-02
1.187944018888533598e-02
1.187336038024911118e-02
1.186727987262778047e-02
1.186119866624371459e-02
1.185511676131939009e-02
1.184903415807737719e-02
1.184295085674035367e-02
1.183686685753109792e-02
1.183078216067250284e-02
1.182469676638756191e-02
1.181861067489937620e-02
1.181252388643116297e-02
1.180643640120624879e-02
1.180034821944805912e-02
1.179425934138013388e-02
1.178816976722612403e-02
1.178207949720978288e-02
1.177598853155497304e-02
1.176989687048565249e-02
1.176380451422589547e-02
1.175771146299988724e-02
1.175161771703192234e-02
1.174552327654640460e-02
1.173942814176784886e-02
1.173333231292088101e-02
1.172723579023023793e-02
1.172113857392077449e-02
1.171504066421745656e-02
1.170894206134536104e-02
1.170284276552968974e-02
1.169674277699574855e-02
1.169064209596896303e-02
1.168454072267487154e-02
1.167843865733913036e-02
1.167233590018750856e-02
1.166623245144589489e-02
1.166012831134029780e-02
1.165402348009683849e-02
1.164791795794176306e-02
1.164181174510142518e-02
1.163570484180228085e-02
1.162959724827091271e-02
1.162348896473401443e-02
1.161737999141839936e-02
1.161127032855099016e-02
1.160515997635882569e-02
1.159904893506905760e-02
1.159293720490895720e-02
1.158682478610592592e-02
1.158071167888746755e-02
1.157459788348119863e-02
1.156848340011485017e-02
1.156236822901626424e-02
1.155625237041339737e-02
1.155013582453431192e-02
1.154401859160717955e-02
1.153790067186028986e-02
1.153178206552204869e-02
1.152566277282097637e-02
1.151954279398571639e-02
1.151342212924503540e-02
1.150730077882780936e-02
1.150117874296303216e-02
1.149505602187980702e-02
1.148893261580735334e-02
1.148280852497500851e-02
1.147668374961221920e-02
1.147055828994854830e-02
1.146443214621367668e-02
1.145830531863740315e-02
1.145217780744965143e-02
1.144604961288047014e-02
1.143992073516002586e-02
1.143379117451861007e-02
1.142766093118663916e-02
1.142153000539464745e-02
1.141539839737328726e-02
1.140926610735334273e-02
1.140313313556571076e-02
1.139699948224141487e-02
1.139086514761158964e-02
1.138473013190748756e-02
1.137859443536048606e-02
1.137245805820208226e-02
1.136632100066389296e-02
1.136018326297765293e-02
1.135404484537522359e-02
1.134790574808858775e-02
1.134176597134984102e-02
1.133562551539119001e-02
1.132948438044497491e-02
1.132334256674365040e-02
1.131720007451978566e-02
1.131105690400606954e-02
1.130491305543530889e-02
1.129876852904043716e-02
1.129262332505450925e-02
1.128647744371069975e-02
1.128033088524230294e-02
1.127418364988273455e-02
1.126803573786553866e-02
1.126188714942438079e-02
1.125573788479305309e-02
1.124958794420547435e-02
1.124343732789568479e-02
1.123728603609784604e-02
1.123113406904624120e-02
1.122498142697528171e-02
1.121882811011950046e-02
1.121267411871355174e-02
1.120651945299220437e-02
1.120036411319034857e-02
1.119420809954298907e-02
1.118805141228525896e-02
1.118189405165241970e-02
1.117573601787986114e-02
1.116957731120309452e-02
1.116341793185775949e-02
1.115725788007961190e-02
1.115109715610453078e-02
1.114493576016852353e-02
1.113877369250771895e-02
1.113261095335837426e-02
1.112644754295687675e-02
1.112028346153972995e-02
1.111411870934357268e-02
1.110795328660516522e-02
1.110178719356138231e-02
1.109562043044922189e-02
1.108945299750579809e-02
1.108328489496833956e-02
1.107711612307419810e-02
1.107094668206085042e-02
1.106477657216589638e-02
1.105860579362706250e-02
1.105243434668220365e-02
1.104626223156930653e-02
1.104008944852648798e-02
1.103391599779198623e-02
1.102774187960416964e-02
1.102156709420153841e-02
1.101539164182272108e-02
1.100921552270646767e-02
1.100303873709165305e-02
1.099686128521728049e-02
1.099068316732247468e-02
1.098450438364647827e-02
1.097832493442866403e-02
1.097214481990853481e-02
1.096596404032572532e-02
1.095978259591999342e-02
1.095360048693122534e-02
1.094741771359943744e-02
1.094123427616478308e-02
1.093505017486753016e-02
1.092886540994807663e-02
1.092267998164693846e-02
1.091649389020475473e-02
1.091030713586228773e-02
1.090411971886043156e-02
1.089793163944020871e-02
1.089174289784277001e-02
1.088555349430939123e-02
1.087936342908147822e-02
1.087317270240056692e-02
1.086698131450831648e-02
1.086078926564650916e-02
1.085459655605705044e-02
1.084840318598196719e-02
1.084220915566340426e-02
1.083601446534363834e-02
1.082981911526506753e-02
1.082362310567022007e-02
1.081742643680176121e-02
1.081122910890249152e-02
1.080503112221532086e-02
1.079883247698328400e-02
1.079263317344954579e-02
1.078643321185739253e-02
1.078023259245023367e-02
1.077403131547159665e-02
1.076782938116512510e-02
1.076162678977457716e-02
1.075542354154384803e-02
1.074921963671696991e-02
1.074301507553809647e-02
1.073680985825151146e-02
1.073060398510160794e-02
1.072439745633290906e-02
1.071819027219006286e-02
1.071198243291783883e-02
1.070577393876114003e-02
1.069956478996499961e-02
1.069335498677458259e-02
