-1.634489816788187860e-02
-2.498699250735020305e-02
-1.985423895763274021e-02
-9.653285295028218166e-03
-3.185961404694388419e-03
3.778486799104701852e-03
6.681999293459139032e-03
6.972250118029514263e-03
6.141910463531663131e-03
3.886167716340755210e-03
-2.061620318203860949e-03
-5.260117148784158522e-03
-4.150969319848989321e-03
-2.376222941143672697e-04
3.889324797853923547e-03
2.408076664700506755e-03
-1.838622190823171326e-03
-2.993103135692946025e-03
6.748001572918133073e-03
1.211139970814461599e-02
8.169424572375827073e-03
2.485377169283036793e-03
1.722141555604613644e-04
5.500635520117581846e-04
-2.228485247449688011e-03
-9.399391431443901435e-03
-1.940862983020681665e-02
-1.982128076802312094e-02
-1.006074071865740299e-02
-2.335777306592779629e-03
1.381583401417662595e-03
4.907333446306539303e-03
8.664616230037851599e-03
1.332187619495381857e-02
1.901108656250755438e-02
2.363855945846015869e-02
1.678085914627113970e-02
2.125488013885130922e-03
-9.680603447148146065e-03
-1.443131105863367306e-02
-1.387258419097036656e-02
-1.017868937818229048e-02
-8.824848198574342453e-03
-7.733608567276402390e-03
-6.418327321338694949e-03
-3.385854060456593498e-03
-1.023934076817335261e-03
3.390285154108416826e-03
5.314710704084577367e-03
7.419686439098982858e-03
9.650999650888399117e-03
8.755009473853304913e-03
4.063038351773443427e-03
6.857351494171468748e-04
-2.699908224472172616e-03
-4.697784750229838310e-03
-4.702231962518836628e-03
-4.269996603527163870e-03
-3.761554338313955696e-03
-2.186968426683384009e-03
3.253023344808435129e-03
5.113478291639232155e-03
2.948786872339952559e-03
5.145525005112175192e-03
5.274168703802063589e-03
1.929430541114453583e-03
-4.774644740657906297e-03
-7.554365688144350048e-03
-8.432412160542255078e-03
-6.834647767349101913e-03
-6.763315304480676561e-03
-3.526545287706450531e-03
8.430113501776753324e-04
3.988167402197926800e-03
8.406689428498929223e-03
1.579917462574647116e-02
1.684325259159028323e-02
7.675980159955353432e-03
-2.010312492283582164e-03
-6.501802564441250785e-03
-6.945073473353126185e-03
-6.293341882902061396e-03
-6.542855319148460462e-03
-9.940052277205698936e-03
-8.291894340780809128e-03
-4.172957874155482083e-03
-1.468367499405764075e-03
1.331312569499080133e-03
2.877479119152473105e-03
5.204366070075740550e-03
8.372765682881840379e-03
8.319439923088112546e-03
6.306062126552105032e-03
4.333913415213106954e-03
-2.001806254787325261e-04
-2.601632695432925212e-03
-3.692150539769806922e-03
-4.616676940821291646e-03
-6.685277200872429687e-03
-4.807013641349163618e-03
-6.091296551761788552e-04
6.162586750397547330e-04
1.813840047942996084e-03
4.092840804370194083e-03
5.351584309560478321e-03
8.855846779758330505e-04
-1.355646845911904390e-03
-1.488688834478655882e-04
-2.371789449990023557e-03
-4.846593912131154196e-03
-5.938532555897277701e-03
-3.574796906250695024e-03
-1.303882909071095713e-04
1.230836024969693323e-03
6.624520058378933693e-03
1.328718507170718703e-02
1.232500899923335766e-02
3.368102325010485093e-03
-2.520700829131586156e-03
-4.500605293288805972e-03
-8.428947538324479613e-03
-6.857957193669780328e-03
-4.199493639357777981e-03
-4.356542318017366487e-03
-4.767644364365075139e-03
-2.357693586736585214e-03
4.925523303172475769e-05
-2.156023307621265437e-05
2.465903470943889980e-03
7.382405339029680935e-03
7.743835633193253166e-03
5.112888309681614014e-03
3.030399263499069379e-03
9.071828143290081720e-04
-7.900359764758755482e-04
-2.217171718094035609e-03
-5.067346750065825772e-03
-8.144884625789208452e-03
-9.348957244366228395e-03
-4.912281223348517745e-03
3.728983659563074246e-03
6.420898203780970800e-03
5.038495466096771895e-03
6.004649335113885350e-03
9.148889922036454458e-03
6.334696564081584297e-03
-3.788687339539541232e-04
-3.918776415153376637e-03
-8.211662739501026168e-03
-6.813067632645085532e-03
-5.788208699759005496e-03
-3.870310930963139114e-03
-2.071158082944044888e-03
-1.392549529821896295e-03
3.732467687454335374e-03
8.956268821603928856e-03
4.895400703572378581e-03
-7.474102939542103669e-04
-8.850954794751885249e-04
3.935026307345901656e-03
5.228343274709837223e-03
3.666783869102844227e-03
-1.139300891670761307e-03
-5.752460729941313161e-03
-7.938046704450517702e-03
-9.864519038360322276e-03
-8.641388961973039268e-03
-4.560311208295967332e-03
2.562871852652577435e-03
9.414778520484392080e-03
1.177199970868927047e-02
1.273569590904221650e-02
7.317930712436838958e-03
1.669179625776465170e-03
-1.259822350554306788e-03
-2.930949651449450775e-03
-5.242449963848388843e-03
-9.757854797233553312e-03
-1.159700235610921538e-02
-1.194703052028203878e-02
-6.164512309477983634e-03
2.329723522419210879e-03
8.598019349850825541e-03
9.068272435846397653e-03
5.941279420646097646e-03
1.680899850973974902e-03
-2.373375706465476014e-03
-1.439484526552125242e-03
1.103719214380643847e-03
3.021600428757070800e-03
2.004536407696972874e-03
2.997977494049278678e-03
6.463409434863800172e-03
6.866948670965007835e-03
5.362420706631182074e-03
2.946161169234630742e-03
-2.419259782129306625e-03
-9.678838300891329585e-03
-1.603818844505742330e-02
-1.740582348899940776e-02
-1.052060424478993943e-02
-1.495669918864666464e-03
6.534469464266567246e-03
7.755033677655584143e-03
4.334629637143557965e-03
2.438488861067305072e-03
1.985785907035296158e-03
2.125427612256858972e-03
5.799525895670191479e-03
8.899638098213180290e-03
6.822778323735628411e-03
2.863445148253220517e-03
1.198922421052731578e-03
-2.715667508139154186e-03
-6.420401523642618041e-03
-8.068970365813360468e-03
-1.008102837399013109e-02
-9.064384756232805526e-03
-2.220436618383588370e-03
1.973911232801474347e-03
3.140594753839470038e-03
4.721150864413916660e-03
3.745473147382085300e-03
4.709760461179069227e-03
6.753036590199545074e-03
8.383503210447054363e-03
1.526285263800786392e-03
-3.908904559145580902e-03
-7.643559444483485898e-03
-8.193574738231363536e-03
-9.123109083564145960e-03
-8.515617707493549488e-03
-5.231848418033306636e-03
3.222490946564904313e-03
9.552966517541989708e-03
1.498281573997687667e-02
1.429777110624031247e-02
8.971254906420445333e-03
2.899598216851527813e-03
-2.010507431820415282e-03
-7.199267675251181005e-03
-1.041724215889516109e-02
-8.760529633465128849e-03
-7.507467944526374955e-03
-5.461689408246601062e-03
-3.036623853326018800e-03
-2.564035963847615968e-03
-1.741583856658989512e-03
1.623734126897753748e-03
4.106290763201460650e-03
4.731675071774059209e-03
6.333255818517595157e-03
8.518637577895017340e-03
5.675059188468039445e-03
1.306066941293985290e-03
2.231197810999448021e-03
7.354817747203838338e-04
-1.163373335499138118e-03
-3.151107472243305872e-03
-4.776975120085215354e-03
-5.750501091361302948e-03
-5.782173977660832326e-03
-5.189735580372799306e-03
-4.439544938217996478e-03
-2.470457806404370918e-03
-5.135938852082462362e-04
2.325892101504004397e-03
6.009829666463279915e-03
9.713549283135282722e-03
1.319579161163476726e-02
1.252679451644790609e-02
3.755514786427677915e-03
-3.195430254822383652e-03
-7.557953879291370684e-03
-1.099089708095157304e-02
-1.085361934496266792e-02
-9.352124280342682949e-03
-7.278812650657429800e-03
-4.014093423123650528e-03
2.503220090407408797e-05
3.068089980131988130e-03
4.570578598224035033e-03
5.503802171099605317e-03
6.204613876255218007e-03
6.822384560448600636e-03
7.007781613352990178e-03
6.675407225102280954e-03
5.857041028659156108e-03
4.865924559920039791e-03
2.329752750251809067e-03
-5.908748978593886253e-05
-4.236092151073974840e-03
-9.641052826767909992e-03
-1.549069932278181010e-02
-2.275260388734578337e-02
-2.407307853799943789e-02
1.820010864626974291e-04
1.080420049603745408e-02
1.088440009852701534e-02
1.053751829229636859e-02
1.100603935684891892e-02
1.150264290110369729e-02
1.056568393732410828e-02
6.201441558162065423e-03
3.663603885900004048e-03
-1.174130396718980375e-03
-7.922234887681832774e-03
-9.677909872817389708e-03
-1.025262901172282679e-02
-7.373743458354715605e-03
-5.796173352133152448e-03
-5.393477206974743587e-03
-2.070192520462237756e-03
3.540614548197764180e-03
1.065297996852597635e-02
1.466358443558198922e-02
1.004987875949893590e-02
9.001507668109070409e-04
-3.201824448837931048e-03
-6.090558458967018293e-03
-4.716049490272294920e-03
-2.715414177885298701e-03
-3.081200506633244990e-03
-3.883644654156565186e-03
-4.066475756696021765e-03
-2.226603496465969206e-03
2.580996623144976286e-05
4.012906641706605500e-03
3.758933528660630789e-03
3.835716580395882262e-03
2.723676806325990747e-03
2.419065012657006276e-03
3.089071857919364547e-03
1.238004321553753256e-03
-2.207029516761107105e-03
-4.185623346597323186e-03
-3.777106939715807465e-03
-2.049129869348047771e-03
-2.212595742490584133e-03
-4.895279160502126123e-03
-4.027305967214859540e-03
-1.801337680850774708e-03
4.442811985864152970e-03
8.631002647400817449e-03
8.614172438722310018e-03
4.334473848376508079e-03
1.182772629782895876e-03
6.949749839659736996e-04
-6.611987231552717698e-04
-3.541663950487239712e-03
-3.273117675073228088e-03
-1.590483311694381417e-03
-2.048077078064657747e-03
-3.601147883950054068e-03
-4.107615771253588996e-03
2.271417458457306374e-03
9.205687340042638736e-03
6.589086095158899932e-03
-1.913707502208652003e-03
-1.306082172739447649e-02
-1.686672689677954501e-02
-1.064818965964703726e-02
1.575360406210751275e-03
1.242583275903606961e-02
1.450982823791371543e-02
1.185065802283904318e-02
6.757323677052954475e-03
8.892079783083019218e-04
-3.978941312535612569e-03
-3.508594886945247144e-03
-1.009971975344202671e-03
2.184358645446055937e-03
1.546064486527755355e-03
-1.479038460654956682e-03
-2.356515309225456871e-03
-1.691476185884236306e-03
-2.320944142217572486e-03
-6.257749061500315207e-03
-1.209713060063385970e-02
-1.059779005333274897e-02
-5.292977430765650505e-03
-6.054419398472212811e-04
6.829523917694346399e-03
1.379859354144071654e-02
1.384593341114835098e-02
1.022502811235856228e-02
3.220866580511714400e-03
-1.922449546516727392e-03
-3.547619286431668434e-03
-2.206761515935768293e-03
-4.315667754626998504e-03
-6.884765385207308915e-03
-3.763770462902674141e-03
-2.783286002596176145e-04
3.871520778430167370e-03
7.756420514920215822e-03
6.940440707495414661e-03
2.190364476460010101e-03
-2.496076247200047175e-03
-6.592648199741212717e-03
-1.059321120771607866e-02
-6.543799864669623545e-03
2.939269423924938118e-04
2.276605579198396397e-03
1.582705053180781182e-03
1.351973516522611974e-04
-1.322687216328725674e-03
-1.101281511839576760e-03
2.509399811645778196e-03
4.515427299360955105e-03
4.195898721717404578e-03
3.721927981313965725e-03
2.047571010572923379e-03
8.575466629859151285e-04
-3.165889832917735507e-04
-2.875023545389977526e-03
-3.502161833750174098e-03
-1.946520382340151704e-03
-3.307826085574967941e-03
-4.150667420586634342e-03
-2.422971576334426690e-03
4.064310209670974824e-04
3.923383771029558681e-03
9.071394149965088943e-03
8.842179457112322311e-03
2.923705525591983531e-03
-4.740205624096060361e-03
-7.168477988081768670e-03
-7.157778899285046660e-03
-6.904855068905963074e-03
-4.649392010061423504e-03
-7.790951981771184268e-04
1.556931989403035309e-03
4.836895164480551484e-03
8.923562337379765952e-03
1.182616251998119469e-02
8.786913525499066499e-03
2.052434347117876659e-03
-9.478870031894084947e-04
-5.747688133476372245e-03
-6.721367502206461106e-03
-5.839635965176052934e-03
-7.623743282273739638e-03
-9.678441608839990010e-03
-7.725422189758763408e-03
1.342106398385416698e-03
7.245349095517548618e-03
7.519608689472658328e-03
3.688183594579269760e-03
2.624514686257495809e-03
3.572635880989502057e-03
3.633150362945145213e-03
2.489022890340881339e-03
2.556465822209743385e-03
4.406795306497917133e-04
-4.059108866576380606e-03
-7.641343471537663176e-03
-8.076910828340003873e-03
-5.733354672843539099e-03
3.922736262752567551e-04
4.126487174264068317e-03
2.797113422752718626e-03
3.638031392960797486e-03
6.848349614800207374e-03
7.726240114931150205e-03
1.398384397546129608e-03
-3.293689353713436831e-03
-6.069470132004200526e-03
-8.493377195303034033e-03
-6.801664062670534361e-03
-4.567305315490930925e-03
-2.936344877647947826e-03
-6.314649040525402782e-04
5.433371791415502784e-03
1.160430318170216357e-02
1.419984773700167305e-02
9.360213667176943073e-03
1.293270392076261224e-03
-2.750300273602281249e-03
-2.839025006377923158e-03
-3.445739128264391476e-03
-5.192300470076322005e-03
-9.108648791443229101e-03
-9.451603844224562914e-03
-8.348823519333295126e-03
-5.576693278794202756e-03
-2.457583073798815312e-04
2.626195191470344359e-03
4.763822984941749709e-03
7.751306263312776439e-03
9.812272500201812617e-03
1.037430230083381463e-02
6.702862297155521079e-03
1.984017766290318771e-03
-2.152254787763612301e-03
-5.017924186905282045e-03
-8.539350868999998068e-03
-9.621305794918540849e-03
-8.075906409158983487e-03
-2.804293192937254084e-03
3.779556843568883037e-03
5.442830073197547046e-03
4.796668301252424507e-03
6.885407530374876468e-03
8.656870099912762628e-03
5.066270419008488818e-03
-2.406500298024958067e-04
-8.047159621175458202e-03
-1.532282601515720134e-02
-1.644268460112589814e-02
-6.545262089796138882e-03
5.035462564481516315e-03
9.716800360236770365e-03
9.882655582756309093e-03
3.769944749546289518e-03
1.638060327316848315e-03
3.947780683809678712e-03
8.231202803222060008e-03
1.184641404347980612e-02
1.061652385067694132e-02
-1.259881657186190385e-02
-1.876382662709201801e-02
-1.335788856647361807e-02
-6.078534918653842253e-03
-4.563785681027422714e-04
3.554465175260741391e-03
3.776299257651098695e-03
3.583651913247506027e-03
2.128143164564519005e-03
-1.400893902132186938e-03
-4.890662613876540360e-03
-3.624559507251040071e-03
-1.436208854273245041e-03
1.787503574837204278e-03
3.835698514035471105e-03
2.754430928240565127e-03
3.092324903292963459e-03
5.670260819840447150e-03
8.036472956472067580e-03
4.468521263041673117e-03
1.705311247110897598e-04
-2.296508969885781119e-03
-4.374389636924467389e-03
-3.557796556037253789e-03
-3.907360024139309822e-03
-4.286001829931653136e-03
-3.534707632092231634e-03
-3.105687514190526299e-04
1.731455870788638912e-03
2.791756235640313090e-03
-2.452831327528629587e-04
-4.810817010571536920e-03
-7.386160352509231128e-03
-4.271997503289667354e-03
3.521094331747541550e-03
1.133233848842671657e-02
1.038491320102165501e-02
4.258849382489473569e-03
9.522152810060415321e-04
-1.768954176206960147e-03
-4.315632191774511871e-03
-6.952335441452279705e-03
-5.369821519207850641e-03
-3.195612867146203386e-03
-1.922621046888898805e-03
1.989415673396902062e-03
4.752889090826409486e-03
5.016374010410582646e-03
4.474021415318750645e-03
3.440792744870301966e-03
-2.138168012458716808e-04
-2.670131096321129958e-03
-4.529919729050113988e-03
-3.029682924248496001e-03
-2.107008744540469266e-03
1.335984465317501240e-03
7.211861538307513114e-03
9.045051473679783030e-03
3.432762563777353587e-03
-5.988522633086239277e-03
-1.281815913006219450e-02
-1.750987257664141442e-02
-1.776808909504111814e-02
-1.054533657345201395e-02
4.430598180624708768e-03
1.731276460139414761e-02
2.352767655987031414e-02
2.009893014853149709e-02
1.296481914876766034e-02
8.589073925498172044e-03
3.292801999668668739e-03
-6.347749886094105828e-03
-1.218186578914788945e-02
-1.139119112133090729e-02
-1.012244131004973353e-02
-8.813821244341390332e-03
-7.517143700321287508e-03
-6.497844980340245630e-03
-6.843569625085004458e-03
-4.672181476873002101e-03
2.293730604281919109e-03
9.062915019241417000e-03
1.052635378922423329e-02
1.120220650413953321e-02
6.754433814164515978e-03
2.747085307520786418e-03
2.580998652336893850e-03
4.591043399741315083e-03
2.504988657771389099e-03
-2.344754492389355092e-03
-8.033306672996629386e-03
-1.173080623173726120e-02
-1.335842838771748864e-02
-9.328852745430188387e-03
-4.808097646765100569e-04
9.443590099818762601e-03
1.196243859767576710e-02
1.017506800434058410e-02
8.381389050184586895e-03
2.161350163390952060e-03
-3.771897088968140764e-03
-6.555723370387563781e-03
-7.463108908569892480e-03
-8.084396169375097918e-03
-6.052586125965528363e-03
-2.062085970531622042e-03
1.808101332763253043e-03
3.769855145381644998e-03
6.747747402936697149e-03
1.013709057780768329e-02
7.820302034579841924e-03
3.769490796415040160e-04
-1.858272244604946763e-03
-2.437679763702483085e-03
-1.089626268168958616e-03
-2.683956638819028420e-04
-1.176149524522186567e-03
-6.805636433909275154e-03
-1.033714332050385785e-02
-6.274480439289475270e-03
-2.042581025972261578e-03
1.996855043867769731e-03
4.755703223074003727e-03
7.461684970902588039e-03
6.171678591576647797e-03
4.580125741974353480e-03
2.720380124933193672e-03
1.232250443963142997e-03
-1.234811669627524158e-03
-3.597941081726045102e-03
-5.393186877959772058e-03
-7.539225078232471809e-03
-7.608895992458468774e-03
-2.578990855168697763e-03
2.009870566234163262e-03
5.933337946271411388e-03
1.000573917483793540e-02
1.256695941926482853e-02
1.054957421599043814e-02
-5.189766235407303197e-04
-1.094736513374313866e-02
-1.320043584747774071e-02
-7.080190419649958107e-03
-4.603040544509694361e-03
-3.446462083874060438e-03
-3.275619359786087655e-03
-4.047893417950948480e-04
4.875209453397305950e-03
1.241391975646188688e-02
1.746989494079968092e-02
1.468013941429645829e-02
3.712139999263281212e-03
-4.774955746518172797e-03
-1.292113919139243651e-02
-1.764683671076473781e-02
-1.720302521734380294e-02
-7.349764096577289518e-03
2.775791918793903482e-03
6.524030771768632615e-03
5.827412896512269500e-03
4.627539661962387640e-03
2.606660805141137148e-03
1.432293045258643469e-03
3.679720691924140419e-03
5.959030384502157253e-03
5.625760441306889084e-03
2.764699923791919499e-03
3.457063278132039771e-04
-2.637175543658669147e-03
-5.818337354484936011e-03
-6.996172300036329270e-03
-8.841759591444099675e-03
-7.604773880271423030e-03
-1.811628846595906249e-03
3.610805778738072208e-03
4.195264182958466717e-03
4.318620374464486773e-03
6.818057197251035581e-03
8.559342715248519431e-03
4.399507348557215626e-03
-2.744512387292109140e-03
-4.337172107343186672e-03
-6.059060156056489573e-03
-5.374175616293710642e-03
-3.734958637093362468e-03
-4.597555941281326886e-03
-2.435464216838377147e-03
2.153558465210674532e-03
9.313246699472303713e-03
1.214718811910484898e-02
6.029144433637669345e-03
1.273194560507099997e-03
-9.667464851709182960e-04
-1.666954342847234549e-03
-2.548238857933936979e-03
-1.943645173410197581e-03
-3.942653050263686398e-03
-8.006766692861986764e-03
-1.018548533501357524e-02
-6.625511220600121230e-03
-1.204469279594491335e-03
2.700297384225754452e-03
4.183695196680740566e-03
6.783290143666810199e-03
6.717015424051283462e-03
6.910074670847542871e-03
6.000520855211877516e-03
2.912587486091729704e-03
1.739060037425598816e-03
-1.073206919635786086e-03
-3.900685430276118210e-03
-5.887904674466746570e-03
-8.620205288416045095e-03
-8.032694417593369551e-03
-4.174796328753539731e-03
-5.332299455427010754e-03
9.591409032482858810e-04
1.143812346411584094e-02
1.397574357156308213e-02
7.862226796979350507e-03
-7.763775348250314540e-04
-5.084921510335652269e-03
-7.398326518584366629e-03
-7.339189532887850469e-03
-6.089097721261640603e-03
-2.572773933682110346e-03
3.491269620714568256e-03
5.946539868090967851e-03
8.986183036195924748e-03
1.312031433015219475e-02
1.304851395690434339e-02
3.775648525939047893e-03
-5.792507585699102624e-03
-1.236376264043678556e-02
-1.488663358676912789e-02
-1.377481730525815552e-02
-1.212081252796474475e-02
-6.998087106751527814e-03
1.377158641311744883e-03
1.085454136025959006e-02
1.443460420918212493e-02
9.407367212186970931e-03
1.456908788874007599e-03
-1.454214047867448401e-03
1.904457695283120165e-03
6.943312427612346668e-03
6.305077800359229490e-03
3.754596504232723085e-03
2.741802761100464118e-03
-5.033760843237768644e-03
-1.321677776201513228e-02
-1.665895695276441157e-02
-1.767281974524143734e-02
-1.321737655935347443e-02
-1.620740280010369780e-03
1.176071801940209091e-02
2.215601718993741656e-02
2.261802319271316933e-02
1.591426534708260607e-02
4.603866483020942549e-03
-6.061199423960078603e-03
-1.194262804575504065e-02
-1.030876907932541144e-02
-8.823682407725868052e-03
-8.902347871373887667e-03
-3.716877752717197975e-03
7.531909222107599500e-04
4.187673967836973155e-03
7.959673179805613549e-03
7.353501438805845093e-03
3.466235254898126280e-03
-2.742953773145411639e-03
-4.805950530756968563e-03
-2.035449434217876438e-03
2.308081348718362801e-03
4.985482913293910398e-03
3.388333834619225611e-04
-5.517214455666750311e-03
-8.276019925178292394e-03
-6.356000733584013518e-03
1.189198988496909375e-05
5.880624303444065976e-03
5.854341416352962409e-03
5.069566821677260263e-03
3.779692740194680149e-03
2.540495249684828621e-03
2.259092536775431862e-04
-7.828891507861007737e-04
-1.614325575200475796e-03
-4.920269800138453442e-03
-5.871381102968662412e-03
-4.668667312850184603e-03
-4.103286284088979163e-03
-4.044960798792619078e-04
3.327652161058927867e-03
3.524996512248107505e-03
4.232304868166170131e-03
4.284654821753558149e-03
5.696237864841414457e-03
5.724480276028407269e-03
1.906462673186727543e-03
-3.970797017658940151e-03
-7.544627987867717246e-03
-9.501846072397776566e-03
-8.709135829058106681e-03
-4.500676323746240215e-03
-2.782734175110588605e-03
1.816190144696213857e-03
7.631121330484671138e-03
1.435003251932064940e-02
1.309518421886142307e-02
9.467308385026624099e-03
4.937858820090047784e-03
5.233660357595228824e-04
-7.014064128069130363e-03
-1.538512503125937826e-02
-1.981082548484377343e-02
-1.347021612185457691e-02
-2.907681017481410918e-03
6.002686330230681475e-03
6.065110087486708275e-03
5.686849888518794895e-03
4.449483683342990437e-03
4.385634497579358158e-03
3.709552153064029842e-03
2.146917947144280463e-03
1.232392923004759985e-03
2.626852418602484973e-03
1.249806202969085123e-03
-8.334761513994399552e-04
-5.117309733494665187e-04
-1.404593583960184449e-03
-6.075054067419854292e-03
-5.800891207035676657e-03
-2.390676854077821920e-03
-2.467227018317181761e-04
1.417699108719845322e-03
2.016446442143945018e-03
4.471769504034297377e-03
1.632101242187500474e-03
9.895675428749572348e-04
1.943123280691226498e-03
2.359086942787534495e-03
-2.955116524308444136e-03
-5.161458865401306016e-03
-4.280253047254429025e-03
-2.783071110529049697e-03
-5.442870905090732223e-03
-1.790146001553866682e-03
2.602203765839017184e-03
5.188225157492573972e-03
8.124548316537827733e-03
1.155614830915269349e-02
8.126217330771836819e-03
1.293606369302001402e-03
-4.117129798494783069e-03
-5.717340072827055593e-03
-5.066026327930121809e-03
-3.689144332303492119e-03
-4.746975694637869427e-03
-5.702360979031513913e-03
-6.099447798140958735e-03
-4.971062843589887231e-03
-1.759992674875945212e-03
1.535376299604447776e-03
6.757899005367776907e-03
8.287442392223889551e-03
8.592923261019952755e-03
6.320799488337683868e-03
2.849961203871868853e-03
1.373412768491542174e-03
-2.561713548124420169e-03
-5.029604382689482553e-03
-6.234004632723950078e-03
-6.537107257335521282e-03
-6.304379154696791547e-03
-2.089211580342678100e-03
2.684478574327462883e-03
3.059643558745682879e-03
3.986062658582905510e-03
6.888484571047165557e-03
8.290114863118142399e-03
2.404890840552839811e-03
-4.824498318031677363e-03
-6.253950763738642081e-03
-7.421710668003185518e-03
-7.015779741959094623e-03
-3.282376358568813574e-03
1.547913313535054410e-03
3.852036796405743958e-03
3.800209553820589788e-03
6.270114999331777295e-03
9.556070543492545949e-03
7.050965888214020746e-03
-8.232674945131502405e-05
-3.664383440920123986e-03
-3.593879424714378594e-03
-2.342120431777428100e-03
-2.805192307044319846e-03
-4.327070863385164279e-03
-6.812979878708835119e-03
-8.437904740714390409e-03
-6.563673868658364760e-03
-1.406732229034008720e-03
4.868311078805482271e-03
9.205596551960227442e-03
9.172253243238663589e-03
7.220528973483583170e-03
5.797371496396037938e-03
2.762698735130355090e-03
6.967305648204642765e-04
-1.489942253926441681e-03
-3.821945431313739268e-03
-7.238239720401605168e-03
-8.858554914603779251e-03
-1.296890549979922737e-02
-1.179815440653545974e-02
-1.851250192260385161e-03
8.909743558585965159e-03
1.524538400654749763e-02
1.554405016728455796e-02
1.196703487654227592e-02
4.342001518377699987e-03
-1.442651053951721218e-03
-6.553830806800218720e-03
-1.004897908520722624e-02
-9.475909748831399040e-03
-4.677908428398261029e-03
-3.279674274452592381e-03
-4.508922553317184015e-03
-2.705015495614263889e-03
1.449794218264484751e-05
5.347198381083344623e-03
1.056240729052108397e-02
1.155049454279337071e-02
9.384217344643357508e-03
3.303068065701111368e-03
-2.108322611324538014e-03
-3.014346671314803005e-03
-5.778418435034449879e-03
-1.230483994407487354e-02
-1.499628695691552181e-02
-1.078882002331859290e-02
-4.357937968046636870e-03
2.556313220985663957e-03
1.037685392175300737e-02
1.755894880215414650e-02
1.920738123648376913e-02
1.241083312381804221e-02
2.496355516456171680e-03
-5.360105934966875180e-03
-9.942452826392484885e-03
-1.414032412488467304e-02
-1.716236364306034448e-02
-1.896082939953156951e-02
-1.535412529274228499e-02
5.886054501348936263e-04
1.915287976405835937e-02
2.555766221066816876e-02
2.008057350033067012e-02
1.224792766602906917e-02
3.129818438846314679e-03
-3.976080407517543908e-03
-7.350358672612080160e-03
-1.141673438055283533e-02
-1.482625285165611873e-02
-1.242838263130910045e-02
-7.163624994627901255e-03
-1.818725564515380824e-03
4.483898924438445982e-03
8.807614506440854599e-03
1.080756615702157565e-02
1.257643672167893870e-02
1.071094482768595278e-02
3.183058897166397491e-03
-3.327307538578351022e-03
-7.001355869889008821e-03
-6.749147509584304920e-03
-7.386083901076513636e-03
-7.417118505771888234e-03
-6.966748239352654054e-03
-5.032821734214520601e-03
3.554209565680846797e-04
2.666969381138905963e-03
2.724921048939486952e-03
2.893047417287904904e-03
2.330249860716795095e-03
5.216264862010018023e-03
8.075380911638846068e-03
7.397864503423333057e-03
4.518892731093349970e-03
-7.898734830220814976e-04
-5.281009028397528823e-03
-5.886990723726779826e-03
-8.104875108312301069e-03
-6.610094797951387643e-03
-1.271758616292749042e-03
2.699605130677018572e-03
6.046907093638795305e-03
6.771367038468364269e-03
6.390679774076665418e-03
4.905840131392094107e-03
-2.645291027994559063e-04
-6.652604510581998885e-03
-1.116546327914202594e-02
-1.344351790513499852e-02
-1.495003306773542290e-02
-8.909445986998909897e-03
4.115869314559979925e-03
1.346404588036271589e-02
1.926357890745074644e-02
1.853634951455288352e-02
1.236362526521544471e-02
3.599113149249658777e-03
-3.274003719125775577e-03
-6.551886400359476295e-03
-6.831624947638371970e-03
-4.089652207435599124e-03
-3.763693549735974003e-03
-8.036776908564515973e-03
-1.109333197258249339e-02
-8.266752182298353971e-03
-4.277932898423932387e-03
-4.229956414844851173e-04
1.906731476971758148e-03
7.161462303968224238e-03
1.234195099513529618e-02
1.034101048706160923e-02
5.952085791863020656e-03
1.516289781250778138e-03
-1.710181170958851096e-03
-3.558508582424720589e-03
-6.625734523343507730e-03
-7.881195477487409548e-03
-5.073841521179922945e-03
-8.841825784231419701e-05
5.326868229611049152e-03
4.524195148311559167e-03
2.587393333364145214e-03
1.225506335618839482e-03
4.571887933089531161e-03
4.690224400845361893e-03
4.045066729109956079e-05
-6.501715293850781306e-03
-9.625635447132036698e-03
-9.671470023935105353e-03
-5.917029291235236313e-03
-7.008913464912587890e-04
1.792839064860134689e-03
3.615001824137708229e-03
7.399196943197607068e-03
1.223739562642820779e-02
1.261074806673373808e-02
7.243113177249145725e-03
-1.348427978299392149e-03
-5.315137489891739314e-03
-6.262219298497831779e-03
-5.619422302822635676e-03
-4.930958722113494043e-03
-5.080174030427358350e-03
-5.670959852847668944e-03
-6.397711543846064039e-03
-4.453103990193852182e-03
-1.803727896027623658e-04
4.442155200997541242e-03
6.551052128094911331e-03
6.808967147156808411e-03
5.118991126792602278e-03
3.970444701794294609e-03
2.327095625050921990e-03
1.997108103017046922e-04
-7.456842622004418442e-04
-2.375455333457135009e-03
-3.219917784832528052e-03
-3.811126363170077962e-03
-5.154179549197878199e-03
-2.011072946235120673e-03
1.384218737555509282e-03
2.770561057818360286e-03
3.843642231360866642e-03
6.289142908162643347e-03
7.206122310804721071e-03
6.346954064967874100e-04
-4.893972818001472019e-03
-8.327976839851742794e-03
-9.989797539036976426e-03
-8.830325625838136502e-03
-3.652761501969352398e-03
2.456556659710304978e-03
1.662775197844401035e-03
5.025567380475868574e-03
1.166954327927295816e-02
1.503648278199359346e-02
1.097298942633844789e-02
2.466327655209514177e-03
-4.159714829644015933e-03
-8.996106959765097499e-03
-9.071915977595544286e-03
-7.035959394956594823e-03
-9.007070600444843853e-03
-6.711584185296889417e-03
1.922600686234721828e-03
6.510905598825086731e-03
4.656284188929654157e-03
3.012340012810044761e-03
1.560483862669654123e-03
6.222737848112207953e-04
2.531288548508853382e-03
4.150046437240905925e-03
1.746832364859661826e-03
-4.737775286193330812e-03
-1.093429057563961339e-02
-1.278183443661131714e-02
-9.436032575198555900e-03
5.354942367484264928e-04
1.288611408309896927e-02
1.981630825243154911e-02
1.500176057392771552e-02
6.102854371767047273e-03
8.820261952842464032e-04
-2.553692800937146234e-03
-5.364597543164324744e-03
-1.040578707276991477e-02
-1.229554887393877367e-02
-8.696131330011904262e-03
-4.579723626016451304e-03
-3.376891023107762152e-03
-1.486827435530213050e-03
7.289369655690278518e-04
2.751390837444685038e-03
6.945342894454036194e-03
1.305716068156455301e-02
1.698818564135246706e-02
1.018315101662703621e-02
-2.512942989620500778e-03
-8.338934120663554772e-03
-1.040855178338154739e-02
-7.249396335137023133e-03
-1.486695930119517547e-03
-2.120507200226507023e-03
-4.223040114662931013e-03
-2.208848543063124219e-03
1.469133496864542202e-03
1.326494989191760027e-04
-1.562057514023162952e-03
4.680201562404858080e-04
5.148242200993315663e-03
7.460203578951966549e-03
8.201286934256158886e-03
4.519471047060333660e-03
-1.697571001598528750e-03
-4.892685974258514058e-03
-8.353292364157514915e-03
-1.322780862813206955e-02
-1.273206839415140512e-02
-5.584427014577077707e-03
7.188767146118255069e-03
1.659625602628521032e-02
1.528423422192290437e-02
7.904195792907546189e-03
4.547671897233286457e-03
4.528535611371693054e-04
-3.543449231415292042e-03
-7.558815557059258075e-03
-9.146080606536700214e-03
-9.235122065811682615e-03
-9.531696217726827111e-03
-7.477736866848159678e-03
-9.802539646041209115e-04
6.247184554933773656e-03
1.322772791318306898e-02
1.561728710739721318e-02
1.654098083085410106e-02
1.118899016601017198e-02
2.697804267505460318e-03
-7.446776695798075843e-03
-1.267795801550023436e-02
-1.506425226440936092e-02
-1.568422745738104127e-02
-2.072491705795025466e-02
-1.813956615543481365e-02
-3.295174754812352919e-03
1.322497069915058374e-02
1.963389717374057486e-02
1.939389433349323830e-02
1.608679415728457920e-02
1.019248432223331981e-02
3.505171632886818975e-03
-5.614774671260387012e-04
-4.138253998531376231e-03
-4.663534338937139201e-03
-5.547654202239578336e-03
-6.694930926391211116e-03
-8.149799946168554202e-03
-8.558385626847129710e-03
-8.517601421054551980e-03
-2.638079741738970363e-03
2.142574682108231397e-03
5.473618678425394395e-03
7.019871270070257400e-03
8.128859278337485436e-03
6.021406136670492612e-03
-1.182642196961432648e-03
-4.553904367130056502e-03
-3.432649916305727765e-03
-5.500164370354887044e-04
-3.523061345317255334e-04
-2.594053909975579074e-03
-2.644008784051217389e-03
-7.927084796238536950e-04
3.089777545787257551e-03
8.184086555200741422e-03
1.181195857163096045e-02
7.156191807030293402e-03
-1.468852468446468773e-03
-6.232506312805247486e-03
-6.453566318070536045e-03
-2.329182728076925959e-03
-2.093531520808318384e-03
-5.376235856671601754e-03
-9.453441379072500747e-03
-8.484910733553096759e-03
-4.658173260061705505e-03
1.414503406716122701e-03
5.494413637119262804e-03
7.940397245381954419e-03
9.420534999727550249e-03
7.998972007530229938e-03
3.702893675553146913e-03
4.195006168862360684e-05
8.018024778569804445e-04
5.854321544701973634e-04
-3.811154658638299473e-04
-3.718988486850809995e-03
-7.396203937475422444e-03
-6.484006907847006396e-03
-3.985628859369638559e-03
-1.220533544897042626e-03
1.260322077805228758e-03
5.045891135592499299e-03
5.621888415115436181e-03
2.590018005373038307e-03
2.740383549142033810e-04
-2.660285279875904216e-03
-5.427038990979985919e-03
-4.361029553957392751e-03
-1.619279969247620476e-03
-7.601588258570801324e-04
-1.861738584679620897e-04
2.122446683340888270e-03
6.622301286700131226e-03
1.007123090227000917e-02
9.194340621645128234e-03
3.285653660089544147e-03
-1.813275109606811517e-03
-6.363916841338620144e-03
-3.592413094422748296e-03
-1.493942093896892705e-03
-2.524549136411956447e-03
-6.947194906571193401e-03
-9.620658487210902512e-03
-6.864051899201894721e-03
-2.746178482096479218e-04
2.501527489409086091e-03
1.795913984251493352e-03
3.462382168746720983e-03
5.129482799958879832e-03
6.715140484345842598e-03
4.769107538927452004e-03
2.382442382231119392e-03
3.078814942471572169e-03
2.725732956870138921e-03
3.697927567522943729e-04
-2.827599152745500794e-03
-6.484300037563592994e-03
-8.703465343645503186e-03
-6.527271229946348709e-03
-4.327178828224148219e-03
-1.139398218877567780e-03
4.449963151811341631e-03
9.418472133644004499e-03
1.271228661134060287e-02
7.308756634151702958e-03
-2.237143672804080274e-03
-8.795000330585235268e-03
-1.257568008404297451e-02
-9.380677204211261208e-03
-3.876985545636885827e-03
7.776000608629091496e-04
5.220817455631024222e-03
9.153064588654171232e-03
1.179377047416265388e-02
9.746399052713820496e-03
2.343808789066621247e-03
-5.596647606642338527e-03
-7.881369033205154820e-03
-2.839424801993895020e-04
6.041017179724059508e-03
2.270994175887404605e-03
-6.324336456382271231e-03
-1.181952966957086452e-02
-1.034376088349644833e-02
-4.523851643396823406e-03
-2.118141915155325253e-03
-4.584841461019754580e-03
-1.300400687122588595e-03
3.565660308849371435e-03
7.510267506938870380e-03
1.059398431643923839e-02
1.512137458364370447e-02
1.357785926537169972e-02
4.497099988141800217e-03
2.483549802960831332e-04
-2.706566613757259952e-03
-4.876451230970046437e-03
-7.232329711416114401e-03
-8.748893996606483744e-03
-1.020513534824125067e-02
-1.097101303619814686e-02
-1.037810643915051782e-02
-1.620233449466938064e-03
4.585028632342121914e-03
5.615839902326931130e-03
5.859875437744844345e-03
3.878278081131680127e-03
2.154203074098393587e-03
1.433328596833751897e-03
5.292411629504369108e-03
9.759803137344464849e-03
9.574176481849366177e-03
4.144364960434129136e-03
-1.470259400658232359e-04
-3.199156499104354942e-03
-6.439997876449394219e-03
-4.257642961960024508e-03
-3.966670046215295745e-03
-7.325412245372084526e-03
-8.384723159433149151e-03
-4.770113737842388187e-03
1.100786052249108984e-03
2.930975853701857630e-03
1.064494734894627388e-03
-1.035632756286514189e-03
-1.228237554200338477e-03
-1.153376987239957546e-03
3.098463803980029338e-04
2.904228107135587746e-03
3.297821241959771922e-03
1.781750655337850306e-03
3.935784539647691448e-03
7.649483946920476382e-03
6.474865140674154404e-03
1.681424751829340043e-03
-7.903795556685427708e-04
-3.137302190806575200e-03
-2.711260604449959762e-03
-1.771342461866560157e-03
-1.061293257121656043e-03
-1.322561403867618911e-03
-4.961905818045997223e-03
-4.904380941719201602e-03
-2.593944783595624089e-03
5.525766043855562942e-04
-1.434675106612196991e-03
-3.673051823035483610e-03
-3.253343466627599094e-03
-7.761584520937204155e-04
1.925429654414502825e-03
8.591148772837324359e-04
4.817323978757821409e-03
1.080394341315936771e-02
1.456062002893313001e-02
1.285868408411343193e-02
3.813194184814292995e-03
-4.252832747880632216e-03
-8.812266397738161006e-03
-1.174126853765191519e-02
-1.029857053560802836e-02
-8.555279176383961959e-03
-6.247256038068660713e-03
-5.029032185035129700e-03
-3.137561605428355535e-03
-1.200581624900677472e-03
5.836326893059695826e-03
9.772388687234640631e-03
1.065002980557617530e-02
8.958450233146135824e-03
5.622879927494184651e-03
2.303631442054913936e-03
-1.962255265036769863e-03
-3.891950325855297529e-03
-5.564427773225221092e-03
-3.579858995628616876e-03
-2.175226224306906972e-03
-5.283795890433470865e-03
-4.934163895501764846e-03
1.662194841951796127e-03
4.329337245664054146e-03
3.882052564260792156e-03
2.816013772884764024e-03
4.237369504809997134e-03
2.857827108164467684e-03
-4.021143337221058829e-03
-8.881210254458255307e-03
-9.248940249840114508e-03
-3.122310226062926727e-03
1.715900317439324196e-03
2.339952317858233835e-03
-8.860152110649598144e-05
4.098293347563800038e-03
7.742007470631736242e-03
1.157627671715768906e-02
1.065098992718954002e-02
3.954049567979820573e-03
-2.218441734682494344e-03
-5.994859932574529704e-03
-7.926277363142534074e-03
-9.290446486671618750e-03
-5.210458041718621890e-03
-3.412470153076324966e-03
-5.452126943278358916e-03
-4.883870963873565389e-03
-1.609926825648700689e-03
7.034200000185463191e-04
3.462340411070664870e-03
6.263691069904032266e-03
6.116746783303675557e-03
6.432188593284179738e-03
6.787985893795017017e-03
4.906134052889600181e-03
1.380071960632633411e-03
-2.155411215117554284e-03
-4.851365284807551519e-03
-6.333966821429535404e-03
-8.224543750386394472e-03
-5.131914057999863166e-03
1.160237374132486871e-03
1.847300428896383323e-03
2.618301050619573599e-03
3.970660290220074523e-03
7.159369944087057291e-03
6.108337384902566558e-03
-1.451629139220895516e-03
-5.590949740382598551e-03
-7.680322921872259796e-03
-8.490214987612060976e-03
-7.278235152561363802e-03
-4.693108428139877372e-03
4.232382250314060956e-04
3.704348565739126221e-03
1.234282399554177158e-02
1.929940850132602290e-02
1.535832611169304224e-02
4.087432738451760028e-03
-5.168475298042934582e-03
-6.883581481322917882e-03
-7.723559201185346661e-03
-6.994339510961402120e-03
-4.406423000897411943e-03
-5.707274015875092935e-03
-9.856262988642301021e-03
-9.023392418837219986e-03
-2.174811781862998408e-03
2.627324194689738615e-03
5.299119209307611746e-03
5.476925115085545803e-03
6.465787483179085034e-03
8.050415518202113166e-03
7.396396260006753501e-03
2.397001867076016188e-03
8.229890233666502936e-04
-5.829363927542735926e-04
-2.828193935028718194e-03
-4.054474981811062757e-03
-5.786797652618528437e-03
-6.822499141443189724e-03
-3.071566797149953218e-03
3.599470152600604475e-03
8.119443396761639661e-03
1.015191150843622152e-02
6.928269575239457551e-03
3.170865524000495914e-03
-4.161061666513327789e-03
-1.366079779360166065e-02
-1.642150697335702236e-02
-1.602858993197485427e-02
-1.376733132562106034e-02
-7.874057386956437657e-03
7.055919683982603968e-03
2.143264352224321170e-02
2.774332314759156426e-02
2.404952979135159194e-02
1.352595087975960904e-02
2.483701200746734825e-03
-5.868777969000496531e-03
-1.079054629789804286e-02
-1.016429661811255221e-02
-5.807327400333702969e-03
-7.412463510210146045e-03
-1.452256403709179661e-02
-2.018091999320206428e-02
-1.596459913156634408e-02
-3.283715839772060469e-03
9.806460520070527792e-03
1.590705500727337615e-02
1.526920275741083452e-02
1.164971901915988657e-02
9.239068304681441121e-03
6.543910069661094606e-03
2.789085637119265507e-03
-9.846349190214406734e-05
-1.908655464626826150e-03
-7.342500322470062006e-03
-8.910224776222209347e-03
-7.366217103019403328e-03
-8.952640386662111607e-03
-5.403925152600208906e-03
4.210741888625978840e-04
3.388073332941617111e-03
6.154150421436497403e-03
8.175704355312760768e-03
7.228176902220044553e-03
2.452209373363917373e-03
-2.293968332595159275e-03
-5.762321255911286889e-03
-8.402611951074823865e-03
-1.190807038339692508e-02
-1.250583803829897339e-02
-3.403620583633627968e-03
1.299782592848708167e-02
2.418508181405622931e-02
2.431616071243530158e-02
1.559878339180387034e-02
1.740712861578211715e-03
-9.591105968032590662e-03
-1.620932283597840279e-02
-1.680626704356726411e-02
-1.551232734651544418e-02
-1.425338101557361951e-02
-8.625706658897865434e-03
-1.632074299206793741e-03
7.141415389403289044e-03
1.662669491916158801e-02
1.433729018937274918e-02
5.800054160458818775e-03
1.875479779587241325e-03
1.199420037834448768e-03
7.055919230020161678e-04
5.065905096697667989e-04
-9.872404444894139312e-04
-2.180820339472465310e-03
-3.324135842435703425e-03
-3.607119127381675731e-03
-4.358649036117614138e-03
-4.464936588270710868e-03
-3.571725636301625959e-03
1.730608455277640907e-03
3.562328653802978792e-03
3.656324018674960742e-03
5.573244380632030870e-03
6.306665344652515222e-03
2.537538761625618682e-03
-2.500078146575913061e-03
-6.495985742621022963e-03
-1.142107400518806853e-02
-7.049101138425372184e-03
-1.782303071211800184e-03
3.589191827775947002e-03
3.064321620373932839e-03
9.893381277076150788e-04
5.339465432659114968e-03
1.093226005673778381e-02
1.087325467353371378e-02
5.564337711494613155e-03
-4.907327433136361369e-04
-3.861011888043060225e-03
-7.818798851947486583e-03
-7.980919683954963359e-03
-6.485760735894592795e-03
-4.811459200233289719e-03
-5.448747896626394971e-03
-3.355410100904561259e-03
-9.140762911093872414e-04
6.044522180855861626e-04
2.555959069128540574e-03
6.926647711634642893e-03
8.538826069592274012e-03
5.568814081082456777e-03
3.964169185624154962e-03
2.027961611821222157e-03
1.251689942751742397e-03
-1.006734465734342165e-03
-2.821147460254755726e-03
-5.473798995743604096e-03
-6.278634480865615507e-03
-3.612940524122604073e-03
-1.340795988700931550e-03
-2.710533804873287590e-03
-6.085815555049472157e-03
2.366687894956547966e-04
7.807692785229554747e-03
1.105874659569381323e-02
7.295238912668710468e-03
5.060945863599088795e-04
-5.200418433652041414e-03
-6.513007137156426318e-03
-4.426128855577029890e-03
-2.865104166853872994e-03
-2.918069225110132489e-04
2.268143749713348665e-04
4.296774103637841097e-03
1.185785050846172028e-02
1.047556197138441170e-02
-3.893362512409990345e-04
-8.150034845269420875e-03
-7.223776439317873208e-03
5.220675189719541434e-04
1.050352049259395230e-03
-2.540560209174003506e-03
-3.896797623661722981e-03
-7.444952385814441499e-03
-6.573573716067257662e-03
-2.864508259826088581e-03
1.680482004296997289e-03
4.018292303123612713e-03
6.003137936922956289e-03
8.576264121158206841e-03
6.109991555067114180e-03
3.642784634485960772e-03
2.074260194161634333e-03
-4.621330875333026431e-04
-3.408967484544166236e-03
-3.323107686066988867e-03
-5.467759034875438462e-03
-5.192550635746278308e-03
-3.494626963403675221e-03
-2.439986929240976592e-03
-8.919500147061914207e-04
1.824173483028078153e-03
5.459782251892695767e-03
7.466039627707051103e-03
8.331546838112890291e-03
4.104028600053529451e-03
-3.081012707991585657e-03
-8.661078386477789881e-03
-8.849300255862526526e-03
-5.973959126230209485e-03
-5.579782723419818985e-03
-1.934439314615783549e-03
2.131122993307977588e-03
6.814779070219775282e-03
1.091425199931785918e-02
1.029938711950136900e-02
4.322264920078348720e-03
1.010504069215439546e-03
-1.539376331223625636e-03
-3.248079207490441132e-03
-2.345064792508265179e-03
-1.610910979710489070e-03
-4.397657786002500194e-03
-6.837120994409333005e-03
-7.142751419289380260e-03
-6.370973888570012969e-03
-6.440597349863499445e-03
-2.815989263451687628e-03
5.258738843032659087e-03
1.215305136616241614e-02
1.194082755396278818e-02
9.986295600628544364e-03
7.067574293235642444e-03
2.730415213530542132e-03
-3.795590753882745888e-03
-9.321121689705868726e-03
-1.172803611189355590e-02
-8.592386060074992324e-03
-5.422815329838561078e-03
-4.065774834180365706e-03
-3.473667430004341757e-03
-2.001459619379224262e-03
4.873112960614247625e-03
1.706428818376406684e-02
2.758358902783005287e-02
2.208058289182728354e-02
4.786758194495147750e-03
-1.658172158411246391e-02
-3.096468998207256226e-02
-3.172838218981686303e-02
-1.726801117894509463e-02
1.059278102875279778e-03
1.220463414361438841e-02
1.503075264009084110e-02
1.524851187688467877e-02
1.350504491455808802e-02
1.056594107168819588e-02
3.348056176984935683e-03
-1.493905341229269032e-03
-6.476764779848481236e-03
-7.252100503241563911e-03
-3.728757708121427025e-03
-2.651181965040684367e-03
-5.684410950305794109e-03
-7.573657307916157981e-03
-5.752568632409100352e-03
-4.005452395119431588e-03
4.979067310284667099e-04
1.782179470113877569e-03
3.976044046840839993e-03
8.329754810367857865e-03
8.015172439493256987e-03
5.968435262060920940e-03
3.285993756337066835e-03
4.412171112003829276e-04
-3.937479440607000343e-03
-4.368141944469683749e-03
-3.466821334065766941e-03
-5.689410093248398366e-03
-5.276049190545495718e-03
4.734120610366855664e-04
2.042229508210409092e-03
3.023104143076415715e-03
3.176884822893993876e-03
4.379297397639371828e-03
1.156668336032288386e-03
-6.652442759636285029e-03
-7.643606929586569884e-03
-4.330603311706409525e-03
5.861023665085784984e-04
6.660142002491825294e-03
1.264828237574425022e-02
1.605574885593251053e-02
-3.642339805348044843e-03
-1.129174428084844979e-02
-6.379294117628874286e-03
3.378042804226129639e-03
9.370696166763631957e-03
2.414032330256742076e-03
-8.777918028523042440e-03
-1.436914491738144374e-02
-1.041630158521124165e-02
-4.972273413086173051e-03
-2.221886789368266238e-03
6.053850502391424845e-03
9.490221337570875840e-03
7.048966444588993484e-03
5.327035923580081267e-03
5.423417531404889531e-03
4.457517414661600445e-03
-4.676476845295769735e-04
-2.348229719948071066e-03
-3.199107630884946360e-03
-5.048578134397635996e-03
-7.799325890364497589e-03
-6.632401020296231284e-03
6.692216535169933506e-04
2.886075205067685154e-03
4.962319566663358356e-03
7.404080285210752968e-03
6.125028327673162284e-03
3.126784411777273377e-03
-1.587708529742022992e-03
-5.892818415202656299e-03
-7.369565547033225805e-03
-7.729677408822545163e-03
-7.017791236999422477e-03
-2.240645309222904537e-03
1.184599794026371285e-03
4.989163780873039425e-03
8.892576803701677385e-03
1.166787758071504734e-02
1.175231186957083861e-02
4.352678313661559849e-03
-2.676703597956799421e-03
-8.352837773509825745e-03
-6.952857761524297402e-03
-2.800265488829302256e-03
-3.537761018862562064e-03
-4.095051836707374986e-03
-3.771927440783456181e-03
-3.641572762116418189e-03
-2.126877422117979567e-03
5.695119827498749433e-04
4.135762197812402167e-03
5.089326461363111696e-03
6.074303673779171860e-03
4.101991355563365353e-03
6.126014347716379066e-04
-3.262594806419411020e-03
-4.876441344165096184e-03
-4.648693914853722908e-03
-2.408383421475183798e-03
3.517719221871648972e-03
4.247244101460155227e-03
1.702053847823835689e-03
2.045902387328708220e-03
3.325537142797844667e-03
2.187218812345246080e-03
2.273526245425689860e-03
1.259304608328941626e-03
-2.914892308820492923e-04
-3.496692089868650745e-03
-6.572594577287064685e-03
-1.123901958123007042e-02
-1.096945699475901197e-02
-3.506225288330599814e-03
1.351141867041410170e-03
3.709573526917292648e-03
4.569785689672015497e-03
9.937112244358250329e-03
1.464108465181262163e-02
1.423579354652891073e-02
6.682504716257474039e-03
-3.978329168763930848e-03
-8.833068835093901491e-03
-6.131700142074538243e-03
-4.016216743492617702e-03
-6.160919256587921861e-03
-8.250131474309826615e-03
-8.651613593755351148e-03
-5.973173260699448164e-03
-3.644152495275462464e-03
2.587721177629404533e-03
6.637990836381272262e-03
9.160217355708415859e-03
6.086653809949328989e-03
4.789013456198079263e-03
3.773773993010608868e-03
1.830726999922639014e-03
1.692279092978879462e-03
1.489269873230725672e-03
4.002698911196997042e-04
-4.547418599129512615e-03
-7.180283650704569198e-03
-7.737185116561524911e-03
-4.625897597472661098e-03
-2.814132080849326804e-03
-3.149672918229684190e-03
2.366317915653766944e-03
1.073794807493924641e-02
1.224186791130737161e-02
5.834351654306273866e-03
-6.987042044007086769e-04
-7.679741149754487801e-03
-1.056889400429839726e-02
-8.050024824284266953e-03
-2.487806492320090469e-03
2.971239522982221416e-03
3.482319927989706992e-03
5.318919596052891149e-03
9.698730857684941323e-03
1.049710237277346261e-02
3.712354836298921781e-03
-5.049956626825547606e-03
-1.033332006267107320e-02
-9.566874284244747048e-03
-5.802856261281192328e-03
-2.327042479021270490e-04
3.697506393267595282e-03
2.730298024847852001e-03
2.494021530172750665e-03
3.615627245361868140e-03
2.938741173387473572e-03
1.149854852947345199e-03
-1.803058906211066868e-03
-5.341778021167205293e-03
-9.484249495437914804e-03
-1.225793141856726561e-02
-1.108222334155030929e-02
7.304760161524507731e-04
1.519558559261431283e-02
2.414296656391747703e-02
2.195830001523546224e-02
1.290820937507217506e-02
7.722909960068205515e-04
-7.480274316310682806e-03
-1.067459546465730769e-02
-1.188431380874881843e-02
-1.520986008278059180e-02
-2.363046135230075992e-02
-2.053711341933351156e-02
-2.543882164082670108e-03
1.531105843281245667e-02
2.426570924400864651e-02
2.104979028460655585e-02
8.169346370114969128e-03
-5.652460643117097547e-03
-9.759978091106956063e-03
-5.763248472323499218e-03
-1.590850976732413906e-03
4.109617957430530995e-04
-4.878288043290985969e-04
1.485026280003401075e-03
4.113573063578362769e-03
4.220463487906651531e-03
5.001507191617959869e-03
4.747064269500479716e-03
2.141294715417041709e-04
-2.370631351092767052e-03
-2.247306251320595107e-03
-6.242648906994588756e-03
-6.020465124118246948e-03
-6.452543511200745617e-03
-5.471214256943699242e-03
-3.986805540545554014e-03
-1.009109057488778716e-03
3.597331126245565704e-03
4.676108438197363812e-03
2.446056379389854006e-03
1.571108941111269523e-03
3.974770462589847370e-03
4.555474396117324166e-03
2.773506722023380555e-03
1.881130526823408637e-03
2.967611658328251061e-03
1.143099667955719233e-03
-5.000288600874484152e-03
-7.435656410516764368e-03
-7.467422033685222615e-03
-6.421740072969722712e-03
-1.526059334983577355e-04
5.699142380974397785e-03
7.454522310432127805e-03
5.685241998631591215e-03
7.809265910732126996e-03
7.495231011351713608e-03
5.376895076644686716e-04
-5.674547088302337068e-03
-7.561219664171307461e-03
-7.936894012772982218e-03
-8.528840590628966947e-03
-6.465851275203660098e-03
-6.182732503854301842e-03
-3.710609324127637186e-03
-1.183032313889949283e-03
4.290762138394209335e-03
1.328953344618884029e-02
1.811935303317218152e-02
1.806714834211501156e-02
9.941100849779647280e-03
-2.308864900051225272e-03
-9.103730431464011202e-03
-1.307120965763070367e-02
-1.163281880439544919e-02
-8.889673302214103415e-03
-6.607822636465865429e-03
-4.974585483790665633e-03
-1.071734767545432128e-03
4.253904595535993975e-03
7.755774943003863366e-03
7.134342507443748593e-03
4.688489911455636337e-03
3.643533377941146276e-03
-8.596097735834350509e-04
-1.018558247082736352e-03
1.043366525119934947e-03
1.409592932361410339e-04
-3.124416174356309858e-03
-7.554022746465404760e-03
-4.333983754548012199e-03
3.800083407860168488e-04
2.397757230542913245e-03
2.238756528950472564e-03
4.824997592087442583e-03
8.188473336736138905e-03
6.981250388595388115e-03
1.071534214027455932e-04
-5.459778997652471252e-03
-7.030458981397643553e-03
-1.138471147412070152e-02
-7.608183025429040951e-03
-3.408192119646228681e-03
-1.159903810366092261e-03
8.685293876118608397e-04
5.916790082625376056e-03
1.567633328372597737e-02
1.701352699331424093e-02
1.035329763512352931e-02
-1.300196005912423319e-03
-7.164229985492655620e-03
-8.957455552513244809e-03
-8.830456960222570276e-03
-7.063484573051298336e-03
-5.260828746861625875e-03
-5.430048694992242395e-03
-5.251726233133562766e-03
-6.784465178301035335e-04
3.222291973457927072e-03
5.378596988263633499e-03
5.649140496951098739e-03
5.268081127236748026e-03
4.240162859206159790e-03
4.079422173941682321e-03
5.058375558773453226e-03
2.545439110744756282e-03
8.933598062863777611e-04
-2.424370607437307829e-03
-6.125323215081615938e-03
-8.010125790506038984e-03
-7.245320512870273566e-03
-1.155374809780449971e-03
-2.301695413286112003e-05
-2.372342628121768080e-03
-1.382479059947743427e-03
3.966636677426254795e-03
7.513140013920940538e-03
5.976239658892518181e-03
1.848511986813457068e-03
-1.339667399970280101e-03
-4.059149424513986207e-03
-5.901300987403906850e-03
-3.137556684937645342e-03
-6.213974761911911747e-04
-9.539401909666152604e-04
2.689454460611149893e-03
1.023570523070204720e-02
1.258356927110713779e-02
5.955630309337878181e-03
-4.604873903252320808e-04
-5.097087073487444574e-03
-6.513843656703271687e-03
-6.434161880479056725e-03
-4.849099931992923752e-03
-5.653504530317856637e-03
-7.333198773707251886e-03
-3.880670248121960170e-03
1.619472875794150581e-03
3.389782372774035636e-03
4.086355277099710213e-03
4.408626684842586844e-03
4.915919746769943123e-03
4.182820058548632376e-03
1.991734594229032512e-03
-2.812905529589640463e-03
-2.871502202450252478e-03
-2.608776259882707085e-03
-2.520866385224409308e-03
-1.161272275320622939e-03
1.278716086044592241e-04
1.793762415298633117e-03
5.464597397609613494e-03
5.713934882439440470e-03
2.884607776764944002e-03
1.724498542262460719e-03
3.921091864559933873e-03
3.689440162515201377e-03
-4.649039163620819902e-04
-7.563947611901400761e-03
-1.094215653231441800e-02
-1.090438744245143116e-02
-7.247560558061217142e-03
-3.995597395517175472e-03
-6.053527680737153666e-03
-6.101535974468771245e-03
-2.468387959269128813e-03
6.339216857764277957e-03
1.535882760422521004e-02
2.093629213600735686e-02
2.147742555778796303e-02
1.225761396238446606e-02
5.354134924397280920e-04
-4.654284657526269395e-03
-7.430317211661740737e-03
-1.130498242135459346e-02
-1.396845054034890656e-02
-1.245222248940566420e-02
-9.518975122426106411e-03
-5.716436558068150806e-03
1.541929522023701218e-03
6.071689493047667703e-03
7.251575342462981272e-03
5.432824339269021890e-03
2.076697204945316538e-03
-1.024057012972078365e-03
-1.455097128780715073e-03
1.211605578391219615e-03
2.811417735062364358e-03
1.137822385277188764e-03
-1.471974277141417480e-03
-1.500060189688900546e-03
1.781216760736467923e-03
5.087306663061444932e-03
4.174433794781330989e-03
2.235564267806595257e-03
7.509685048590676072e-04
-5.042327503555468684e-04
-2.841250979758268465e-03
-5.139728807572107802e-03
-7.044870242117607165e-03
-6.368370851848152714e-03
-4.121571038695595428e-03
-3.753337555760920610e-03
-2.913903882166156770e-03
1.656808517968539653e-03
9.087659730804281341e-03
1.559184587016193557e-02
1.476955037327602575e-02
5.849084944892840240e-03
-2.645161477256243246e-03
-7.226197177224046378e-03
-7.295893894873487287e-03
-5.895066287652114823e-03
-5.724740413911781449e-03
-5.628181095862058204e-03
-7.147714464547931697e-03
-2.775372653223560221e-03
2.833339556150948901e-03
5.516836173923238447e-03
4.802241353328673239e-03
2.979537575109294373e-03
1.124463606820399510e-03
2.294524566683191734e-03
4.198529777214101560e-03
2.854839107127950248e-03
1.745165663908828432e-03
3.711481201878045512e-04
-1.928684528683078606e-03
-5.670634641476237497e-03
-7.255513392837445626e-03
-4.459697207686486378e-03
5.589959049563662151e-05
1.796342318107683675e-03
1.754073340758007405e-03
3.200697458894892315e-03
3.290390808086476014e-03
2.211126372035009460e-03
-1.756873561672674729e-04
-1.591263100427281604e-03
-2.834508031410917176e-03
-4.273884992731167599e-03
-3.101899784130464528e-03
-1.728271497169503457e-03
-2.134621317452671096e-03
2.823447038505167567e-03
8.666376499384417439e-03
1.440129120575399380e-02
1.398477447053805660e-02
3.811059182406897200e-03
-4.150685690353417105e-03
-8.737278863645355984e-03
-1.179281763382059554e-02
-1.098285632948683976e-02
-1.016101970746168849e-02
-1.188928994611039743e-02
-1.072837188819754199e-02
9.529792260909806384e-04
1.190452910597199730e-02
1.669453528928347905e-02
1.279118853432364457e-02
6.039001197669629367e-03
2.559498022707225318e-03
3.523100522778658400e-04
-1.245433543526573358e-03
1.038550473160297898e-03
2.517026883054477096e-03
-2.580968270801132711e-03
-7.214578446130874567e-03
-8.764242031502160468e-03
-7.803772483917495971e-03
-5.807494917070738644e-03
-2.250748256130427095e-03
3.250616182834169254e-03
6.356493781758903658e-03
5.166424016329295744e-03
4.484043159806377389e-03
4.823665753680901960e-03
2.252334501635325226e-03
4.409690066534072486e-04
-2.612119334721946327e-03
-5.730979975056962016e-03
-5.476578645529660283e-03
-5.148345861656923247e-03
-2.728862605892301910e-03
1.182132664146240408e-03
5.809808377996331791e-03
1.005316824616118640e-02
9.436574849138327017e-03
2.829403484437664762e-03
-9.841210852194080469e-04
-2.367463638457510157e-03
-2.884846643581778520e-03
-1.779288725252774466e-03
-4.506425956497587398e-03
-7.009492954520810462e-03
-7.158632648903257359e-03
-6.428970420385204942e-03
-4.106515060084606379e-03
-8.062311253622272446e-04
3.499666064541969660e-03
8.552297446347311913e-03
9.824747922419425558e-03
8.732916176492093799e-03
4.843952940200690199e-03
1.821359335965189521e-03
-2.495263822069659042e-03
-5.407951297744062295e-03
-5.460726579178040545e-03
-7.623631256001951045e-03
-5.588877620028086073e-03
-2.313516594798720801e-04
4.970442766919419726e-03
5.460785173160304790e-03
4.609699075267287283e-03
5.321342261026123198e-03
5.000240903662384051e-03
1.657395053089390398e-03
-5.323669142549811856e-03
-1.091166923536263274e-02
-1.251343045552186922e-02
-1.165361407850117742e-02
-5.892000599696811843e-03
3.081915307741042026e-03
1.432243864637862234e-02
1.602174993744729173e-02
1.083253589861118624e-02
9.609128282344189462e-03
3.639002482925361714e-03
-1.032513730593646525e-02
-1.250601666593470843e-02
-2.812373151942200097e-03
3.600527838035803146e-03
4.267789225825523343e-03
-1.407690059795232203e-03
-6.653714043828401654e-03
-1.136197718621266735e-02
-1.155862518947007971e-02
-5.358686242411094328e-03
2.448610224347114173e-03
8.170923113754091291e-03
1.026848968315645892e-02
1.071550830810590570e-02
9.039754024381970940e-03
6.894586522034534815e-03
2.106766243114453416e-03
-4.149156678065557893e-03
-5.971926982143069794e-03
-5.391562124132090808e-03
-6.564847915563485660e-03
-7.836926344885286264e-03
-9.370411227643342042e-03
-7.503576996520721493e-03
-5.439644288364355387e-03
-8.987075917812007569e-04
9.901549713691611826e-03
2.368776650437955447e-02
2.233843825506301103e-02
9.499336974868292580e-03
-4.674984485204239718e-03
-1.221271091857126581e-02
-1.479151501721875928e-02
-1.167238705125617226e-02
-5.639493199345825200e-03
-1.007716740011870005e-03
1.723903276727906803e-03
2.976506003537556823e-03
8.060676812647786862e-03
1.039343468018267928e-02
6.301668140545389415e-03
5.191466660252252660e-04
-6.472911155303484945e-03
-7.910941979834504659e-03
-3.560086802894035177e-03
3.648058398559774623e-03
5.635340528282364869e-03
-1.404367617279462307e-04
-6.566659526617554116e-03
-1.091760447764693505e-02
-1.287727573781274025e-02
-4.172878666787583138e-03
5.778394751479586956e-03
1.182857414170695141e-02
1.369618288852290575e-02
1.092016001486424345e-02
5.294684988172166512e-03
1.630519814286468527e-03
-9.392195331156122373e-04
-3.611317991836141168e-03
-5.919345385461893642e-03
-7.859941166948181471e-03
-9.578987222133603791e-03
-8.924276972282494183e-03
1.761151236956991217e-03
4.357032420750312461e-03
2.263371596340325344e-03
8.621310797368907314e-04
1.252880749857314098e-03
2.444068759014307764e-04
5.704224619916503473e-04
1.880616592361379234e-03
2.262269848403968518e-03
-6.933972666932838869e-04
1.859164170240171958e-03
6.983336851463944200e-03
1.156457397484056231e-02
5.149518980097079514e-03
-3.185033731337485671e-03
-7.705076596636398212e-03
-7.072038411119941151e-03
-4.176346760468420058e-03
-6.889881474343027140e-03
-8.681521641859599528e-03
-7.537698843147351210e-03
-6.120194533851791574e-03
-7.900015772449760221e-04
6.476925240851189383e-03
1.219382970127677081e-02
1.455221559732524338e-02
9.136718594605387767e-03
4.328092587432526631e-03
2.427380759712840792e-04
-1.652775635268939440e-03
-2.503726546894633267e-03
-6.212320439631084483e-03
-7.070039522442659631e-03
-5.314657129262863842e-03
-7.583418062682976621e-03
-5.854492228959540766e-03
1.188759956488304528e-03
4.185560525226264886e-03
5.521136241012051735e-03
5.586002321332701401e-03
6.583318687090722321e-03
3.520344198933557031e-03
7.376807443097447496e-05
-3.008666929054480167e-03
-5.771906344132405123e-03
-4.322266971506860157e-03
-3.643349754728370232e-03
-3.098821465601726746e-03
-2.839957991151477457e-03
2.604257991381470419e-03
8.307324691427522487e-03
1.222386874423335781e-02
1.046539726365788327e-02
6.159421627397344140e-03
-1.515819657467122529e-04
-7.444362016118638049e-03
-1.145388570509981753e-02
-1.091676991319491356e-02
-1.000384901180711127e-02
-1.007699266654465270e-02
-7.250385656089756124e-03
4.293068696499188763e-04
1.022321704565978470e-02
1.392161069050488857e-02
1.095056324510149288e-02
6.221991945002816951e-03
4.477987410284453226e-03
3.672642875678575058e-04
-1.871910361468810680e-03
-3.057488527180244903e-03
-4.328434108120766607e-03
-5.918106923700103619e-03
-3.944353770435433601e-03
-2.459737418591758512e-03
-1.547425853655296467e-03
-2.814249758084513137e-03
1.441185081845697529e-03
1.827466823541486337e-03
3.441958797425495164e-03
5.419899992981400821e-03
6.271575932980687218e-03
3.269802542483398518e-03
-9.895365567843253038e-04
-5.148327320362505038e-03
-7.864515261321184184e-03
-6.895820192245349402e-03
-4.440525422264520947e-03
-8.829084232840553326e-04
9.316276429971043216e-04
3.628030420912352252e-03
7.517186846034480674e-03
1.242643822546994105e-02
1.022520903621339065e-02
2.531265826787037695e-03
-3.704676808763704074e-03
-7.935808602869522457e-03
-6.392483249103769749e-03
-3.055295856089686526e-03
-2.472246202474585701e-03
-3.036881148489222176e-03
-4.766183896711228066e-03
-5.485931536930372006e-03
-1.750303790717619564e-03
6.219340997924492458e-04
3.169222535241815030e-03
5.772749320553981559e-03
6.491955911001372204e-03
4.147785399467839203e-03
3.349511978098555602e-03
3.502601254307260298e-03
1.552339080942144282e-03
-3.438977423271598506e-03
-5.102698903037267489e-03
-5.783328303714261112e-03
-3.871578569327160154e-03
-4.636788712074264331e-03
5.251574551879264682e-04
4.183603391274858148e-03
3.775981242432848405e-03
4.810475196626485747e-03
7.895039767495672448e-03
2.633993868631658193e-03
-4.141927534791960824e-03
-9.430617447448738297e-03
-9.021067585618209109e-03
-7.105068824517948682e-03
-1.933956576344744195e-03
4.719617895115693108e-03
7.254558269295254859e-03
8.904694782144543033e-03
1.212614003938277188e-02
1.173404975459685536e-02
4.979839661740701091e-03
-9.355210094062050771e-03
-2.316751469894747645e-02
-2.192060248521840796e-02
-4.627142158275910494e-03
1.203408864128010548e-02
1.248526701726882480e-02
6.354075826518112459e-03
6.968188291548663843e-04
-2.754326542271404513e-03
-4.697925321849248138e-03
-6.590100011710190754e-03
-1.188934140009354152e-03
4.858146221601527745e-03
7.642907440976695263e-03
5.841612208773275944e-03
3.461565826525193987e-03
1.756365244675303205e-03
6.039534667342124317e-04
-5.712971777918265243e-04
-1.570465355558349312e-03
-4.006946397670100787e-03
-7.333545310976228616e-03
-8.686916565556361547e-03
-5.787311447582071944e-03
-3.809632071315229192e-03
-2.421971818936857323e-03
3.880045735518366200e-04
6.315859851703144699e-03
1.291192797822687290e-02
1.433209059916437655e-02
8.042648900956444330e-03
-1.827611230500288814e-03
-7.845026251711170739e-03
-1.193314262513061122e-02
-8.888486144252709734e-03
-3.464979569757256975e-03
9.228235861613864888e-04
5.256468418766395076e-03
1.079892577383395787e-02
9.945601278289759387e-03
3.017143476347777971e-03
-3.256114616288404481e-03
-6.708312911928674196e-03
-5.299906854176764971e-03
-3.091565073514669290e-04
2.000906076818661453e-03
1.225557243905505550e-03
-6.844615572476425930e-04
-2.013269685222480142e-03
-2.957983104873182154e-03
-5.784642019537980170e-03
-7.053501116014637348e-03
-7.701091738237759304e-03
-2.831777495291976868e-03
4.073749776099758017e-03
8.921106544560415685e-03
9.424538200498938298e-03
5.242591443190204592e-03
3.763358159729279784e-03
5.142675059823031275e-03
4.590084907860550976e-03
-1.830548984085429882e-03
-5.902842296275780110e-03
-3.879939913760640288e-03
-7.448869287022203203e-04
-7.372480815686054123e-04
1.662363461227243933e-03
6.180233430564256378e-03
2.182374218422020867e-03
-7.055567929912972581e-03
-9.378038798084076255e-03
-9.229696514206756075e-03
-9.194615420939645720e-03
-6.188686821154123531e-03
-1.389353726437989045e-03
3.106521017695920359e-03
8.844078260502784283e-03
1.077179205306685005e-02
1.264094363341034845e-02
1.341890777377815862e-02
1.095181385774904488e-02
4.719066278578524891e-03
-4.762367169907424057e-03
-9.662272520936767209e-03
-9.311079405219897451e-03
-7.431818847769795094e-03
-6.933852444371049403e-03
-9.442085956225990118e-03
-1.071287002903551118e-02
-6.432910137519684025e-03
9.070441050561383473e-04
6.119377071429121795e-03
8.475006203657183337e-03
8.939382401712370890e-03
8.325190736612846781e-03
8.347355437528531513e-03
5.968598054153458066e-03
2.093162941198616414e-03
-1.331546164118652120e-03
-5.125274608851054618e-03
-6.917513631524462199e-03
-7.091563321651743815e-03
-8.473689265963866776e-03
-6.716813796284112729e-03
-1.591758524071014425e-03
-3.468633285718704384e-04
1.665759834304883589e-03
9.540211779501097181e-03
1.736727102147680307e-02
1.326626460805395771e-02
2.272626318565803757e-03
-7.392570573346848514e-03
-1.072663070908542841e-02
-1.158571435689239627e-02
-1.123675850846094122e-02
-7.898546847529618747e-03
-2.695030620560255261e-03
1.101892929362252235e-03
7.067166913188338909e-03
1.310208425458717248e-02
1.264838615628987445e-02
7.807769946453153691e-03
2.629782622264185271e-03
-2.374408292828867652e-03
-3.659178856014165711e-03
-2.106314109698051180e-03
-2.703073017236946526e-03
-5.522501188037527362e-03
-4.792043631338688096e-03
7.441030621869485981e-04
6.920097810345359444e-03
5.986722500406041134e-03
1.110771830260826216e-03
-6.442777161455471614e-03
-1.487436507506233532e-02
-2.430159856094203999e-02
-2.838321642718260110e-02
1.327718795342196396e-02
2.846769158271661090e-02
1.987056792699848015e-02
1.010491136363420202e-02
5.543259359858302912e-03
4.539150670313936778e-03
4.442481494043644397e-03
2.366644995741552793e-03
-2.817203126112968053e-03
-7.413352724832954731e-03
-9.293116371584203214e-03
-8.946139470863015766e-03
-8.550507160555109731e-03
-9.368392005744656179e-03
-7.620628647047765145e-03
-1.962709516824451272e-03
3.765627264759827467e-03
1.182675883579410378e-02
1.837304891272787885e-02
1.451217313670400029e-02
7.212981702826217617e-03
2.221938932921527915e-03
-5.081265781064759485e-03
-6.323763861423451274e-03
-6.674884421370176450e-03
-6.979997524379633403e-03
-1.229585722013184536e-02
-1.891659216536782651e-02
-1.285034573984045018e-02
3.163521859183908783e-03
1.299666517191903035e-02
1.442689829505549269e-02
1.133758273467139199e-02
7.902920741232853652e-03
5.676790492593628348e-03
4.043962238560428260e-03
2.190392953995059101e-04
-4.036046741844631462e-03
-4.846515202094933694e-03
-4.150778875453518639e-03
-8.929102574920582888e-03
-8.918994967027618972e-03
-4.839890441624753598e-03
6.104207592698956270e-04
2.448466810519182857e-03
5.149936020330277316e-03
6.774979209520714564e-03
7.965435194247345516e-03
4.311089036120037236e-03
-6.830125551585096433e-04
-5.668295456111025962e-03
-4.891064724431164884e-03
-6.807432168053558462e-03
-8.142849154388299635e-03
-4.268268913913460076e-03
1.948922431633981663e-03
1.021486777557337015e-02
1.441718698254612629e-02
1.315625523631860049e-02
8.835855609586633005e-03
1.569598736058553691e-03
-8.364713253072595181e-03
-1.425471942914898101e-02
-1.606282521853737849e-02
-1.065074706692632593e-02
-5.507786208641649722e-03
9.316823165625882919e-04
4.785438655514125117e-03
4.646771640394262853e-03
5.385487845286790649e-03
3.637821258437385491e-03
3.509883926745882392e-03
2.681500110815337665e-03
1.401519250571228205e-03
2.636787108972910802e-03
6.579241220783725932e-03
4.393769333763552012e-03
1.266174815092991485e-03
-3.576225225557678154e-03
-6.477771587465439365e-03
-8.499089426891266730e-03
-5.795087714143597538e-03
-2.273695366536726374e-03
6.299485464051875552e-04
7.477641909405747037e-04
-8.588699282273718708e-04
-1.280201539717522752e-03
1.332741302187264495e-03
1.805805198957944908e-03
2.883248350653911871e-03
-4.302331707592076761e-05
-3.533263959238678101e-03
-2.670987427115620750e-03
-9.891429444521370861e-04
2.952030628397392300e-03
5.491625556452136084e-03
6.719342885725362521e-03
9.260449630518913580e-03
1.035182221908271388e-02
4.604085757424934353e-03
-3.161182417723859203e-03
-8.417355671599973180e-03
-8.587767597240820658e-03
-6.838491202208583572e-03
-3.515229327827103928e-03
-2.844421159120278340e-03
-3.771689500950081708e-03
-6.218595251809552749e-03
-8.953936538565712006e-03
-6.708488587637283750e-03
-2.859098857059629451e-03
1.381935280370320644e-03
1.167233810809575716e-02
1.991675459866509498e-02
1.752194936262476202e-02
1.125214955318406054e-02
2.165659567326947907e-03
-5.838873002322537628e-03
-9.524286430458486427e-03
-8.286667404324562711e-03
-5.209867438039559456e-03
-6.594642467558512258e-03
-5.620783156815628914e-03
-1.717870633045600129e-03
5.074237252223707736e-04
2.564407255446192295e-03
6.279284566980740563e-03
8.299860852227584559e-03
3.754998348572647585e-03
-4.440109014647477918e-03
-8.943240048678899323e-03
-6.532475303167457545e-03
-5.504463371932151981e-04
5.043110930366642188e-03
6.277795003974500493e-03
1.762744079043291993e-03
6.181816512864646285e-04
2.026832383078160452e-03
-3.414718821963824442e-04
-5.969378090560624114e-03
-5.201449014541080496e-03
-7.566702153270618222e-04
4.634027302639367324e-03
8.994122396849052112e-03
3.323789265267554187e-03
-2.607343816216517798e-03
-1.463345830590927210e-03
3.273065369802110724e-03
2.038328058795428870e-03
-3.104733094280029242e-03
-8.684600248457548591e-03
-9.970111126927290110e-03
-5.394848745776139459e-03
-3.744527083654183505e-04
2.758459629463964457e-03
4.898825215959722208e-03
6.497845903632597057e-03
5.112618959806767248e-03
3.790893941038103385e-03
3.588858490508470105e-03
1.431969971520358036e-03
-2.714057773875662959e-03
-3.553354750329590014e-03
-3.580466736138769764e-03
-4.686016573973279808e-03
-4.645922289723837181e-03
-1.699003367553159061e-03
1.331823615169383523e-03
2.225108138998536152e-03
4.545875709677691182e-03
6.656461254738342201e-03
6.139497666656626440e-03
4.073736698675459178e-04
-5.515520096884142520e-03
-5.858268728460128832e-03
-6.156931394396067056e-03
-4.638680108185126716e-03
-3.209302639108757918e-03
-2.267752085454898849e-03
-8.621813222020923220e-04
4.069540455883131555e-03
7.321609972281834661e-03
1.281566032252737415e-02
1.666773383311281886e-02
1.345335869649361311e-02
3.087800195511870502e-03
-9.156325497886520087e-03
-1.552893249537883741e-02
-1.707596848892527566e-02
-1.782750131334459587e-02
-1.441516042246687203e-02
-9.196493974893287654e-03
2.247158071929237708e-03
1.278333651984008348e-02
1.789840555560705260e-02
1.323479354295412601e-02
7.236980170430933751e-03
5.421029902330386577e-03
3.500303878769239416e-03
-7.143903573292968712e-04
-2.580995856830451199e-03
-5.877554344792802060e-03
-7.228639848355951705e-03
-4.029868099207364364e-03
-5.423409484369345543e-04
-3.307954282772324756e-03
-6.038714937797284854e-03
-4.487163433477912161e-04
2.535393066608639112e-03
4.967690683777932145e-03
7.688258571363511956e-03
5.588406080267535429e-03
-4.919506499740378125e-04
-8.040962698561141681e-03
-1.226869653914746880e-02
-5.654053440832629979e-03
3.281375666608296778e-03
4.615432350630098782e-03
3.498462900462830094e-03
2.295058386862845572e-03
3.022021836728882097e-03
5.516795884059262113e-03
7.593020401759470114e-03
4.742025267296920248e-03
6.121111819949859030e-05
-6.261524318034760936e-03
-7.777833324385763532e-03
-3.208053525587391090e-03
2.809698948583564358e-03
9.518737640630227023e-04
-4.166075392243428696e-03
-6.801732287939754942e-03
-6.187566825481214013e-03
-1.039916700096387217e-03
2.118264615878811998e-04
3.208805917391411439e-04
3.599032940842659262e-03
6.596836550241050659e-03
7.247227234582619138e-03
4.244868825739197236e-03
-2.199132433020518224e-03
-5.785478171585090035e-03
-3.743442094020455520e-03
3.624908721405628847e-03
5.925030400646664683e-03
1.591267172953351235e-03
-1.806547280195108579e-03
-1.293853880956122044e-03
-4.592448912821190006e-03
-6.924962554866326281e-03
-3.678283861963409142e-03
4.256148227649462178e-03
9.413483271386753615e-03
5.078269221228381806e-03
-9.842427714225675077e-04
-5.145361302523085781e-03
-7.456777879187744679e-03
-8.906006099814484100e-03
-6.231210989686328597e-03
-1.843036646696610478e-03
6.242363851903766185e-03
1.326155108207865974e-02
1.579064379450997868e-02
1.373274663053014946e-02
6.664728690137041237e-03
-1.723718057856002926e-03
-1.002078179068633702e-02
-1.068036206118588849e-02
-8.313590233824804179e-03
-8.076523756114053695e-03
-6.809865176891382633e-03
-4.784723128595974422e-03
-4.332872660253216449e-03
-3.753451663875090848e-03
-2.364171864348868501e-03
-8.262922277252325066e-04
3.716461675661514481e-03
1.288638249794191171e-02
2.018699534500648443e-02
1.968755089065407290e-02
9.221402197173668089e-03
-3.203606600279237243e-03
-9.009603645367562919e-03
-9.716465410801388217e-03
-1.295917807681864174e-02
-1.370507066722655848e-02
-8.280662022371196307e-03
2.943976281043186177e-04
5.818565052569233190e-03
8.061126989091990658e-03
5.432426736591599095e-03
4.131977063207580014e-03
-7.800854737259714511e-04
-6.622189996886237301e-03
-5.997671162395532343e-03
9.913090636743536639e-04
4.295743856430774693e-03
1.156123592139590619e-03
-1.308661551302506927e-03
-2.736941843202791991e-03
-8.282490371367024363e-04
5.911101203959351347e-03
1.222102125329404924e-02
1.052001784835935976e-02
2.970560290179607033e-03
-4.152416624558253992e-03
-6.090658999478934174e-03
-5.230991801956142925e-03
-4.833006535474988936e-03
-6.269206724442707469e-03
-7.795377357674110851e-03
-5.462422417578914786e-03
-4.409735078880427928e-03
-1.324723266702216174e-03
4.394807393240801065e-04
3.666931363158847622e-03
9.328637323500850106e-03
1.137963175950067532e-02
9.411318927483189323e-03
5.133325320667367006e-03
8.049042756694960231e-05
-1.793106760922884638e-03
-3.418702825365734551e-03
-5.452422731106685780e-03
-7.337982458560625941e-03
-1.004906796755340552e-02
-9.068415664786151284e-03
-2.781164687036620335e-03
2.333372537597025280e-03
9.548812241463379077e-03
1.479571433962585496e-02
1.306531705605883109e-02
4.205462346592015593e-03
-3.263958823922642749e-03
-8.321750404526083791e-03
-8.742672129390748059e-03
-9.026696730425335519e-03
-7.425100755722913518e-03
-3.873401104464934373e-03
1.075898218174143293e-03
5.640152804616818324e-03
9.702145238903527730e-03
1.068722949665155963e-02
7.529575329395743477e-03
8.265110419560092389e-04
-5.630904730363588129e-03
-8.512949901611718134e-03
-5.248109329451777424e-03
1.407664056265493444e-03
2.920696690765296061e-03
-5.184286710500593011e-04
-4.720542184468802527e-03
-4.546702444563847229e-03
-7.733096777306873448e-04
1.586226226204733589e-03
4.724299810271126616e-03
7.203491557748024215e-03
5.938336399138769567e-03
4.433638280946695757e-03
2.713315527888863696e-04
-6.498056144184735650e-03
-1.076311767743459366e-02
-1.349416906840658278e-02
-1.076361438181380054e-02
-2.911419339074346885e-03
5.899292848519827742e-03
1.056617076010923049e-02
1.052565426509715144e-02
7.146130724217963914e-03
7.839142801733301608e-03
9.729199606692048169e-03
6.217491721342156483e-03
-4.618144896113050325e-03
-1.161939062153732709e-02
-1.006523938510333650e-02
-6.694159699019959844e-03
-5.654897276048209340e-03
-5.752184637776647930e-03
-4.105024961777553952e-03
1.914134534727589688e-04
4.384833156501385075e-03
8.012891857710507937e-03
1.152633427735472692e-02
1.018372164418620933e-02
4.428632357308268964e-03
-1.936720831199589474e-03
-4.795471839600073428e-03
-3.673548296541630665e-03
-6.610958900982520474e-04
-7.080580664047650581e-04
-5.208056388115820702e-03
-8.789833805138815362e-03
-6.183504116276473950e-03
-5.805136331503819858e-03
-8.555763711508101652e-03
-3.561507799852198144e-03
1.014375913871349427e-02
1.688863285621987342e-02
1.349405505191243922e-02
6.668570314396316673e-03
4.915600976047554416e-03
2.664429271934474347e-03
-1.108816452313384979e-03
-5.466135416886795488e-03
-9.633008235435100430e-03
-1.359810147162570336e-02
-1.108572686658692956e-02
-6.182961986614100153e-03
2.225179913872922521e-03
1.022953361482317226e-02
9.654411821721137210e-03
7.277503332501628064e-03
5.140494395219935564e-03
2.223596105802902456e-03
-2.352201482842907962e-03
-5.663680070100865147e-03
-6.173473252248349447e-03
-8.308243257503358792e-03
-7.354328946440826138e-03
-2.431317147729253857e-03
1.061343569958616943e-03
3.645326205028041368e-03
5.349116010444308726e-03
9.824225817855263346e-03
1.381642232436672627e-02
9.916689383827295701e-03
2.134673161909407015e-03
-4.005298094164730718e-03
-6.329288707771751551e-03
-5.689273082934108265e-03
-3.808252916628262694e-03
-4.485062220445273744e-03
-7.632006114483965049e-03
-8.048405868539078994e-03
-6.712723549597388734e-03
-7.432736409445726139e-03
-4.041212045572464828e-03
2.801652356827685417e-03
8.486814443305458824e-03
1.359065591676299374e-02
1.515861996044844812e-02
1.142103199119739662e-02
5.294229747478606043e-03
4.114027752722126952e-04
-4.213973997205429541e-03
-9.907351475774076391e-03
-1.038799850462234116e-02
-7.474985252219398107e-03
-5.280052690546679223e-03
-3.640458011142842787e-03
1.578459055560331448e-03
6.275948850844064418e-03
8.336899429817105564e-03
7.628515120290383332e-03
1.986068293002218258e-04
-5.552994555209614727e-03
-7.034843136670653786e-03
-6.398149009992588898e-03
-1.689469818074897187e-03
4.811076293327041543e-04
1.720903603723258207e-03
3.001140366815941568e-03
6.180649838202675536e-03
8.360123807951726910e-03
9.209263732679549494e-03
4.106561762769720542e-03
-1.355490037177025341e-03
-5.854598540627514031e-03
-1.125801714428093826e-02
-1.254002195644149040e-02
-4.791634640070152606e-03
4.273015617786523127e-03
3.626607873100204122e-03
-1.681689151910376794e-04
-9.679024553061535419e-04
1.147618073760938318e-03
3.073311624074443610e-03
6.149036660706437563e-03
4.251631348371105908e-03
5.743865343872120791e-04
-4.431529106567081572e-03
-7.261974971921592720e-03
-6.398006188534010805e-03
5.906105654663478845e-04
6.819276964355250152e-03
8.903429120142481931e-03
6.651584701098560599e-03
-1.395663646536838339e-04
-5.580897373106208717e-03
-5.623762221546673400e-03
-5.382437403128468439e-03
-3.721684184291891920e-03
-2.107090754338215854e-03
-2.915084830087610475e-05
5.451585756788807947e-03
7.646558353130085417e-03
5.952374948191635311e-03
2.024449986152976062e-04
-7.503550465317621564e-03
-7.002031854080197765e-03
-4.632462904134382331e-03
-2.180522252757433749e-03
6.972365412460671745e-05
5.777052313998721524e-03
1.140497919205911599e-02
1.034432803232456302e-02
5.278170751706104044e-03
-5.075059483280160502e-04
-7.233129167274375375e-03
-8.390414324679145233e-03
-7.057915633979001784e-03
-4.752692933717086489e-03
-3.865394206672650643e-03
-3.232532584624510895e-03
-7.313917342468131619e-04
1.985844605103979574e-03
3.911226844227139003e-03
6.200211306545502267e-03
6.519668842013815607e-03
8.351066448033775749e-03
7.560333181906364781e-03
2.468722424792081302e-03
-3.245957402704479841e-03
-9.549069067075395892e-03
-1.195970320566923026e-02
-8.874991367534949133e-03
-5.999036433676448177e-03
-7.653811852762855070e-03
-8.399644732807489550e-03
-2.230814191399284948e-04
8.219164006575666384e-03
1.737046865967191780e-02
2.333302240914570183e-02
2.182773276874432067e-02
8.499977996291280952e-03
-5.507515195770655916e-03
-1.444326045574270169e-02
-1.395944845910231449e-02
-1.055121125564537077e-02
-1.070405558939520503e-02
-9.893517545437787927e-03
-5.547256996020551167e-03
-5.530343310171815380e-04
3.298606411842583408e-03
5.916838814270590843e-03
8.595743871817475290e-03
1.095335324811084338e-02
1.031450656809548665e-02
8.574337820107321914e-03
2.281543550309421756e-03
-2.249757992918296860e-03
-7.547036974559397614e-03
-1.093123603513494399e-02
-1.045832112220791005e-02
-5.675263992756097650e-03
-2.194328941034563371e-03
-1.470340940146591321e-03
1.941609301839041565e-03
7.561832842299638126e-03
7.299255662176704247e-03
3.906193575130442047e-03
2.273536744073267023e-03
1.185406002694008171e-03
-1.191419618786783950e-03
-2.906016676090289637e-04
-3.763044031373078725e-03
-4.927257720678077102e-03
-6.268741106189411848e-03
-3.572308376224153995e-03
2.326421683643648160e-03
3.707265987787635060e-03
6.257111509408819910e-03
9.842257988957900036e-03
8.813719910806505978e-03
-5.599913160974931365e-05
-6.429920777541685978e-03
-8.374154912923219632e-03
-6.249552229143903737e-03
-8.354236496035736051e-03
-7.729655662782965869e-03
-6.577101095570714664e-03
-1.461881903266681881e-03
8.440018678749409628e-03
1.645216911753906094e-02
1.678501932726774587e-02
8.807198454232502763e-03
1.016681611254694612e-03
-4.056355890532017255e-03
-4.648300239753161943e-03
-3.408529443352281522e-03
-4.179036164189478542e-03
-5.876515802547145617e-03
-9.195142884066628830e-03
-1.110686474925846705e-02
-5.470477355845325060e-03
3.231408791426863131e-03
5.681994868641377684e-03
5.418448235039214841e-03
5.085321328837150504e-03
3.063997056171226252e-03
9.372881767310773521e-04
3.326978480766997794e-03
4.764229247876524895e-03
1.892560679836355342e-03
-5.824379398564304144e-04
-1.641203357287719308e-03
-3.184395527315640826e-03
-5.604149353283286415e-03
-3.507931732821561836e-03
-2.195056798322308350e-03
-1.480491257353204297e-03
1.711888877342218791e-03
7.093068382419796467e-03
7.804033850103838169e-03
2.927562692324166185e-03
-3.732549149869338230e-03
-8.686754299433973800e-03
-7.844417126050027417e-03
-4.602144451643327625e-03
-2.827330958559492492e-03
-1.368935138517840371e-03
3.038699102913108331e-03
9.973252103071478594e-03
1.211760302832086064e-02
1.280805658481573572e-02
6.355148234051348315e-03
-5.852078401544008254e-04
-8.988446922295901739e-03
-1.295137864949062224e-02
-7.612864572731551857e-03
-3.332845391267779539e-03
-2.338477174024493864e-03
-2.382784393622060064e-03
-4.222494112106835347e-03
-1.704832307422526980e-03
1.897455271201357744e-03
4.252019126183301766e-03
6.245093497861908122e-03
5.257866642574455379e-03
5.687447886235035867e-03
6.582768946477001934e-03
5.610976096659497404e-03
3.790261962087164774e-03
-1.523733704793848488e-03
-7.170405217741224711e-03
-8.296994083575405521e-03
-1.040779643543183336e-02
-1.303549905128923575e-02
-1.004920904653038190e-02
-3.700344282081125327e-03
4.673101754735986199e-03
1.264804985834446123e-02
1.593806337357694947e-02
1.356802253026917135e-02
4.965749278058508714e-03
1.402196596591437361e-03
-2.998773940878032319e-03
-9.434386745777480904e-03
-9.531282655512557725e-03
-6.545149925826674979e-03
-5.432602504796296694e-03
8.906485180911957733e-04
6.685783479618640640e-03
1.064049528499504647e-02
1.175645936334447292e-02
7.068686618651316179e-03
-4.072848577418461576e-03
-1.038059634380182443e-02
-1.135634285687352717e-02
-9.960847696135819232e-03
-8.339248188345161142e-03
-4.619408281963614110e-03
2.350403109909500812e-03
9.785901723771157218e-03
6.833442696312708349e-03
3.090159905742743268e-03
5.154205043940481706e-04
3.797166440631005897e-03
4.324102913899872253e-03
3.376920367377475064e-03
5.568881586583114898e-03
4.813334775254608615e-03
3.541283045647076501e-04
-2.460733184072525122e-03
-7.884340370103264106e-03
-1.068721406950625188e-02
-1.323980875022982145e-02
-1.192907689476286476e-02
-5.172307063844704816e-04
9.557503379064268001e-03
1.068561473445307428e-02
8.077010796715763594e-03
5.558420428491766055e-03
1.443120122926723481e-03
-2.627089045497355002e-03
-5.197174878359797807e-03
-3.476816415634170505e-03
-3.618788469530831269e-04
-2.299681736352825537e-03
-2.810273255126355223e-03
4.237672638730304378e-04
2.048964584391939261e-03
5.828372479044521132e-03
9.235130392255415030e-03
8.037723082215873088e-03
3.176974654733327828e-03
-2.272532441573577901e-03
-5.223763740558523549e-03
-8.207728027555786718e-03
-6.236995444719169862e-03
-4.647456325189072181e-03
-2.764459093202816485e-03
-2.292865749557530027e-03
-4.267746090969041541e-03
-2.042091802692052368e-03
-1.591260240292908558e-03
1.667762253668921522e-03
5.925514706553738041e-03
8.765427649526912404e-03
1.035740493880459197e-02
1.177215678581262914e-02
6.586058690632383417e-03
-4.371486465848917847e-05
-2.512827998763549758e-03
-9.563529093187394733e-03
-1.696428978971196294e-02
-1.864398471048689040e-02
-1.599922805383592952e-02
-5.234153233640695402e-03
7.981900113837443050e-03
1.918342543715556223e-02
2.616473221077127848e-02
2.286740559303548567e-02
9.142487586770869229e-03
-3.142851110303027454e-03
-1.084829921393376355e-02
-1.451259969071987468e-02
-2.032458736368627367e-02
-2.287117631408501148e-02
-1.810318472890627348e-02
-1.048815018372470029e-03
1.510482501753827693e-02
2.417729789624763898e-02
2.347389688031504759e-02
1.591393670389238887e-02
4.688223330316005494e-03
-5.362752914618061986e-03
-1.216296422534412884e-02
-1.333431993248355464e-02
-8.622099966282761527e-03
-1.711262014986773827e-03
2.379384664424839813e-03
2.035509776635819473e-03
-2.779532554261536764e-03
-3.352416184600370570e-03
-1.753685522903139244e-03
-7.723954178610738068e-04
4.339709806054201140e-05
2.393560545943937933e-03
3.112128640661400263e-03
4.075357698663774342e-03
5.631229846285640273e-03
2.624552215675690463e-03
-2.333543337828231090e-03
-3.904664807367988402e-03
-1.044178950626836137e-03
-1.121821163368943650e-03
-1.763650921727184448e-03
1.366609192723844662e-03
2.972000312425006254e-03
9.413031425392927570e-04
-4.444806781793877830e-04
2.013741981104100187e-03
3.569805498614064213e-03
6.908523914692328355e-04
-2.073099220651962102e-03
-5.819648384652244266e-03
-8.137642865570941797e-03
-7.838238650335340243e-03
-4.500266270697696191e-03
-9.169577501122218310e-04
3.916288531786236114e-03
8.081012241553903880e-03
1.222322732692310114e-02
1.405767141072700004e-02
7.148825800486457646e-03
-1.077144628626239969e-03
-5.953463040105944591e-03
-7.694815930225103358e-03
-4.362857784779300072e-03
2.140233614854420644e-04
-1.257984220530822088e-03
-7.169553881891703277e-03
-1.036060086129646576e-02
-8.191421423325193421e-03
-4.226484973920413904e-03
9.110066419670370501e-04
6.321597221784268014e-03
1.142517137913970533e-02
1.304751668360122456e-02
6.476612292135780491e-03
2.239326638869830119e-03
7.683097717828268891e-04
-1.951580322228936744e-03
-3.545597659513904151e-03
-4.093298928783494980e-03
-4.443592071200473149e-03
-5.751172891562617712e-03
-4.284401090342972000e-03
-1.036458060551948522e-03
1.478466367979500498e-03
2.274248497395922608e-03
2.346329832391122472e-03
1.919995612727394942e-03
2.276087874860180382e-03
5.579968305759169106e-04
1.211380203550359476e-03
-4.989219227312423691e-04
-5.521759702183466970e-03
-5.986493566499791370e-03
-3.057487451420238221e-03
8.467326089421963603e-04
5.715384259516230990e-03
1.028474786091923381e-02
1.249984539998093107e-02
7.995663388372148753e-03
-1.652626371660286669e-03
-8.306047820172449483e-03
-1.128519413161258901e-02
-8.505783648383504272e-03
-2.417385961334502648e-03
6.156944564124676791e-04
-2.203979641932935906e-04
-2.019385065848389518e-03
-1.362017503373147724e-03
2.321257835357257073e-03
3.690630366586123302e-03
3.084317881858465206e-03
1.473279737612374907e-03
-1.589726416025058064e-04
-1.283497442181411909e-03
-4.275988395491824717e-03
-5.269367819544748532e-03
8.038518437066872633e-04
1.028756968967933956e-02
1.034020749070621754e-02
3.041705303809842317e-03
-2.540337296443027394e-03
-4.080372412329034276e-03
-3.548456617889415160e-03
-5.220684051287696054e-03
-1.940424559969906003e-03
4.134786281618550198e-03
3.368186631810812012e-03
-1.059442970261172904e-03
-3.066747676932381119e-03
-3.895357820232613500e-03
-4.177060345468697720e-03
-3.784635845879706292e-03
-3.820516393130834673e-03
-5.194602350449793737e-04
4.826649474479489249e-03
6.931041497304028451e-03
8.867789917212667850e-03
1.169516909328593285e-02
8.660728442823728557e-03
-9.054790596594204655e-04
-7.612132049036541073e-03
-9.082589243148170288e-03
-3.989471179231367237e-03
-2.417415634940570622e-03
-4.337748339508221661e-03
-7.383797593922681105e-03
-4.712226501977712784e-03
-2.636029896727846294e-04
1.302880267930895102e-03
1.925289162512360507e-03
5.093657685076776256e-03
7.295020597576641966e-03
7.159807345062474057e-03
5.607757487298841576e-03
3.097458687586042772e-03
3.882126749364389617e-04
-4.968320471095865470e-03
-8.554949549006766324e-03
-5.495337378771832787e-03
-5.711763700576563685e-03
-7.528542438673808262e-03
-4.236898468427027428e-03
3.387043108523431732e-03
1.027951585007292994e-02
1.181226998407648374e-02
1.080603159833327075e-02
6.236068624905669738e-03
-2.342553422638036370e-03
-7.772975970207233673e-03
-8.567155934929484434e-03
-7.985784080584378691e-03
-8.999821376654582386e-03
-6.660570570792684157e-03
-2.903024334880687993e-03
-2.944831393171132988e-04
5.131139585340212771e-03
1.303415984397244924e-02
1.785068830314965466e-02
1.306654312708156566e-02
4.346860308772305601e-03
-6.744170939513155494e-04
-4.736400259573433913e-03
-3.535534716311286227e-03
-6.914181719091591974e-03
-1.229137546592361414e-02
-1.319335253998696333e-02
-8.858599176153727009e-03
-6.373567158830277177e-03
-1.301084987673675579e-03
6.383870616988977526e-04
4.147382701537022723e-03
6.782421414395569358e-03
8.392936518709414109e-03
1.400126042351819595e-02
1.837647030648809771e-02
1.182374408176078626e-02
-7.449393662799265459e-04
-1.567731765726594270e-02
-2.447121603755982727e-02
-1.819255664742027226e-02
-4.712202506697340740e-03
8.844419574030535844e-03
1.304555889397469338e-02
9.426739072196186481e-03
6.827262461020381333e-03
5.368692804842790933e-03
4.239339989749802036e-03
-2.573563467242576293e-03
-7.662247204210447665e-03
-1.079198696725424018e-02
-1.096239737232143109e-02
-9.763185323130091006e-03
-5.120538803298711403e-03
-6.110187779312763190e-04
5.363654230923240417e-03
1.224315763648180753e-02
1.608016846797953592e-02
1.548731603167415906e-02
7.823876268002282267e-03
-1.336358111814078126e-03
-5.363792211877747157e-03
-6.474441627777718748e-03
-6.098490029810506308e-03
-5.473060853265720310e-03
-6.695741226237016813e-03
-7.679239396346024607e-03
-7.792907842914927920e-03
-5.118073276013265088e-03
-2.101597962010963699e-03
2.976258010633545982e-03
6.219980692629690534e-03
8.629630433292496614e-03
6.318037379324230318e-03
3.160829497913526798e-03
2.698307628514537773e-03
6.145436326688472929e-03
8.423025486298118744e-03
4.722042197361861308e-03
-3.233443006305876735e-03
-1.190709625781813559e-02
-1.304093068838021140e-02
-7.684191356251145709e-03
-1.914261217477879889e-03
3.084767374409446566e-03
2.629531246100248743e-03
1.504313056027375408e-03
2.664576913734511762e-03
2.195625222466243871e-03
2.886758515922678396e-03
-8.807624460685594715e-04
-1.776600196846117238e-03
-5.160515734663551415e-03
-1.620156735325838180e-03
2.203431363995585895e-03
9.359626668754446040e-05
7.536807501258107039e-04
7.667150197863738595e-03
9.488784153906389476e-03
5.686542566674049858e-03
-6.200532738615508084e-04
-5.241458675183727559e-03
-4.887857492527910609e-03
9.820280244130817691e-05
-1.965598558096972378e-04
-4.646904147316059837e-03
-9.170013386552069296e-03
-8.707377072476487137e-03
-5.772858494044281683e-03
-2.831341261913725756e-03
1.045906099872491446e-03
3.146921849700719080e-03
7.631180838986986216e-03
1.056042269480846930e-02
1.087227985800743452e-02
7.625455240920854180e-03
5.184868748954718151e-03
-5.083468523389528905e-05
-3.162400074031616881e-03
-5.042548223456474674e-03
-4.754493333991156173e-03
-7.302389271276264748e-03
-9.431440698786335355e-03
-8.319877631187631503e-03
-3.561530193130358311e-03
2.372906201500012136e-03
8.858629058323555863e-03
7.951187844882716058e-03
3.965443410698949595e-04
-6.364383328923965688e-03
-4.920678224044161206e-03
1.722747994353150767e-03
7.003411086291162768e-03
4.915108765549491485e-03
8.384644514723782818e-04
-3.107326822405294571e-03
-2.567478325304635434e-03
6.156768878216708520e-03
1.284412553041470485e-02
8.626561042268922341e-03
2.486326492784802188e-03
-3.596177167091959073e-03
-8.518533631547633642e-03
-9.443387174649818180e-03
-9.565203648640522791e-03
-1.153953250193607769e-02
-1.488675702488864716e-02
-8.978569047261740141e-03
2.229959659970353648e-03
9.184456359352785940e-03
1.364661305964820666e-02
1.326066702981258151e-02
1.038407638791612880e-02
5.969638107697147408e-03
4.135147258513934693e-03
2.091254927741018413e-03
-8.512517231525186870e-04
-2.509380862879894564e-03
-5.598092074731386703e-03
-7.341820298295320506e-03
-9.076311330853487069e-03
-1.013688535174186479e-02
-5.565551491771313086e-03
4.606866142479720122e-04
3.169827443890699432e-03
4.358196303769512961e-03
7.192186462390061721e-03
7.042277715240515684e-03
1.696606706410674556e-03
-1.933184216098645172e-03
-1.245488035053186806e-03
-2.987741035589703414e-03
-3.574236390450677599e-03
-6.827564114526884012e-04
1.559069254115834878e-03
1.732338523628831634e-03
2.963168997294171689e-03
7.437041869023324793e-03
1.000014640088152905e-02
5.038411855153402535e-03
-2.826634114921402867e-03
-4.825520072640692749e-03
-6.793643016409012421e-03
-6.727543999640988800e-03
-7.440385969669787922e-03
-9.386428136852762241e-03
-1.279964559807099042e-02
-9.920570371311172864e-03
-1.170718985919264315e-04
9.333960540066405312e-03
1.756941951067604937e-02
1.806633103186255571e-02
1.327524774387762660e-02
7.897666859687811625e-03
3.391419116878095427e-03
-3.092068199891722866e-03
-1.045745601035881316e-02
-1.533060917956762144e-02
-1.235029082729608915e-02
-2.396632255807171555e-03
2.991327328895239390e-03
2.065565978536286831e-03
7.318607851140540403e-04
-2.103093206073576929e-03
-3.705048301739039852e-03
-2.404022241039418910e-03
1.785214454292344223e-03
6.389814207873802110e-03
8.605473620582127989e-03
9.866288595682438239e-03
5.005893206234288302e-03
-2.791046583537672328e-03
-1.205906285329735352e-02
-1.252094767399959153e-02
-8.125471260848308661e-03
-2.598446234337789540e-04
6.912197936748649268e-03
1.286179828740781177e-02
1.276444354420913641e-02
6.966929484650953228e-03
-2.237100905014885032e-04
-4.800103905572477257e-03
-5.786673452146845996e-03
-3.851597775280868590e-03
-4.803045872003528990e-03
-5.235624886877696636e-03
-6.562318714274812184e-03
-6.468231032293186855e-03
-1.965981536228411392e-03
6.749451460520821951e-05
2.105095618141279452e-03
4.206012828465742481e-03
7.815393754945191770e-03
5.526766175467900423e-03
3.347919442262457107e-03
2.534222128601784640e-03
4.008662985381246727e-03
2.562211123859767931e-03
-1.742377666457181195e-04
-1.523730951435068150e-03
-5.234153839854909646e-03
-1.018058651796221147e-02
-8.529072685337020163e-03
-1.602477713084131394e-03
3.324810473930950999e-03
5.690474148464789994e-03
6.301008768315308380e-03
5.039626938441442786e-03
1.168301359481341457e-03
-3.317928464592475105e-03
-6.287151119438758734e-03
-6.998635405119919828e-03
-4.426973892763018739e-03
-7.748971667675234876e-04
1.422098364045031212e-03
2.038673264820000525e-03
6.103700141295223015e-03
9.761917987765935181e-03
9.890015664850889884e-03
6.087325830153807876e-03
8.395964084245725531e-04
-4.128396273163310870e-03
-4.784116124875597426e-03
-1.941434761039978994e-03
-2.160116395374013162e-03
-5.831121687361570313e-03
-9.915050537254095284e-03
-1.144937627602250589e-02
-1.014670660800587321e-02
-8.863439917707369164e-03
-7.991416252474490417e-04
8.509865216954654032e-03
1.566376813141687890e-02
1.953065023406634279e-02
1.573646839798422542e-02
8.251486645059267003e-03
1.910884672477748680e-03
-3.836641057323182669e-03
-7.289119490795904072e-03
-1.210712741957999973e-02
-1.341422930565873070e-02
-1.090744480890402414e-02
-3.813502543431100331e-03
1.485552342045441676e-03
4.116577908711116507e-03
6.269999981143125137e-03
9.379275257471907795e-03
7.095560237636997641e-03
2.371949044109228355e-03
-3.527205694862006746e-03
-4.925918851381713877e-03
-5.471944290148812381e-03
-7.458128028811383467e-03
-5.264273080741259034e-03
-9.571127561981719725e-06
1.968733578037488822e-03
5.437959931000451233e-03
9.482436992239258108e-03
1.147053755293235729e-02
6.600291332797733265e-03
-2.022346039651974799e-03
-4.745484014184300769e-03
-3.057322485015325983e-03
8.054491424463548072e-04
-1.619961202311787172e-03
-6.545234150546892261e-03
-6.769616343323788671e-03
-5.862786523780163378e-03
-3.055095596845335167e-03
1.268386986613669488e-03
2.968871747306702294e-03
3.300739397729838230e-03
2.492078209693747610e-03
-2.861468987631413108e-03
-3.024728755073983338e-03
9.081600948696155057e-04
4.936515823747088597e-03
8.093594508450327810e-03
6.639773107145979444e-03
1.075544971717446417e-03
-8.592231259608966790e-03
-1.125502679777156539e-02
-2.555330136573094602e-03
4.127949172227411700e-03
6.825253874510143863e-03
4.602637801710140683e-03
4.279030957613689373e-03
5.019712422789690369e-03
3.261653330148776148e-04
-8.071400028806128765e-03
-8.833861651144962746e-03
-6.794916668655080760e-03
-4.494619095761787433e-03
-2.026351962753090812e-03
-1.159130175466432586e-03
-6.120609013923979970e-04
4.855314745960263509e-03
1.024664146106880717e-02
1.070060418234133198e-02
6.830212356955614808e-03
3.000678193751434714e-04
-2.200339831842586941e-03
-1.612361931652195367e-03
-1.919601020454181047e-03
-3.117436060486396612e-03
-5.474970928884277666e-03
-7.848210775905821793e-03
-7.369653824590738020e-03
-2.956286947451696769e-03
4.157039028548923168e-04
1.318451717423976127e-03
4.458624456933684040e-03
8.003913468448305840e-03
8.304978901718112691e-03
6.602648176280687987e-03
2.462314877696788681e-03
-2.769724774388040989e-04
-2.505049473414394136e-03
-3.278234677861561683e-03
-4.701342844771972708e-03
-1.025007786622889744e-02
-1.836600796381282139e-02
-1.452919562362510637e-02
5.022894937253309655e-04
1.403597295917504914e-02
1.897871326805538467e-02
1.825008773592997832e-02
1.638330803725707163e-02
6.860438259610636760e-03
-4.839601939473955894e-03
-1.206136941076695578e-02
-1.092281008517418696e-02
-8.841598190146448058e-03
-7.275511655135279490e-03
-5.828429526904307933e-03
-1.630458089539927116e-03
4.258373932561235892e-03
7.917217667782179211e-03
5.766666655601458691e-03
-1.468084786184465328e-03
-8.915195299126653025e-03
-1.015632469023508046e-02
-5.902702527992901259e-04
1.172640096505227388e-02
1.675415955633603737e-02
9.637383505390796287e-03
-3.499574570117239963e-03
-1.104506431082180606e-02
-7.646706039800854095e-03
-6.162570327848523530e-04
6.028101620194001309e-04
1.550495911923554452e-04
1.584653400175699755e-03
3.600872355211865209e-04
6.595132586855270186e-04
1.332904632152033617e-03
1.742160471091805027e-04
-1.349186982845024165e-03
-2.217786298094694131e-03
-6.413100207849135826e-04
-2.759174169283407259e-03
-3.570787803869157184e-03
7.002878084728882038e-04
1.462424572537801819e-03
2.012420521072713197e-03
7.002580214994803647e-03
8.094347152502371842e-03
2.725224080819875147e-03
-5.501960307851714790e-04
-4.030919076140718725e-03
-7.896877512970532434e-03
-8.528059755762661814e-03
-6.895721498198881076e-03
-5.663998491670039701e-03
-1.105474029614435423e-03
5.908460468312152873e-03
9.903498556584377707e-03
1.254909116402848183e-02
1.121483539304650792e-02
7.062304878568819409e-03
1.883132132426011394e-05
-5.868861371620610543e-03
-7.302021828337335041e-03
-5.681332296991936995e-03
-4.956585289816317109e-03
-8.869559670204483007e-03
-8.893888057299239105e-03
-6.054969687108056539e-03
-2.543017249969085208e-03
2.244024388981488358e-03
7.414375169488222894e-03
1.041462185324747852e-02
8.998617682632126594e-03
5.945248748812300560e-03
1.114953289331614347e-03
-3.153679451604564019e-04
2.448466389466524840e-04
-9.254871807302675682e-04
-1.920119458644894712e-03
-3.744904422675623956e-03
-5.276924809295888662e-03
-6.769507045789558905e-03
-4.508832006829010391e-03
-1.210382720021720767e-04
2.630917857008647186e-03
6.542136945665252314e-03
8.602922682607722776e-03
5.488978305365066826e-03
-1.845785922780837217e-04
-6.578150835371124328e-03
-6.219381400222462331e-03
-4.771908390478555792e-03
-4.251866581964757613e-03
-3.793111656800890637e-03
5.020418449834746291e-04
2.741620310711621530e-03
5.093396275750657586e-03
1.015369934655022642e-02
9.351651271860678821e-03
6.299575837025553002e-03
2.458042630267795545e-03
-2.852398355662550972e-03
-5.265541411790393769e-03
-5.425606657087201842e-03
-6.837454721914498421e-03
-7.921342291110239700e-03
-7.041862977031518485e-03
-4.337538965310895611e-03
-1.724491752229289146e-03
1.470327628548140787e-04
1.270519623966871129e-03
4.558220777780954205e-03
7.129609811696085639e-03
9.148930081521136626e-03
8.475078806246474569e-03
6.149327273293647700e-03
3.037495279279529489e-03
-1.845131021276268796e-03
-4.308064417031804393e-03
-4.437552238813381386e-03
-7.045730461317795644e-03
-8.235854222319694690e-03
-5.774175356352498172e-03
-5.956100895513816509e-03
-5.451992440906717509e-03
2.276735324372646148e-03
9.725151452665432503e-03
1.059243541221822384e-02
5.264423749413030609e-03
3.856765441424636273e-03
2.863312049385919635e-03
-2.639331167887777434e-03
-8.310307309107445653e-03
-9.392167788544720716e-03
-3.453737024436703655e-03
1.527158761845748627e-03
5.021531295806824433e-03
1.166651317397863000e-02
1.219970727817874280e-02
3.305757645687599187e-03
-1.079622991457572859e-03
-4.545459832444970552e-03
-7.438991354132187817e-03
-7.005123591682593798e-03
-5.768855211115838169e-03
-7.257585254827260413e-03
-9.440183225398931718e-03
-7.784926949475990191e-03
-2.595278067661885985e-03
4.941657833966371129e-03
1.212672673158389502e-02
1.457814391798762342e-02
1.079364125299652963e-02
6.717137928946867106e-03
2.000552966940578881e-03
-2.300299784580182784e-04
-2.371503649715164114e-03
-5.163029308275494944e-03
-7.522635813939290705e-03
-5.315780538975983620e-03
-4.163646797626787549e-03
-5.703941843131599826e-03
-3.773311305362477171e-03
-1.497760978671268915e-03
3.004227454609883531e-04
8.284914600404228932e-03
1.462597183045438211e-02
1.042169585113282733e-02
-1.184698703315438528e-03
-9.586331346217906793e-03
-1.075354723063617381e-02
-9.830720424559784287e-03
-8.322712964111090780e-03
-3.642512737749958873e-03
5.083743361462179575e-03
9.838273382319909915e-03
1.201683732172196574e-02
1.617063245376940822e-02
1.154602989936962497e-02
1.084733909932428936e-03
-5.276401010884525927e-03
-8.440695683097817689e-03
-1.021443312399277110e-02
-8.863758427063137685e-03
-7.034368700624677243e-03
-5.637864595635757106e-03
-5.525592880308506823e-03
-2.148896731290515956e-03
2.991298898237663810e-03
8.744381341917507183e-03
8.653932238083758902e-03
6.511569938889037734e-03
5.667464580366312829e-03
7.346324727899893568e-03
4.541427177793633772e-03
-1.505646348426099845e-03
-9.237659953816349315e-03
-1.479599162111571407e-02
-1.385112143460950039e-02
-5.572311767772956254e-03
9.576188200945204287e-04
3.975210132556868982e-03
4.752116589234854291e-03
5.293982382580874127e-03
6.956203186498388126e-03
1.150412569467932668e-02
1.332740990415403476e-02
5.849931120919831494e-03
-3.510720633128310356e-03
-9.660667521172757247e-03
-1.088665087406744808e-02
-1.204968330235555753e-02
-1.282768881760174874e-02
-8.474384797751130516e-03
-1.568992286073888492e-03
6.676937651676526086e-03
9.088638617524491189e-03
1.296809040095962644e-02
1.491235348946934498e-02
7.526820145582986676e-03
2.907868969026503452e-05
-3.256336767952359122e-03
-4.867752421670224275e-03
-9.147899761051407792e-04
9.334010800563438681e-04
-2.666647840384863549e-03
-6.599447200008889264e-03
-8.877882154166204243e-03
-7.434748562494801309e-03
-4.702320934384505817e-03
-4.721451469221055013e-03
-5.221241132075161301e-03
-6.030562285772403733e-03
1.580579686747656930e-03
9.852937129306084049e-03
1.801422952711276976e-02
2.219008016788059923e-02
1.539218056879980423e-02
3.078292187084693057e-03
-7.982698331833239583e-03
-1.259945305599201662e-02
-1.233164514796625429e-02
-7.234526824204091933e-03
-4.084353622960322852e-03
-2.939414027210972627e-03
-1.862915844032029741e-03
2.775232353025947757e-03
5.006850249358054360e-03
2.537876357044110531e-03
-1.120008393087608498e-03
4.457065259949744961e-04
-1.310799388288431001e-03
-5.333716579609358403e-03
-6.160336999755245367e-03
-1.836217477561648715e-04
4.118772900198098934e-03
9.679064018024209973e-03
1.283274434142974048e-02
9.272054650316644345e-03
3.818543736710482313e-03
-2.230516668625747746e-03
-4.678923191717907805e-03
-6.943952161605212482e-03
-1.027497590912086062e-02
-7.941742466233634931e-03
-3.077743655925986241e-03
-2.877380485657107974e-03
-3.032662015427112050e-03
-8.611733756443643723e-04
2.090686340873788851e-03
3.545399089772892972e-03
5.974527966500081666e-03
5.599762012179722824e-03
5.199323764131286510e-03
2.808120355878033526e-03
2.241116668085539609e-03
1.189478419736159781e-03
-1.607009179516215216e-03
-3.763102694502214358e-03
-2.753650617110550442e-03
-2.928513510500804599e-03
-4.828004984884976848e-03
-3.044609669561216571e-03
-2.091764409386146373e-03
5.320637863976064759e-04
3.812114595244616311e-03
5.655265789226763401e-03
3.649426485944125970e-03
7.062991625596559166e-04
6.342737577027606453e-04
-8.653351999123961615e-04
-5.059710861259184012e-03
-7.437952907305806285e-03
-2.899124004721917620e-03
5.145218924174025515e-04
1.453528216958014860e-03
3.887907920494748475e-03
8.868540615201744859e-03
1.193632236902398072e-02
5.111555219639501296e-03
-2.650800924876649256e-03
-7.575704196567271953e-03
-8.004577189734643494e-03
-3.315982661226290172e-03
5.904857743841158274e-04
-1.070129468028377731e-03
-5.556781494726553347e-03
-7.944128278896648784e-03
-4.636929047337354226e-03
8.233751786141311861e-04
3.851355067097350995e-03
6.129626384424885152e-03
7.051884196091652915e-03
6.916858415772446540e-03
6.310453507961056620e-03
2.897502353017574091e-03
-6.438357895215103890e-04
-3.485452040856167402e-03
-3.439562725572246991e-03
-3.208338330610767744e-03
-4.274038039981569240e-03
-5.825705369425456838e-03
-4.603280857059520968e-03
-4.204402238642693593e-03
2.309521188605260025e-03
1.043792803768776867e-02
1.369806897557499653e-02
9.267466480012207311e-03
-6.452517732137078021e-04
-1.170118103540964717e-02
-1.804316070064821906e-02
-1.458755963884012657e-02
-1.152553906751138668e-02
-1.515866674643151773e-04
1.264140696208783735e-02
2.006845506956008926e-02
1.971728794545114793e-02
1.415619846483980905e-02
4.529653733988980510e-03
-3.326809664589900489e-03
-9.397903006512641974e-03
-9.397001273147303699e-03
-9.087931778734655366e-03
-4.886887987251724297e-03
-5.056951870316574518e-03
-5.894838804104141246e-03
-6.833866329429625144e-03
-4.801269604531871113e-03
-2.619285045491013576e-03
1.967938085555068911e-03
7.885987664012453213e-03
9.645370349757990264e-03
9.228176393525961210e-03
7.378858046237378801e-03
6.343987660173704482e-03
6.514034170852346303e-03
3.528265081271204223e-03
-2.256307788012907461e-03
-7.432060057220384562e-03
-1.117438062701277615e-02
-1.401026496916754280e-02
-1.201268084753482485e-02
-1.528258590589047505e-03
8.307856515188198274e-03
9.145059633838941923e-03
4.392987520265955424e-03
-3.608385641912998862e-03
-7.803609666648106923e-03
-3.759052180622227818e-03
6.204854566820546327e-03
1.040858871607669954e-02
5.810058297650294058e-03
-1.085678616054359079e-03
-4.757158278448286176e-03
-5.089987806210561662e-03
8.679973333162935289e-04
5.334728338590445131e-03
9.794290261425088809e-03
7.158527831267219588e-03
3.756957224429804607e-03
-1.395617114123260142e-03
-6.965307628543705373e-03
-8.973666667010618547e-03
-4.289257964673092588e-03
-2.820872170533163421e-03
-6.452085632602185677e-03
-7.208212234198430046e-03
-5.113670274141733467e-03
-4.082992239502983116e-03
-2.018965351973691681e-03
9.271829007631809776e-04
4.774542148346420760e-03
1.045282023119275573e-02
1.383112412955541694e-02
1.439967409758644359e-02
9.003999057016605356e-03
1.302484839171650158e-03
-4.943979844499714338e-03
-7.694549394383345606e-03
-7.685154786943374644e-03
-1.055282151079642121e-02
-8.972535243707896110e-03
-5.690723352098846569e-03
-1.009535924134191687e-03
4.161240508071276101e-03
8.453772532357064703e-03
7.901381610182979520e-03
5.089030405219338582e-03
9.096316130067115188e-04
-1.928999779997248032e-03
-6.076998454821060276e-03
-7.335717575497863185e-03
-2.897400501541719242e-03
-1.110729259915915583e-03
2.933323459869538116e-03
5.276771339817350887e-03
6.676609181742925413e-03
1.092993296875378884e-02
8.553071969265269373e-03
7.464251753114322513e-04
-6.240867165178390699e-03
-1.284918852724667958e-02
-1.673819327469101489e-02
-1.247482023459978162e-02
9.924584256742578769e-04
9.955662987809673140e-03
1.005037988334938487e-02
4.721707349476328419e-03
-1.193389613443888997e-03
-3.153065331374310838e-03
-2.749450009396298480e-04
1.606067259371850037e-03
9.195529658519792544e-04
2.798037649817918839e-03
4.122190033251828777e-03
2.676745860921802070e-03
1.577958283574409145e-03
1.190265455003503003e-03
-1.937172856003659474e-03
-7.283852438528847298e-03
-1.050685669985766506e-02
-7.864159012966998041e-03
-1.250807546810241665e-03
3.018389580434340143e-03
7.783767090116370559e-03
8.860111703483780285e-03
5.711727247513007262e-03
3.126120878897224557e-03
-1.606342941426547148e-03
-4.503002774495286353e-03
-5.264955445383958862e-03
-5.598318933754938519e-03
-5.399663384705001221e-03
-2.299220783534218666e-03
5.553103326633272718e-04
2.583716223864552988e-03
4.855995466411415669e-03
9.634362068396707182e-03
1.060991888142939765e-02
5.725600706631986392e-03
-2.967397996900171878e-03
-5.330365072203691046e-03
-3.875237233278457875e-03
-2.306430719125189890e-03
-3.676965538035805933e-03
-4.274695153649657464e-03
-4.601912652047119093e-03
-6.015832190974215211e-03
-3.100970496484855166e-03
3.031821554262906920e-04
2.689365081870232366e-03
2.581735279158577697e-03
2.642486668563729865e-03
3.097359060753031128e-03
4.622816575476626499e-03
5.742228254290437928e-03
6.023200282820576242e-03
2.753129077735930533e-04
-5.123958065673733450e-03
-5.503003492858375006e-03
-4.912232167292745512e-03
-2.082475046218368840e-03
1.338739123829584855e-03
4.910198116010576312e-03
2.228224314628605290e-03
6.132585791285232292e-04
1.428801649954206067e-03
2.372994850452307333e-03
-6.878436898310832546e-04
-5.630301748817313594e-03
-6.819978446649964388e-03
-7.319892430676992919e-03
-4.703436180854270870e-03
-2.809531851713088606e-03
-6.113354350165164756e-04
5.334086285499270094e-03
1.004461037285869773e-02
1.612996626626008248e-02
1.441242927986315266e-02
4.988536644672580955e-03
-5.660118006046613304e-03
-9.840464498491978754e-03
-7.633621343062678248e-03
-2.757633276308093379e-03
-5.681697088539897078e-04
-4.994443251239483531e-03
-7.544940699936694521e-03
-6.225345605803643545e-03
-4.167407833642895743e-03
4.348479268995392513e-04
3.938094679264640685e-03
5.170459275890637238e-03
4.348390123067390201e-03
3.519776729853884428e-03
4.109622640483518927e-03
3.705482898689408007e-03
2.764384087059524459e-03
-1.209168881360668795e-04
-3.339414682713254603e-03
-2.717196615822586349e-03
2.472765456772384705e-04
2.356278660324727901e-03
3.449638202282188492e-03
-4.548359108394486828e-04
-2.506235606505664154e-03
-6.529540843220840718e-03
-7.032131763276194478e-03
-4.154952165600918346e-03
2.583695032846501996e-03
8.182480414564680116e-03
7.798893632142778545e-03
1.169307902897519409e-03
-6.328439255048476202e-03
-1.024225712021770499e-02
-1.025665323662091830e-02
-1.081035324863459726e-02
4.107834487141557439e-04
1.828667277087026380e-02
2.575085805121975560e-02
2.003445240789538881e-02
5.041372749330029143e-03
-8.793315225481709158e-03
-1.303213335733668411e-02
-1.159207564551656931e-02
-1.034952686090827301e-02
-7.663314720814549605e-03
-3.060122288064749327e-03
1.399129750740897224e-03
2.341831838507120456e-03
3.473586441525534745e-03
5.349233325322574548e-03
3.381636483342073327e-03
6.504996552237005125e-04
8.744374377383208954e-04
-2.126454103075401357e-03
-3.534835522909816202e-03
-6.770972785817329712e-03
-1.528918338047781161e-03
5.544531197076408256e-03
5.795090031980231968e-03
1.676244825507380680e-03
-1.648640803299926405e-03
3.385170299436164945e-03
4.159910611065224632e-03
8.358591946701302705e-04
-6.639132545319924045e-04
-1.160153760187948753e-03
-1.234600683621052159e-04
-5.497919243426826856e-04
-2.239555448763787260e-03
-5.148445164608968574e-03
-5.873403950498682496e-03
-3.295886221760050035e-03
-2.243694830006910494e-03
5.453476328974391635e-04
3.297638477150074965e-03
6.219093674680625794e-03
8.592739276128007891e-03
3.283783519527448160e-03
-2.660645979559194720e-03
-3.725346418928818758e-03
2.704469076720508128e-03
3.684751715824423172e-03
3.373784350803461264e-03
-3.060304334391572827e-04
-5.589956973404643439e-03
-1.022163305024540066e-02
-9.160160178309935050e-03
-2.360927573450776959e-03
1.712741444446518047e-03
3.174295699125063985e-03
5.976415478209295626e-03
4.169747814080865776e-03
2.799184654478226522e-03
2.790365373324936449e-03
1.706784345479849842e-03
-1.066476039240900689e-03
-3.867871077544079821e-03
-3.524285558168167767e-03
-2.524185859295789876e-03
-2.610440365168963106e-03
-1.425092934927698392e-03
1.843055746568377992e-03
3.405071819499002478e-03
2.805563513951563667e-03
3.991186506891498259e-03
6.004916846476245768e-03
4.363441966116710091e-03
1.286499191230563478e-03
-2.077823536377922456e-03
-4.119509158324467617e-03
-5.048529665006293472e-03
-8.721117328103945507e-03
-1.134677180926971229e-02
-1.140907726666840448e-02
-8.299300232084328224e-03
2.670493360686686593e-04
1.152366523201604938e-02
2.145568042777713444e-02
2.219621723977982866e-02
1.560281507324287956e-02
3.495061731042732253e-03
-6.689153883979979259e-03
-9.659361497710280964e-03
-1.003511769755702568e-02
-1.072996099870248028e-02
-1.156166474567889811e-02
-9.546065072760177503e-03
-3.927473514613316272e-03
-1.368267139508359126e-03
1.896435441430848173e-03
5.856285562627275634e-03
7.932213786086826299e-03
8.912897115567771852e-03
8.974665723712161106e-03
5.382969733398430129e-03
1.641792215277203607e-03
-1.968801328718716367e-03
-6.102664585188720230e-03
-6.240838509739117523e-03
-5.504989041517492632e-03
-3.514974702244872198e-03
-1.421931606046616080e-03
1.907253594553575023e-03
3.938526019078339088e-03
5.030602820834058179e-03
4.923831061192565813e-03
1.060264618298577700e-03
-4.093253271570036246e-03
-5.182328767759897259e-03
-4.952674950458843366e-03
-3.723689046779698683e-03
-4.274508791522498366e-03
-2.082652733084213500e-03
3.279408374714694319e-04
6.657678140806927089e-03
1.187490711138837300e-02
1.350750979658493257e-02
7.679642172398122232e-03
1.479781529701953632e-03
-7.168435416161462841e-03
-7.823545449086821008e-03
-5.128589768274384453e-03
-2.774411983018151319e-03
-4.250448196558090537e-03
-7.648642984076503212e-03
-7.948931624621942069e-03
-2.208853144369297972e-03
6.645661580608006741e-04
3.098160822458903476e-03
5.107310855481216570e-03
7.029352280415841585e-03
6.917267274963521083e-03
7.243449591523708382e-03
4.669321451564415783e-03
-1.565917708851002205e-03
-3.847445771678251365e-03
-4.646196173652476086e-03
-4.003780694633351026e-03
-3.344354380846899493e-03
-4.404633538495208306e-03
-4.045578667113417654e-03
1.004676154958442861e-04
-4.439094214631891452e-04
2.613376585839028484e-03
6.711534832018195562e-03
8.962271462771554537e-03
6.300788676582966610e-03
9.794657156783201021e-04
-2.786456245838619949e-03
-7.817407256569234783e-03
-8.705999337264234625e-03
-4.630258016637764894e-03
-1.944870804274586619e-03
-4.472987333848498642e-04
3.417291485904781941e-03
7.246668555746132653e-03
5.884353004448459115e-03
-2.935348427147876048e-03
-3.785640019293499796e-03
1.970204813716048241e-03
6.253549014545453991e-03
4.956920503137354772e-03
1.460204763212675019e-03
-1.448881426817343575e-03
-3.092698456713905471e-03
-6.574752673787536729e-03
-8.245351201609466690e-03
-5.480363681100988357e-03
4.196636583767669737e-04
1.479714294000209623e-03
1.659966450029036521e-03
2.046672061134235509e-03
2.521462552075809903e-03
4.956410593182506222e-03
2.829436147184645825e-03
3.494746890367246908e-03
8.637080108441792109e-04
-4.305428543933568358e-03
-7.615242456116238894e-03
-7.593227144284994679e-03
-2.490139125501361628e-03
1.782693063620708653e-03
4.163116038883525431e-03
5.384978126167516005e-03
1.072533369448771569e-02
1.108712415435293003e-02
7.572907471339873631e-03
1.271955183201074063e-03
-5.353456680804808722e-03
-9.369733268391432224e-03
-1.224229007230977044e-02
-1.463873475534860184e-02
-1.612041679719667178e-02
-1.331472925694299030e-02
-1.756080830572506746e-03
1.189196838876126032e-02
2.278896690022896854e-02
2.210225356629477722e-02
1.347352450211724249e-02
4.467478715416238824e-03
-3.040198768933279061e-03
-7.819578267671774274e-03
-1.110464798419024020e-02
-5.133653504348270787e-03
-1.411968013579241725e-04
9.858990534044442117e-04
-2.925220955328466585e-03
-4.458357651550981168e-03
-5.303543953908581438e-03
-2.370568695585336273e-03
-3.661030714732059575e-03
-2.640002380766320184e-03
2.986466603472474803e-03
9.887191200487560616e-03
1.062049771912853754e-02
3.999899606394395971e-03
-1.557364623834397652e-03
-3.447797251698029447e-03
-5.038205152377317822e-03
-6.207680441622003865e-03
-2.738742337190085488e-03
4.526458526406451112e-03
6.328832045339589235e-03
3.913737317873837961e-03
3.234402823164577671e-03
2.290392995776818243e-03
1.355637386853553780e-03
-8.307585136267458615e-04
-5.533090889753631073e-03
-9.742049843800427988e-03
-9.071396056510552114e-03
-7.981748181205601186e-03
-4.830606565017252045e-03
3.391444277416246628e-04
7.622001179901812841e-03
1.312164310402845653e-02
1.611624399237965646e-02
1.341029362782177568e-02
5.288229508209818172e-03
-4.324942617146575186e-03
-9.682303735132255160e-03
-8.388138860465691599e-03
-5.045035252239107003e-03
-5.900362252215134336e-03
-8.918867853484788513e-03
-8.355882538681832020e-03
-2.234752909216737062e-03
1.086587944437575858e-03
3.658683884429745833e-03
7.553693486584719778e-03
8.750870207102624115e-03
8.571355642304849184e-03
4.364185448672298559e-03
3.542271981861128474e-03
5.731705809191382436e-03
2.930092144598286930e-03
-3.090124996203154339e-03
-4.892251416525458460e-03
-9.203408519410956681e-03
-1.341057432104137727e-02
-1.730917098626107500e-02
-1.395309743454360880e-02
-7.824299732372566943e-03
5.444382294897092203e-03
1.997541579988733676e-02
2.939174661811080544e-02
2.176426221939380817e-02
3.557125799111172590e-03
-6.173939620368643424e-03
-1.011008343337593297e-02
-1.160297015866288209e-02
-1.084798496223360678e-02
-7.923401501916164935e-03
-4.152264738726459473e-03
3.705435419702479347e-03
8.812046379284017850e-03
1.180661003715667741e-02
6.773585306056394140e-03
-5.915283253536945257e-04
-2.891670435245674402e-03
-4.599207552939638642e-03
-5.109704873708672754e-03
-1.481023053730861488e-03
-1.398274857926504709e-03
-5.013999028676044932e-03
-6.017889432486653485e-03
-2.323055106095109779e-03
4.161731966901555785e-04
8.496327849190135335e-05
3.283711998599540653e-03
6.699850414789597017e-03
7.930217678127108108e-03
5.014218243976863859e-03
3.446912836018248445e-03
1.528093145462218125e-03
-2.392699216555510140e-05
-3.867369129996912382e-03
-5.961428641162259089e-03
-7.310489709122112469e-03
-5.872722461317632890e-03
-1.440248061846676093e-03
3.293482515704457790e-03
2.580124446786753473e-03
1.042073181176913013e-03
4.209544481760038072e-03
7.226929270711069872e-03
3.243814865053194687e-03
-7.161587862487481249e-04
-3.743739622626157931e-03
-5.397416293334706718e-03
-5.550372857351603371e-03
-6.680030235442483214e-03
-7.309148699766541274e-03
-3.383188397378331276e-03
3.484712938379670895e-03
1.089124894279521263e-02
1.411320766348914645e-02
1.236278202848680764e-02
6.044522606773948016e-03
-3.371518777111268128e-04
-4.116254117055865615e-03
-5.365259270075770602e-03
-5.200255027992620356e-03
-6.528733269823860409e-03
-1.037547910498789507e-02
-1.160272049252151702e-02
-4.706550734794616962e-03
5.083104886708147308e-06
3.259287249621686203e-03
6.125051488959468680e-03
8.016034367515995074e-03
1.003436935301825483e-02
8.703621080436750937e-03
6.032033918581229323e-03
1.269091624740564805e-03
-1.617839737169290276e-03
-5.843041592306896445e-03
-1.172835442418329252e-02
-1.731096280079871472e-02
-1.361277023400847379e-02
1.471548278687302008e-03
1.447172867645026006e-02
1.571376345606350505e-02
1.106275197580398190e-02
5.591846137297533728e-03
1.292704634573835741e-03
