-3.984234598530783222e-04
6.491165384180058284e-05
7.305792459791884605e-05
2.363134273304233924e-04
-5.597928303982840535e-05
-3.465827851883135206e-04
4.318452488982963788e-04
1.421611638520262901e-04
4.090833947224814696e-06
-1.359042092645079355e-04
-1.260329636937705514e-04
-1.194340959266649492e-04
-4.215106297515636082e-04
1.885234873925608105e-04
3.259118327511342891e-05
2.680537376715783386e-05
3.244297612407553207e-04
1.631734953967721522e-04
-1.512187386578921504e-04
-7.960316633207095667e-06
-1.713133755849437318e-05
-1.785823419526263902e-04
1.180947073869905345e-04
1.099286626898166724e-04
-2.031407880633003091e-04
9.435186855608362780e-05
-6.579436199142929119e-05
-7.327884438300127587e-05
7.184840612710707646e-05
-8.823439961621146893e-05
5.676347769481921232e-05
2.015614909099571926e-04
-1.117467724368615274e-04
3.221712295552056166e-05
1.755249822685111399e-04
1.288634097939391211e-05
-1.505276807528804620e-04
-1.619816443304735582e-04
-2.113787253286968725e-05
-3.263613562414630336e-05
-4.316788775510325694e-05
-5.189387426156801962e-05
9.465315454108166296e-05
2.447036835497225530e-04
9.374972284517655067e-05
-2.051708772193066232e-04
-1.941177134708675081e-04
-2.581966480386927075e-05
1.466716320856154487e-04
3.225782060134022066e-04
4.306961839610034919e-05
-8.276819380130858307e-05
9.627031669453725126e-05
-1.841341126873493564e-04
-3.148379963710357479e-04
1.609222359051804289e-04
-1.307901009523420937e-04
-1.221681170637724939e-04
3.420876248986823667e-05
3.386216188717222023e-04
-1.239885785820072077e-04
1.728882227462041335e-04
9.213578470092659696e-06
-1.565279528883404452e-04
1.341601383981763586e-04
-3.353364106873311777e-05
-2.011156083613576567e-04
8.989193885243231777e-05
-7.538035210802275163e-05
-8.597211466498037413e-05
2.111934993960005817e-04
-9.909729927419830861e-05
5.140844838955247712e-05
5.224068692006722926e-05
-9.695401744721388753e-05
6.101090930471323186e-05
2.201819234932548338e-04
2.270730458634030269e-04
-3.770004857544399833e-04
2.381690438936766058e-04
-3.694656794367393200e-04
-6.404428168232454538e-05
-6.627488432252129390e-05
-7.066063716338812247e-05
7.601265407174251734e-05
6.939749552697562624e-05
6.301120562393623702e-05
2.103473808758060161e-04
-9.818054246084154406e-05
-9.906245163000903348e-05
-9.718734955827160020e-05
2.126176276603420365e-04
6.709407302268671162e-05
7.601609343571313112e-05
-2.191982460647775601e-04
-5.656108936679620609e-05
2.577278578563440333e-04
-1.928476236726392814e-04
1.167827608412160331e-04
2.704956597899558970e-04
-3.713600963284967153e-05
-3.481741995899523983e-04
-3.568649281166603798e-04
-6.220542460933101766e-05
-7.322294699191295815e-05
6.929701592871525336e-05
6.155453192756166355e-05
5.721654369093412743e-05
3.620372179474836316e-04
3.655972140498781400e-04
3.723530979036918987e-04
-2.293584881005731517e-04
-6.792093010095618755e-05
-2.132854693917335051e-04
-3.619261693076633113e-04
-5.735350457786618842e-05
-6.313754804329234978e-05
-7.406418199618049691e-05
6.319053388854368178e-05
-2.604028638064373674e-04
4.828093033150669699e-04
-2.991857826594834899e-04
1.421830342473836737e-04
-1.749931362710562574e-04
2.765111320773665227e-04
2.767293252268040104e-04
2.835350935971023062e-04
-1.613847267468877789e-04
-2.961868595702745366e-04
1.827854083611221855e-04
-9.953374679509991861e-05
-7.680912720360492474e-05
9.671601524403586521e-05
-1.906799556408718507e-04
-1.770111783553530592e-04
-1.538244827425606641e-05
-1.636352740168997750e-04
2.940830514765837341e-04
-1.493815339355476359e-05
1.307919574814436336e-04
1.217448548776205213e-04
-4.127761419364012511e-05
-5.238460065175637903e-05
-6.357859641454831627e-05
7.818611949577960421e-05
6.806233354967495413e-05
-9.371955676778994130e-05
5.076584112797920397e-05
-2.613223194802774410e-04
3.823317917905009447e-05
1.865636574501687377e-04
1.837529268896621350e-04
2.989206482478491827e-05
-4.274970287505374224e-04
-1.202031267522314737e-04
3.636955750960681590e-05
3.474587008015276278e-04
-4.076614460304357019e-04
3.648655665833060125e-04
2.233303588606470544e-04
8.280795789388589680e-05
-2.098687708437406896e-04
-4.497772908077989979e-05
-3.350367259704662191e-05
-3.285719554628001283e-04
-1.509716262867811384e-05
-8.885274686416255865e-06
1.476333362548910518e-04
1.491536879341476762e-04
3.007586442804651697e-04
-7.997565814475650678e-06
-3.193955254936264648e-04
1.294900054332400483e-04
-3.449586014772435536e-05
-4.811684330884669563e-05
-6.346025919003540677e-05
-7.980700769357479819e-05
5.634758054782893410e-05
-1.117097269320142008e-04
2.749650130096811560e-05
-2.879161289262262887e-04
3.162635815381562845e-04
1.621652036634650836e-04
1.298401577351191119e-05
3.263095935617190855e-04
-1.191827111994873213e-04
-1.037475968578986570e-04
-2.389951708979545992e-04
-6.856549250750676059e-05
1.009084819277419523e-04
1.154478401867015510e-04
1.264120452722126639e-04
-1.977713326185603202e-05
-1.712019405205689540e-04
-3.281508352267933611e-04
2.724042244175849006e-04
1.051089205067154723e-04
-6.620300085614201028e-05
-8.772344048808125897e-05
4.201910991929949798e-05
1.948584550745715625e-05
1.515745700521676836e-04
-3.229687956826958126e-04
1.233297776093898409e-04
-3.407567060310765948e-05
1.213972257287755050e-04
-1.995904280314746693e-05
1.524219009616441809e-04
-1.246770533127337975e-04
6.354801360179374535e-05
-4.702269950478866507e-05
-1.607309250136105268e-07
4.971439906423125735e-05
1.005859479036485046e-04
-2.227096993120298824e-06
-1.081711572884115077e-04
-6.656240104417022129e-05
-1.841955989853313674e-04
-4.587780268875909502e-06
3.187582325063880980e-04
-1.301675441761440493e-04
2.181533068290962050e-05
-1.405392802672464673e-04
1.463473875200845030e-04
1.204998174904163701e-04
-3.694506683455248738e-04
2.037968531637494309e-04
1.076854936736580001e-05
1.212364179796372190e-04
-2.260826526329648499e-04
1.910940579114269800e-04
-1.516405379632861192e-04
-3.230534920214455979e-05
9.235120299555108403e-05
-8.212975001610526508e-05
5.499276327496611065e-05
4.596702882320334100e-05
1.956296011473349615e-04
4.553467387944962566e-05
-1.000870356718611414e-04
-8.978512496229559250e-05
-2.299736387573234444e-04
8.847360865310331874e-05
2.540462331302754603e-04
-3.943437203022485266e-05
-2.981028472172244352e-05
-1.753957138250363901e-04
-1.712831682629389484e-04
2.877070625042584982e-04
-1.889808720000766279e-05
-2.252135744946220743e-05
-1.803473673075307448e-04
-3.395437933162955745e-05
-4.047062561594492406e-05
4.110226285632270033e-04
1.002238508217539174e-04
-5.707639494589870552e-05
-6.078576938058264886e-05
8.907360281341381578e-05
-6.533982305450831540e-05
-2.188978650070518689e-04
-6.639650505657081724e-05
8.711314524198253493e-05
-2.159111632631196306e-04
9.294608150804834488e-05
-5.417072273670063760e-05
-4.672200102518983181e-05
4.204754480910215513e-04
2.790578880014488844e-04
-3.188688858725858828e-04
-7.592670729117023925e-07
-1.408097795718147758e-04
-1.296880803364840835e-04
1.841662291903820438e-04
1.894408404501006298e-04
3.793852454735730689e-05
3.430329517350365429e-05
-2.794303656766330708e-04
-2.927381853011879289e-04
1.475667499583204780e-04
-2.564161674565612986e-05
1.044624302426634129e-04
-2.235791830173174555e-04
5.991064282563149791e-05
4.084402965202821908e-05
1.782064062845381926e-04
1.676821971579705846e-04
1.623055878524618434e-04
9.497427251884239477e-06
-2.911219311495121843e-04
2.271402693824556228e-05
1.871788667257845971e-04
-4.090317631715691474e-04
6.420312052583271735e-05
2.327806304090322177e-04
-3.617331041644327632e-04
2.638215023214945877e-04
-1.796736961267041718e-04
1.387131158707460745e-04
-1.754107150545292667e-06
9.343548811964520355e-06
-1.330910589339944882e-04
2.876817081730586659e-05
3.713380746357512074e-05
-1.081230733952503483e-04
5.082750954565227672e-04
-9.773573690695934772e-05
-2.481505188630991204e-04
5.646224789730019695e-05
-9.991507451961673602e-05
3.504402604734342566e-04
-1.185834116025261234e-04
-2.862184058005362705e-04
4.263473381999733959e-07
-1.735200801824773084e-04
4.135781858203355218e-04
-6.820197596470174803e-05
-3.968256222891336981e-04
3.938868360550473258e-05
3.262161908952343481e-04
6.981792053794327680e-06
1.506379105202600068e-04
-3.104824341642917034e-04
-3.010548495116468369e-06
1.571553487093878309e-04
1.666871676930745466e-05
3.219571836023489623e-05
3.549611910376291755e-04
-8.467104912139449566e-05
-6.748151179700031469e-05
-3.577493154156055058e-04
-1.935921999511635086e-04
-3.338690863474663522e-05
2.752552219100835905e-04
-3.037233922666696933e-05
1.184852011524469684e-04
-4.019694714159703739e-05
-4.752009456315107083e-05
-3.600196484960227743e-04
2.441990603954258677e-04
8.774131315310761071e-05
8.695037463357160065e-05
-6.288332544474057467e-05
9.608286137783190193e-05
1.057435452863995641e-04
2.705725479956244206e-04
-3.259553244535563126e-04
1.460420710697340639e-04
-2.982721822075267153e-04
-1.341546573338132931e-04
2.714425603199408776e-05
1.849610313775343123e-04
-1.188271720357906213e-04
3.127012871902269491e-05
1.777161273186997359e-04
1.580918188149506111e-05
-3.011784889442076945e-04
-3.146960258741065110e-04
2.812857711604443002e-04
1.142827272648753442e-04
2.530872170500641583e-04
-6.478082510376937948e-05
7.645489026339992954e-05
6.645017485484883710e-05
5.764331008890675149e-05
-1.027952224760678358e-04
-4.150947914616712870e-04
3.609050440748092739e-05
3.002603853897933695e-05
-1.280387500309637108e-04
1.724280663626949581e-04
1.609595050850371373e-05
1.351052709648740277e-05
3.173724336329382693e-04
1.214931795655352015e-05
-1.393028380279809147e-04
1.543814280228027186e-05
-1.341862304796960438e-04
-1.305921966638256182e-04
-1.265148788453813588e-04
3.053902950603033675e-05
3.405083797357034937e-04
-1.121958519884174577e-04
1.982688838559894891e-04
-1.014806192433821279e-04
-9.598465614519272526e-05
2.146894687997017261e-04
-3.901996764033768134e-04
7.300896888168393781e-05
7.852250744532582197e-05
8.422205305740218886e-05
-2.149326812179425507e-04
9.672260433691654219e-05
-4.887090197616221477e-05
1.112184979419887128e-04
-3.350582325590592932e-05
1.270469131370507716e-04
-1.787896306120086623e-05
1.415837641031586513e-04
-1.580537051918238394e-04
-1.769300861935153167e-06
-3.470310809919988292e-07
-1.540486549825498318e-04
1.474405715166583644e-04
1.413759302808948327e-04
-1.918637072054705316e-05
-4.861157048465722386e-04
-3.429855060639752000e-04
4.112224832755940096e-04
4.042337888022705080e-04
-5.789406804699127136e-05
-5.897174502144854758e-05
-5.643370374542671329e-05
1.022972897415067066e-04
-1.934955727896882284e-04
4.288353705378796996e-04
-1.678688243310757025e-04
-9.790300838292194565e-07
1.289402319182984377e-05
2.535602669109538813e-05
-4.221466358289821096e-04
1.957294399462929200e-04
-2.574590093377679477e-04
4.939969822419420706e-05
2.011137845107423359e-04
4.557240823099167112e-05
-1.114703308875975696e-04
1.883338539198639919e-04
1.825528654866188385e-04
-2.809788214011539414e-04
1.871816230710951411e-05
-1.388872207084662603e-04
9.177926652303237319e-06
3.102406616269557348e-04
1.169705013611169925e-06
-2.746114692680123614e-06
-3.121381193337263845e-04
1.408273607515312395e-04
-1.733984959500892942e-05
-2.382388298653391175e-05
-3.123662664401795006e-05
-3.949390795974979393e-05
2.567689715107776332e-04
-5.771377412987620400e-05
-6.705150831751953823e-05
-7.601169710875296684e-05
6.845122769474974549e-05
-2.435515585750352378e-04
2.091485727081079720e-04
-9.896932567642374343e-05
5.307417634520716145e-05
5.501427876649515652e-05
2.119317194884513757e-04
-8.683593250422712002e-05
-2.314183443502519524e-04
2.353160185742419791e-04
-6.067496240920955896e-05
1.005686569995137291e-04
-1.972099358542499182e-04
2.661068729917982116e-04
-3.409746611182523385e-04
1.175798235133791866e-04
-3.662947507970624469e-05
1.122448162423398500e-04
-1.981994797363829475e-04
-2.042883214208349142e-04
9.479913497894230099e-05
8.952196815276498756e-05
2.383621025418619567e-04
-6.853049475056002891e-05
8.462471017881707509e-05
-6.518107420242012610e-05
9.206383503985745393e-05
-5.459280760298842604e-05
1.044471081348405438e-04
-4.201392265947334522e-05
-3.421857706753174584e-04
5.765202505991269153e-04
-3.380910456104756819e-04
-1.870639825968131405e-04
1.142313301332543903e-04
-1.967265227117183780e-04
-5.110811809685693888e-05
9.419032948895851467e-05
-6.507669612835923281e-05
2.349126244206547933e-04
2.319049292558687130e-04
-7.366088330407469578e-05
8.130615620715144539e-05
-6.629673165425400473e-05
-5.910573707425485209e-05
-3.554784331947497119e-04
1.119647888098225286e-04
2.743455009002751998e-04
-2.171393665771133663e-05
-1.398343870649332833e-05
-8.246243860333854855e-06
1.476606451883969633e-04
-3.094002754945402518e-04
1.465101495394153608e-04
-3.153013101641819176e-04
-1.683730997567796687e-04
2.829430647344182022e-04
1.240065958952736005e-04
1.186912060494494677e-04
-3.733386925957456160e-05
1.144097561380230259e-04
-3.590944991619586350e-05
-3.018861879852501379e-05
-3.260523868197360881e-04
-8.052617116622994036e-06
8.035243975615030324e-06
-1.256918432973303629e-04
3.530029294385930846e-04
3.750520421503149900e-04
9.192613043941911340e-05
-3.981639447411042655e-05
-1.739281695736392616e-04
-1.588235451718278683e-04
-3.003354209734774216e-04
-2.935420400364796003e-04
1.429362488516745862e-05
1.659273425952147694e-04
1.620750482420962402e-04
-1.490581495802150575e-04
3.013131599924776471e-04
1.403688999696040571e-04
2.838039000612701504e-04
-3.146275780851588114e-05
-4.284017634642311729e-05
-2.085558025482447367e-04
8.128865654270655162e-05
-5.468371044236004048e-04
4.329621589075638986e-05
1.735494386414305253e-04
-1.554742977739491979e-04
-2.740122558023114465e-05
1.009461535187977367e-04
2.305077096939732873e-04
5.692105342049364781e-05
-1.140277305189729614e-04
1.757741889443747551e-04
1.085593057217391116e-05
1.400346120975377255e-06
-1.581389035961398837e-04
-1.047239249272992066e-05
-1.388526970115933109e-05
-1.626427117256293588e-05
1.346013470235731609e-04
-1.718884704281884335e-04
-2.027182566806991830e-05
1.317676208765463297e-04
-1.733078343777777117e-04
-1.961853347816313852e-05
-1.713327404501237061e-05
-1.288703760725337145e-05
1.459979063773767763e-04
1.544791327396219838e-04
1.250165467412745453e-05
2.498467565922857835e-05
-1.137008250163516212e-04
5.362049124198225758e-05
-8.409468644237849612e-05
-6.978841002603340671e-05
-5.673821985495451148e-05
1.070233316727541435e-04
-1.893954903393156716e-04
2.742978460746450299e-04
-1.807036483542615762e-04
1.238886444780024087e-04
1.198684094316243987e-04
1.124814477089916613e-04
-5.063010815309526601e-05
-3.690323294537976168e-04
7.341567313954478369e-05
-9.573658375030184668e-05
4.002895022650969066e-05
2.401773539685127118e-05
9.889142470305741634e-06
-1.396700987366071745e-06
-9.088222920268475350e-06
1.398648271687525887e-04
1.403965391716315654e-04
-7.742996941129501217e-06
-1.525539312856903434e-04
1.628670134740306996e-04
1.745228307097015821e-04
-1.186954773804959744e-04
-1.074719247554430671e-04
-2.504368478839896208e-04
-9.040557426950891209e-05
6.718000539581200209e-05
6.979097524392093303e-05
7.035711028833382182e-05
-2.357589775236987339e-04
6.763470677811691807e-05
2.182516433320967500e-04
2.166774742497913739e-04
-8.923825427246911653e-05
-2.414713136900379135e-04
6.521674826457387155e-05
6.775020359361934666e-05
-8.156431776565292279e-05
2.272300816517110319e-04
-7.447122883677248755e-05
-7.161786323808259404e-05
-6.983459202545587636e-05
-6.946593081276304844e-05
8.187741611008412222e-05
7.898621392878099991e-05
7.460444762275279405e-05
-2.361132462699660432e-04
6.287158750881759813e-05
-9.594198469087911001e-05
5.110438369177364268e-05
-1.056295318290245867e-04
1.974589241436751515e-04
-1.072550480203048843e-04
4.864431298978844862e-05
5.480923930885667661e-05
6.354002116798077103e-05
-7.834214129963138168e-05
2.386719729826782379e-04
-5.458927759663993143e-05
-4.371748412737650868e-05
-3.499215873500322981e-05
2.758296671282540113e-04
-1.800330844629612179e-04
-3.347058576680608409e-04
-3.545064672266216605e-05
-1.971565092912643880e-04
-2.084769113276729944e-04
2.370114926219062102e-04
2.250894438776302484e-04
3.673374083543022735e-04
5.436478678028150620e-05
-1.028475495898920419e-04
-1.040618621701953905e-04
-1.019924916766844013e-04
2.081145241488419713e-04
-8.992556684158195014e-05
7.124616265498116070e-05
-2.247168429251107278e-04
-6.303839700435430622e-05
-2.073344237784245333e-04
1.048030382199382067e-04
2.625949163604109462e-04
1.131382236903831110e-04
-1.912018787811986086e-04
2.649703428802097993e-04
-1.968927438775459036e-04
-5.084664393053488462e-05
-5.967786850212659190e-05
8.208611358827328137e-05
6.968467845751192440e-05
-9.635217729070902511e-05
-1.102338927106041964e-04
2.868697527670462346e-05
-2.893218004699421651e-04
3.095925800198972644e-04
1.473337456056074001e-04
1.396378595464798007e-04
-1.869400348450308888e-05
-2.269486631764198561e-05
-2.530487909062314851e-05
1.256600448733489735e-04
-3.331221398503072108e-04
-2.859868035922805165e-05
1.236051155739334732e-04
-3.341710601966775811e-04
2.768532111628391407e-04
-2.656878987125535401e-05
-2.323367238189748697e-05
-1.704547053441287307e-04
1.424681970735948075e-04
1.359741161636565537e-07
1.653774262822801987e-04
1.800088105978518368e-04
4.333675913489693171e-05
5.962826209476396823e-05
-2.299187124994277469e-04
-6.338028302910032560e-05
-5.200933948025218744e-05
-4.386691807274867251e-05
-3.928724336808285284e-05
1.143363078228270402e-04
-3.455765411282228508e-04
2.600910312922530233e-04
-5.142434071782069798e-05
9.417549412508939544e-05
-6.504664052975430474e-05
8.219343490297396210e-05
-7.371889155548166429e-05
7.807308664455860287e-05
8.000318315069847785e-05
8.455788742912992027e-05
-6.124636389137310516e-05
-5.286604051650238968e-05
-4.369968302861060918e-05
1.179477074788222446e-04
-2.658382937537899203e-05
-2.031933111447447864e-05
1.361223124588752836e-04
-4.731670752619567466e-04
1.353541493815919134e-04
-2.176586917702180151e-05
1.240404466647772525e-04
-3.693478891672159840e-05
1.064527759580572792e-04
-2.079096957816787097e-04
8.891875944466327559e-05
8.210977801398411174e-05
7.739375101817462012e-05
7.511473257139305952e-05
-2.297939827009651173e-04
-7.450380831507555997e-05
2.354621721158794674e-04
-6.338394577465512490e-05
-5.619456786404443378e-05
2.562384734046678383e-04
-4.244630742549957390e-05
-3.747900090378651774e-05
-1.872637250845113799e-04
-3.445215081779092890e-05
1.156224521652598499e-04
1.105117162198968934e-04
-3.545247139364049449e-04
-5.812046740388304613e-05
-6.752765462254764885e-05
7.592855068686940492e-05
2.205185087860451196e-04
6.175029053001677547e-05
2.104081403304045592e-04
-9.634513548949963813e-05
2.094255994379488309e-04
-2.460409381077516321e-04
-9.005682836607481034e-05
6.632688917144482187e-05
-8.272987671681393377e-05
7.258763004403905028e-05
-7.845205606134511458e-05
-7.824802886092928529e-05
-2.319519886997635147e-04
-8.160716259154595991e-05
2.204742683080739365e-04
2.168092915509188144e-04
2.127992447494241035e-04
5.596408626862974000e-05
5.147898869901055847e-05
-2.585081215628982692e-04
-1.111431864859522937e-04
-1.168291067981396431e-04
-1.229160061149978990e-04
1.759593681806851588e-04
1.697344735175267279e-04
1.138003216110925156e-05
-1.460923897782012346e-04
-1.496777480657633837e-04
9.817354994141196816e-07
1.535432762222655638e-04
2.912748906024183037e-06
1.593363790211636236e-04
1.212573282412857565e-05
-1.340671212787312007e-04
2.525639321505728969e-05
3.367437801150901730e-04
-1.158968260396825000e-04
4.000488553230883591e-05
-4.166911455660904980e-04
-2.654408653476645979e-04
1.887769420776153095e-04
3.088308583812801004e-05
1.771251214001798486e-04
1.705858137262031260e-04
-2.930183625926188859e-04
7.874370304624596383e-06
5.831612820379675442e-06
-1.460809581473545182e-04
3.152795290144839806e-04
1.690685111511806555e-04
1.777964598684965306e-04
-1.170153741443642298e-04
-2.584904687138355394e-04
-2.476001061658621811e-04
2.198941299021416344e-04
-7.754909941751919221e-05
8.015557779389677394e-05
2.348344265714172763e-04
-7.142900458062478939e-05
-3.807338949460475691e-04
-8.237238585365319068e-05
2.139241154858462213e-04
-1.014585039882662172e-04
1.930303236843876021e-04
3.007854347794488743e-05
2.077424132511441717e-05
1.310878473685535872e-05
7.484664624857050905e-06
4.117115729122800006e-06
3.045077429765783050e-06
-1.484348158613429437e-04
7.211935385457417557e-06
1.188826215998989248e-05
1.779358351930666597e-05
2.450008107372614834e-05
1.841603683790396192e-04
3.858963125889254266e-05
-4.125575780637919573e-04
5.114991394413203913e-05
2.088910314716937164e-04
6.067329523392393060e-05
-8.814590822707662544e-05
6.795474918931913714e-05
7.170666381462823262e-05
-3.814157234272487354e-04
8.261737322600423217e-05
-2.138636202528777948e-04
-4.941020997113894885e-05
4.239618943524394801e-04
-1.667617979162336805e-04
9.420961616004168865e-06
3.416458577122370222e-04
2.186250140540374628e-04
-5.574680653334090484e-05
1.273732100276052945e-04
-4.543070215884941073e-04
-1.237854239394857111e-04
-2.555586362490181200e-04
2.176755949853805092e-04
-7.775655746150659511e-05
-7.373989750547818730e-05
2.300883176347395386e-04
7.141786033088610584e-05
-9.120683821856974329e-05
-1.043870573546773381e-04
3.267099520471884998e-05
1.549425203597685748e-05
3.023747365034469906e-04
1.307235278714976678e-04
1.111128413781408813e-04
-2.140958156807423263e-04
-3.870414523786641203e-04
5.022516415808868059e-05
2.989485853922122077e-05
-1.424269229391432912e-04
-8.429574529588075468e-06
-2.530132491531723011e-05
2.652664270514067200e-04
1.007322698191557170e-04
-6.092633663850928352e-05
-6.715462443454409862e-05
2.343536173489721788e-04
-7.244488738425701761e-05
7.991604378535724221e-05
8.033241907308571149e-05
-3.771007139074955702e-04
-2.249274351701274007e-04
7.861740279752086550e-05
7.543364014891272725e-05
2.231407028404453570e-04
-8.862550838484150727e-05
5.579166900988477118e-05
4.625242703800441514e-05
1.882560945566636953e-04
2.445811788492877306e-05
-2.920084333699476346e-04
-3.027093389900466095e-04
-6.879177475926711491e-06
-1.406587913414778882e-05
-1.831885397924672639e-05
4.387445270935978530e-04
1.368083986208662776e-04
-3.137418194526988701e-04
