1.211911358995079735e-03
1.162986746198576855e-03
1.100499191542913483e-03
1.026324583925928560e-03
9.425414541822308605e-04
8.513963181288997746e-04
7.552666489457873951e-04
6.566221023459694163e-04
5.579845580707724038e-04
4.618877101768379821e-04
3.708366589583483755e-04
2.872682725504093534e-04
2.135128802173913638e-04
1.517578271741738057e-04
1.040134889005272487e-04
7.208218966896277847e-05
5.753052393971670562e-05
6.166544407689647110e-05
8.551441576515057385e-05
1.298099357825003609e-04
1.949786236729551337e-04
2.811349255211006721e-04
3.880796022217410579e-04
5.153028487604753485e-04
6.619919942578286406e-04
8.270436212946602125e-04
1.009079911297513545e-03
1.206468823058837484e-03
1.417347880855132549e-03
1.639651062572542199e-03
1.871138335371299146e-03
2.109427517936485457e-03
2.352027903966895719e-03
2.596374977638907146e-03
2.839865823415538022e-03
3.079894810357876409e-03
3.313888764874824144e-03
3.539341335126970547e-03
3.753845954417586641e-03
3.955126967665273212e-03
4.141068521427889067e-03
4.309740810840101931e-03
4.459423367827065367e-03
4.588625041330412872e-03
4.696100620575566556e-03
4.780863680694151865e-03
4.842195752075596771e-03
4.879651616935874389e-03
4.893060832291928376e-03
4.882525472480053752e-03
4.848414204378296080e-03
4.791352941062251153e-03
4.712212201094383678e-03
4.612091475514504095e-03
4.492300802729972189e-03
4.354340071224109890e-03
4.199876219009269010e-03
4.030718737741054852e-03
3.848793994159935890e-03
3.656118592497949876e-03
3.454772235947860259e-03
3.246870553787268437e-03
3.034538178505105915e-03
2.819882439511312879e-03
2.604968089660882492e-03
2.391793312126605075e-03
2.182267318265026200e-03
1.978189797914658380e-03
1.781232437883904047e-03
1.592922628988521295e-03
1.414629633137600003e-03
1.247553199080429645e-03
1.092714706794985224e-03
9.509509218102367521e-04
8.229102773323507085e-04
7.090516341933579157e-04
6.096455036588572639e-04
5.247775276881223991e-04
4.543541008485885613e-04
3.981100315382684923e-04
3.556179560796901562e-04
3.262993320831160523e-04
3.094368578647244171e-04
3.041879328986936046e-04
3.095991662172073986e-04
3.246214640060029262e-04
3.481256807924913016e-04
3.789184427652160991e-04
4.157580154151140225e-04
4.573700399966869183e-04
5.024629229537890939e-04
5.497426764061245615e-04
5.979271311757018616e-04
6.457594247873585901e-04
6.920205435309456253e-04
7.355408757591415511e-04
7.752107915850724737e-04
8.099901181686608529e-04
8.389165185017301470e-04
8.611126937016920415e-04
8.757925727631040011e-04
8.822663182457505388e-04
8.799443339527826535e-04
8.683402360164931303e-04
8.470728633120115430e-04
8.158673479677614436e-04
7.745553961751652783e-04
7.230747552962547755e-04
6.614679918678005675e-04
5.898805520423149474e-04
5.085582289014184279e-04
4.178441331651933967e-04
3.181750690928225773e-04
2.100775495695092867e-04
9.416332453783598990e-05
-2.887546023889386106e-05
-1.582714601208271574e-04
-2.931876904456760390e-04
-4.327233813486473053e-04
-5.759201896808485580e-04
-7.217687326689012622e-04
-8.692153821129800428e-04
-1.017169420796869197e-03
-1.164510456794775944e-03
-1.310096191719844171e-03
-1.452770441851953176e-03
-1.591371479491875953e-03
-1.724740610027060113e-03
-1.851730957757145727e-03
-1.971216470473936746e-03
-2.082101157175136451e-03
-2.183328307110735719e-03
-2.273889878358089679e-03
-2.352835794610987855e-03
-2.419283189999952340e-03
-2.472425459351561879e-03
-2.511541026796637772e-03
-2.536001732487036704e-03
-2.545280727371209296e-03
-2.538959832875393573e-03
-2.516736158909611918e-03
-2.478427921118069900e-03
-2.423979325294138999e-03
-2.353464457194203493e-03
-2.267090053721318877e-03
-2.165197004763763384e-03
-2.048260626846179662e-03
-1.916889559989103011e-03
-1.771823305939880262e-03
-1.613928268121859718e-03
-1.444192393386843892e-03
-1.263718326377281801e-03
-1.073715254091624086e-03
-8.754892055964351872e-04
-6.704321999992676837e-04
-4.600100922231693769e-04
-2.457493395255138996e-04
-2.922278080647603676e-05
1.879654856045491463e-04
4.041957974604168087e-04
6.178491586903865282e-04
8.273238059198348079e-04
1.031051838932489292e-03
1.227515775263749017e-03
1.415264787457118671e-03
1.592930375678294243e-03
1.759241411205281777e-03
1.913038134541670057e-03
2.053285115015388886e-03
2.179082791553880322e-03
2.289677565249108315e-03
2.384470279331387527e-03
2.463022893458986524e-03
2.525063285025217538e-03
2.570488078986621610e-03
2.599363489938776115e-03
2.611924072710219633e-03
2.608569433423971878e-03
2.589858927305886162e-03
2.556504393659714443e-03
2.509360997444230051e-03
2.449416325571174887e-03
2.377777841825152744e-03
2.295658879999979470e-03
2.204363356579766130e-03
2.105269444728738535e-03
1.999812362036325081e-03
1.889466553674481715e-03
1.775727471930039483e-03
1.660093262554406023e-03
1.544046590292493578e-03
1.429036830018355761e-03
1.316462893303851477e-03
1.207656849401879439e-03
1.103868683539044847e-03
1.006252318773932612e-03
9.158531094951228224e-04
8.335969690572715262e-04
7.602812603823115448e-04
6.965675702235305444e-04
6.429764241132184671e-04
5.998840567649941450e-04
5.675211605775099238e-04
5.459737205113667684e-04
5.351857689805669194e-04
5.349641148064445935e-04
5.449848393516005781e-04
5.648014878260658672e-04
5.938548347595370980e-04
6.314839828431824485e-04
6.769385972632225787e-04
7.293921630193828630e-04
7.879559925768084110e-04
8.516936695722396051e-04
9.196358248284644543e-04
9.907949665104484171e-04
1.064180087101064065e-03
1.138810882834366675e-03
1.213731327252394031e-03
1.288022395608012923e-03
1.360813813525424323e-03
1.431294598342914984e-03
1.498722279162100412e-03
1.562430634659826931e-03
1.621836000429841907e-03
1.676441922971470171e-03
1.725842217744017696e-03
1.769722349544160375e-03
1.807859235227713812e-03
1.840119440259665399e-03
1.866455995685602914e-03
1.886903766483534950e-03
1.901573622590219332e-03
1.910645454762741882e-03
1.914360257786994375e-03
1.913011481170028569e-03
1.906935799969991952e-03
1.896503469927540795e-03
1.882108535298741923e-03
1.864159084841995840e-03
1.843067641054396731e-03
1.819241977529638486e-03
1.793076518873079703e-03
1.764944483398782219e-03
1.735190883206757248e-03
1.704126494293017359e-03
1.672022990859072748e-03
1.639109189537662613e-03
1.605568553804634022e-03
1.571537946952906517e-03
1.537107653799660474e-03
1.502322567197192805e-03
1.467184635324337693e-03
1.431656315746143758e-03
1.395665063074536839e-03
1.359108733723642971e-03
1.321861646160703199e-03
1.283781261992042542e-03
1.244715290881727096e-03
1.204509040097448674e-03
1.163012795273400679e-03
1.120089100350129792e-03
1.075619755597443002e-03
1.029512357773573576e-03
9.817061513015654019e-04
9.321771906211569507e-04
8.809425040786604414e-04
8.280632995329999420e-04
7.736470297129911019e-04
7.178482226766304871e-04
6.608681919317454558e-04
6.029534227062170737e-04
5.443927385365026662e-04
4.855133067173659405e-04
4.266754628111755088e-04
3.682665408930705818e-04
3.106937323194954243e-04
2.543761545717510746e-04
1.997363195175302995e-04
1.471911156118269634e-04
9.714243033197495544e-05
4.996777102222180119e-05
6.010960629088252295e-06
-3.442690503811838101e-05
-7.109595875962294528e-05
-1.038054117488583023e-04
-1.324305408166370833e-04
-1.569186005096146407e-04
-1.772936142870157566e-04
-1.936598664351956681e-04
-2.062039752743760872e-04
-2.151954611636935520e-04
-2.209858961121430527e-04
-2.240064260905327126e-04
-2.247637933241851285e-04
-2.238349469575737552e-04
-2.218601779882435491e-04
-2.195349786330769897e-04
-2.176007711520917581e-04
-2.168346187900006350e-04
-2.180380762216683425e-04
-2.220254224970243616e-04
-2.296115239677951850e-04
-2.415994243027512478e-04
-2.587680194246401596e-04
-2.818599998161407669e-04
-3.115702522716020458e-04
-3.485349882225445475e-04
-3.933218369908775096e-04
-4.464209854731116412e-04
-5.082376629587647418e-04
-5.790860363892371418e-04
-6.591846551411071047e-04
-7.486535181149147440e-04
-8.475129208276826857e-04
-9.556839104494093632e-04
-1.072990502076013588e-03
-1.199163536673998262e-03
-1.333846109647033934e-03
-1.476600403267715016e-03
-1.626915892654073100e-03
-1.784218588951468499e-03
-1.947881262655382301e-03
-2.117234237850300609e-03
-2.291576711240964591e-03
-2.470188253665667796e-03
-2.652340174437088031e-03
-2.837306551381068784e-03
-3.024374675496453724e-03
-3.212854586072646373e-03
-3.402087606395036868e-03
-3.591453494938340405e-03
-3.780376146015852409e-03
-3.968327589621916188e-03
-4.154830273221416827e-03
-4.339457472271625142e-03
-4.521831810149379467e-03
-4.701621936541113336e-03
-4.878537318352142022e-03
-5.052321347987069958e-03
-5.222742762244140906e-03
-5.389585707036140261e-03
-5.552638534014602001e-03
-5.711681693950861755e-03
-5.866474904017726991e-03
-6.016743987481877262e-03
-6.162167667984983811e-03
-6.302364636745411142e-03
-6.436881324309738986e-03
-6.565180674248722280e-03
-6.686632315363797222e-03
-6.800504337376932565e-03
-6.905957082815529502e-03
-7.002039270198839697e-03
-7.087686541073638311e-03
-7.161722783694394676e-03
-7.222864290985299071e-03
-7.269726849879074894e-03
-7.300835850110275020e-03
-7.314639380094603745e-03
-7.309524194022532818e-03
-7.283834498040030539e-03
-7.235893264808138277e-03
-7.164025781277090846e-03
-7.066585302430979793e-03
-6.941980236197145548e-03
-6.788702607438149884e-03
-6.605357253449165369e-03
-6.390691262861466528e-03
-6.143623273708376242e-03
-5.863271936356358530e-03
-5.548983158420599075e-03
-5.200355507027180045e-03
-4.817263359002235505e-03
-4.399877251849781436e-03
-3.948680958691841610e-03
-3.464484962481622059e-03
-2.948435870248356135e-03
-2.402021545280771768e-03
-1.827071662890952406e-03
-1.225753656568244433e-03
-6.005638452625935639e-04
4.568633498392540756e-05
7.098886890358581999e-04
1.388661269193217432e-03
2.078375728947508619e-03
2.775188604815292080e-03
3.475076328331631100e-03
4.173873435365323473e-03
4.867313333299589165e-03
5.551071304933908289e-03
6.220809012246131080e-03
6.872219851696757115e-03
7.501074517273743740e-03
8.103266092542932980e-03
8.674854100924741726e-03
9.212106753570334025e-03
9.711540764831248090e-03
1.016995822366030880e-02
1.058447989135925631e-02
1.095257453839922936e-02
1.127208387444566910e-02
1.154124262962778931e-02
1.175869365441393685e-02
1.192349773782512036e-02
1.203513822548983592e-02
1.209352023590613834e-02
1.209896470672424361e-02
1.205219741136582569e-02
1.195433320719071178e-02
1.180685579163717920e-02
1.161159345702883830e-02
1.137069135604109119e-02
1.108658065279076801e-02
1.076194531600221244e-02
1.039968701842548283e-02
1.000288878286799236e-02
9.574778050243782160e-03
9.118689825156121517e-03
8.638030355910002525e-03
8.136242154292672515e-03
7.616770589760163586e-03
7.083032742184045515e-03
6.538388926289623142e-03
5.986117154790020212e-03
5.429390791053573424e-03
4.871259665193750955e-03
4.314634729393748008e-03
3.762276179173872515e-03
3.216785097785844309e-03
2.680598416840340639e-03
2.155986975085130188e-03
1.645056296093923244e-03
1.149749923480120973e-03
6.718547899618981366e-04
2.130080413784536599e-04
-2.252949475831884170e-04
-6.416919258509392156e-04
-1.034945067053978911e-03
-1.403932622446098450e-03
-1.747641400305456182e-03
-2.065160475670861553e-03
-2.355676545795509606e-03
-2.618471240087038611e-03
-2.852920606026938810e-03
-3.058496879912932839e-03
-3.234772728917690438e-03
-3.381427878724081997e-03
-3.498257968623494623e-03
-3.585185519991923499e-03
-3.642272706916530305e-03
-3.669735494378999902e-03
-3.667958750173107903e-03
-3.637511804905028869e-03
-3.579163790226256182e-03
-3.493898255062406148e-03
-3.382926294796844563e-03
-3.247697582666632735e-03
-3.089908651955076448e-03
-2.911507774823292143e-03
-2.714695726389280798e-03
-2.501922129971602231e-03
-2.275876666166130966e-03
-2.039474932481955688e-03
-1.795838611340564231e-03
-1.548269861475859953e-03
-1.300219769036266987e-03
-1.055251204096210958e-03
-8.169960926881103969e-04
-5.891077575126303775e-04
-3.752086495113502243e-04
-1.788343051349166311e-04
-3.374338383354870418e-06
1.479886258346304500e-04
2.723409931203557934e-04
3.671000508401132934e-04
4.300744740088870621e-04
4.595221386325181400e-04
4.542040428248025050e-04
4.134330547848002828e-04
3.371159976439817765e-04
2.257882340981319524e-04
8.063936372159870910e-05
-9.647080941726246615e-05
-3.030069659986489973e-04
-5.357644043043290451e-04
-7.908869819585954671e-04
-1.063897192828097736e-03
-1.349738514874946130e-03
-1.642829896472682710e-03
-1.937131892994574693e-03
-2.226223934544985066e-03
-2.503391839990005280e-03
-2.761724407054036001e-03
-2.994217724896917638e-03
-3.193885700583119769e-03
-3.353875101046184960e-03
-3.467583179837339675e-03
-3.528775875093576216e-03
-3.531704476869237767e-03
-3.471218540970749406e-03
-3.342872881906240080e-03
-3.143026521058318607e-03
-2.868931384021903164e-03
-2.518808776085124969e-03
-2.091911861585470187e-03
-1.588572330063831202e-03
-1.010229929498128497e-03
-3.594436335121475607e-04
3.601162648958643642e-04
1.143695844410226115e-03
1.985505230085097932e-03
2.878786004659753418e-03
3.815897875884195420e-03
4.788423579259538758e-03
5.787290854741525443e-03
6.802909844110225507e-03
7.825323827571936675e-03
8.844371097728844291e-03
9.849855342067457067e-03
1.083172169101152132e-02
1.178023549062307516e-02
1.268616065298310523e-02
1.354093417399272054e-02
1.433683370990126646e-02
1.506713486161140488e-02
1.572625511571843285e-02
1.630988119380112969e-02
1.681507718396214532e-02
1.724037098434707746e-02
1.758581676754067402e-02
1.785303164216005614e-02
1.804520514418155724e-02
1.816708060533866326e-02
1.822490800552885662e-02
1.822636833172798509e-02
1.818047013501586720e-02
1.809741930557474260e-02
1.798846386389781060e-02
1.786571586951713614e-02
1.774195312933947791e-02
1.763040382436674436e-02
1.754451753931213567e-02
1.749772658617769136e-02
1.750320170404396844e-02
1.757360656354063633e-02
1.772085550712088758e-02
1.795587904518256353e-02
1.828840170688371403e-02
1.872673659053157580e-02
1.927760086599709932e-02
1.994595603864678449e-02
2.073487660967354013e-02
2.164545032770908220e-02
2.267671252426729095e-02
2.382561662795710383e-02
2.508704220675436747e-02
2.645384133985897307e-02
2.791692337097832766e-02
2.946537732141972857e-02
3.108663059714244711e-02
3.276664191545863164e-02
3.449012554298348104e-02
3.624080354457903663e-02
3.800168183572003033e-02
3.975534548846400978e-02
4.148426823709887995e-02
4.317113065033956892e-02
4.479914128065545093e-02
4.635235474243173948e-02
