3.606305706045837868e-04
9.276324632688151941e-04
1.475296591025812131e-03
2.002971388631668171e-03
2.510119993707053167e-03
2.996329159684144646e-03
3.461316466310902958e-03
3.904935743331432434e-03
4.327180623246958298e-03
4.728186038041376146e-03
5.108227786885861932e-03
5.467719980977014255e-03
5.807210379150134182e-03
6.127373848618367612e-03
6.429003812256200642e-03
6.713001904701190389e-03
6.980365943968364073e-03
7.232176424196144239e-03
7.469581704959515553e-03
7.693782047411968153e-03
7.906012876447715207e-03
8.107527395038175572e-03
8.299578922382144786e-03
8.483403162274817319e-03
8.660200693262088203e-03
8.831119934934976781e-03
8.997240900618687365e-03
9.159559956320213400e-03
9.318975890439586823e-03
9.476277459822490812e-03
9.632132582381557756e-03
9.787079495239265139e-03
9.941519867622978027e-03
1.009571404183911073e-02
1.024977844853477982e-02
1.040368537844726243e-02
1.055726492092859056e-02
1.071020914914399234e-02
1.086207850805707802e-02
1.101231027008277297e-02
1.116022886388417026e-02
1.130505801295644992e-02
1.144593448298815257e-02
1.158192316472018805e-02
1.171203324772726595e-02
1.183523529188108304e-02
1.195047889488762630e-02
1.205671060239519449e-02
1.215289195106414137e-02
1.223801714723767205e-02
1.231113029072230906e-02
1.237134176277126379e-02
1.241784346705204073e-02
1.244992290476336708e-02
1.246697565256743925e-02
1.246851614671794922e-02
1.245418657563669533e-02
1.242376386479405147e-02
1.237716447636793247e-02
1.231444705043203795e-02
1.223581292148469800e-02
1.214160449279036956e-02
1.203230143244171657e-02
1.190851482770462384e-02
1.177097944735086554e-02
1.162054422654439263e-02
1.145816111407533394e-02
1.128487251530846044e-02
1.110179753087048825e-02
1.091011728401059845e-02
1.071105948054412033e-02
1.050588256732571182e-02
1.029585965577613227e-02
1.008226256231896552e-02
9.866346171348764835e-03
9.649333370068503141e-03
9.432400801605886342e-03
9.216665613502726673e-03
9.003173473410034863e-03
8.792887991656887781e-03
8.586681674276402595e-03
8.385328535987803672e-03
8.189498423830663190e-03
7.999753174521792923e-03
7.816544585401142414e-03
7.640214218896666624e-03
7.470994977250605858e-03
7.309014317949229407e-03
7.154299088610322453e-03
7.006781851914888580e-03
6.866308492381539841e-03
6.732646944092310522e-03
6.605496855744922603e-03
6.484500067263058651e-03
6.369251582427386087e-03
6.259310901332754661e-03
6.154213345882220826e-03
6.053481351717288420e-03
5.956635386201596799e-03
5.863204414860202079e-03
5.772735595841201224e-03
5.684803116375060188e-03
5.599016003750159100e-03
5.515024913187036720e-03
5.432527527575880914e-03
5.351272750891148539e-03
5.271063539364604505e-03
5.191758423929090926e-03
5.113271628732895570e-03
5.035571891303108547e-03
4.958680130357532960e-03
4.882665949373874228e-03
4.807643093517733821e-03
4.733764007997897164e-03
4.661213689638226722e-03
4.590202959825808067e-03
4.520961306036611407e-03
4.453729476964271052e-03
4.388752075953047775e-03
4.326270276290906068e-03
4.266514807290797476e-03
4.209699430169498019e-03
4.156014939520421073e-03
4.105623977665404448e-03
4.058656693831921500e-03
4.015207405486054260e-03
3.975332172741281173e-03
3.939047544256431797e-03
3.906330306589787804e-03
3.877118408366798854e-03
3.851312939450763240e-03
3.828781046118086197e-03
3.809359811214221674e-03
3.792861003521156259e-03
3.779076556463979632e-03
3.767784567972335980e-03
3.758755749198601070e-03
3.751760167285263150e-03
3.746574141448500827e-03
3.742987000783159698e-03
3.740807620826559071e-03
3.739870577519443032e-03
3.740041732316446571e-03
3.741223169407673337e-03
3.743357222237683659e-03
3.746429538218997053e-03
3.750471175700896987e-03
3.755559513591990878e-03
3.761817938666615121e-03
3.769414413629689972e-03
3.778558866740062538e-03
3.789499329298224098e-03
3.802516996002769552e-03
3.817920272722140265e-03
3.836037851149067066e-03
3.857211044668439233e-03
3.881785440811078621e-03
3.910102096978299024e-03
3.942488340627986823e-03
3.979248532587612366e-03
4.020654922522785835e-03
4.066938644758918107e-03
4.118281318876550710e-03
4.174807256688939198e-03
4.236576506965837076e-03
4.303578869683591379e-03
4.375729140292383690e-03
4.452863583637627423e-03
4.534737827064699335e-03
4.621026191542720353e-03
4.711322545984767372e-03
4.805142736939841709e-03
4.901928602932662839e-03
5.001053419253808849e-03
5.101828828558422485e-03
5.203513062966876393e-03
5.305320391754407214e-03
5.406431627211117849e-03
5.506005568414643926e-03
5.603191086565937132e-03
5.697139713268375288e-03
5.787018455249792401e-03
5.872022668364622507e-03
5.951388682904855225e-03
6.024406034738941269e-03
6.090428945853946542e-03
6.148886929471283902e-03
6.199294321476971938e-03
6.241258474775199586e-03
6.274486461591763202e-03
6.298790206851120725e-03
6.314089888362082841e-03
6.320415526186760197e-03
6.317906662488863984e-03
6.306810232671310537e-03
6.287476590371041292e-03
6.260353675094238075e-03
6.225979485394615535e-03
6.184972976802544618e-03
6.138023470374039461e-03
6.085878867567577968e-03
6.029332794307650997e-03
5.969210919166182371e-03
5.906356670772769553e-03
5.841616598312541868e-03
5.775825743594318121e-03
5.709793159879347074e-03
5.644287941180986014e-03
5.580025943570945945e-03
5.517657465148482696e-03
5.457756202586019380e-03
5.400809505126244123e-03
5.347210327942058736e-03
5.297250877047613229e-03
5.251118151418568587e-03
5.208891418747882938e-03
5.170541636523825688e-03
5.135932947335453309e-03
5.104826120635669665e-03
5.076883935429769151e-03
5.051678321773472868e-03
5.028699283488290324e-03
5.007365280220457682e-03
4.987034877241368520e-03
4.967019517529537923e-03
4.946597123160727770e-03
4.925026290393347272e-03
4.901560738227377784e-03
4.875463818891728751e-03
4.846022783302730147e-03
4.812562453995773530e-03
4.774458104087713796e-03
4.731147299711041358e-03
4.682140378448503872e-03
4.627029485040680748e-03
4.565495915006325192e-03
4.497315610233306588e-03
4.422362731260338735e-03
4.340611189347454678e-03
4.252134124535884505e-03
4.157101384507293912e-03
4.055774983781335746e-03
3.948502658046190023e-03
3.835709723084986932e-03
3.717889234991919416e-03
3.595590753114900374e-03
3.469407898038340179e-03
3.339965023488870866e-03
3.207903212745075259e-03
3.073865864798063299e-03
2.938484229378657882e-03
2.802363217237448505e-03
2.666067643252175313e-03
2.530109323817590367e-03
2.394935287367470477e-03
2.260917297492501428e-03
2.128343002441955914e-03
1.997408818306341521e-03
1.868214837170212913e-03
1.740761802209134148e-03
1.614950249817677158e-03
1.490581912729191860e-03
1.367363337487678557e-03
1.244911726201942135e-03
1.122762897764115024e-03
1.000381211885294089e-03
8.771713476148463532e-04
7.524917157465135873e-04
6.256692262254910609e-04
4.960151574586426282e-04
3.628418526235921491e-04
2.254798901499595212e-04
8.329540769783497277e-05
-6.429268640520109743e-05
-2.177960813556119714e-04
-3.776412497916121027e-04
-5.441548019272330955e-04
-7.175503382217383354e-04
-8.979170397469811264e-04
-1.085210328333179736e-03
-1.279244671678522391e-03
-1.479688811725802947e-03
-1.686063564104938774e-03
-1.897742274065879588e-03
-2.113953912896558273e-03
-2.333788854188569972e-03
-2.556207250705248239e-03
-2.780049937101763523e-03
-3.004051665663754790e-03
-3.226856511889087276e-03
-3.447035183034450646e-03
-3.663103940666505645e-03
-3.873544889364143994e-03
-4.076827223709257597e-03
-4.271429100272125870e-03
-4.455859789525722092e-03
-4.628681594960813196e-03
-4.788531376649630272e-03
-4.934141161716085362e-03
-5.064357445385713787e-03
-5.178158931469079365e-03
-5.274672344085831223e-03
-5.353186037812426162e-03
-5.413161118993584618e-03
-5.454239959497351846e-03
-5.476251881018186045e-03
-5.479215848608966037e-03
-5.463340276093387425e-03
-5.429019832570168395e-03
-5.376829222550639879e-03
-5.307514248759872232e-03
-5.221980167990572172e-03
-5.121277503816226186e-03
-5.006585680880921117e-03
-4.879194683056263353e-03
-4.740485142243820900e-03
-4.591907128117967730e-03
-4.434958093618168035e-03
-4.271160243350839887e-03
-4.102037800020497983e-03
-3.929094603379101186e-03
-3.753792438676185374e-03
-3.577530437247987156e-03
-3.401625848402763108e-03
-3.227296610401953533e-03
-3.055646009971511000e-03
-2.887649677300406243e-03
-2.724145180436948668e-03
-2.565824261904304203e-03
-2.413228001700371082e-03
-2.266744795961408120e-03
-2.126611323752744271e-03
-1.992916332407179865e-03
-1.865607239004277119e-03
-1.744499360765723768e-03
-1.629287520672877522e-03
-1.519559862997741598e-03
-1.414813531515240249e-03
-1.314471931872012063e-03
-1.217903183419546910e-03
-1.124439437794153658e-03
-1.033396568595606156e-03
-9.440939615450892261e-04
-8.558739056107180854e-04
-7.681202498943603702e-04
-6.802759482232932208e-04
-5.918590682814443274e-04
-5.024770399240289067e-04
-4.118387568855128521e-04
-3.197643576713297248e-04
-2.261924350482613644e-04
-1.311844850677869995e-04
-3.492653335511044046e-05
6.227204790073752425e-05
1.599826142512090067e-04
2.576641207246984722e-04
3.546726465014956708e-04
4.502733623938040422e-04
5.436548926724710674e-04
6.339456325607024023e-04
7.202317175652356339e-04
8.015763330820819058e-04
8.770399759983388190e-04
9.457013554582926465e-04
1.006678315355408236e-03
1.059148574367425356e-03
1.102369833847674898e-03
1.135698654131476939e-03
1.158607958126566017e-03
1.170702580356642979e-03
1.171732721531843369e-03
1.161604891710340008e-03
1.140390153882136657e-03
1.108329350397967497e-03
1.065835302504864477e-03
1.013491806558109625e-03
9.520494711708581397e-04
8.824183280754851208e-04
8.056573797124084221e-04
7.229612167841094816e-04
6.356438493868406736e-04
5.451201128353086543e-04
4.528848397755093542e-04
3.604901868154400022e-04
2.695216250872254130e-04
1.815728528558190503e-04
9.822007148407170508e-05
2.099619737450671611e-05
-4.863463324104725424e-05
-1.093017628907999871e-04
-1.597514635227990237e-04
-1.988687079906142625e-04
-2.256968554498233934e-04
-2.394549521535199569e-04
-2.395521770558957961e-04
-2.255992363021515313e-04
-1.974164498363322276e-04
-1.550383627188460360e-04
-9.871480978904439085e-05
-2.890831448692799668e-05
5.371215677001567367e-05
1.482809332466025114e-04
2.537488386042189821e-04
3.688995721239013209e-04
4.923690135993825674e-04
6.226671606913675812e-04
7.582023482874875302e-04
8.973072561205131100e-04
1.038266376027385590e-03
1.179344454756463311e-03
1.318815350584774627e-03
1.454990810469327257e-03
1.586248780514598437e-03
1.711060654261335138e-03
1.828016974156869987e-03
1.935851156191578919e-03
2.033460832237795994e-03
2.119926445981344144e-03
2.194526687589647140e-03
2.256750560919739985e-03
2.306305776909065974e-03
2.343123425914922595e-03
2.367358778502996405e-03
2.379388122949174789e-03
2.379801748016101715e-03
2.369393141098685707e-03
2.349144590061171423e-03
2.320209430877270655e-03
2.283891248347713621e-03
2.241620340192003197e-03
2.194927835635433842e-03
2.145417906553933642e-03
2.094738635772245249e-03
2.044551938495094926e-03
1.996503068203762683e-03
1.952190281531676359e-03
1.913135161307950556e-03
1.880754082815603006e-03
1.856331353037921506e-03
1.840994491866252032e-03
1.835692071432898972e-03
1.841174592567843427e-03
1.857978579039601787e-03
1.886414296916425794e-03
1.926557335963335242e-03
1.978244148053329675e-03
2.041071662564045066e-03
2.114401005311434580e-03
2.197365326493503409e-03
2.288881513426620218e-03
2.387665716564289428e-03
2.492252443798948034e-03
2.601016838669783626e-03
2.712199829742067362e-03
2.823935721242278648e-03
2.934281860137505880e-03
3.041249700880827543e-03
3.142837006075599113e-03
3.237060496824082680e-03
3.321988489862915533e-03
3.395772817510516774e-03
3.456679752098066813e-03
3.503119232920980097e-03
3.533672016615608483e-03
3.547114202499149476e-03
3.542438834702655269e-03
3.518874161874449569e-03
3.475898239733489405e-03
3.413249642337319763e-03
3.330934144066960857e-03
3.229227170909052414e-03
3.108672067889740528e-03
2.970074121106796097e-03
2.814490501749808589e-03
2.643216202600295796e-03
2.457766312649562173e-03
2.259854777527607779e-03
2.051370078599871680e-03
1.834348133363828412e-03
1.610942984883703428e-03
1.383395580115287125e-03
1.154001258446145980e-03
9.250764349902669418e-04
6.989250024392896360e-04
4.778049495221091815e-04
2.638957326374268475e-04
5.926699653985609923e-05
-1.341509845469897062e-04
-3.145946310231887972e-04
-4.804917246168342458e-04
-6.304830518646248327e-04
-7.634406894831242355e-04
-8.784826349520724565e-04
-9.749836279208534554e-04
-1.052581985015304698e-03
-1.111182301934177151e-03
-1.150954150124457393e-03
-1.172326640718584535e-03
-1.175979086505780143e-03
-1.162827898864775104e-03
-1.134009865655164579e-03
-1.090862210371780060e-03
-1.034899720524366231e-03
-9.677893609149002202e-04
-8.913226977500705601e-04
-8.073866703226167474e-04
-7.179331365545044922e-04
-6.249476780920220319e-04
-5.304182011428727056e-04
-4.363037490841757378e-04
-3.445041066572250782e-04
-2.568305993747827627e-04
-1.749785178726940324e-04
-1.005016522285829156e-04
-3.478929096714094703e-05
2.095404212269759913e-05
6.572571916764402761e-05
9.873885161329449362e-05
1.194326221716675838e-04
1.274789842045044770e-04
1.227856916477675531e-04
1.054955762407411778e-04
7.598226374536192721e-05
3.484223746899242348e-05
-1.711640949936854401e-05
-7.888839190166679308e-05
-1.492885429692131271e-04
-2.269717515467493051e-04
-3.104551585014102472e-04
-3.981422094977121848e-04
-4.883481668845767896e-04
-5.793267181435168920e-04
-6.692972261037973729e-04
-7.564721407171871468e-04
-8.390841807027153015e-04
-9.154128723570181076e-04
-9.838100270759264632e-04
-1.042723717298811451e-03
-1.090720518214449101e-03
-1.126505645948564036e-03
-1.148940625503194150e-03
-1.157058352926588216e-03
-1.150075325314813901e-03
-1.127400848955922028e-03
-1.088643211758199333e-03
-1.033612704235778793e-03
-9.623215560655388068e-04
-8.749807803762543138e-04
-7.719940464684937886e-04
-6.539487722283871462e-04
-5.216045989405303663e-04
-3.758795013627357485e-04
-2.178337642305363164e-04
-4.865215865547717122e-05
1.303753297831267621e-04
3.178739830515032484e-04
5.124055411006320313e-04
7.124899042378360445e-04
9.166268226451702210e-04
1.123317300703405080e-03
1.331084439030761572e-03
1.538493213242321956e-03
1.744169019075098763e-03
1.946814649291504513e-03
2.145225418258996618e-03
2.338302344798411179e-03
2.525063062012976919e-03
2.704650399583329382e-03
2.876338577181709964e-03
3.039536910192416896e-03
3.193791038451129945e-03
3.338781641732335541e-03
3.474320849130093855e-03
3.600346390795768504e-03
3.716913573300936312e-03
3.824185465056085566e-03
3.922421394115180315e-03
4.011963959252281241e-03
4.093224845421353057e-03
4.166669780149406463e-03
4.232802944651397822e-03
4.292151041367477278e-03
4.345247434332555163e-03
4.392616530242254846e-03
4.434758816067439768e-03
4.472136775814804580e-03
4.505161948810793536e-03
4.534183304235927039e-03
4.559477225767480379e-03
4.581239244639050308e-03
4.599577624984746774e-03
4.614508946949452683e-03
4.625955764304909464e-03
4.633746304087075184e-03
4.637616284085113727e-03
4.637212736818191461e-03
4.632099773893432609e-03
4.621766223652769290e-03
4.605634888596531369e-03
4.583073302018870858e-03
4.553405839498224361e-03
4.515926838787547200e-03
4.469914625365012557e-03
4.414646046547131102e-03
4.349411297550156465e-03
4.273528848199139793e-03
4.186360088775700414e-03
4.087323476277603639e-03
3.975907952026859135e-03
3.851685383760044233e-03
3.714321823389405731e-03
3.563587326650399876e-03
3.399364240221858669e-03
3.221653819854051071e-03
3.030580951043185343e-03
2.826397067388001019e-03
2.609481121605896226e-03
2.380338617716573277e-03
2.139598749661414476e-03
1.888009706848159820e-03
1.626432227955834035e-03
1.355831528709879313e-03
1.077267781659568043e-03
7.918852773681224868e-04
5.009004733702890171e-04
2.055891691339191093e-04
-9.272693741259723237e-05
-3.926941339214486560e-04
-6.929407879895026039e-04
-9.920913353681881479e-04
-1.288779992152229176e-03
-1.581663940278948532e-03
-1.869435854608287803e-03
-2.150835402695035550e-03
-2.424659694964337395e-03
-2.689772427298308712e-03
-2.945111778909563841e-03
-3.189696711995035090e-03
-3.422631813036363692e-03
-3.643110573102425944e-03
-3.850417137810867394e-03
-4.043926463640771379e-03
-4.223103064820430026e-03
-4.387498446096786339e-03
-4.536747212988061044e-03
-4.670562103190391626e-03
-4.788728106491268836e-03
-4.891095858665967140e-03
-4.977574459494532068e-03
-5.048123966568534259e-03
-5.102747789480470073e-03
-5.141485147688906569e-03
-5.164403878419902491e-03
-5.171593702833159230e-03
-5.163160243496666378e-03
-5.139219950135001484e-03
-5.099895945032117787e-03
-5.045315111533720497e-03
-4.975606517789129754e-03
-4.890901016300449287e-03
-4.791332279509627826e-03
-4.677039196260480113e-03
-4.548169712987605064e-03
-4.404885854418793406e-03
-4.247369987728161385e-03
-4.075832160530053379e-03
-3.890518360557413714e-03
-3.691719440526304661e-03
-3.479780632552605373e-03
-3.255111290145763087e-03
-3.018194716434410146e-03
-2.769597791112189157e-03
-2.509980106371318635e-03
-2.240102354777998538e-03
-1.960833758818569979e-03
-1.673158248894463310e-03
-1.378179177639211276e-03
-1.077122309219197358e-03
-7.713369187389206233e-04
-4.622949374836255354e-04
-1.515878186186242059e-04
1.590788313048338597e-04
4.678929149610307940e-04
7.729458858776601079e-04
1.072245005671020827e-03
1.363727924092934893e-03
1.645279295414464951e-03
1.914749367050288696e-03
2.169974323688493838e-03
2.408798124334071873e-03
2.629095620057605651e-03
2.828796587169338499e-03
3.005910359999917989e-03
3.158550730223321900e-03
3.284960692404477467e-03
3.383536743490692111e-03
3.452852281678766861e-03
3.491679799751156929e-03
3.499011432112001784e-03
3.474077577764583032e-03
3.416363153203064770e-03
3.325621290495533837e-03
3.201884179597010768e-03
3.045470784734344554e-03
2.856991245705649100e-03
2.637347942277732359e-03
2.387732960843303841e-03
2.109622037743447490e-03
1.804764901218602067e-03
1.475172173920862376e-03
1.123098924090836729e-03
7.510250078183206435e-04
3.616324745371500495e-04
-4.221979398886502224e-05
-4.575237418201235479e-04
-8.811518866273153425e-04
-1.309888742596582905e-03
-1.740463477961804502e-03
-2.169583379283025661e-03
-2.593967642412090078e-03
-3.010381245228603390e-03
-3.415668160525665419e-03
-3.806783655105632283e-03
-4.180825122075872841e-03
-4.535061210835150507e-03
-4.866958714290844576e-03
-5.174206974435401063e-03
-5.454739357263225195e-03
-5.706751712282280391e-03
-5.928717381171314145e-03
-6.119398853780083809e-03
-6.277855753437928087e-03
-6.403449102398583830e-03
-6.495841931623072552e-03
-6.554996304368518670e-03
-6.581166779018019636e-03
-6.574890435219336166e-03
-6.536973756228702664e-03
-6.468476547407736241e-03
-6.370693238500002922e-03
-6.245131823722259792e-03
-6.093490722238125226e-03
-5.917634059175050885e-03
-5.719565670627525106e-03
-5.501402296239426074e-03
-5.265346285282429366e-03
-5.013658166713978390e-03
-4.748629647191979566e-03
-4.472557242798971301e-03
-4.187716885879497544e-03
-3.896339877079984127e-03
-3.600590606446300596e-03
-3.302546006153312189e-03
-3.004177196320321347e-03
-2.707333390485173411e-03
-2.413728209594383483e-03
-2.124928520268056387e-03
-1.842345766432533114e-03
-1.567229904770862893e-03
-1.300665798086491319e-03
-1.043572051861861149e-03
-7.967022071969304467e-04
-5.606480130997572439e-04
-3.358447323034757987e-04
-1.225781871141149511e-04
7.900656906951947559e-05
2.688953547370348919e-04
4.471937683006556525e-04
6.141153814643306478e-04
7.699693410185811174e-04
9.151476905607290949e-04
1.050112572183652853e-03
1.175383592121791382e-03
1.291525541023449096e-03
1.399136674625027976e-03
1.498837670170301024e-03
1.591261461176862388e-03
1.677044071556600202e-03
1.756816458105464824e-03
1.831197420292236897e-03
1.900787689109308598e-03
1.966165110026417417e-03
2.027880984856671176e-03
2.086457384256479395e-03
2.142385542823884489e-03
2.196125095457470214e-03
2.248104154694900454e-03
2.298720011562090885e-03
2.348340426725100110e-03
2.397305382434927225e-03
2.445929115581765845e-03
2.494502330044405872e-03
2.543294465119355988e-03
2.592555939636027700e-03
2.642520252404684591e-03
2.693405782723745472e-03
2.745417327853818309e-03
2.798747239195363036e-03
2.853576176199766178e-03
2.910073369741310919e-03
2.968396494058978506e-03
3.028691068566898275e-03
3.091089443364074176e-03
3.155709385733771345e-03
3.222652385603832180e-03
3.292001699130284609e-03
3.363820171893830771e-03
3.438147922879858810e-03
3.515000001218659183e-03
3.594364057819793290e-03
3.676198140108628571e-03
3.760428638545645300e-03
3.846948556087946731e-03
3.935615969528665631e-03
4.026252875444689960e-03
4.118644407137768242e-03
4.212538438166023476e-03
4.307645663512217962e-03
4.403640076025588934e-03
4.500159825356133368e-03
4.596808479023663588e-03
4.693156664519819790e-03
4.788743969087736092e-03
4.883081176601521654e-03
4.975652721479721131e-03
5.065919275191258994e-03
5.153320495727617238e-03
5.237277861130275845e-03
5.317197524427872725e-03
5.392473183078849881e-03
5.462488851151827557e-03
5.526621651939839577e-03
5.584244554669438344e-03
5.634729042072165843e-03
5.677447718407651472e-03
5.711776929020449985e-03
5.737099417349914889e-03
5.752807059835070465e-03
5.758303723698073029e-03
5.753008328867858720e-03
5.736358177588373256e-03
5.707812579181019592e-03
5.666856903275532126e-03
5.613007087737511419e-03
5.545814583793349205e-03
5.464871929693607307e-03
5.369818830928435593e-03
5.260348805687581515e-03
5.136216365982536683e-03
4.997244656153171372e-03
4.843333618341816131e-03
4.674468414948696263e-03
4.490727986125832814e-03
4.292293732083399954e-03
4.079458079481833657e-03
3.852632659403248516e-03
3.612355958302989733e-03
3.359300142095210991e-03
3.094276851793805166e-03
2.818241658570571316e-03
2.532296891028456599e-03
2.237692693756297528e-03
1.935825914384930796e-03
1.628236761962829774e-03
1.316602815370384759e-03
1.002730412879328454e-03
6.885431503658710241e-04
3.760675652164256950e-04
6.741573973335884113e-05
-2.352349543298278272e-04
-5.296649420494252327e-04
-8.136381392475336340e-04
-1.084930163123792044e-03
-1.341358597497251072e-03
-1.580815129910384921e-03
-1.801298914348096591e-03
-2.000950841063783760e-03
-2.178088099200616370e-03
-2.331238389040465441e-03
-2.459173191754669262e-03
-2.560939377949747377e-03
-2.635888575753180668e-03
-2.683703455236777918e-03
-2.704420333715716433e-03
-2.698447379771908884e-03
-2.666577843253018897e-03
-2.609997689905971512e-03
-2.530287147943817774e-03
-2.429415742891354209e-03
-2.309730492303346816e-03
-2.173937036149221989e-03
-2.025073566723763901e-03
-1.866477607671795328e-03
-1.701745799635249676e-03
-1.534686978363376591e-03
-1.369268984313693361e-03
-1.209559817111980750e-03
-1.059663817982389256e-03
-9.236537245620063960e-04
-8.054995843987406562e-04
-7.089956715717172066e-04
-6.376864867590655017e-04
-5.947931519217266455e-04
-5.831415598691689489e-04
-6.050936380749129088e-04
-6.624829686229978271e-04
-7.565562963089828008e-04
-8.879221658189635682e-04
-1.056507913643458781e-03
-1.261526254320760859e-03
-1.501452555131360927e-03
-1.774013523687293682e-03
-2.076188150786880456e-03
-2.404221581083381722e-03
-2.753652046480533928e-03
-3.119351187798709117e-03
-3.495577465326523119e-03
-3.876042411800971477e-03
-4.253989091731419023e-03
-4.622281978403678174e-03
-4.973507118795570010e-03
-5.300081199513675435e-03
-5.594368074666252084e-03
-5.848800938486714909e-03
-6.056008347207405933e-03
-6.208941953601410449e-03
-6.301003738054570917e-03
-6.326170564419659331e-03
-6.279113719112590884e-03
-6.155311242962094136e-03
-5.951150705700114334e-03
-5.664020315490700917e-03
-5.292386298260056895e-03
-4.835854725147113037e-03
-4.295216082106073814e-03
-3.672471203127030022e-03
-2.970837497372716841e-03
-2.194734576681860519e-03
-1.349748832676969917e-03
-4.425768622544303172e-04
5.190519681444589984e-04
1.526473168349351149e-03
2.570203977097755641e-03
3.640078008076252057e-03
4.725395896682968618e-03
5.815089810933385395e-03
6.897899464140233930e-03
7.962556752691427389e-03
8.997976193267117132e-03
9.993447912539988806e-03
1.093882993026135814e-02
1.182473623752108849e-02
1.264271731506821234e-02
1.338542963548256491e-02
1.404679085052891289e-02
1.462211749731699359e-02
1.510824224762246336e-02
1.550360812164481086e-02
1.580833731940459522e-02
1.602427250109697207e-02
1.615498931141019431e-02
1.620577897568728498e-02
1.618360046982371403e-02
1.609700226497419798e-02
1.595601409669263754e-02
1.577201007675462646e-02
1.555754458232884441e-02
1.532616318078275711e-02
1.509219136551579431e-02
1.487050417138048933e-02
1.467628034678120780e-02
1.452474495492422912e-02
1.443090472483824806e-02
1.440928071338258738e-02
1.447364300473034243e-02
1.463675214139899955e-02
1.491011214538110786e-02
1.530373976749496885e-02
1.582595452541197059e-02
1.648319378329854423e-02
1.727985677799584799e-02
1.821818112189070235e-02
1.929815470309606887e-02
2.051746547445303451e-02
2.187149090051758796e-02
2.335332809272677376e-02
2.495386512337399373e-02
2.666189320661604967e-02
2.846425854502734887e-02
3.034605212715807410e-02
3.229083475930885627e-02
3.428089417482382828e-02
3.629753020465792401e-02
3.832136352442414018e-02
4.033266280239987400e-02
4.231168471348539101e-02
4.423902097040265102e-02
4.609594620188742220e-02
4.786476019867142578e-02
4.952911835349929626e-02
5.107434386098344548e-02
5.248771559138926124e-02
5.375872588869762270e-02
5.487930279551409690e-02
5.584399196989489611e-02
5.665009410583114746e-02
5.729775430457297036e-02
5.779000078529227674e-02
5.813273119925827653e-02
5.833464568868904077e-02
5.840712681991589578e-02
5.836406756088672459e-02
5.822164952052490822e-02
5.799807447218690432e-02
5.771325334409279501e-02
5.738845768380241436e-02
5.704593943420686875e-02
5.670852553635747501e-02
5.639919463493940632e-02
5.614064362542101061e-02
5.595485214175795891e-02
5.586265343060983074e-02
5.588331998767021025e-02
5.603417242766242645e-02
5.633021979944403262e-02
5.678383915381771813e-02
5.740450159501239713e-02
5.819855151465426479e-02
5.916904464748891368e-02
6.031564978185218612e-02
6.163461793233211000e-02
6.311882137874073873e-02
6.475786394495802734e-02
6.653826235800594513e-02
6.844369738754259302e-02
7.045533193192081434e-02
7.255219181769437253e-02
7.471160387125282132e-02
7.690968452895463603e-02
7.912187090848790683e-02
8.132348542087793064e-02
8.349032390025397377e-02
8.559925637290327627e-02
8.762882923097702059e-02
8.955985682714770468e-02
9.137599049565188480e-02
9.306425288884802305e-02
9.461552570100886794e-02
9.602497933968436039e-02
9.729243360444161937e-02
9.842263952317664710e-02
9.942547327192191586e-02
1.003160344722712760e-01
1.011146427098690986e-01
1.018467275037718001e-01
1.025426088146923070e-01
1.032371669084646421e-01
1.039694024410948991e-01
1.047818893505339105e-01
1.057201253989490664e-01
1.068317869585462404e-01
1.081658967250046094e-01
1.097719146164615467e-01
1.116987640817146687e-01
1.139938075117332000e-01
1.167017857553981630e-01
1.198637379841430428e-01
1.235159190838857890e-01
1.276887325208556356e-01
1.324056968443922955e-01
1.376824642431995760e-01
1.435259095099815085e-01
1.499333069924296546e-01
1.568916127058900822e-01
1.643768673544148406e-01
1.723537349812833408e-01
1.807751899529624895e-01
1.895823635976660593e-01
1.987045592462861610e-01
2.080594424194651126e-01
2.175534101663663400e-01
2.270821412709328746e-01
2.365313260896796110e-01
2.457775721203045438e-01
2.546894786340381800e-01
2.631288709577348506e-01
2.709521824785657285e-01
2.780119695947746439e-01
2.841585428339140074e-01
2.892416949478384125e-01
2.931125049627607559e-01
2.956251955295037814e-01
2.966390194366792521e-01
2.960201503594461769e-01
2.936435520805054655e-01
2.893948002141468745e-01
2.831718304218049931e-01
2.748865878984117495e-01
2.644665533484376052e-01
2.518561221475238976e-01
2.370178150510885151e-01
2.199333005571849631e-01
2.006042113894881129e-01
1.790527401530489227e-01
1.553220020767858700e-01
1.294761555150639176e-01
1.016002744291836235e-01
7.179997023425019331e-02
4.020076370672859972e-02
6.947211340020876050e-03
-2.779820629821089586e-02
-6.385642319642574616e-02
-1.010333392302554534e-01
-1.391215670278584948e-01
-1.779023541512314011e-01
-2.171476580178529348e-01
-2.566223486434741075e-01
-2.960865122999743471e-01
-3.352978277223561121e-01
-3.740139853289768390e-01
-4.119951190725735790e-01
-4.490062204206388130e-01
-4.848195038500523468e-01
-5.192166939976270434e-01
-5.519912053589060008e-01
-5.829501871013870185e-01
-6.119164070613276607e-01
-6.387299513646217397e-01
-6.632497184353530750e-01
-6.853546890620489940e-01
-7.049449572213450921e-01
-7.219425095807709969e-01
-7.362917451021988580e-01
-7.479597296630358105e-01
-7.569361841748212250e-01
-7.632332084792562421e-01
-7.668847467857530242e-01
-7.679458037189990094e-01
-7.664914237654602003e-01
-7.626154496646772030e-01
-7.564290783406015795e-01
-7.480592356590736181e-01
-7.376467934911171698e-01
-7.253446544981836386e-01
-7.113157315878502196e-01
-6.957308503038155401e-01
-6.787666028732023404e-01
-6.606031831589213033e-01
-6.414222316663821255e-01
-6.214047190341178695e-01
-6.007288956608956010e-01
-5.795683337088967102e-01
-5.580900860226828408e-01
-5.364529845810057651e-01
-5.148060984809647023e-01
-4.932873691501013513e-01
-4.720224375509782244e-01
-4.511236749178808014e-01
-4.306894257777599822e-01
-4.108034685273790898e-01
-3.915346956149064472e-01
-3.729370123487545929e-01
-3.550494498882347805e-01
-3.378964850862685165e-01
-3.214885569633396112e-01
-3.058227668772539043e-01
-2.908837470487528609e-01
-2.766446797634260490e-01
-2.630684480520307789e-01
-2.501088967128551888e-01
-2.377121816613681216e-01
-2.258181846566491846e-01
-2.143619698861841949e-01
-2.032752590176979401e-01
-1.924879015068148569e-01
-1.819293174535615842e-01
-1.715298915793900814e-01
-1.612222978422032382e-01
-1.509427360133294149e-01
-1.406320632281427840e-01
-1.302368056841151089e-01
-1.197100380256277963e-01
-1.090121200420074293e-01
-9.811128313469905105e-02
-8.698406131681733766e-02
-7.561556444204280136e-02
-6.399959368279367622e-02
-5.213860191263579302e-02
-4.004350395719011302e-02
-2.773334423176877436e-02
-1.523483117154581824e-02
-2.581749809404472636e-03
1.018573429901969279e-02
2.302186534819807007e-02
3.587616603051636127e-02
4.869436807766506364e-02
6.141938754261147548e-02
7.399232725110468922e-02
8.635348893634652023e-02
9.844337784664368429e-02
1.102036832527442806e-01
1.215782188866514624e-01
1.325138086664185144e-01
1.429611041408163363e-01
1.528753217272735276e-01
1.622168893969932191e-01
1.709519941780012764e-01
1.790530237903889543e-01
1.864988976515005725e-01
1.932752844698368000e-01
1.993747056293579401e-01
2.047965254992979989e-01
2.095468316034062584e-01
2.136382095733384279e-01
2.170894191777773541e-01
2.199249794530390434e-01
2.221746722005169539e-01
2.238729741851427091e-01
2.250584294752618897e-01
2.257729738765267002e-01
2.260612241077457618e-01
2.259697445883628308e-01
2.255463045554213508e-01
2.248391383091793150e-01
2.238962208142141475e-01
2.227645704697468199e-01
2.214895898734823010e-01
2.201144545737148128e-01
2.186795587029292665e-01
2.172220252391736106e-01
2.157752870559566660e-01
2.143687438682770896e-01
2.130274985157740442e-01
2.117721746694614382e-01
2.106188164666633333e-01
2.095788692067441783e-01
2.086592389202029107e-01
2.078624273280984813e-01
2.071867372089692683e-01
2.066265425330615357e-01
2.061726165107515552e-01
2.058125098831072031e-01
2.055309711736138245e-01
2.053104001833049308e-01
2.051313256166907295e-01
2.049728975055498392e-01
2.048133852801813648e-01
2.046306723692697949e-01
2.044027387111754523e-01
2.041081227810637722e-01
2.037263555259109238e-01
2.032383594010166439e-01
2.026268063264299590e-01
2.018764295157795818e-01
2.009742849446279345e-01
1.999099593900725003e-01
1.986757230564111520e-01
1.972666255545520442e-01
1.956805356102721827e-01
1.939181255129442394e-01
1.919828021878142998e-01
1.898805881218516844e-01
1.876199558323693728e-01
1.852116206086614758e-01
1.826682964824336564e-01
1.800044213697499784e-01
1.772358573914546431e-01
1.743795727584447897e-01
1.714533118540220724e-01
1.684752599925938843e-01
1.654637094532674102e-01
1.624367329913016522e-01
1.594118707929719214e-01
1.564058363861489109e-01
1.534342465267728717e-01
1.505113794979801300e-01
1.476499655153412638e-01
1.448610123924362059e-01
1.421536686769410973e-01
1.395351257457324856e-01
1.370105597824668175e-01
1.345831133386824197e-01
1.322539159601962000e-01
1.300221422075075184e-01
1.278851049998743772e-01
1.258383815804911265e-01
1.238759685874016442e-01
1.219904626320880980e-01
1.201732621999770240e-01
1.184147863846480714e-01
1.167047058457813813e-01
1.150321811743215683e-01
1.133861039885332017e-01
1.117553360723395478e-01
1.101289419573157485e-01
1.084964106954656726e-01
1.068478629096219629e-01
1.051742394785619428e-01
1.034674687549193978e-01
1.017206097052609087e-01
9.992796882639665146e-02
9.808518931601171997e-02
9.618931151735853058e-02
9.423880417959457079e-02
9.223356676410118804e-02
9.017490348525956934e-02
8.806547031772622713e-02
8.590919669330501773e-02
8.371118404930778800e-02
8.147758384300539392e-02
7.921545779202818216e-02
7.693262362008569666e-02
7.463748953540509656e-02
7.233888097079967106e-02
7.004586322206807214e-02
6.776756332378623682e-02
6.551299474345173568e-02
6.329088824710377148e-02
6.110953196292101541e-02
5.897662351100965705e-02
5.689913674043618752e-02
5.488320548197912069e-02
5.293402585508769770e-02
5.105577872210876472e-02
4.925157332251275943e-02
4.752341265998262509e-02
4.587218071070731790e-02
4.429765122027191221e-02
4.279851744231279870e-02
4.137244176118232142e-02
4.001612363231604047e-02
3.872538434626507375e-02
3.749526642776307428e-02
3.632014543600590312e-02
3.519385175559704149e-02
3.410979987615320175e-02
3.306112238079964710e-02
3.204080607955880206e-02
3.104182764104839592e-02
3.005728602204171471e-02
2.908052943527788398e-02
2.810527441692157666e-02
2.712571491197851917e-02
2.613661967044353385e-02
2.513341625377655403e-02
2.411226041354897973e-02
2.307008992962264124e-02
2.200466212746759673e-02
2.091457488756834349e-02
1.979927113240480610e-02
1.865902698843959623e-02
1.749492434010373881e-02
1.630880877409615626e-02
1.510323383655247202e-02
1.388139321439344626e-02
1.264704232204658281e-02
1.140441110728672262e-02
1.015810984790800793e-02
8.913029970115978265e-03
7.674241984584627418e-03
6.446892395433684135e-03
5.236101654208590896e-03
4.046865093242143357e-03
2.883958576419160934e-03
1.751850607113721167e-03
6.546223365361327233e-04
-4.041030672948705800e-04
-1.421220743394065438e-03
-2.394193137503786758e-03
-3.321087137425400397e-03
-4.200598863146267833e-03
-5.032065969587785556e-03
-5.815467498363420355e-03
-6.551411710474595862e-03
-7.241112333515515621e-03
-7.886353945379268385e-03
-8.489447461993496202e-03
-9.053176854197873477e-03
-9.580738339699112691e-03
-1.007567331237275814e-02
-1.054179644846694151e-02
-1.098312050024811970e-02
-1.140377929569472495e-02
-1.180795046316362486e-02
-1.219977921480578341e-02
-1.258330477922676126e-02
-1.296239066495040795e-02
-1.334066005748175097e-02
-1.372143730452006667e-02
-1.410769660635995300e-02
-1.450201856939610859e-02
-1.490655520347302330e-02
-1.532300385264303948e-02
-1.575259030836290847e-02
-1.619606118968132044e-02
-1.665368540748883575e-02
-1.712526439518340104e-02
-1.761015086052947556e-02
-1.810727530986047662e-02
-1.861517960144227005e-02
-1.913205676882502246e-02
-1.965579619501105907e-02
-2.018403311072843043e-02
-2.071420130799030146e-02
-2.124358796447006065e-02
-2.176938964231600951e-02
-2.228876820693327654e-02
-2.279890565905594996e-02
-2.329705684391392487e-02
-2.378059914317514831e-02
-2.424707830365367689e-02
-2.469424958853626631e-02
-2.512011369852320056e-02
-2.552294691599157894e-02
-2.590132496408181426e-02
-2.625414044327065502e-02
-2.658061370154480782e-02
-2.688029703694212735e-02
-2.715307249270565090e-02
-2.739914344511124034e-02
-2.761902026491393214e-02
-2.781350056600898416e-02
-2.798364460636293058e-02
-2.813074647626215286e-02
-2.825630172970714990e-02
-2.836197220998124685e-02
-2.844954879979584225e-02
-2.852091298381618026e-02
-2.857799792336685601e-02
-2.862274980116687531e-02
-2.865709022965973879e-02
-2.868288035840525427e-02
-2.870188740256346752e-02
-2.871575413268238550e-02
-2.872597179665007869e-02
-2.873385687328101207e-02
-2.874053205008714543e-02
-2.874691165276110905e-02
-2.875369161049525640e-02
-2.876134406309601224e-02
-2.877011653786934117e-02
-2.878003553107203946e-02
-2.879091432679212192e-02
-2.880236471759393263e-02
-2.881381231986751904e-02
-2.882451498001447482e-02
-2.883358390060189458e-02
-2.884000689877970827e-02
-2.884267327715823309e-02
-2.884039977370128627e-02
-2.883195696754014409e-02
-2.881609576671088219e-02
-2.879157324991201902e-02
-2.875717742271904909e-02
-2.871175044468572690e-02
-2.865420993744945480e-02
-2.858356789546115731e-02
-2.849894702938002636e-02
-2.839959417953876603e-02
-2.828489069097663011e-02
-2.815435959218430539e-02
-2.800766953313222132e-02
-2.784463556255388494e-02
-2.766521673155109343e-02
-2.746951080102746565e-02
-2.725774610787918759e-02
-2.703027106423281853e-02
-2.678754130128196617e-02
-2.653010510321629142e-02
-2.625858720088438542e-02
-2.597367154111457355e-02
-2.567608330747090870e-02
-2.536657071204842517e-02
-2.504588683395554335e-02
-2.471477199877550671e-02
-2.437393697071110407e-02
-2.402404740320282853e-02
-2.366570979822546841e-02
-2.329945925905483814e-02
-2.292574923320602615e-02
-2.254494348906823514e-02
-2.215731041358966549e-02
-2.176301966658365436e-02
-2.136214135668430478e-02
-2.095464755646263277e-02
-2.054041620575516175e-02
-2.011923715632961407e-02
-1.969082030350257501e-02
-1.925480554820981072e-02
-1.881077435641595116e-02
-1.835826257431152214e-02
-1.789677428987307764e-02
-1.742579643141416515e-02
-1.694481371780338572e-02
-1.645332363252496183e-02
-1.595085113753025308e-02
-1.543696278036430815e-02
-1.491127984288797594e-02
-1.437349036664182719e-02
-1.382335967863901512e-02
-1.326073923158289057e-02
-1.268557356501838831e-02
-1.209790526964057110e-02
-1.149787782320456885e-02
-1.088573618031452375e-02
-1.026182510858749189e-02
-9.626585396441258297e-03
-8.980547814077638816e-03
-8.324325091153923425e-03
-7.658601975624131954e-03
-6.984123570348678943e-03
-6.301682135257976984e-03
-5.612102680111359480e-03
-4.916227557472476611e-03
-4.214900316677413182e-03
-3.508949214739048080e-03
-2.799170540523758695e-03
-2.086312255878808482e-03
-1.371058124358353995e-03
-6.540127055440564862e-04
6.431251937869967910e-05
7.835116572885675139e-04
1.503295194666696803e-03
2.223499004762048703e-03
2.944091287342840736e-03
3.665177234798513897e-03
4.387001462879308415e-03
5.109947950958560262e-03
5.834537613196170806e-03
6.561423360427384374e-03
7.291382889237455270e-03
8.025309118129158800e-03
8.764198416121075919e-03
9.509136868416758273e-03
1.026128470018478761e-02
1.102185910372301299e-02
1.179211575149076256e-02
1.257332928087759663e-02
1.336677295942664649e-02
1.417369792238865923e-02
1.499531225492455391e-02
1.583276025402388654e-02
1.668710226593421095e-02
1.755929527563703657e-02
1.845017467531592792e-02
1.936043738285453050e-02
2.029062671988165339e-02
2.124111912006753158e-02
2.221211311095407440e-02
2.320362052598977723e-02
2.421546022054321332e-02
2.524725436199598896e-02
2.629842745442425786e-02
2.736820797446061840e-02
2.845563277200587743e-02
2.955955413443710211e-02
3.067864941660509992e-02
3.181143316327716963e-02
3.295627150107457992e-02
3.411139861546927388e-02
3.527493527642763804e-02
3.644490891325126436e-02
3.761927511224117532e-02
3.879594015490434727e-02
3.997278438869693307e-02
4.114768613183501789e-02
4.231854560622596434e-02
4.348330872557249621e-02
4.463999039085739945e-02
4.578669699512583069e-02
4.692164770130525381e-02
4.804319427037578166e-02
4.914983922429284890e-02
5.024025206958592643e-02
5.131328327174378839e-02
5.236797584064731975e-02
5.340357437053217665e-02
