9.431828969023973649e-03
9.425899537850175591e-03
9.419972689757864087e-03
9.414048424255623201e-03
9.408126740851906894e-03
9.402207639055030347e-03
9.396291118373173434e-03
9.390377178314387660e-03
9.384465818386597893e-03
9.378557038097595430e-03
9.372650836955043196e-03
9.366747214466470545e-03
9.360846170139276723e-03
9.354947703480729140e-03
9.349051813997968571e-03
9.343158501198009155e-03
9.337267764587722785e-03
9.331379603673844308e-03
9.325494017962971532e-03
9.319611006961573893e-03
9.313730570175987253e-03
9.307852707112419105e-03
9.301977417276946838e-03
9.296104700175516003e-03
9.290234555313938575e-03
9.284366982197892956e-03
9.278501980332922242e-03
9.272639549224439420e-03
9.266779688377729113e-03
9.260922397297947570e-03
9.255067675490127876e-03
9.249215522459174749e-03
9.243365937709862798e-03
9.237518920746841736e-03
9.231674471074634639e-03
9.225832588197629275e-03
9.219993271620085043e-03
9.214156520846131238e-03
9.208322335379767049e-03
9.202490714724852888e-03
9.196661658385122534e-03
9.190835165864188333e-03
9.185011236665534262e-03
9.179189870292522868e-03
9.173371066248383124e-03
9.167554824036213898e-03
9.161741143158982220e-03
9.155930023119526751e-03
9.150121463420554310e-03
9.144315463564634677e-03
9.138512023054210995e-03
9.132711141391592832e-03
9.126912818078964859e-03
9.121117052618381640e-03
9.115323844511771106e-03
9.109533193260932818e-03
9.103745098367539701e-03
9.097959559333138047e-03
9.092176575659142307e-03
9.086396146846833360e-03
9.080618272397361981e-03
9.074842951811752309e-03
9.069070184590896644e-03
9.063299970235562386e-03
9.057532308246392036e-03
9.051767198123904928e-03
9.046004639368486824e-03
9.040244631480395116e-03
9.034487173959758824e-03
9.028732266306575133e-03
9.022979908020723264e-03
9.017230098601950600e-03
9.011482837549877889e-03
9.005738124363990571e-03
8.999995958543645716e-03
8.994256339588080698e-03
8.988519266996401053e-03
8.982784740267585680e-03
8.977052758900488580e-03
8.971323322393833649e-03
8.965596430246221618e-03
8.959872081956124848e-03
8.954150277021889065e-03
8.948431014941724687e-03
8.942714295213712028e-03
8.937000117335811705e-03
8.931288480805862906e-03
8.925579385121583387e-03
8.919872829780572943e-03
8.914168814280301265e-03
8.908467338118114878e-03
8.902768400791233674e-03
8.897072001796752644e-03
8.891378140631641877e-03
8.885686816792750034e-03
8.879998029776804344e-03
8.874311779080410606e-03
8.868628064200049718e-03
8.862946884632077679e-03
8.857268239872732526e-03
8.851592129418129132e-03
8.845918552764255732e-03
8.840247509406979134e-03
8.834578998842044714e-03
8.828913020565079886e-03
8.823249574071581960e-03
8.817588658856930287e-03
8.811930274416384518e-03
8.806274420245079407e-03
8.800621095838024807e-03
8.794970300690112611e-03
8.789322034296116748e-03
8.783676296150686250e-03
8.778033085748348716e-03
8.772392402583510315e-03
8.766754246150455787e-03
8.761118615943344970e-03
8.755485511456214537e-03
8.749854932182983200e-03
8.744226877617451710e-03
8.738601347253299387e-03
8.732978340584084120e-03
8.727357857103244104e-03
8.721739896304097836e-03
8.716124457679845852e-03
8.710511540723570728e-03
8.704901144928238813e-03
8.699293269786689820e-03
8.693687914791643767e-03
8.688085079435697508e-03
8.682484763211331669e-03
8.676886965610907179e-03
8.671291686126665274e-03
8.665698924250727492e-03
8.660108679475104348e-03
8.654520951291695338e-03
8.648935739192278524e-03
8.643353042668510539e-03
8.637772861211936992e-03
8.632195194313985534e-03
8.626620041465957178e-03
8.621047402159036713e-03
8.615477275884299638e-03
8.609909662132703492e-03
8.604344560395087854e-03
8.598781970162181279e-03
8.593221890924596096e-03
8.587664322172821468e-03
8.582109263397225130e-03
8.576556714088062056e-03
8.571006673735462322e-03
8.565459141829439779e-03
8.559914117859892049e-03
8.554371601316605733e-03
8.548831591689256409e-03
8.543294088467413838e-03
8.537759091140528084e-03
8.532226599197939923e-03
8.526696612128870437e-03
8.521169129422436622e-03
8.515644150567646189e-03
8.510121675053388887e-03
8.504601702368438237e-03
8.499084232001460210e-03
8.493569263441001077e-03
8.488056796175494356e-03
8.482546829693252133e-03
8.477039363482466797e-03
8.471534397031214511e-03
8.466031929827465621e-03
8.460531961359070777e-03
8.455034491113774808e-03
8.449539518579214994e-03
8.444047043242915856e-03
8.438557064592292628e-03
8.433069582114647786e-03
8.427584595297172784e-03
8.422102103626939382e-03
8.416622106590904845e-03
8.411144603675918888e-03
8.405669594368723671e-03
8.400197078155953803e-03
8.394727054524129400e-03
8.389259522959664761e-03
8.383794482948863161e-03
8.378331933977915119e-03
8.372871875532896663e-03
8.367414307099774531e-03
8.361959228164409647e-03
8.356506638212562316e-03
8.351056536729888763e-03
8.345608923201934190e-03
8.340163797114131042e-03
8.334721157951805945e-03
8.329281005200179708e-03
8.323843338344367321e-03
8.318408156869376222e-03
8.312975460260106295e-03
8.307545248001353341e-03
8.302117519577809079e-03
8.296692274474057674e-03
8.291269512174570533e-03
8.285849232163714981e-03
8.280431433925752524e-03
8.275016116944842320e-03
8.269603280705032505e-03
8.264192924690261927e-03
8.258785048384365349e-03
8.253379651271071718e-03
8.247976732834007632e-03
8.242576292556699075e-03
8.237178329922562742e-03
8.231782844414911246e-03
8.226389835516953117e-03
8.220999302711792800e-03
8.215611245482430658e-03
8.210225663311771643e-03
8.204842555682625299e-03
8.199461922077697085e-03
8.194083761979591846e-03
8.188708074870817283e-03
8.183334860233778749e-03
8.177964117550777512e-03
8.172595846304014228e-03
8.167230045975583733e-03
8.161866716047476780e-03
8.156505856001581775e-03
8.151147465319696916e-03
8.145791543483519789e-03
8.140438089974654304e-03
8.135087104274610695e-03
8.129738585864803788e-03
8.124392534226549528e-03
8.119048948841068453e-03
8.113707829189482218e-03
8.108369174752806663e-03
8.103032985011957012e-03
8.097699259447749612e-03
8.092367997540900193e-03
8.087039198772029078e-03
8.081712862621661178e-03
8.076388988570220792e-03
8.071067576098040278e-03
8.065748624685354848e-03
8.060432133812306041e-03
8.055118102958931312e-03
8.049806531605174439e-03
8.044497419230883795e-03
8.039190765315807133e-03
8.033886569339595066e-03
8.028584830781797591e-03
8.023285549121874499e-03
8.017988723839190174e-03
8.012694354413017056e-03
8.007402440322535647e-03
8.002112981046836243e-03
7.996825976064908525e-03
7.991541424855648501e-03
7.986259326897861971e-03
7.980979681670259326e-03
7.975702488651453814e-03
7.970427747319959802e-03
7.965155457154199717e-03
7.959885617632497107e-03
7.954618228233074906e-03
7.949353288434064108e-03
7.944090797713500296e-03
7.938830755549318441e-03
7.933573161419361572e-03
7.928318014801373839e-03
7.923065315173002249e-03
7.917815062011801866e-03
7.912567254795237551e-03
7.907321893000682222e-03
7.902078976105416860e-03
7.896838503586627034e-03
7.891600474921409841e-03
7.886364889586768706e-03
7.881131747059611642e-03
7.875901046816751253e-03
7.870672788334906467e-03
7.865446971090709477e-03
7.860223594560702270e-03
7.855002658221341832e-03
7.849784161548989739e-03
7.844568104019919094e-03
7.839354485110309328e-03
7.834143304296247931e-03
7.828934561053732186e-03
7.823728254858672640e-03
7.818524385186893105e-03
7.813322951514127188e-03
7.808123953316021756e-03
7.802927390068130006e-03
7.797733261245919263e-03
7.792541566324764045e-03
7.787352304779949531e-03
7.782165476086671564e-03
7.776981079720035779e-03
7.771799115155055004e-03
7.766619581866656200e-03
7.761442479329676986e-03
7.756267807018869115e-03
7.751095564408898471e-03
7.745925750974342466e-03
7.740758366189689176e-03
7.735593409529337335e-03
7.730430880467604147e-03
7.725270778478714878e-03
7.720113103036808921e-03
7.714957853615932865e-03
7.709805029690042222e-03
7.704654630733004037e-03
7.699506656218596014e-03
7.694361105620511725e-03
7.689217978412356269e-03
7.684077274067641940e-03
7.678938992059796027e-03
7.673803131862161689e-03
7.668669692947994478e-03
7.663538674790464078e-03
7.658410076862655173e-03
7.653283898637569180e-03
7.648160139588119910e-03
7.643038799187132706e-03
7.637919876907340970e-03
7.632803372221389632e-03
7.627689284601839488e-03
7.622577613521163732e-03
7.617468358451754025e-03
7.612361518865914424e-03
7.607257094235865720e-03
7.602155084033741100e-03
7.597055487731585281e-03
7.591958304801358845e-03
7.586863534714938240e-03
7.581771176944114912e-03
7.576681230960596175e-03
7.571593696236006074e-03
7.566508572241881919e-03
7.561425858449676886e-03
7.556345554330759148e-03
7.551267659356412747e-03
7.546192172997838454e-03
7.541119094726152911e-03
7.536048424012384284e-03
7.530980160327476608e-03
7.525914303142290651e-03
7.520850851927600444e-03
7.515789806154095885e-03
7.510731165292379267e-03
7.505674928812966148e-03
7.500621096186291421e-03
7.495569666882705845e-03
7.490520640372476044e-03
7.485474016125781040e-03
7.480429793612713117e-03
7.475387972303280427e-03
7.470348551667406987e-03
7.465311531174936149e-03
7.460276910295627131e-03
7.455244688499162824e-03
7.450214865255138513e-03
7.445187440033065353e-03
7.440162412302371228e-03
7.435139781532397289e-03
7.430119547192400552e-03
7.425101708751556499e-03
7.420086265678956482e-03
7.415073217443615521e-03
7.410062563514464504e-03
7.405054303360352787e-03
7.400048436450042122e-03
7.395044962252210995e-03
7.390043880235454624e-03
7.385045189868280624e-03
7.380048890619108140e-03
7.375054981956274784e-03
7.370063463348037504e-03
7.365074334262566511e-03
7.360087594167947882e-03
7.355103242532182693e-03
7.350121278823191356e-03
7.345141702508811016e-03
7.340164513056790345e-03
7.335189709934792149e-03
7.330217292610391629e-03
7.325247260551080719e-03
7.320279613224274159e-03
7.315314350097305157e-03
7.310351470637421918e-03
7.305390974311787647e-03
7.300432860587487485e-03
7.295477128931521574e-03
7.290523778810809388e-03
7.285572809692182801e-03
7.280624221042392152e-03
7.275678012328109720e-03
7.270734183015925382e-03
7.265792732572346618e-03
7.260853660463796773e-03
7.255916966156615057e-03
7.250982649117054812e-03
7.246050708811286982e-03
7.241121144705397507e-03
7.236193956265386459e-03
7.231269142957168043e-03
7.226346704246578399e-03
7.221426639599372137e-03
7.216508948481217996e-03
7.211593630357704919e-03
7.206680684694339450e-03
7.201770110956543132e-03
7.196861908609649035e-03
7.191956077118910433e-03
7.187052615949496466e-03
7.182151524566490405e-03
7.177252802434893990e-03
7.172356449019623090e-03
7.167462463785509441e-03
7.162570846197304983e-03
7.157681595719679254e-03
7.152794711817221998e-03
7.147910193954439689e-03
7.143028041595759006e-03
7.138148254205523360e-03
7.133270831247992029e-03
7.128395772187340156e-03
7.123523076487652678e-03
7.118652743612924327e-03
7.113784773027070039e-03
7.108919164193917145e-03
7.104055916577211444e-03
7.099195029640618070e-03
7.094336502847714554e-03
7.089480335661996896e-03
7.084626527546876960e-03
7.079775077965675539e-03
7.074925986381624954e-03
7.070079252257873391e-03
7.065234875057484036e-03
7.060392854243434206e-03
7.055553189278613614e-03
7.050715879625826972e-03
7.045880924747792255e-03
7.041048324107141571e-03
7.036218077166422891e-03
7.031390183388099187e-03
7.026564642234543225e-03
7.021741453168038431e-03
7.016920615650778896e-03
7.012102129144875441e-03
7.007285993112349551e-03
7.002472207015136840e-03
6.997660770315086189e-03
6.992851682473959739e-03
6.988044942953436367e-03
6.983240551215108213e-03
6.978438506720484151e-03
6.973638808930982848e-03
6.968841457307935368e-03
6.964046451312588641e-03
6.959253790406101994e-03
6.954463474049549752e-03
6.949675501703922106e-03
6.944889872830125981e-03
6.940106586888980696e-03
6.935325643341219704e-03
6.930547041647487985e-03
6.925770781268342918e-03
6.920996861664256011e-03
6.916225282295609435e-03
6.911456042622693419e-03
6.906689142105709722e-03
6.901924580204770766e-03
6.897162356379903103e-03
6.892402470091041344e-03
6.887644920798029896e-03
6.882889707960625561e-03
6.878136831038495803e-03
6.873386289491222219e-03
6.868638082778299667e-03
6.863892210359135403e-03
6.859148671693045610e-03
6.854407466239256265e-03
6.849668593456905742e-03
6.844932052805044811e-03
6.840197843742637507e-03
6.835465965728556789e-03
6.830736418221586281e-03
6.826009200680421135e-03
6.821284312563668899e-03
6.816561753329844313e-03
6.811841522437370178e-03
6.807123619344578221e-03
6.802408043509710830e-03
6.797694794390920191e-03
6.792983871446269147e-03
6.788275274133731205e-03
6.783569001911186197e-03
6.778865054236416811e-03
6.774163430567112058e-03
6.769464130360864675e-03
6.764767153075173720e-03
6.760072498167449782e-03
6.755380165095008910e-03
6.750690153315073473e-03
6.746002462284774771e-03
6.741317091461148693e-03
6.736634040301140054e-03
6.731953308261595659e-03
6.727274894799266033e-03
6.722598799370805428e-03
6.717925021432776152e-03
6.713253560441647706e-03
6.708584415853789847e-03
6.703917587125480387e-03
6.699253073712907805e-03
6.694590875072162564e-03
6.689930990659240587e-03
6.685273419930044987e-03
6.680618162340388674e-03
6.675965217345990015e-03
6.671314584402473699e-03
6.666666262965373346e-03
6.662020252490123695e-03
6.657376552432060605e-03
6.652735162246427997e-03
6.648096081388374379e-03
6.643459309312949382e-03
6.638824845475110696e-03
6.634192689329717132e-03
6.629562840331534694e-03
6.624935297935235709e-03
6.620310061595398830e-03
6.615687130766509036e-03
6.611066504902954159e-03
6.606448183459024889e-03
6.601832165888914770e-03
6.597218451646715866e-03
6.592607040186421359e-03
6.587997930961922953e-03
6.583391123427010869e-03
6.578786617035379918e-03
6.574184411240629501e-03
6.569584505496259275e-03
6.564986899255669146e-03
6.560391591972163615e-03
6.555798583098943963e-03
6.551207872089107390e-03
6.546619458395653950e-03
6.542033341471483084e-03
6.537449520769390149e-03
6.532867995742073358e-03
6.528288765842129443e-03
6.523711830522052786e-03
6.519137189234239758e-03
6.514564841430985249e-03
6.509994786564485270e-03
6.505427024086830011e-03
6.500861553450002980e-03
6.496298374105894009e-03
6.491737485506286244e-03
6.487178887102856145e-03
6.482622578347179559e-03
6.478068558690728250e-03
6.473516827584876836e-03
6.468967384480899321e-03
6.464420228829968230e-03
6.459875360083150268e-03
6.455332777691413261e-03
6.450792481105622686e-03
6.446254469776541672e-03
6.441718743154834469e-03
6.437185300691059507e-03
6.432654141835672003e-03
6.428125266039019618e-03
6.423598672751338994e-03
6.419074361422766155e-03
6.414552331503329576e-03
6.410032582442953646e-03
6.405515113691457804e-03
6.400999924698555672e-03
6.396487014913855920e-03
6.391976383786861400e-03
6.387468030766968279e-03
6.382961955303459965e-03
6.378458156845516654e-03
6.373956634842204913e-03
6.369457388742484627e-03
6.364960417995203790e-03
6.360465722049099373e-03
6.355973300352801662e-03
6.351483152354835127e-03
6.346995277503614946e-03
6.342509675247445279e-03
6.338026345034517527e-03
6.333545286312912935e-03
6.329066498530599993e-03
6.324589981135440506e-03
6.320115733575181784e-03
6.315643755297457515e-03
6.311174045749787763e-03
6.306706604379580701e-03
6.302241430634132613e-03
6.297778523960625291e-03
6.293317883806125168e-03
6.288859509617585053e-03
6.284403400841844997e-03
6.279949556925629693e-03
6.275497977315546740e-03
6.271048661458092713e-03
6.266601608799653167e-03
6.262156818786500032e-03
6.257714290864788143e-03
6.253274024480560446e-03
6.248836019079743662e-03
6.244400274108142211e-03
6.239966789011441688e-03
6.235535563235207988e-03
6.231106596224887315e-03
6.226679887425812243e-03
6.222255436283194788e-03
6.217833242242129868e-03
6.213413304747593575e-03
6.208995623244447509e-03
6.204580197177432706e-03
6.200167025991170505e-03
6.195756109130162552e-03
6.191347446038792529e-03
6.186941036161327893e-03
6.182536878941911201e-03
6.178134973824560977e-03
6.173735320253176048e-03
6.169337917671538149e-03
6.164942765523314522e-03
6.160549863252046641e-03
6.156159210301153685e-03
6.151770806113933399e-03
6.147384650133560363e-03
6.143000741803085127e-03
6.138619080565435940e-03
6.134239665863418754e-03
6.129862497139718092e-03
6.125487573836892706e-03
6.121114895397377319e-03
6.116744461263479149e-03
6.112376270877377046e-03
6.108010323681127562e-03
6.103646619116660614e-03
6.099285156625776881e-03
6.094925935650151276e-03
6.090568955631334679e-03
6.086214216010749599e-03
6.081861716229694514e-03
6.077511455729343870e-03
6.073163433950747210e-03
6.068817650334825710e-03
6.064474104322374777e-03
6.060132795354057113e-03
6.055793722870409651e-03
6.051456886311835752e-03
6.047122285118612141e-03
6.042789918730881102e-03
6.038459786588653948e-03
6.034131888131811020e-03
6.029806222800104289e-03
6.025482790033150418e-03
6.021161589270436834e-03
6.016842619951321726e-03
6.012525881515027107e-03
6.008211373400648356e-03
6.003899095047147277e-03
5.999589045893354705e-03
5.995281225377962694e-03
5.990975632939525390e-03
5.986672268016465966e-03
5.982371130047075755e-03
5.978072218469514254e-03
5.973775532721803914e-03
5.969481072241830145e-03
5.965188836467335241e-03
5.960898824835927055e-03
5.956611036785076398e-03
5.952325471752120505e-03
5.948042129174261304e-03
5.943761008488558477e-03
5.939482109131936395e-03
5.935205430541180653e-03
5.930930972152943272e-03
5.926658733403742697e-03
5.922388713729954263e-03
5.918120912567818859e-03
5.913855329353439466e-03
5.909591963522782022e-03
5.905330814511674555e-03
5.901071881755806312e-03
5.896815164690724295e-03
5.892560662751838464e-03
5.888308375374418265e-03
5.884058301993583956e-03
5.879810442044315286e-03
5.875564794961450621e-03
5.871321360179687816e-03
5.867080137133583347e-03
5.862841125257551439e-03
5.858604323985859737e-03
5.854369732752636238e-03
5.850137350991866693e-03
5.845907178137393738e-03
5.841679213622909088e-03
5.837453456881963945e-03
5.833229907347962061e-03
5.829008564454162336e-03
5.824789427633677956e-03
5.820572496319476388e-03
5.816357769944379384e-03
5.812145247941058641e-03
5.807934929742045345e-03
5.803726814779717157e-03
5.799520902486305154e-03
5.795317192293895567e-03
5.791115683634422834e-03
5.786916375939670475e-03
5.782719268641269353e-03
5.778524361170696809e-03
5.774331652959277528e-03
5.770141143438186140e-03
5.765952832038442888e-03
5.761766718190917090e-03
5.757582801326327146e-03
5.753401080875237064e-03
5.749221556268055595e-03
5.745044226935037968e-03
5.740869092306286753e-03
5.736696151811752735e-03
5.732525404881233175e-03
5.728356850944364004e-03
5.724190489430623294e-03
5.720026319769338195e-03
5.715864341389677999e-03
5.711704553720653270e-03
5.707546956191114976e-03
5.703391548229754492e-03
5.699238329265103598e-03
5.695087298725533612e-03
5.690938456039257992e-03
5.686791800634336674e-03
5.682647331938668264e-03
5.678505049379992640e-03
5.674364952385891822e-03
5.670227040383784764e-03
5.666091312800926490e-03
5.661957769064408959e-03
5.657826408601163669e-03
5.653697230837961656e-03
5.649570235201406554e-03
5.645445421117937200e-03
5.641322788013827631e-03
5.637202335315192291e-03
5.633084062447981689e-03
5.628967968837984143e-03
5.624854053910824901e-03
5.620742317091965284e-03
5.616632757806699211e-03
5.612525375480155801e-03
5.608420169537295906e-03
5.604317139402914712e-03
5.600216284501641738e-03
5.596117604257937368e-03
5.592021098096094586e-03
5.587926765440238974e-03
5.583834605714326112e-03
5.579744618342144177e-03
5.575656802747316551e-03
5.571571158353300947e-03
5.567487684583382473e-03
5.563406380860673635e-03
5.559327246608113463e-03
5.555250281248470985e-03
5.551175484204345228e-03
5.547102854898164348e-03
5.543032392752181292e-03
5.538964097188477272e-03
5.534897967628960892e-03
5.530834003495364685e-03
5.526772204209245108e-03
5.522712569191985145e-03
5.518655097864790839e-03
5.514599789648698229e-03
5.510546643964569016e-03
5.506495660233088826e-03
5.502446837874767210e-03
5.498400176309935043e-03
5.494355674958747125e-03
5.490313333241181315e-03
5.486273150577035060e-03
5.482235126385925396e-03
5.478199260087291550e-03
5.474165551100401012e-03
5.470133998844346063e-03
5.466104602738043779e-03
5.462077362200235160e-03
5.458052276649480797e-03
5.454029345504157397e-03
5.450008568182464729e-03
5.445989944102422146e-03
5.441973472681870330e-03
5.437959153338466946e-03
5.433946985489681442e-03
5.429936968552804590e-03
5.425929101944939811e-03
5.421923385083003179e-03
5.417919817383730352e-03
5.413918398263669642e-03
5.409919127139187212e-03
5.405922003426463611e-03
5.401927026541494641e-03
5.397934195900086149e-03
5.393943510917857502e-03
5.389954971010244185e-03
5.385968575592489996e-03
5.381984324079655720e-03
5.378002215886607852e-03
5.374022250428026407e-03
5.370044427118404913e-03
5.366068745372047817e-03
5.362095204603070479e-03
5.358123804225394839e-03
5.354154543652754616e-03
5.350187422298691847e-03
5.346222439576561215e-03
5.342259594899529188e-03
5.338298887680572279e-03
5.334340317332477051e-03
5.330383883267834043e-03
5.326429584899036902e-03
5.322477421638284988e-03
5.318527392897583368e-03
5.314579498088738488e-03
5.310633736623364236e-03
5.306690107912878478e-03
5.302748611368509994e-03
5.298809246401290675e-03
5.294872012422058120e-03
5.290936908841456510e-03
5.287003935069932263e-03
5.283073090517735777e-03
5.279144374594918823e-03
5.275217786711338015e-03
5.271293326276653077e-03
5.267370992700326840e-03
5.263450785391625246e-03
5.259532703759613008e-03
5.255616747213153611e-03
5.251702915160907578e-03
5.247791207011332469e-03
5.243881622172688085e-03
5.239974160053034735e-03
5.236068820060228030e-03
5.232165601601922351e-03
5.228264504085567387e-03
5.224365526918411592e-03
5.220468669507501332e-03
5.216573931259676535e-03
5.212681311581575036e-03
5.208790809879624770e-03
5.204902425560045502e-03
5.201016158028847966e-03
5.197132006691836462e-03
5.193249970954604521e-03
5.189370050222537507e-03
5.185492243900810885e-03
5.181616551394391083e-03
5.177742972108032894e-03
5.173871505446283811e-03
5.170002150813476222e-03
5.166134907613729142e-03
5.162269775250949953e-03
5.158406753128835266e-03
5.154545840650873526e-03
5.150687037220339805e-03
5.146830342240294939e-03
5.142975755113584659e-03
5.139123275242837852e-03
5.135272902030466567e-03
5.131424634878666013e-03
5.127578473189417160e-03
5.123734416364485872e-03
5.119892463805422907e-03
5.116052614913564785e-03
5.112214869090031186e-03
5.108379225735720612e-03
5.104545684251312124e-03
5.100714244037267940e-03
5.096884904493834308e-03
5.093057665021037163e-03
5.089232525018680398e-03
5.085409483886346726e-03
5.081588541023395952e-03
5.077769695828965833e-03
5.073952947701967746e-03
5.070138296041091022e-03
5.066325740244800348e-03
5.062515279711336628e-03
5.058706913838718726e-03
5.054900642024740855e-03
5.051096463666970848e-03
5.047294378162750159e-03
5.043494384909194723e-03
5.039696483303194099e-03
5.035900672741410594e-03
5.032106952620278399e-03
5.028315322336000988e-03
5.024525781284555452e-03
5.020738328861690768e-03
5.016952964462924325e-03
5.013169687483542795e-03
5.009388497318600399e-03
5.005609393362920635e-03
5.001832375011098022e-03
4.998057441657496359e-03
4.994284592696247860e-03
4.990513827521250549e-03
4.986745145526170868e-03
4.982978546104443671e-03
4.979214028649273094e-03
4.975451592553627352e-03
4.971691237210243072e-03
4.967932962011620095e-03
4.964176766350022335e-03
4.960422649617476920e-03
4.956670611205776789e-03
4.952920650506474620e-03
4.949172766910887172e-03
4.945426959810091810e-03
4.941683228594928243e-03
4.937941572655998521e-03
4.934201991383667038e-03
4.930464484168056195e-03
4.926729050399045531e-03
4.922995689466274326e-03
4.919264400759138997e-03
4.915535183666795704e-03
4.911808037578156878e-03
4.908082961881891221e-03
4.904359955966425440e-03
4.900639019219944249e-03
4.896920151030387768e-03
4.893203350785452384e-03
4.889488617872588157e-03
4.885775951678995345e-03
4.882065351591630478e-03
4.878356816997202888e-03
4.874650347282177311e-03
4.870945941832768682e-03
4.867243600034943871e-03
4.863543321274422550e-03
4.859845104936673724e-03
4.856148950406912260e-03
4.852454857070100623e-03
4.848762824310952346e-03
4.845072851513932029e-03
4.841384938063251001e-03
4.837699083342869057e-03
4.834015286736491855e-03
4.830333547627569182e-03
4.826653865399299290e-03
4.822976239434626292e-03
4.819300669116236696e-03
4.815627153826559405e-03
4.811955692947770050e-03
4.808286285861790126e-03
4.804618931950285256e-03
4.800953630594664324e-03
4.797290381176078609e-03
4.793629183075423517e-03
4.789970035673333376e-03
4.786312938350181442e-03
4.782657890486083363e-03
4.779004891460891975e-03
4.775353940654197306e-03
4.771705037445330040e-03
4.768058181213359788e-03
4.764413371337089878e-03
4.760770607195063432e-03
4.757129888165560760e-03
4.753491213626597628e-03
4.749854582955924387e-03
4.746219995531025110e-03
4.742587450729119324e-03
4.738956947927160275e-03
4.735328486501832329e-03
4.731702065829552703e-03
4.728077685286474936e-03
4.724455344248488890e-03
4.720835042091218146e-03
4.717216778190016536e-03
4.713600551919968143e-03
4.709986362655885564e-03
4.706374209772312515e-03
4.702764092643523831e-03
4.699156010643524596e-03
4.695549963146045808e-03
4.691945949524542643e-03
4.688343969152196193e-03
4.684744021401909993e-03
4.681146105646307419e-03
4.677550221257736028e-03
4.673956367608270157e-03
4.670364544069709190e-03
4.666774750013578422e-03
4.663186984811123863e-03
4.659601247833314829e-03
4.656017538450843950e-03
4.652435856034125433e-03
4.648856199953294195e-03
4.645278569578204127e-03
4.641702964278430696e-03
4.638129383423269213e-03
4.634557826381736564e-03
4.630988292522572082e-03
4.627420781214234072e-03
4.623855291824898080e-03
4.620291823722452555e-03
4.616730376274503188e-03
4.613170948848369438e-03
4.609613540811088872e-03
4.606058151529415431e-03
4.602504780369819429e-03
4.598953426698484080e-03
4.595404089881306373e-03
4.591856769283897931e-03
4.588311464271582416e-03
4.584768174209392054e-03
4.581226898462067640e-03
4.577687636394062003e-03
4.574150387369538273e-03
4.570615150752368148e-03
4.567081925906131892e-03
4.563550712194122672e-03
4.560021508979343087e-03
4.556494315624505173e-03
4.552969131492031266e-03
4.549445955944051399e-03
4.545924788342401573e-03
4.542405628048623752e-03
4.538888474423964127e-03
4.535373326829373990e-03
4.531860184625513197e-03
4.528349047172744966e-03
4.524839913831139350e-03
4.521332783960471495e-03
4.517827656920219044e-03
4.514324532069560400e-03
4.510823408767377328e-03
4.507324286372255823e-03
4.503827164242486109e-03
4.500332041736063507e-03
4.496838918210686702e-03
4.493347793023756871e-03
4.489858665532377689e-03
4.486371535093353589e-03
4.482886401063188031e-03
4.479403262798087836e-03
4.475922119653957115e-03
4.472442970986399875e-03
4.468965816150720013e-03
4.465490654501921321e-03
4.462017485394705746e-03
4.458546308183472529e-03
4.455077122222320801e-03
4.451609926865053059e-03
4.448144721465173423e-03
4.444681505375883308e-03
4.441220277950080550e-03
4.437761038540362010e-03
4.434303786499022709e-03
4.430848521178059295e-03
4.427395241929167440e-03
4.423943948103740108e-03
4.420494639052864085e-03
4.417047314127322578e-03
4.413601972677596089e-03
4.410158614053862405e-03
4.406717237605993140e-03
4.403277842683558929e-03
4.399840428635827701e-03
4.396404994811764673e-03
4.392971540560029753e-03
4.389540065228974067e-03
4.386110568166643429e-03
4.382683048720781814e-03
4.379257506238827015e-03
4.375833940067909780e-03
4.372412349554854680e-03
4.368992734046182706e-03
4.365575092888108674e-03
4.362159425426540352e-03
4.358745731007081063e-03
4.355334008975032291e-03
4.351924258675385869e-03
4.348516479452826586e-03
4.345110670651730449e-03
4.341706831616166419e-03
4.338304961689897279e-03
4.334905060216376164e-03
4.331507126538749163e-03
4.328111159999856183e-03
4.324717159942229223e-03
4.321325125708094968e-03
4.317935056639369586e-03
4.314546952077665670e-03
4.311160811364291370e-03
4.307776633840246922e-03
4.304394418846225513e-03
4.301014165722614156e-03
4.297635873809495417e-03
4.294259542446643083e-03
4.290885170973524759e-03
4.287512758729303611e-03
4.284142305052836622e-03
4.280773809282678935e-03
4.277407270757081249e-03
4.274042688813990687e-03
4.270680062791049926e-03
4.267319392025598068e-03
4.263960675854666302e-03
4.260603913614981371e-03
4.257249104642964709e-03
4.253896248274731569e-03
4.250545343846092762e-03
4.247196390692551185e-03
4.243849388149300086e-03
4.240504335551230006e-03
4.237161232232927906e-03
4.233820077528675438e-03
4.230480870772447208e-03
4.227143611297915979e-03
4.223808298438451805e-03
4.220474931527119430e-03
4.217143509896681755e-03
4.213814032879597236e-03
4.210486499808019888e-03
4.207160910013800145e-03
4.203837262828483134e-03
4.200515557583312139e-03
4.197195793609227732e-03
4.193877970236866912e-03
4.190562086796563966e-03
4.187248142618352209e-03
4.183936137031962245e-03
4.180626069366822836e-03
4.177317938952062638e-03
4.174011745116511067e-03
4.170707487188697431e-03
4.167405164496846594e-03
4.164104776368884181e-03
4.160806322132437444e-03
4.157509801114832662e-03
4.154215212643099474e-03
4.150922556043965678e-03
4.147631830643857230e-03
4.144343035768902582e-03
4.141056170744930945e-03
4.137771234897467953e-03
4.134488227551739135e-03
4.131207148032675983e-03
4.127927995664913349e-03
4.124650769772791187e-03
4.121375469680354543e-03
4.118102094711350962e-03
4.114830644189231348e-03
4.111561117437147368e-03
4.108293513777954917e-03
4.105027832534213252e-03
4.101764073028187595e-03
4.098502234581848265e-03
4.095242316516868944e-03
4.091984318154630144e-03
4.088728238816217476e-03
4.085474077822427719e-03
4.082221834493765349e-03
4.078971508150437339e-03
4.075723098112358361e-03
4.072476603699156858e-03
4.069232024230170705e-03
4.065989359024447213e-03
4.062748607400743124e-03
4.059509768677522883e-03
4.056272842172962100e-03
4.053037827204948422e-03
4.049804723091079799e-03
4.046573529148662744e-03
4.043344244694714942e-03
4.040116869045966980e-03
4.036891401518861479e-03
4.033667841429555700e-03
4.030446188093917206e-03
4.027226440827523860e-03
4.024008598945667294e-03
4.020792661763353780e-03
4.017578628595304228e-03
4.014366498755954187e-03
4.011156271559456442e-03
4.007947946319679287e-03
4.004741522350204787e-03
4.001536998964332244e-03
3.998334375475080804e-03
3.995133651195189456e-03
3.991934825437117029e-03
3.988737897513042197e-03
3.985542866734863472e-03
3.982349732414200948e-03
3.979158493862396291e-03
3.975969150390510146e-03
3.972781701309329068e-03
3.969596145929364661e-03
3.966412483560853575e-03
3.963230713513758371e-03
3.960050835097766661e-03
3.956872847622292834e-03
3.953696750396479796e-03
3.950522542729198970e-03
3.947350223929050293e-03
3.944179793304361352e-03
3.941011250163186513e-03
3.937844593813313865e-03
3.934679823562266081e-03
3.931516938717295219e-03
3.928355938585385322e-03
3.925196822473250684e-03
3.922039589687333246e-03
3.918884239533813006e-03
3.915730771318602817e-03
3.912579184347349248e-03
3.909429477925430857e-03
3.906281651357959919e-03
3.903135703949782865e-03
3.899991635005485048e-03
3.896849443829390747e-03
3.893709129725565331e-03
3.890570691997816133e-03
3.887434129949692875e-03
3.884299442884484640e-03
3.881166630105221168e-03
3.878035690914675895e-03
3.874906624615366384e-03
3.871779430509554327e-03
3.868654107899244677e-03
3.865530656086186949e-03
3.862409074371876087e-03
3.859289362057553331e-03
3.856171518444204919e-03
3.853055542832565985e-03
3.849941434523119696e-03
3.846829192816099852e-03
3.843718817011490454e-03
3.840610306409028302e-03
3.837503660308203435e-03
3.834398878008258259e-03
3.831295958808189715e-03
3.828194902006748414e-03
3.825095706902440374e-03
3.821998372793529615e-03
3.818902898978038165e-03
3.815809284753746491e-03
3.812717529418193068e-03
3.809627632268679145e-03
3.806539592602267881e-03
3.803453409715785213e-03
3.800369082905822021e-03
3.797286611468733263e-03
3.794205994700639278e-03
3.791127231897427948e-03
3.788050322354752104e-03
3.784975265368031253e-03
3.781902060232452453e-03
3.778830706242975509e-03
3.775761202694332113e-03
3.772693548881025840e-03
3.769627744097329546e-03
3.766563787637287539e-03
3.763501678794718610e-03
3.760441416863215171e-03
3.757383001136143687e-03
3.754326430906648141e-03
3.751271705467649174e-03
3.748218824111846249e-03
3.745167786131718950e-03
3.742118590819529592e-03
3.739071237467321042e-03
3.736025725366919330e-03
3.732982053809934080e-03
3.729940222087761541e-03
3.726900229491582860e-03
3.723862075312367979e-03
3.720825758840872605e-03
3.717791279367639937e-03
3.714758636183003275e-03
3.711727828577086885e-03
3.708698855839805564e-03
3.705671717260867245e-03
3.702646412129772559e-03
3.699622939735816140e-03
3.696601299368090527e-03
3.693581490315485296e-03
3.690563511866686627e-03
3.687547363310181639e-03
3.684533043934256659e-03
3.681520553026998519e-03
3.678509889876296728e-03
3.675501053769846069e-03
3.672494043995144439e-03
3.669488859839497609e-03
3.666485500590018366e-03
3.663483965533629542e-03
3.660484253957061850e-03
3.657486365146855184e-03
3.654490298389359484e-03
3.651496052970735172e-03
3.648503628176956188e-03
3.645513023293813458e-03
3.642524237606912726e-03
3.639537270401677158e-03
3.636552120963346471e-03
3.633568788576981706e-03
3.630587272527466963e-03
3.627607572099509833e-03
3.624629686577642267e-03
3.621653615246224478e-03
3.618679357389440604e-03
3.615706912291301312e-03
3.612736279235648999e-03
3.609767457506155627e-03
3.606800446386321853e-03
3.603835245159479634e-03
3.600871853108795258e-03
3.597910269517270651e-03
3.594950493667744672e-03
3.591992524842893119e-03
3.589036362325231325e-03
3.586082005397113297e-03
3.583129453340736480e-03
3.580178705438141762e-03
3.577229760971213472e-03
3.574282619221679815e-03
3.571337279471117204e-03
3.568393741000950269e-03
3.565452003092453581e-03
3.562512065026749060e-03
3.559573926084812039e-03
3.556637585547469966e-03
3.553703042695403706e-03
3.550770296809149709e-03
3.547839347169098271e-03
3.544910193055498746e-03
3.541982833748458671e-03
3.539057268527946807e-03
3.536133496673793137e-03
3.533211517465690166e-03
3.530291330183195526e-03
3.527372934105735009e-03
3.524456328512600833e-03
3.521541512682954678e-03
3.518628485895828988e-03
3.515717247430130438e-03
3.512807796564639505e-03
3.509900132578013063e-03
3.506994254748785692e-03
3.504090162355367934e-03
3.501187854676049340e-03
3.498287330989003231e-03
3.495388590572283231e-03
3.492491632703826308e-03
3.489596456661452333e-03
3.486703061722867553e-03
3.483811447165665893e-03
3.480921612267330253e-03
3.478033556305233816e-03
3.475147278556641340e-03
3.472262778298710901e-03
3.469380054808498658e-03
3.466499107362958857e-03
3.463619935238945562e-03
3.460742537713215258e-03
3.457866914062426422e-03
3.454993063563139514e-03
3.452120985491818721e-03
3.449250679124834986e-03
3.446382143738466013e-03
3.443515378608899731e-03
3.440650383012232999e-03
3.437787156224473336e-03
3.434925697521541092e-03
3.432066006179270313e-03
3.429208081473412648e-03
3.426351922679637344e-03
3.423497529073533420e-03
3.420644899930610095e-03
3.417794034526300696e-03
3.414944932135961352e-03
3.412097592034874036e-03
3.409252013498249162e-03
3.406408195801227320e-03
3.403566138218881883e-03
3.400725840026216831e-03
3.397887300498172395e-03
3.395050518909625056e-03
3.392215494535390143e-03
3.389382226650220105e-03
3.386550714528810142e-03
3.383720957445798209e-03
3.380892954675764582e-03
3.378066705493236194e-03
3.375242209172688371e-03
3.372419464988547430e-03
3.369598472215192420e-03
3.366779230126952516e-03
3.363961737998113523e-03
3.361145995102916145e-03
3.358332000715559887e-03
3.355519754110205220e-03
3.352709254560976189e-03
3.349900501341961708e-03
3.347093493727215999e-03
3.344288230990762056e-03
3.341484712406589917e-03
3.338682937248661428e-03
3.335882904790910247e-03
3.333084614307241841e-03
3.330288065071536525e-03
3.327493256357651197e-03
3.324700187439420633e-03
3.321908857590657495e-03
3.319119266085156228e-03
3.316331412196696533e-03
3.313545295199042933e-03
3.310760914365947372e-03
3.307978268971149220e-03
3.305197358288377435e-03
3.302418181591355341e-03
3.299640738153800188e-03
3.296865027249423156e-03
3.294091048151932388e-03
3.291318800135034726e-03
3.288548282472437446e-03
3.285779494437849561e-03
3.283012435304983549e-03
3.280247104347554926e-03
3.277483500839285715e-03
3.274721624053906176e-03
3.271961473265157412e-03
3.269203047746789201e-03
3.266446346772565630e-03
3.263691369616266835e-03
3.260938115551689429e-03
3.258186583852646073e-03
3.255436773792968076e-03
3.252688684646508864e-03
3.249942315687146151e-03
3.247197666188779766e-03
3.244454735425335561e-03
3.241713522670766710e-03
3.238974027199052839e-03
3.236236248284205235e-03
3.233500185200267277e-03
3.230765837221314871e-03
3.228033203621459481e-03
3.225302283674848572e-03
3.222573076655671671e-03
3.219845581838156907e-03
3.217119798496574472e-03
3.214395725905235760e-03
3.211673363338496401e-03
3.208952710070755825e-03
3.206233765376462035e-03
3.203516528530109871e-03
3.200800998806244049e-03
3.198087175479460455e-03
3.195375057824410923e-03
3.192664645115801062e-03
3.189955936628391560e-03
3.187248931637002951e-03
3.184543629416515618e-03
3.181840029241868924e-03
3.179138130388062082e-03
3.176437932130154584e-03
3.173739433743271408e-03
3.171042634502601720e-03
3.168347533683399733e-03
3.165654130560986452e-03
3.162962424410753134e-03
3.160272414508159128e-03
3.157584100128737505e-03
3.154897480548094629e-03
3.152212555041914062e-03
3.149529322885953955e-03
3.146847783356047923e-03
3.144167935728108074e-03
3.141489779278128051e-03
3.138813313282184762e-03
3.136138537016437515e-03
3.133465449757128884e-03
3.130794050780588179e-03
3.128124339363231015e-03
3.125456314781561908e-03
3.122789976312175583e-03
3.120125323231756100e-03
3.117462354817081196e-03
3.114801070345024452e-03
3.112141469092553122e-03
3.109483550336728571e-03
3.106827313354707572e-03
3.104172757423745346e-03
3.101519881821198157e-03
3.098868685824522889e-03
3.096219168711278336e-03
3.093571329759127811e-03
3.090925168245838711e-03
3.088280683449285552e-03
3.085637874647449101e-03
3.082996741118419412e-03
3.080357282140393661e-03
3.077719496991681777e-03
3.075083384950705583e-03
3.072448945295999222e-03
3.069816177306210030e-03
3.067185080260102434e-03
3.064555653436557957e-03
3.061927896114574350e-03
3.059301807573268188e-03
3.056677387091877914e-03
3.054054633949762967e-03
3.051433547426406385e-03
3.048814126801414372e-03
3.046196371354519331e-03
3.043580280365579000e-03
3.040965853114579055e-03
3.038353088881635706e-03
3.035741986946995270e-03
3.033132546591037204e-03
3.030524767094274971e-03
3.027918647737355175e-03
3.025314187801059727e-03
3.022711386566308885e-03
3.020110243314159514e-03
3.017510757325805523e-03
3.014912927882580033e-03
3.012316754265954941e-03
3.009722235757542660e-03
3.007129371639098280e-03
3.004538161192521744e-03
3.001948603699856107e-03
2.999360698443290143e-03
2.996774444705158774e-03
2.994189841767944376e-03
2.991606888914279377e-03
2.989025585426947126e-03
2.986445930588879725e-03
2.983867923683160197e-03
2.981291563993025088e-03
2.978716850801865334e-03
2.976143783393227129e-03
2.973572361050809756e-03
2.971002583058469926e-03
2.968434448700222640e-03
2.965867957260241630e-03
2.963303108022858484e-03
2.960739900272565690e-03
2.958178333294020964e-03
2.955618406372044656e-03
2.953060118791623646e-03
2.950503469837907015e-03
2.947948458796209072e-03
2.945395084952010228e-03
2.942843347590957427e-03
2.940293245998866316e-03
2.937744779461720808e-03
2.935197947265677856e-03
2.932652748697066152e-03
2.930109183042386555e-03
2.927567249588316871e-03
2.925026947621710543e-03
2.922488276429597090e-03
2.919951235299181672e-03
2.917415823517847690e-03
2.914882040373157658e-03
2.912349885152855367e-03
2.909819357144866753e-03
2.907290455637299032e-03
2.904763179918440699e-03
2.902237529276766297e-03
2.899713503000935985e-03
2.897191100379793802e-03
2.894670320702370271e-03
2.892151163257883264e-03
2.889633627335738437e-03
2.887117712225527062e-03
2.884603417217028194e-03
2.882090741600212142e-03
2.879579684665238299e-03
2.877070245702457747e-03
2.874562424002412384e-03
2.872056218855837100e-03
2.869551629553661505e-03
2.867048655387011234e-03
2.864547295647208811e-03
2.862047549625773655e-03
2.859549416614424674e-03
2.857052895905079840e-03
2.854557986789856179e-03
2.852064688561070215e-03
2.849573000511240999e-03
2.847082921933092280e-03
2.844594452119550768e-03
2.842107590363745270e-03
2.839622335959007988e-03
2.837138688198878426e-03
2.834656646377101651e-03
2.832176209787627425e-03
2.829697377724609345e-03
2.827220149482408303e-03
2.824744524355591625e-03
2.822270501638935673e-03
2.819798080627424538e-03
2.817327260616252649e-03
2.814858040900825205e-03
2.812390420776757737e-03
2.809924399539878714e-03
2.807459976486229546e-03
2.804997150912065876e-03
2.802535922113855854e-03
2.800076289388283603e-03
2.797618252032249651e-03
2.795161809342870934e-03
2.792706960617481662e-03
2.790253705153635053e-03
2.787802042249105505e-03
2.785351971201886420e-03
2.782903491310190214e-03
2.780456601872450043e-03
2.778011302187322843e-03
2.775567591553686295e-03
2.773125469270642292e-03
2.770684934637514339e-03
2.768245986953851018e-03
2.765808625519424694e-03
2.763372849634232811e-03
2.760938658598497894e-03
2.758506051712667547e-03
2.756075028277418792e-03
2.753645587593658503e-03
2.751217728962520367e-03
2.748791451685366621e-03
2.746366755063790223e-03
2.743943638399612677e-03
2.741522100994885774e-03
2.739102142151891156e-03
2.736683761173139447e-03
2.734266957361374591e-03
2.731851730019572121e-03
2.729438078450940018e-03
2.727026001958923924e-03
2.724615499847203234e-03
2.722206571419692397e-03
2.719799215980541352e-03
2.717393432834133791e-03
2.714989221285091497e-03
2.712586580638274344e-03
2.710185510198781598e-03
2.707786009271952784e-03
2.705388077163365084e-03
2.702991713178833338e-03
2.700596916624410475e-03
2.698203686806390986e-03
2.695812023031310921e-03
2.693421924605948758e-03
2.691033390837325838e-03
2.688646421032704625e-03
2.686261014499587412e-03
2.683877170545718484e-03
2.681494888479085421e-03
2.679114167607919532e-03
2.676735007240693253e-03
2.674357406686123616e-03
2.671981365253170947e-03
2.669606882251040602e-03
2.667233956989184269e-03
2.664862588777299097e-03
2.662492776925326834e-03
2.660124520743456858e-03
2.657757819542124443e-03
2.655392672632013364e-03
2.653029079324054160e-03
2.650667038929425436e-03
2.648306550759552992e-03
2.645947614126111999e-03
2.643590228341024823e-03
2.641234392716461463e-03
2.638880106564839984e-03
2.636527369198828248e-03
2.634176179931347391e-03
2.631826538075570515e-03
2.629478442944921390e-03
2.627131893853077490e-03
2.624786890113969991e-03
2.622443431041784206e-03
2.620101515950956118e-03
2.617761144156174544e-03
2.615422314972381569e-03
2.613085027714773852e-03
2.610749281698800887e-03
2.608415076240167170e-03
2.606082410654833939e-03
2.603751284259020471e-03
2.601421696369202348e-03
2.599093646302111458e-03
2.596767133374734693e-03
2.594442156904314383e-03
2.592118716208347863e-03
2.589796810604588339e-03
2.587476439411045322e-03
2.585157601945984630e-03
2.582840297527929686e-03
2.580524525475661954e-03
2.578210285108219636e-03
2.575897575744899842e-03
2.573586396705257288e-03
2.571276747309106468e-03
2.568968626876519043e-03
2.566662034727825153e-03
2.564356970183615143e-03
2.562053432564737401e-03
2.559751421192297486e-03
2.557450935387661165e-03
2.555151974472452247e-03
2.552854537768553880e-03
2.550558624598109857e-03
2.548264234283524176e-03
2.545971366147461480e-03
2.543680019512847487e-03
2.541390193702868557e-03
2.539101888040972994e-03
2.536815101850871477e-03
2.534529834456534896e-03
2.532246085182194347e-03
2.529963853352340270e-03
2.527683138291725046e-03
2.525403939325363001e-03
2.523126255778531703e-03
2.520850086976770231e-03
2.518575432245880041e-03
2.516302290911921931e-03
2.514030662301218206e-03
2.511760545740352249e-03
2.509491940556170687e-03
2.507224846075782089e-03
2.504959261626558270e-03
2.502695186536135156e-03
2.500432620132409314e-03
2.498171561743539690e-03
2.495912010697947606e-03
2.493653966324316327e-03
2.491397427951593229e-03
2.489142394908990235e-03
2.486888866525981210e-03
2.484636842132301963e-03
2.482386321057951980e-03
2.480137302633196161e-03
2.477889786188563082e-03
2.475643771054845867e-03
2.473399256563101750e-03
2.471156242044650342e-03
2.468914726831074064e-03
2.466674710254217716e-03
2.464436191646186738e-03
2.462199170339350682e-03
2.459963645666341479e-03
2.457729616960053001e-03
2.455497083553643232e-03
2.453266044780532968e-03
2.451036499974404946e-03
2.448808448469202547e-03
2.446581889599132396e-03
2.444356822698662626e-03
2.442133247102524184e-03
2.439911162145710390e-03
2.437690567163475642e-03
2.435471461491335414e-03
2.433253844465067556e-03
2.431037715420711863e-03
2.428823073694568770e-03
2.426609918623200222e-03
2.424398249543430108e-03
2.422188065792343827e-03
2.419979366707288720e-03
2.417772151625874506e-03
2.415566419885972413e-03
2.413362170825712576e-03
2.411159403783485772e-03
2.408958118097943857e-03
2.406758313107999325e-03
2.404559988152823579e-03
2.402363142571848232e-03
2.400167775704766839e-03
2.397973886891533162e-03
2.395781475472362476e-03
2.393590540787730696e-03
2.391401082178371343e-03
2.389213098985275979e-03
2.387026590549695508e-03
2.384841556213139306e-03
2.382657995317374790e-03
2.380475907204429153e-03
2.378295291216588492e-03
2.376116146696397816e-03
2.373938472986660605e-03
2.371762269430437078e-03
2.369587535371044627e-03
2.367414270152058253e-03
2.365242473117310125e-03
2.363072143610890023e-03
2.360903280977143595e-03
2.358735884560673231e-03
2.356569953706335891e-03
2.354405487759244405e-03
2.352242486064767043e-03
2.350080947968527945e-03
2.347920872816405390e-03
2.345762259954531359e-03
2.343605108729291536e-03
2.341449418487325743e-03
2.339295188575524903e-03
2.337142418341034075e-03
2.334991107131251589e-03
2.332841254293829044e-03
2.330692859176669574e-03
2.328545921127927413e-03
2.326400439496009200e-03
2.324256413629571805e-03
2.322113842877523201e-03
2.319972726589021594e-03
2.317833064113476293e-03
2.315694854800546404e-03
2.313558098000141269e-03
2.311422793062419597e-03
2.309288939337790763e-03
2.307156536176914376e-03
2.305025582930698546e-03
2.302896078950299880e-03
2.300768023587121316e-03
2.298641416192812991e-03
2.296516256119273108e-03
2.294392542718647499e-03
2.292270275343327463e-03
2.290149453345951061e-03
2.288030076079404854e-03
2.285912142896820865e-03
2.283795653151578318e-03
2.281680606197303198e-03
2.279567001387868691e-03
2.277454838077393878e-03
2.275344115620242438e-03
2.273234833371023077e-03
2.271126990684588665e-03
2.269020586916037103e-03
2.266915621420710885e-03
2.264812093554196236e-03
2.262710002672320506e-03
2.260609348131154342e-03
2.258510129287011250e-03
2.256412345496448466e-03
2.254315996116266086e-03
2.252221080503506202e-03
2.250127598015453766e-03
2.248035548009634423e-03
2.245944929843814077e-03
2.243855742875999325e-03
2.241767986464436157e-03
2.239681659967610386e-03
2.237596762744247219e-03
2.235513294153313856e-03
2.233431253554017757e-03
2.231350640305806640e-03
2.229271453768368050e-03
2.227193693301629789e-03
2.225117358265759054e-03
2.223042448021162430e-03
2.220968961928484163e-03
2.218896899348605720e-03
2.216826259642646658e-03
2.214757042171964629e-03
2.212689246298154937e-03
2.210622871383049678e-03
2.208557916788717306e-03
2.206494381877463062e-03
2.204432266011830278e-03
2.202371568554598643e-03
2.200312288868785070e-03
2.198254426317641525e-03
2.196197980264655032e-03
2.194142950073548967e-03
2.192089335108282633e-03
2.190037134733050818e-03
2.187986348312281198e-03
2.185936975210636939e-03
2.183889014793014959e-03
2.181842466424546365e-03
2.179797329470594281e-03
2.177753603296753420e-03
2.175711287268851813e-03
2.173670380752952113e-03
2.171630883115348559e-03
2.169592793722567407e-03
2.167556111941366936e-03
2.165520837138738310e-03
2.163486968681903842e-03
2.161454505938317436e-03
2.159423448275664143e-03
2.157393795061859736e-03
2.155365545665050703e-03
2.153338699453612951e-03
2.151313255796152672e-03
2.149289214061506342e-03
2.147266573618739419e-03
2.145245333837147213e-03
2.143225494086254453e-03
2.141207053735814415e-03
2.139190012155810661e-03
2.137174368716454869e-03
2.135160122788185098e-03
2.133147273741666222e-03
2.131135820947792098e-03
2.129125763777683401e-03
2.127117101602688486e-03
2.125109833794384256e-03
2.123103959724573567e-03
2.121099478765286084e-03
2.119096390288776992e-03
2.117094693667526117e-03
2.115094388274239671e-03
2.113095473481848077e-03
2.111097948663507272e-03
2.109101813192597406e-03
2.107107066442721541e-03
2.105113707787707820e-03
2.103121736601609032e-03
2.101131152258703481e-03
2.099141954133491948e-03
2.097154141600698126e-03
2.095167714035270790e-03
2.093182670812381192e-03
2.091199011307422195e-03
2.089216734896009574e-03
2.087235840953980282e-03
2.085256328857395484e-03
2.083278197982537955e-03
2.081301447705912085e-03
2.079326077404243869e-03
2.077352086454481352e-03
2.075379474233793320e-03
2.073408240119569302e-03
2.071438383489420439e-03
2.069469903721178616e-03
2.067502800192895160e-03
2.065537072282842574e-03
2.063572719369512372e-03
2.061609740831615075e-03
2.059648136048080214e-03
2.057687904398055895e-03
2.055729045260909667e-03
2.053771558016225917e-03
2.051815442043807610e-03
2.049860696723676719e-03
2.047907321436073357e-03
2.045955315561454047e-03
2.044004678480494750e-03
2.042055409574090007e-03
2.040107508223350328e-03
2.038160973809602632e-03
2.036215805714390245e-03
2.034272003319472465e-03
2.032329566006823695e-03
2.030388493158633446e-03
2.028448784157305031e-03
2.026510438385456872e-03
2.024573455225922927e-03
2.022637834061753563e-03
2.020703574276214685e-03
2.018770675252785571e-03
2.016839136375159734e-03
2.014908957027244062e-03
2.012980136593160545e-03
2.011052674457244113e-03
2.009126570004041330e-03
2.007201822618312134e-03
2.005278431685028531e-03
2.003356396589375029e-03
2.001435716716748209e-03
1.999516391452755854e-03
1.997598420183216081e-03
1.995681802294159944e-03
1.993766537171829702e-03
1.991852624202679247e-03
1.989940062773374110e-03
1.988028852270792325e-03
1.986118992082022694e-03
1.984210481594365222e-03
1.982303320195331117e-03
1.980397507272641921e-03
1.978493042214227345e-03
1.976589924408228734e-03
1.974688153242996468e-03
1.972787728107089963e-03
1.970888648389278099e-03
1.968990913478540095e-03
1.967094522764063769e-03
1.965199475635246405e-03
1.963305771481693024e-03
1.961413409693216377e-03
1.959522389659836515e-03
1.957632710771779055e-03
1.955744372419478214e-03
1.953857373993575508e-03
1.951971714884918668e-03
1.950087394484561641e-03
1.948204412183763504e-03
1.946322767373989552e-03
1.944442459446911291e-03
1.942563487794405144e-03
1.940685851808553533e-03
1.938809550881645093e-03
1.936934584406174026e-03
1.935060951774840096e-03
1.933188652380548201e-03
1.931317685616407934e-03
1.929448050875733371e-03
1.927579747552040897e-03
1.925712775039050513e-03
1.923847132730685614e-03
1.921982820021072777e-03
1.920119836304541973e-03
1.918258180975627222e-03
1.916397853429065504e-03
1.914538853059795246e-03
1.912681179262956102e-03
1.910824831433891339e-03
1.908969808968146538e-03
1.907116111261470022e-03
1.905263737709811779e-03
1.903412687709323025e-03
1.901562960656357501e-03
1.899714555947468663e-03
1.897867472979410976e-03
1.896021711149139047e-03
1.894177269853808930e-03
1.892334148490778124e-03
1.890492346457603836e-03
1.888651863152043635e-03
1.886812697972055017e-03
1.884974850315795187e-03
1.883138319581620411e-03
1.881303105168085797e-03
1.879469206473945294e-03
1.877636622898152564e-03
1.875805353839859677e-03
1.873975398698417326e-03
1.872146756873374401e-03
1.870319427764475812e-03
1.868493410771662928e-03
1.866668705295074877e-03
1.864845310735046809e-03
1.863023226492111200e-03
1.861202451966997200e-03
1.859382986560629549e-03
1.857564829674129229e-03
1.855747980708813893e-03
1.853932439066197004e-03
1.852118204147987397e-03
1.850305275356090365e-03
1.848493652092606790e-03
1.846683333759833361e-03
1.844874319760263877e-03
1.843066609496587724e-03
1.841260202371689447e-03
1.839455097788648746e-03
1.837651295150739394e-03
1.835848793861429452e-03
1.834047593324380837e-03
1.832247692943449538e-03
1.830449092122685183e-03
1.828651790266331905e-03
1.826855786778826393e-03
1.825061081064799839e-03
1.823267672529075992e-03
1.821475560576671588e-03
1.819684744612796784e-03
1.817895224042852557e-03
1.816106998272431355e-03
1.814320066707318180e-03
1.812534428753490153e-03
1.810750083817115651e-03
1.808967031304554085e-03
1.807185270622356336e-03
1.805404801177264975e-03
1.803625622376214040e-03
1.801847733626327306e-03
1.800071134334919366e-03
1.798295823909495201e-03
1.796521801757750177e-03
1.794749067287568960e-03
1.792977619907026822e-03
1.791207459024388333e-03
1.789438584048107803e-03
1.787670994386829923e-03
1.785904689449388690e-03
1.784139668644806314e-03
1.782375931382293660e-03
1.780613477071250460e-03
1.778852305121264446e-03
1.777092414942111351e-03
1.775333805943753391e-03
1.773576477536341432e-03
1.771820429130213908e-03
1.770065660135896387e-03
1.768312169964101352e-03
1.766559958025728854e-03
1.764809023731864560e-03
1.763059366493780400e-03
1.761310985722934789e-03
1.759563880830973927e-03
1.757818051229729193e-03
1.756073496331217584e-03
1.754330215547640409e-03
1.752588208291384160e-03
1.750847473975020076e-03
1.749108012011305448e-03
1.747369821813182745e-03
1.745632902793779187e-03
1.743897254366406956e-03
1.742162875944563852e-03
