3.814697265625000000e-03
3.356933593750000000e-03
3.356933593750000000e-03
1.831054687500000000e-03
1.373291015625000000e-03
9.155273437500000000e-04
-9.155273437500000000e-04
-1.525878906250000000e-03
-2.899169921875000000e-03
-4.272460937500000000e-03
-5.950927734375000000e-03
-7.934570312500000000e-03
-1.052856445312500000e-02
-1.266479492187500000e-02
-1.388549804687500000e-02
-1.571655273437500000e-02
-1.739501953125000000e-02
-1.815795898437500000e-02
-1.998901367187500000e-02
-2.075195312500000000e-02
-2.044677734375000000e-02
-2.090454101562500000e-02
-2.044677734375000000e-02
-1.846313476562500000e-02
-1.647949218750000000e-02
-1.419067382812500000e-02
-1.159667968750000000e-02
-8.697509765625000000e-03
-6.561279296875000000e-03
-4.119873046875000000e-03
-1.525878906250000000e-03
6.103515625000000000e-04
3.051757812500000000e-03
5.340576171875000000e-03
8.087158203125000000e-03
9.765625000000000000e-03
1.129150390625000000e-02
1.266479492187500000e-02
1.327514648437500000e-02
1.373291015625000000e-02
1.510620117187500000e-02
1.556396484375000000e-02
1.602172851562500000e-02
1.586914062500000000e-02
1.556396484375000000e-02
1.403808593750000000e-02
1.296997070312500000e-02
1.113891601562500000e-02
9.460449218750000000e-03
7.934570312500000000e-03
6.256103515625000000e-03
4.425048828125000000e-03
3.356933593750000000e-03
1.525878906250000000e-03
-6.103515625000000000e-04
-7.629394531250000000e-04
-1.678466796875000000e-03
-3.051757812500000000e-03
-3.509521484375000000e-03
-3.204345703125000000e-03
-2.136230468750000000e-03
-1.525878906250000000e-03
-1.068115234375000000e-03
7.629394531250000000e-04
1.678466796875000000e-03
2.899169921875000000e-03
4.119873046875000000e-03
5.340576171875000000e-03
5.798339843750000000e-03
6.561279296875000000e-03
7.781982421875000000e-03
8.087158203125000000e-03
8.544921875000000000e-03
8.392333984375000000e-03
8.850097656250000000e-03
1.037597656250000000e-02
1.052856445312500000e-02
1.083374023437500000e-02
1.098632812500000000e-02
1.083374023437500000e-02
1.068115234375000000e-02
1.037597656250000000e-02
8.850097656250000000e-03
8.697509765625000000e-03
7.934570312500000000e-03
6.866455078125000000e-03
5.798339843750000000e-03
4.119873046875000000e-03
3.814697265625000000e-03
3.356933593750000000e-03
2.136230468750000000e-03
1.525878906250000000e-03
1.068115234375000000e-03
1.220703125000000000e-03
1.678466796875000000e-03
2.746582031250000000e-03
4.119873046875000000e-03
5.493164062500000000e-03
6.256103515625000000e-03
7.781982421875000000e-03
9.002685546875000000e-03
1.022338867187500000e-02
1.083374023437500000e-02
1.144409179687500000e-02
1.266479492187500000e-02
1.296997070312500000e-02
1.327514648437500000e-02
1.373291015625000000e-02
1.510620117187500000e-02
1.556396484375000000e-02
1.571655273437500000e-02
1.541137695312500000e-02
1.419067382812500000e-02
1.358032226562500000e-02
1.327514648437500000e-02
1.327514648437500000e-02
1.266479492187500000e-02
1.159667968750000000e-02
1.068115234375000000e-02
9.002685546875000000e-03
7.934570312500000000e-03
6.256103515625000000e-03
3.967285156250000000e-03
3.356933593750000000e-03
1.983642578125000000e-03
1.373291015625000000e-03
7.629394531250000000e-04
-7.629394531250000000e-04
-1.068115234375000000e-03
-1.373291015625000000e-03
-1.220703125000000000e-03
-7.629394531250000000e-04
3.051757812500000000e-04
1.525878906250000000e-03
2.593994140625000000e-03
3.814697265625000000e-03
5.187988281250000000e-03
6.103515625000000000e-03
6.561279296875000000e-03
7.934570312500000000e-03
8.087158203125000000e-03
9.002685546875000000e-03
1.037597656250000000e-02
1.068115234375000000e-02
1.098632812500000000e-02
1.113891601562500000e-02
1.083374023437500000e-02
1.098632812500000000e-02
1.083374023437500000e-02
1.098632812500000000e-02
1.083374023437500000e-02
1.098632812500000000e-02
1.098632812500000000e-02
1.052856445312500000e-02
9.002685546875000000e-03
8.392333984375000000e-03
6.866455078125000000e-03
6.256103515625000000e-03
3.662109375000000000e-03
1.983642578125000000e-03
1.220703125000000000e-03
-7.629394531250000000e-04
-1.831054687500000000e-03
-3.051757812500000000e-03
-3.814697265625000000e-03
-5.645751953125000000e-03
-6.408691406250000000e-03
-6.103515625000000000e-03
-6.256103515625000000e-03
-6.561279296875000000e-03
-7.934570312500000000e-03
-8.239746093750000000e-03
-9.155273437500000000e-03
-1.052856445312500000e-02
-1.129150390625000000e-02
-1.312255859375000000e-02
-1.358032226562500000e-02
-1.571655273437500000e-02
-1.739501953125000000e-02
-1.892089843750000000e-02
-2.044677734375000000e-02
-2.334594726562500000e-02
-2.532958984375000000e-02
-2.746582031250000000e-02
-3.036499023437500000e-02
-3.234863281250000000e-02
-3.479003906250000000e-02
-3.555297851562500000e-02
-3.707885742187500000e-02
-3.768920898437500000e-02
-3.768920898437500000e-02
-3.692626953125000000e-02
-3.555297851562500000e-02
-3.280639648437500000e-02
-2.853393554687500000e-02
-2.349853515625000000e-02
-1.693725585937500000e-02
-9.918212890625000000e-03
-2.593994140625000000e-03
7.019042968750000000e-03
1.663208007812500000e-02
2.716064453125000000e-02
3.799438476562500000e-02
4.745483398437500000e-02
5.737304687500000000e-02
6.515502929687500000e-02
7.202148437500000000e-02
7.736206054687500000e-02
7.949829101562500000e-02
8.010864257812500000e-02
7.812500000000000000e-02
7.339477539062500000e-02
6.530761718750000000e-02
5.508422851562500000e-02
4.119873046875000000e-02
2.517700195312500000e-02
5.950927734375000000e-03
-1.586914062500000000e-02
-4.074096679687500000e-02
-6.851196289062500000e-02
-9.918212890625000000e-02
-1.330566406250000000e-01
-1.687622070312500000e-01
-2.073669433593750000e-01
-2.494812011718750000e-01
-2.929687500000000000e-01
-3.401184082031250000e-01
-3.884887695312500000e-01
-4.386901855468750000e-01
-4.898071289062500000e-01
-5.410766601562500000e-01
-5.940246582031250000e-01
-6.452941894531250000e-01
-6.970214843750000000e-01
-7.478332519531250000e-01
-7.983398437500000000e-01
-8.476257324218750000e-01
-8.947753906250000000e-01
-9.407043457031250000e-01
-9.849548339843750000e-01
-1.027069091796875000e+00
-1.068572998046875000e+00
-1.107025146484375000e+00
-1.142883300781250000e+00
-1.176300048828125000e+00
-1.207427978515625000e+00
-1.235504150390625000e+00
-1.261291503906250000e+00
-1.282806396484375000e+00
-1.301116943359375000e+00
-1.315765380859375000e+00
-1.326446533203125000e+00
-1.334228515625000000e+00
-1.336669921875000000e+00
-1.336059570312500000e+00
-1.331176757812500000e+00
-1.322021484375000000e+00
-1.307067871093750000e+00
-1.288909912109375000e+00
-1.266784667968750000e+00
-1.239624023437500000e+00
-1.209411621093750000e+00
-1.175384521484375000e+00
-1.137847900390625000e+00
-1.099243164062500000e+00
-1.057128906250000000e+00
-1.013336181640625000e+00
-9.680175781250000000e-01
-9.207153320312500000e-01
-8.721923828125000000e-01
-8.235168457031250000e-01
-7.742309570312500000e-01
-7.232666015625000000e-01
-6.718444824218750000e-01
-6.195068359375000000e-01
-5.676269531250000000e-01
-5.151367187500000000e-01
-4.631042480468750000e-01
-4.122924804687500000e-01
-3.631591796875000000e-01
-3.147888183593750000e-01
-2.697753906250000000e-01
-2.253723144531250000e-01
-1.826477050781250000e-01
-1.429748535156250000e-01
-1.054382324218750000e-01
-7.049560546875000000e-02
-3.723144531250000000e-02
-6.561279296875000000e-03
2.243041992187500000e-02
4.913330078125000000e-02
7.431030273437500000e-02
9.765625000000000000e-02
1.187133789062500000e-01
1.380920410156250000e-01
1.570129394531250000e-01
1.733398437500000000e-01
1.879882812500000000e-01
2.005004882812500000e-01
2.125549316406250000e-01
2.246093750000000000e-01
2.343750000000000000e-01
2.430725097656250000e-01
2.522277832031250000e-01
2.595520019531250000e-01
2.671813964843750000e-01
2.742004394531250000e-01
2.801513671875000000e-01
2.862548828125000000e-01
2.919006347656250000e-01
2.972412109375000000e-01
3.034973144531250000e-01
3.089904785156250000e-01
3.141784667968750000e-01
3.204345703125000000e-01
3.260803222656250000e-01
3.308105468750000000e-01
3.361511230468750000e-01
3.410339355468750000e-01
3.456115722656250000e-01
3.504943847656250000e-01
3.553771972656250000e-01
3.599548339843750000e-01
3.645324707031250000e-01
3.680419921875000000e-01
3.720092773437500000e-01
3.755187988281250000e-01
3.779602050781250000e-01
3.804016113281250000e-01
3.828430175781250000e-01
3.851318359375000000e-01
3.872680664062500000e-01
3.881835937500000000e-01
3.880310058593750000e-01
3.880310058593750000e-01
3.875732421875000000e-01
3.878784179687500000e-01
3.878784179687500000e-01
3.878784179687500000e-01
3.874206542968750000e-01
3.863525390625000000e-01
3.857421875000000000e-01
3.852844238281250000e-01
3.834533691406250000e-01
3.831481933593750000e-01
3.829956054687500000e-01
3.826904296875000000e-01
3.831481933593750000e-01
3.833007812500000000e-01
3.829956054687500000e-01
3.831481933593750000e-01
3.829956054687500000e-01
3.831481933593750000e-01
3.831481933593750000e-01
3.831481933593750000e-01
3.828430175781250000e-01
3.826904296875000000e-01
3.816223144531250000e-01
3.804016113281250000e-01
3.790283203125000000e-01
3.781127929687500000e-01
3.759765625000000000e-01
3.741455078125000000e-01
3.729248046875000000e-01
3.707885742187500000e-01
3.688049316406250000e-01
3.665161132812500000e-01
3.640747070312500000e-01
3.616333007812500000e-01
3.588867187500000000e-01
3.559875488281250000e-01
3.527832031250000000e-01
3.488159179687500000e-01
3.451538085937500000e-01
3.424072265625000000e-01
3.392028808593750000e-01
3.356933593750000000e-01
3.326416015625000000e-01
3.300476074218750000e-01
3.276062011718750000e-01
3.251647949218750000e-01
3.225708007812500000e-01
3.205871582031250000e-01
3.193664550781250000e-01
3.179931640625000000e-01
3.173828125000000000e-01
3.164672851562500000e-01
3.158569335937500000e-01
3.149414062500000000e-01
3.144836425781250000e-01
3.131103515625000000e-01
3.121948242187500000e-01
3.109741210937500000e-01
3.099060058593750000e-01
3.082275390625000000e-01
3.073120117187500000e-01
3.053283691406250000e-01
3.036499023437500000e-01
3.024291992187500000e-01
3.010559082031250000e-01
2.999877929687500000e-01
2.981567382812500000e-01
2.958679199218750000e-01
2.931213378906250000e-01
2.906799316406250000e-01
2.885437011718750000e-01
2.861022949218750000e-01
2.833557128906250000e-01
2.810668945312500000e-01
2.787780761718750000e-01
2.757263183593750000e-01
2.717590332031250000e-01
2.688598632812500000e-01
2.665710449218750000e-01
2.638244628906250000e-01
2.619934082031250000e-01
2.610778808593750000e-01
2.590942382812500000e-01
2.572631835937500000e-01
2.566528320312500000e-01
2.557373046875000000e-01
2.546691894531250000e-01
2.539062500000000000e-01
2.536010742187500000e-01
2.539062500000000000e-01
2.539062500000000000e-01
2.539062500000000000e-01
2.540588378906250000e-01
2.540588378906250000e-01
2.536010742187500000e-01
2.519226074218750000e-01
2.516174316406250000e-01
2.511596679687500000e-01
2.510070800781250000e-01
2.494812011718750000e-01
2.491760253906250000e-01
2.487182617187500000e-01
2.471923828125000000e-01
2.465820312500000000e-01
2.445983886718750000e-01
2.436828613281250000e-01
2.416992187500000000e-01
2.397155761718750000e-01
2.377319335937500000e-01
2.349853515625000000e-01
2.325439453125000000e-01
2.301025390625000000e-01
2.278137207031250000e-01
2.250671386718750000e-01
2.226257324218750000e-01
2.201843261718750000e-01
2.175903320312500000e-01
2.157592773437500000e-01
2.151489257812500000e-01
2.154541015625000000e-01
2.149963378906250000e-01
2.149963378906250000e-01
2.149963378906250000e-01
2.148437500000000000e-01
2.149963378906250000e-01
2.143859863281250000e-01
2.131652832031250000e-01
2.128601074218750000e-01
2.124023437500000000e-01
2.124023437500000000e-01
2.127075195312500000e-01
2.125549316406250000e-01
2.120971679687500000e-01
2.107238769531250000e-01
2.101135253906250000e-01
2.096557617187500000e-01
2.093505859375000000e-01
2.084350585937500000e-01
2.078247070312500000e-01
2.070617675781250000e-01
2.055358886718750000e-01
2.038574218750000000e-01
2.024841308593750000e-01
2.006530761718750000e-01
1.982116699218750000e-01
1.953125000000000000e-01
1.919555664062500000e-01
1.892089843750000000e-01
1.878356933593750000e-01
1.863098144531250000e-01
1.837158203125000000e-01
1.815795898437500000e-01
1.806640625000000000e-01
1.792907714843750000e-01
1.786804199218750000e-01
1.788330078125000000e-01
1.783752441406250000e-01
1.782226562500000000e-01
1.782226562500000000e-01
1.783752441406250000e-01
1.785278320312500000e-01
1.789855957031250000e-01
1.803588867187500000e-01
1.809692382812500000e-01
1.806640625000000000e-01
1.789855957031250000e-01
1.785278320312500000e-01
1.785278320312500000e-01
1.785278320312500000e-01
1.785278320312500000e-01
1.777648925781250000e-01
1.766967773437500000e-01
1.762390136718750000e-01
1.760864257812500000e-01
1.760864257812500000e-01
1.756286621093750000e-01
1.744079589843750000e-01
1.730346679687500000e-01
1.721191406250000000e-01
1.707458496093750000e-01
1.695251464843750000e-01
1.684570312500000000e-01
1.669311523437500000e-01
1.660156250000000000e-01
1.644897460937500000e-01
1.635742187500000000e-01
1.620483398437500000e-01
1.618957519531250000e-01
1.611328125000000000e-01
1.596069335937500000e-01
1.593017578125000000e-01
1.591491699218750000e-01
1.588439941406250000e-01
1.596069335937500000e-01
1.605224609375000000e-01
1.614379882812500000e-01
1.615905761718750000e-01
1.617431640625000000e-01
1.612854003906250000e-01
1.614379882812500000e-01
1.612854003906250000e-01
1.614379882812500000e-01
1.612854003906250000e-01
1.614379882812500000e-01
1.608276367187500000e-01
1.612854003906250000e-01
1.608276367187500000e-01
1.594543457031250000e-01
1.588439941406250000e-01
1.589965820312500000e-01
1.586914062500000000e-01
1.573181152343750000e-01
1.562500000000000000e-01
1.547241210937500000e-01
1.536560058593750000e-01
1.515197753906250000e-01
1.493835449218750000e-01
1.477050781250000000e-01
1.464843750000000000e-01
1.443481445312500000e-01
1.426696777343750000e-01
1.417541503906250000e-01
1.402282714843750000e-01
1.396179199218750000e-01
1.396179199218750000e-01
1.394653320312500000e-01
1.396179199218750000e-01
1.402282714843750000e-01
1.408386230468750000e-01
1.422119140625000000e-01
1.441955566406250000e-01
1.458740234375000000e-01
1.470947265625000000e-01
1.484680175781250000e-01
1.489257812500000000e-01
1.489257812500000000e-01
1.499938964843750000e-01
1.510620117187500000e-01
1.515197753906250000e-01
1.518249511718750000e-01
1.513671875000000000e-01
1.518249511718750000e-01
1.515197753906250000e-01
1.515197753906250000e-01
1.509094238281250000e-01
1.499938964843750000e-01
1.492309570312500000e-01
1.490783691406250000e-01
1.489257812500000000e-01
1.475524902343750000e-01
1.464843750000000000e-01
1.446533203125000000e-01
1.428222656250000000e-01
1.417541503906250000e-01
1.400756835937500000e-01
1.388549804687500000e-01
1.377868652343750000e-01
1.368713378906250000e-01
1.351928710937500000e-01
1.347351074218750000e-01
1.347351074218750000e-01
1.344299316406250000e-01
1.347351074218750000e-01
1.351928710937500000e-01
1.368713378906250000e-01
1.387023925781250000e-01
1.399230957031250000e-01
1.411437988281250000e-01
1.423645019531250000e-01
1.437377929687500000e-01
1.445007324218750000e-01
1.461791992187500000e-01
1.473999023437500000e-01
1.483154296875000000e-01
1.492309570312500000e-01
1.498413085937500000e-01
1.509094238281250000e-01
1.518249511718750000e-01
1.518249511718750000e-01
1.521301269531250000e-01
1.533508300781250000e-01
1.536560058593750000e-01
1.544189453125000000e-01
1.542663574218750000e-01
1.542663574218750000e-01
1.533508300781250000e-01
1.522827148437500000e-01
1.518249511718750000e-01
1.510620117187500000e-01
1.498413085937500000e-01
1.490783691406250000e-01
1.477050781250000000e-01
1.469421386718750000e-01
1.467895507812500000e-01
1.461791992187500000e-01
1.452636718750000000e-01
1.445007324218750000e-01
1.449584960937500000e-01
1.457214355468750000e-01
1.466369628906250000e-01
1.473999023437500000e-01
1.486206054687500000e-01
1.498413085937500000e-01
1.513671875000000000e-01
1.531982421875000000e-01
1.542663574218750000e-01
1.545715332031250000e-01
1.554870605468750000e-01
1.564025878906250000e-01
1.571655273437500000e-01
1.583862304687500000e-01
1.588439941406250000e-01
1.586914062500000000e-01
1.585388183593750000e-01
1.591491699218750000e-01
1.589965820312500000e-01
1.589965820312500000e-01
1.589965820312500000e-01
1.589965820312500000e-01
1.583862304687500000e-01
1.570129394531250000e-01
1.562500000000000000e-01
1.548767089843750000e-01
1.539611816406250000e-01
1.525878906250000000e-01
1.512145996093750000e-01
1.499938964843750000e-01
1.487731933593750000e-01
1.473999023437500000e-01
1.464843750000000000e-01
1.448059082031250000e-01
1.445007324218750000e-01
1.440429687500000000e-01
1.443481445312500000e-01
1.443481445312500000e-01
1.451110839843750000e-01
1.448059082031250000e-01
1.460266113281250000e-01
1.472473144531250000e-01
1.484680175781250000e-01
1.490783691406250000e-01
1.498413085937500000e-01
1.510620117187500000e-01
1.512145996093750000e-01
1.516723632812500000e-01
1.515197753906250000e-01
1.513671875000000000e-01
1.513671875000000000e-01
1.518249511718750000e-01
1.516723632812500000e-01
1.516723632812500000e-01
1.516723632812500000e-01
1.515197753906250000e-01
1.499938964843750000e-01
1.495361328125000000e-01
1.489257812500000000e-01
1.469421386718750000e-01
1.454162597656250000e-01
1.440429687500000000e-01
1.420593261718750000e-01
1.397705078125000000e-01
1.376342773437500000e-01
1.350402832031250000e-01
1.322937011718750000e-01
1.300048828125000000e-01
1.281738281250000000e-01
1.272583007812500000e-01
1.251220703125000000e-01
1.234436035156250000e-01
1.228332519531250000e-01
1.220703125000000000e-01
1.211547851562500000e-01
1.200866699218750000e-01
1.196289062500000000e-01
1.200866699218750000e-01
1.197814941406250000e-01
1.196289062500000000e-01
1.202392578125000000e-01
1.199340820312500000e-01
1.200866699218750000e-01
1.197814941406250000e-01
1.202392578125000000e-01
1.194763183593750000e-01
1.182556152343750000e-01
1.174926757812500000e-01
1.159667968750000000e-01
1.145935058593750000e-01
1.135253906250000000e-01
1.124572753906250000e-01
1.103210449218750000e-01
1.080322265625000000e-01
1.057434082031250000e-01
1.031494140625000000e-01
1.008605957031250000e-01
9.796142578125000000e-02
9.429931640625000000e-02
9.063720703125000000e-02
8.682250976562500000e-02
8.361816406250000000e-02
7.949829101562500000e-02
7.614135742187500000e-02
7.278442382812500000e-02
6.942749023437500000e-02
6.683349609375000000e-02
6.454467773437500000e-02
6.195068359375000000e-02
5.981445312500000000e-02
5.722045898437500000e-02
5.477905273437500000e-02
5.279541015625000000e-02
5.187988281250000000e-02
5.020141601562500000e-02
4.928588867187500000e-02
4.730224609375000000e-02
4.547119140625000000e-02
4.425048828125000000e-02
4.241943359375000000e-02
3.997802734375000000e-02
3.799438476562500000e-02
3.555297851562500000e-02
3.356933593750000000e-02
3.005981445312500000e-02
2.685546875000000000e-02
2.365112304687500000e-02
2.105712890625000000e-02
1.800537109375000000e-02
1.464843750000000000e-02
1.113891601562500000e-02
6.713867187500000000e-03
2.593994140625000000e-03
-9.155273437500000000e-04
-5.645751953125000000e-03
-9.918212890625000000e-03
-1.495361328125000000e-02
-2.014160156250000000e-02
-2.517700195312500000e-02
-2.944946289062500000e-02
-3.387451171875000000e-02
-3.753662109375000000e-02
-4.119873046875000000e-02
-4.501342773437500000e-02
-4.867553710937500000e-02
-5.187988281250000000e-02
-5.447387695312500000e-02
-5.676269531250000000e-02
-5.950927734375000000e-02
-6.134033203125000000e-02
-6.240844726562500000e-02
-6.423950195312500000e-02
-6.622314453125000000e-02
-6.729125976562500000e-02
-6.896972656250000000e-02
-7.110595703125000000e-02
-7.385253906250000000e-02
-7.614135742187500000e-02
-7.797241210937500000e-02
-7.934570312500000000e-02
-8.148193359375000000e-02
-8.377075195312500000e-02
-8.621215820312500000e-02
-8.880615234375000000e-02
-9.262084960937500000e-02
-9.552001953125000000e-02
-9.780883789062500000e-02
-1.007080078125000000e-01
-1.039123535156250000e-01
-1.078796386718750000e-01
-1.121520996093750000e-01
-1.155090332031250000e-01
-1.191711425781250000e-01
-1.228332519531250000e-01
-1.268005371093750000e-01
-1.296997070312500000e-01
-1.330566406250000000e-01
-1.364135742187500000e-01
-1.393127441406250000e-01
-1.416015625000000000e-01
-1.445007324218750000e-01
-1.464843750000000000e-01
-1.487731933593750000e-01
-1.499938964843750000e-01
-1.513671875000000000e-01
-1.519775390625000000e-01
-1.522827148437500000e-01
-1.524353027343750000e-01
-1.542663574218750000e-01
-1.545715332031250000e-01
-1.547241210937500000e-01
-1.550292968750000000e-01
-1.559448242187500000e-01
-1.571655273437500000e-01
-1.570129394531250000e-01
-1.574707031250000000e-01
-1.586914062500000000e-01
-1.594543457031250000e-01
-1.589965820312500000e-01
-1.599121093750000000e-01
-1.609802246093750000e-01
-1.620483398437500000e-01
-1.637268066406250000e-01
-1.646423339843750000e-01
-1.669311523437500000e-01
-1.690673828125000000e-01
-1.705932617187500000e-01
-1.722717285156250000e-01
-1.739501953125000000e-01
-1.762390136718750000e-01
-1.785278320312500000e-01
-1.805114746093750000e-01
-1.817321777343750000e-01
-1.829528808593750000e-01
-1.835632324218750000e-01
-1.840209960937500000e-01
-1.858520507812500000e-01
-1.863098144531250000e-01
-1.860046386718750000e-01
-1.846313476562500000e-01
-1.838684082031250000e-01
-1.840209960937500000e-01
-1.840209960937500000e-01
-1.831054687500000000e-01
-1.821899414062500000e-01
-1.817321777343750000e-01
-1.812744140625000000e-01
-1.815795898437500000e-01
-1.814270019531250000e-01
-1.811218261718750000e-01
-1.799011230468750000e-01
-1.792907714843750000e-01
-1.791381835937500000e-01
-1.792907714843750000e-01
-1.792907714843750000e-01
-1.789855957031250000e-01
-1.791381835937500000e-01
-1.791381835937500000e-01
-1.788330078125000000e-01
-1.788330078125000000e-01
-1.797485351562500000e-01
-1.809692382812500000e-01
-1.814270019531250000e-01
-1.812744140625000000e-01
-1.817321777343750000e-01
-1.828002929687500000e-01
-1.835632324218750000e-01
-1.837158203125000000e-01
-1.841735839843750000e-01
-1.853942871093750000e-01
-1.860046386718750000e-01
-1.858520507812500000e-01
-1.846313476562500000e-01
-1.838684082031250000e-01
-1.831054687500000000e-01
-1.815795898437500000e-01
-1.795959472656250000e-01
-1.788330078125000000e-01
-1.771545410156250000e-01
-1.750183105468750000e-01
-1.739501953125000000e-01
-1.721191406250000000e-01
-1.698303222656250000e-01
-1.690673828125000000e-01
-1.670837402343750000e-01
-1.652526855468750000e-01
-1.641845703125000000e-01
-1.628112792968750000e-01
-1.622009277343750000e-01
-1.611328125000000000e-01
-1.602172851562500000e-01
-1.591491699218750000e-01
-1.576232910156250000e-01
-1.571655273437500000e-01
-1.570129394531250000e-01
-1.571655273437500000e-01
-1.571655273437500000e-01
-1.573181152343750000e-01
-1.570129394531250000e-01
-1.574707031250000000e-01
-1.588439941406250000e-01
-1.593017578125000000e-01
-1.591491699218750000e-01
-1.596069335937500000e-01
-1.599121093750000000e-01
-1.612854003906250000e-01
-1.620483398437500000e-01
-1.614379882812500000e-01
-1.602172851562500000e-01
-1.597595214843750000e-01
-1.589965820312500000e-01
-1.574707031250000000e-01
-1.568603515625000000e-01
-1.554870605468750000e-01
-1.541137695312500000e-01
-1.522827148437500000e-01
-1.509094238281250000e-01
-1.495361328125000000e-01
-1.477050781250000000e-01
-1.454162597656250000e-01
-1.445007324218750000e-01
-1.434326171875000000e-01
-1.422119140625000000e-01
-1.408386230468750000e-01
-1.391601562500000000e-01
-1.382446289062500000e-01
-1.379394531250000000e-01
-1.373291015625000000e-01
-1.368713378906250000e-01
-1.356506347656250000e-01
-1.353454589843750000e-01
-1.348876953125000000e-01
-1.351928710937500000e-01
-1.351928710937500000e-01
-1.354980468750000000e-01
-1.367187500000000000e-01
-1.374816894531250000e-01
-1.376342773437500000e-01
-1.379394531250000000e-01
-1.377868652343750000e-01
-1.377868652343750000e-01
-1.374816894531250000e-01
-1.374816894531250000e-01
-1.376342773437500000e-01
-1.373291015625000000e-01
-1.361083984375000000e-01
-1.348876953125000000e-01
-1.325988769531250000e-01
-1.310729980468750000e-01
-1.296997070312500000e-01
-1.278686523437500000e-01
-1.254272460937500000e-01
-1.235961914062500000e-01
-1.223754882812500000e-01
-1.206970214843750000e-01
-1.188659667968750000e-01
-1.177978515625000000e-01
-1.165771484375000000e-01
-1.155090332031250000e-01
-1.152038574218750000e-01
-1.139831542968750000e-01
-1.133728027343750000e-01
-1.130676269531250000e-01
-1.124572753906250000e-01
-1.113891601562500000e-01
-1.109313964843750000e-01
-1.109313964843750000e-01
-1.109313964843750000e-01
-1.112365722656250000e-01
-1.126098632812500000e-01
-1.129150390625000000e-01
-1.130676269531250000e-01
-1.132202148437500000e-01
-1.130676269531250000e-01
-1.130676269531250000e-01
-1.133728027343750000e-01
-1.130676269531250000e-01
-1.133728027343750000e-01
-1.130676269531250000e-01
-1.127624511718750000e-01
-1.127624511718750000e-01
-1.109313964843750000e-01
-1.094055175781250000e-01
-1.080322265625000000e-01
-1.060485839843750000e-01
-1.039123535156250000e-01
-1.016235351562500000e-01
-9.902954101562500000e-02
-9.658813476562500000e-02
-9.460449218750000000e-02
-9.338378906250000000e-02
-9.170532226562500000e-02
-8.987426757812500000e-02
-8.926391601562500000e-02
-8.804321289062500000e-02
-8.743286132812500000e-02
-8.682250976562500000e-02
-8.590698242187500000e-02
-8.483886718750000000e-02
-8.422851562500000000e-02
-8.422851562500000000e-02
-8.377075195312500000e-02
-8.407592773437500000e-02
-8.407592773437500000e-02
-8.392333984375000000e-02
-8.453369140625000000e-02
-8.560180664062500000e-02
-8.666992187500000000e-02
-8.834838867187500000e-02
-8.865356445312500000e-02
-8.895874023437500000e-02
-8.956909179687500000e-02
-9.063720703125000000e-02
-9.140014648437500000e-02
-9.078979492187500000e-02
-9.094238281250000000e-02
-8.941650390625000000e-02
-8.850097656250000000e-02
-8.712768554687500000e-02
-8.590698242187500000e-02
-8.483886718750000000e-02
-8.361816406250000000e-02
-8.148193359375000000e-02
-7.995605468750000000e-02
-7.888793945312500000e-02
-7.736206054687500000e-02
-7.659912109375000000e-02
-7.492065429687500000e-02
-7.446289062500000000e-02
-7.369995117187500000e-02
-7.232666015625000000e-02
-7.217407226562500000e-02
-7.125854492187500000e-02
-7.034301757812500000e-02
-6.927490234375000000e-02
-6.759643554687500000e-02
-6.729125976562500000e-02
-6.698608398437500000e-02
-6.668090820312500000e-02
-6.500244140625000000e-02
-6.515502929687500000e-02
-6.622314453125000000e-02
-6.668090820312500000e-02
-6.668090820312500000e-02
-6.683349609375000000e-02
-6.759643554687500000e-02
-6.866455078125000000e-02
-6.927490234375000000e-02
-6.912231445312500000e-02
-6.912231445312500000e-02
-6.912231445312500000e-02
-6.912231445312500000e-02
-6.729125976562500000e-02
-6.713867187500000000e-02
-6.652832031250000000e-02
-6.454467773437500000e-02
-6.271362304687500000e-02
-6.210327148437500000e-02
-5.981445312500000000e-02
-5.752563476562500000e-02
-5.523681640625000000e-02
-5.447387695312500000e-02
-5.310058593750000000e-02
-5.187988281250000000e-02
-5.081176757812500000e-02
-4.943847656250000000e-02
-4.837036132812500000e-02
-4.776000976562500000e-02
-4.699707031250000000e-02
-4.592895507812500000e-02
-4.516601562500000000e-02
-4.501342773437500000e-02
-4.516601562500000000e-02
-4.516601562500000000e-02
-4.547119140625000000e-02
-4.486083984375000000e-02
-4.577636718750000000e-02
-4.699707031250000000e-02
-4.745483398437500000e-02
-4.882812500000000000e-02
-5.035400390625000000e-02
-5.172729492187500000e-02
-5.218505859375000000e-02
-5.310058593750000000e-02
-5.371093750000000000e-02
-5.462646484375000000e-02
-5.462646484375000000e-02
-5.493164062500000000e-02
-5.508422851562500000e-02
-5.477905273437500000e-02
-5.432128906250000000e-02
-5.310058593750000000e-02
-5.218505859375000000e-02
-5.035400390625000000e-02
-4.959106445312500000e-02
-4.791259765625000000e-02
-4.714965820312500000e-02
-4.592895507812500000e-02
-4.440307617187500000e-02
-4.318237304687500000e-02
-4.226684570312500000e-02
-4.074096679687500000e-02
-4.043579101562500000e-02
-3.952026367187500000e-02
-3.829956054687500000e-02
-3.799438476562500000e-02
-3.738403320312500000e-02
-3.555297851562500000e-02
-3.540039062500000000e-02
-3.555297851562500000e-02
-3.540039062500000000e-02
-3.524780273437500000e-02
-3.555297851562500000e-02
-3.585815429687500000e-02
-3.707885742187500000e-02
-3.799438476562500000e-02
-3.952026367187500000e-02
-3.982543945312500000e-02
-4.058837890625000000e-02
-4.180908203125000000e-02
-4.272460937500000000e-02
-4.409790039062500000e-02
-4.501342773437500000e-02
-4.501342773437500000e-02
-4.516601562500000000e-02
-4.486083984375000000e-02
-4.470825195312500000e-02
-4.333496093750000000e-02
-4.226684570312500000e-02
-4.074096679687500000e-02
-3.997802734375000000e-02
-3.845214843750000000e-02
-3.753662109375000000e-02
-3.585815429687500000e-02
-3.494262695312500000e-02
-3.356933593750000000e-02
-3.250122070312500000e-02
-3.128051757812500000e-02
-3.051757812500000000e-02
-3.036499023437500000e-02
-3.051757812500000000e-02
-3.036499023437500000e-02
-3.005981445312500000e-02
-2.868652343750000000e-02
-2.853393554687500000e-02
-2.792358398437500000e-02
-2.853393554687500000e-02
-2.975463867187500000e-02
-3.021240234375000000e-02
-3.097534179687500000e-02
-3.204345703125000000e-02
-3.295898437500000000e-02
-3.479003906250000000e-02
-3.524780273437500000e-02
-3.540039062500000000e-02
-3.707885742187500000e-02
-3.784179687500000000e-02
-3.982543945312500000e-02
-4.013061523437500000e-02
-4.013061523437500000e-02
-3.967285156250000000e-02
-4.013061523437500000e-02
-4.028320312500000000e-02
-3.952026367187500000e-02
-3.829956054687500000e-02
-3.753662109375000000e-02
-3.585815429687500000e-02
-3.509521484375000000e-02
-3.326416015625000000e-02
-3.295898437500000000e-02
-3.295898437500000000e-02
-3.311157226562500000e-02
-3.295898437500000000e-02
-3.326416015625000000e-02
-3.234863281250000000e-02
-3.097534179687500000e-02
-3.051757812500000000e-02
-3.051757812500000000e-02
-3.051757812500000000e-02
-3.036499023437500000e-02
-3.021240234375000000e-02
-3.021240234375000000e-02
-3.036499023437500000e-02
-3.067016601562500000e-02
-3.219604492187500000e-02
-3.234863281250000000e-02
-3.326416015625000000e-02
-3.463745117187500000e-02
-3.555297851562500000e-02
-3.707885742187500000e-02
-3.814697265625000000e-02
-3.982543945312500000e-02
-3.997802734375000000e-02
-4.058837890625000000e-02
-4.211425781250000000e-02
-4.180908203125000000e-02
-4.226684570312500000e-02
-4.074096679687500000e-02
-3.997802734375000000e-02
-3.997802734375000000e-02
-3.829956054687500000e-02
-3.768920898437500000e-02
-3.585815429687500000e-02
-3.509521484375000000e-02
-3.326416015625000000e-02
-3.250122070312500000e-02
-3.082275390625000000e-02
-3.021240234375000000e-02
-3.021240234375000000e-02
-2.868652343750000000e-02
-2.822875976562500000e-02
-2.807617187500000000e-02
-2.807617187500000000e-02
-2.746582031250000000e-02
-2.609252929687500000e-02
-2.563476562500000000e-02
-2.593994140625000000e-02
-2.624511718750000000e-02
-2.731323242187500000e-02
-2.777099609375000000e-02
-2.822875976562500000e-02
-2.960205078125000000e-02
-3.067016601562500000e-02
-3.204345703125000000e-02
-3.326416015625000000e-02
-3.433227539062500000e-02
-3.509521484375000000e-02
-3.570556640625000000e-02
-3.707885742187500000e-02
-3.738403320312500000e-02
-3.768920898437500000e-02
-3.768920898437500000e-02
-3.784179687500000000e-02
-3.768920898437500000e-02
-3.738403320312500000e-02
-3.631591796875000000e-02
-3.540039062500000000e-02
-3.433227539062500000e-02
-3.372192382812500000e-02
-3.250122070312500000e-02
-3.143310546875000000e-02
-3.067016601562500000e-02
-2.990722656250000000e-02
-2.883911132812500000e-02
-2.822875976562500000e-02
-2.838134765625000000e-02
-2.822875976562500000e-02
-2.716064453125000000e-02
-2.593994140625000000e-02
-2.563476562500000000e-02
-2.578735351562500000e-02
-2.578735351562500000e-02
-2.593994140625000000e-02
-2.761840820312500000e-02
-2.792358398437500000e-02
-2.792358398437500000e-02
-2.868652343750000000e-02
-2.960205078125000000e-02
-3.082275390625000000e-02
-3.234863281250000000e-02
-3.326416015625000000e-02
-3.433227539062500000e-02
-3.540039062500000000e-02
-3.585815429687500000e-02
-3.723144531250000000e-02
-3.723144531250000000e-02
-3.784179687500000000e-02
-3.738403320312500000e-02
-3.723144531250000000e-02
-3.601074218750000000e-02
-3.540039062500000000e-02
-3.494262695312500000e-02
-3.265380859375000000e-02
-3.143310546875000000e-02
-3.005981445312500000e-02
-2.853393554687500000e-02
-2.822875976562500000e-02
-2.716064453125000000e-02
-2.609252929687500000e-02
-2.578735351562500000e-02
-2.532958984375000000e-02
-2.532958984375000000e-02
-2.349853515625000000e-02
-2.365112304687500000e-02
-2.304077148437500000e-02
-2.334594726562500000e-02
-2.319335937500000000e-02
-2.304077148437500000e-02
-2.319335937500000000e-02
-2.319335937500000000e-02
-2.334594726562500000e-02
-2.365112304687500000e-02
-2.502441406250000000e-02
-2.593994140625000000e-02
-2.716064453125000000e-02
-2.838134765625000000e-02
-2.975463867187500000e-02
-3.097534179687500000e-02
-3.219604492187500000e-02
-3.250122070312500000e-02
-3.311157226562500000e-02
-3.448486328125000000e-02
-3.509521484375000000e-02
-3.540039062500000000e-02
-3.479003906250000000e-02
-3.341674804687500000e-02
-3.234863281250000000e-02
-3.067016601562500000e-02
-2.853393554687500000e-02
-2.746582031250000000e-02
-2.624511718750000000e-02
-2.502441406250000000e-02
-2.380371093750000000e-02
-2.288818359375000000e-02
-2.151489257812500000e-02
-2.044677734375000000e-02
-1.922607421875000000e-02
-1.846313476562500000e-02
-1.815795898437500000e-02
-1.831054687500000000e-02
-1.831054687500000000e-02
-1.831054687500000000e-02
-1.831054687500000000e-02
-1.846313476562500000e-02
-1.815795898437500000e-02
-1.846313476562500000e-02
-1.815795898437500000e-02
-1.892089843750000000e-02
-1.998901367187500000e-02
-2.090454101562500000e-02
-2.273559570312500000e-02
-2.334594726562500000e-02
-2.502441406250000000e-02
-2.517700195312500000e-02
-2.639770507812500000e-02
-2.685546875000000000e-02
-2.792358398437500000e-02
-2.777099609375000000e-02
-2.807617187500000000e-02
-2.853393554687500000e-02
-2.777099609375000000e-02
-2.792358398437500000e-02
-2.731323242187500000e-02
-2.639770507812500000e-02
-2.532958984375000000e-02
-2.380371093750000000e-02
-2.273559570312500000e-02
-2.166748046875000000e-02
-2.044677734375000000e-02
-1.922607421875000000e-02
-1.831054687500000000e-02
-1.831054687500000000e-02
-1.770019531250000000e-02
-1.663208007812500000e-02
-1.586914062500000000e-02
-1.602172851562500000e-02
-1.571655273437500000e-02
-1.571655273437500000e-02
-1.571655273437500000e-02
-1.571655273437500000e-02
-1.617431640625000000e-02
-1.571655273437500000e-02
-1.632690429687500000e-02
-1.754760742187500000e-02
-1.861572265625000000e-02
-2.014160156250000000e-02
-2.105712890625000000e-02
-2.120971679687500000e-02
-2.258300781250000000e-02
-2.365112304687500000e-02
-2.487182617187500000e-02
-2.563476562500000000e-02
-2.563476562500000000e-02
-2.593994140625000000e-02
-2.731323242187500000e-02
-2.716064453125000000e-02
-2.655029296875000000e-02
-2.609252929687500000e-02
-2.487182617187500000e-02
-2.395629882812500000e-02
-2.304077148437500000e-02
-2.075195312500000000e-02
-1.937866210937500000e-02
-1.785278320312500000e-02
-1.632690429687500000e-02
-1.525878906250000000e-02
-1.434326171875000000e-02
-1.296997070312500000e-02
-1.190185546875000000e-02
-1.113891601562500000e-02
-1.129150390625000000e-02
-1.022338867187500000e-02
-8.850097656250000000e-03
-8.697509765625000000e-03
-8.697509765625000000e-03
-8.544921875000000000e-03
-8.544921875000000000e-03
-8.544921875000000000e-03
-8.392333984375000000e-03
-8.544921875000000000e-03
-9.002685546875000000e-03
-1.022338867187500000e-02
-1.129150390625000000e-02
-1.251220703125000000e-02
-1.373291015625000000e-02
-1.525878906250000000e-02
-1.602172851562500000e-02
-1.785278320312500000e-02
-1.800537109375000000e-02
-1.800537109375000000e-02
-1.831054687500000000e-02
-1.800537109375000000e-02
-1.831054687500000000e-02
-1.831054687500000000e-02
-1.815795898437500000e-02
-1.602172851562500000e-02
-1.434326171875000000e-02
-1.312255859375000000e-02
-1.159667968750000000e-02
-1.052856445312500000e-02
-9.307861328125000000e-03
-8.087158203125000000e-03
-6.866455078125000000e-03
-6.103515625000000000e-03
-4.272460937500000000e-03
-3.662109375000000000e-03
-3.051757812500000000e-03
-1.831054687500000000e-03
-1.373291015625000000e-03
-1.678466796875000000e-03
-1.068115234375000000e-03
-1.068115234375000000e-03
-1.220703125000000000e-03
-1.068115234375000000e-03
-1.373291015625000000e-03
-1.220703125000000000e-03
-1.831054687500000000e-03
-3.204345703125000000e-03
-4.119873046875000000e-03
-5.645751953125000000e-03
-6.256103515625000000e-03
-8.239746093750000000e-03
-1.007080078125000000e-02
-1.144409179687500000e-02
-1.266479492187500000e-02
-1.312255859375000000e-02
-1.373291015625000000e-02
-1.495361328125000000e-02
-1.495361328125000000e-02
-1.434326171875000000e-02
-1.358032226562500000e-02
-1.312255859375000000e-02
-1.174926757812500000e-02
-1.083374023437500000e-02
-9.460449218750000000e-03
-7.934570312500000000e-03
-7.019042968750000000e-03
-5.645751953125000000e-03
-4.730224609375000000e-03
-3.814697265625000000e-03
-3.051757812500000000e-03
-2.136230468750000000e-03
-1.525878906250000000e-03
-1.373291015625000000e-03
-1.525878906250000000e-03
-7.629394531250000000e-04
4.577636718750000000e-04
1.068115234375000000e-03
1.220703125000000000e-03
7.629394531250000000e-04
-6.103515625000000000e-04
-1.220703125000000000e-03
-1.373291015625000000e-03
-3.051757812500000000e-03
-4.272460937500000000e-03
-6.103515625000000000e-03
-7.629394531250000000e-03
-8.697509765625000000e-03
-1.037597656250000000e-02
-1.083374023437500000e-02
-1.144409179687500000e-02
-1.266479492187500000e-02
-1.342773437500000000e-02
-1.327514648437500000e-02
-1.342773437500000000e-02
-1.373291015625000000e-02
-1.281738281250000000e-02
-1.144409179687500000e-02
-1.083374023437500000e-02
-9.002685546875000000e-03
-8.392333984375000000e-03
-6.866455078125000000e-03
-6.103515625000000000e-03
-5.645751953125000000e-03
-4.119873046875000000e-03
-3.662109375000000000e-03
-3.356933593750000000e-03
-1.831054687500000000e-03
-1.525878906250000000e-03
-1.068115234375000000e-03
-1.068115234375000000e-03
-9.155273437500000000e-04
3.051757812500000000e-04
1.220703125000000000e-03
1.220703125000000000e-03
1.220703125000000000e-03
1.220703125000000000e-03
1.373291015625000000e-03
6.103515625000000000e-04
-7.629394531250000000e-04
-1.678466796875000000e-03
-2.899169921875000000e-03
-3.662109375000000000e-03
-5.187988281250000000e-03
-6.561279296875000000e-03
-8.087158203125000000e-03
-8.697509765625000000e-03
-1.052856445312500000e-02
-1.113891601562500000e-02
-1.083374023437500000e-02
-1.113891601562500000e-02
-1.098632812500000000e-02
-1.068115234375000000e-02
-8.850097656250000000e-03
-8.850097656250000000e-03
-8.544921875000000000e-03
-7.019042968750000000e-03
-5.493164062500000000e-03
-4.577636718750000000e-03
-3.509521484375000000e-03
-1.831054687500000000e-03
-1.220703125000000000e-03
4.577636718750000000e-04
1.068115234375000000e-03
1.525878906250000000e-03
3.051757812500000000e-03
3.204345703125000000e-03
3.356933593750000000e-03
3.356933593750000000e-03
3.814697265625000000e-03
3.356933593750000000e-03
3.814697265625000000e-03
3.509521484375000000e-03
2.899169921875000000e-03
1.983642578125000000e-03
1.525878906250000000e-03
7.629394531250000000e-04
-1.068115234375000000e-03
-2.746582031250000000e-03
-3.814697265625000000e-03
-5.493164062500000000e-03
-6.408691406250000000e-03
-7.934570312500000000e-03
-8.544921875000000000e-03
-1.052856445312500000e-02
-1.083374023437500000e-02
-1.098632812500000000e-02
-1.052856445312500000e-02
-9.307861328125000000e-03
-8.850097656250000000e-03
-8.087158203125000000e-03
-6.713867187500000000e-03
-5.950927734375000000e-03
-4.577636718750000000e-03
-3.356933593750000000e-03
-2.136230468750000000e-03
-1.068115234375000000e-03
-1.373291015625000000e-03
-1.068115234375000000e-03
-9.155273437500000000e-04
4.577636718750000000e-04
1.068115234375000000e-03
1.220703125000000000e-03
1.068115234375000000e-03
1.068115234375000000e-03
1.068115234375000000e-03
1.220703125000000000e-03
1.220703125000000000e-03
1.068115234375000000e-03
7.629394531250000000e-04
-4.577636718750000000e-04
-1.525878906250000000e-03
-3.509521484375000000e-03
-3.662109375000000000e-03
-4.272460937500000000e-03
-5.493164062500000000e-03
-6.103515625000000000e-03
-6.103515625000000000e-03
-6.713867187500000000e-03
-7.781982421875000000e-03
-8.239746093750000000e-03
-8.544921875000000000e-03
-8.697509765625000000e-03
-8.087158203125000000e-03
-6.866455078125000000e-03
-5.493164062500000000e-03
-4.425048828125000000e-03
-3.509521484375000000e-03
-1.831054687500000000e-03
-9.155273437500000000e-04
4.577636718750000000e-04
1.068115234375000000e-03
1.068115234375000000e-03
1.831054687500000000e-03
3.204345703125000000e-03
3.662109375000000000e-03
3.509521484375000000e-03
3.662109375000000000e-03
4.272460937500000000e-03
5.187988281250000000e-03
5.798339843750000000e-03
5.950927734375000000e-03
5.798339843750000000e-03
5.950927734375000000e-03
5.798339843750000000e-03
5.340576171875000000e-03
4.272460937500000000e-03
3.967285156250000000e-03
3.051757812500000000e-03
1.525878906250000000e-03
1.373291015625000000e-03
7.629394531250000000e-04
-7.629394531250000000e-04
-1.220703125000000000e-03
-1.678466796875000000e-03
-3.051757812500000000e-03
-3.509521484375000000e-03
-3.356933593750000000e-03
-3.204345703125000000e-03
-1.983642578125000000e-03
-1.678466796875000000e-03
-1.220703125000000000e-03
4.577636718750000000e-04
1.525878906250000000e-03
2.746582031250000000e-03
3.509521484375000000e-03
4.272460937500000000e-03
5.340576171875000000e-03
5.950927734375000000e-03
5.950927734375000000e-03
6.103515625000000000e-03
6.256103515625000000e-03
6.103515625000000000e-03
6.103515625000000000e-03
5.340576171875000000e-03
4.119873046875000000e-03
3.509521484375000000e-03
3.814697265625000000e-03
3.509521484375000000e-03
3.509521484375000000e-03
2.746582031250000000e-03
1.525878906250000000e-03
1.068115234375000000e-03
-6.103515625000000000e-04
-2.136230468750000000e-03
-3.204345703125000000e-03
-4.272460937500000000e-03
-5.340576171875000000e-03
-6.103515625000000000e-03
-6.408691406250000000e-03
-5.950927734375000000e-03
-6.256103515625000000e-03
-6.408691406250000000e-03
-5.950927734375000000e-03
-5.798339843750000000e-03
-5.493164062500000000e-03
-3.967285156250000000e-03
-2.288818359375000000e-03
-1.068115234375000000e-03
1.220703125000000000e-03
2.593994140625000000e-03
3.662109375000000000e-03
5.493164062500000000e-03
6.103515625000000000e-03
6.561279296875000000e-03
7.781982421875000000e-03
8.087158203125000000e-03
8.392333984375000000e-03
8.544921875000000000e-03
9.002685546875000000e-03
9.918212890625000000e-03
1.098632812500000000e-02
1.098632812500000000e-02
1.098632812500000000e-02
1.159667968750000000e-02
1.083374023437500000e-02
1.037597656250000000e-02
9.002685546875000000e-03
8.239746093750000000e-03
7.934570312500000000e-03
6.561279296875000000e-03
5.493164062500000000e-03
4.272460937500000000e-03
2.899169921875000000e-03
2.136230468750000000e-03
1.373291015625000000e-03
1.068115234375000000e-03
1.068115234375000000e-03
1.068115234375000000e-03
1.220703125000000000e-03
1.831054687500000000e-03
3.204345703125000000e-03
4.119873046875000000e-03
5.035400390625000000e-03
6.256103515625000000e-03
7.629394531250000000e-03
8.697509765625000000e-03
1.037597656250000000e-02
1.098632812500000000e-02
1.266479492187500000e-02
1.281738281250000000e-02
1.327514648437500000e-02
1.296997070312500000e-02
1.312255859375000000e-02
1.327514648437500000e-02
1.296997070312500000e-02
1.312255859375000000e-02
1.312255859375000000e-02
1.281738281250000000e-02
1.174926757812500000e-02
1.113891601562500000e-02
1.098632812500000000e-02
1.037597656250000000e-02
8.697509765625000000e-03
6.713867187500000000e-03
5.798339843750000000e-03
3.814697265625000000e-03
1.525878906250000000e-03
-3.051757812500000000e-04
-1.373291015625000000e-03
-3.051757812500000000e-03
-4.272460937500000000e-03
-5.493164062500000000e-03
-6.561279296875000000e-03
-7.781982421875000000e-03
-8.392333984375000000e-03
-8.697509765625000000e-03
-8.544921875000000000e-03
-8.087158203125000000e-03
-6.713867187500000000e-03
-5.798339843750000000e-03
-4.425048828125000000e-03
-3.204345703125000000e-03
-1.983642578125000000e-03
-1.068115234375000000e-03
3.051757812500000000e-04
1.220703125000000000e-03
9.155273437500000000e-04
1.373291015625000000e-03
3.204345703125000000e-03
3.509521484375000000e-03
3.662109375000000000e-03
3.662109375000000000e-03
3.662109375000000000e-03
3.662109375000000000e-03
3.967285156250000000e-03
3.814697265625000000e-03
3.814697265625000000e-03
3.204345703125000000e-03
2.899169921875000000e-03
1.831054687500000000e-03
1.220703125000000000e-03
3.051757812500000000e-04
-6.103515625000000000e-04
-1.525878906250000000e-03
-2.746582031250000000e-03
-4.272460937500000000e-03
-5.035400390625000000e-03
-6.103515625000000000e-03
-6.103515625000000000e-03
-5.950927734375000000e-03
-5.950927734375000000e-03
-5.645751953125000000e-03
-4.425048828125000000e-03
-3.051757812500000000e-03
-2.136230468750000000e-03
-1.068115234375000000e-03
3.051757812500000000e-04
1.373291015625000000e-03
2.593994140625000000e-03
3.814697265625000000e-03
5.035400390625000000e-03
5.950927734375000000e-03
6.408691406250000000e-03
7.934570312500000000e-03
8.239746093750000000e-03
8.544921875000000000e-03
8.239746093750000000e-03
8.087158203125000000e-03
8.544921875000000000e-03
8.544921875000000000e-03
8.544921875000000000e-03
8.697509765625000000e-03
8.087158203125000000e-03
8.087158203125000000e-03
6.866455078125000000e-03
6.103515625000000000e-03
5.340576171875000000e-03
3.356933593750000000e-03
1.831054687500000000e-03
1.220703125000000000e-03
7.629394531250000000e-04
-9.155273437500000000e-04
-1.831054687500000000e-03
-3.204345703125000000e-03
-3.509521484375000000e-03
-3.814697265625000000e-03
-3.204345703125000000e-03
-2.136230468750000000e-03
-9.155273437500000000e-04
1.525878906250000000e-04
1.525878906250000000e-03
2.899169921875000000e-03
4.119873046875000000e-03
5.340576171875000000e-03
6.256103515625000000e-03
7.629394531250000000e-03
8.392333984375000000e-03
8.850097656250000000e-03
1.022338867187500000e-02
1.022338867187500000e-02
1.113891601562500000e-02
1.113891601562500000e-02
1.129150390625000000e-02
1.296997070312500000e-02
1.327514648437500000e-02
1.342773437500000000e-02
1.327514648437500000e-02
1.342773437500000000e-02
1.296997070312500000e-02
1.174926757812500000e-02
1.129150390625000000e-02
1.052856445312500000e-02
9.307861328125000000e-03
8.087158203125000000e-03
6.713867187500000000e-03
5.645751953125000000e-03
3.967285156250000000e-03
2.899169921875000000e-03
1.831054687500000000e-03
7.629394531250000000e-04
-4.577636718750000000e-04
-1.220703125000000000e-03
-1.373291015625000000e-03
-1.220703125000000000e-03
-7.629394531250000000e-04
6.103515625000000000e-04
1.678466796875000000e-03
2.746582031250000000e-03
3.814697265625000000e-03
5.340576171875000000e-03
6.256103515625000000e-03
7.781982421875000000e-03
8.239746093750000000e-03
9.002685546875000000e-03
1.037597656250000000e-02
1.068115234375000000e-02
1.098632812500000000e-02
1.129150390625000000e-02
1.113891601562500000e-02
1.098632812500000000e-02
1.068115234375000000e-02
1.098632812500000000e-02
1.113891601562500000e-02
1.068115234375000000e-02
1.037597656250000000e-02
9.307861328125000000e-03
8.087158203125000000e-03
6.561279296875000000e-03
4.272460937500000000e-03
3.356933593750000000e-03
1.373291015625000000e-03
-4.577636718750000000e-04
-1.678466796875000000e-03
-2.899169921875000000e-03
-3.814697265625000000e-03
-5.493164062500000000e-03
-6.103515625000000000e-03
-6.408691406250000000e-03
-6.103515625000000000e-03
-6.256103515625000000e-03
-5.493164062500000000e-03
-4.425048828125000000e-03
-3.356933593750000000e-03
-1.983642578125000000e-03
-9.155273437500000000e-04
9.155273437500000000e-04
2.899169921875000000e-03
3.967285156250000000e-03
5.340576171875000000e-03
5.950927734375000000e-03
6.713867187500000000e-03
8.087158203125000000e-03
8.239746093750000000e-03
9.155273437500000000e-03
1.007080078125000000e-02
1.068115234375000000e-02
1.113891601562500000e-02
1.251220703125000000e-02
1.296997070312500000e-02
1.327514648437500000e-02
1.327514648437500000e-02
1.296997070312500000e-02
1.327514648437500000e-02
1.312255859375000000e-02
1.296997070312500000e-02
1.129150390625000000e-02
1.052856445312500000e-02
9.307861328125000000e-03
7.934570312500000000e-03
6.561279296875000000e-03
5.645751953125000000e-03
4.272460937500000000e-03
3.662109375000000000e-03
3.814697265625000000e-03
3.356933593750000000e-03
1.525878906250000000e-03
1.831054687500000000e-03
2.899169921875000000e-03
3.509521484375000000e-03
3.967285156250000000e-03
3.662109375000000000e-03
3.814697265625000000e-03
3.204345703125000000e-03
3.814697265625000000e-03
3.662109375000000000e-03
3.509521484375000000e-03
3.509521484375000000e-03
3.662109375000000000e-03
3.356933593750000000e-03
3.509521484375000000e-03
3.509521484375000000e-03
3.509521484375000000e-03
3.509521484375000000e-03
4.119873046875000000e-03
3.814697265625000000e-03
2.899169921875000000e-03
1.983642578125000000e-03
1.068115234375000000e-03
4.577636718750000000e-04
-4.577636718750000000e-04
-1.678466796875000000e-03
-2.441406250000000000e-03
-4.119873046875000000e-03
-5.340576171875000000e-03
-6.103515625000000000e-03
-6.561279296875000000e-03
-7.934570312500000000e-03
-8.544921875000000000e-03
-1.052856445312500000e-02
-1.068115234375000000e-02
-1.113891601562500000e-02
-1.113891601562500000e-02
-1.113891601562500000e-02
-1.083374023437500000e-02
-9.460449218750000000e-03
-8.697509765625000000e-03
-8.544921875000000000e-03
-8.544921875000000000e-03
-7.934570312500000000e-03
-7.019042968750000000e-03
-6.408691406250000000e-03
-6.256103515625000000e-03
-6.561279296875000000e-03
-8.087158203125000000e-03
-8.392333984375000000e-03
-8.850097656250000000e-03
-8.697509765625000000e-03
-8.544921875000000000e-03
-8.239746093750000000e-03
-8.544921875000000000e-03
-8.544921875000000000e-03
-8.544921875000000000e-03
-8.544921875000000000e-03
-8.544921875000000000e-03
-9.002685546875000000e-03
-1.068115234375000000e-02
-1.068115234375000000e-02
-1.098632812500000000e-02
-1.098632812500000000e-02
-1.083374023437500000e-02
-1.098632812500000000e-02
-1.098632812500000000e-02
-1.098632812500000000e-02
-1.113891601562500000e-02
-1.022338867187500000e-02
-9.307861328125000000e-03
-8.239746093750000000e-03
-6.866455078125000000e-03
-5.950927734375000000e-03
-3.967285156250000000e-03
-2.136230468750000000e-03
-1.068115234375000000e-03
6.103515625000000000e-04
1.678466796875000000e-03
3.051757812500000000e-03
3.967285156250000000e-03
5.493164062500000000e-03
5.645751953125000000e-03
6.256103515625000000e-03
8.239746093750000000e-03
8.239746093750000000e-03
8.239746093750000000e-03
8.544921875000000000e-03
8.392333984375000000e-03
8.544921875000000000e-03
8.392333984375000000e-03
8.697509765625000000e-03
8.392333984375000000e-03
8.239746093750000000e-03
8.392333984375000000e-03
8.239746093750000000e-03
7.934570312500000000e-03
6.561279296875000000e-03
5.493164062500000000e-03
4.577636718750000000e-03
3.814697265625000000e-03
3.204345703125000000e-03
1.373291015625000000e-03
1.525878906250000000e-03
7.629394531250000000e-04
-9.155273437500000000e-04
-1.220703125000000000e-03
-6.103515625000000000e-04
7.629394531250000000e-04
1.220703125000000000e-03
1.525878906250000000e-03
3.509521484375000000e-03
5.187988281250000000e-03
6.408691406250000000e-03
8.544921875000000000e-03
1.022338867187500000e-02
1.098632812500000000e-02
1.129150390625000000e-02
1.251220703125000000e-02
1.312255859375000000e-02
1.342773437500000000e-02
1.495361328125000000e-02
1.556396484375000000e-02
1.556396484375000000e-02
1.586914062500000000e-02
1.556396484375000000e-02
1.586914062500000000e-02
1.571655273437500000e-02
1.571655273437500000e-02
1.571655273437500000e-02
1.525878906250000000e-02
1.388549804687500000e-02
1.373291015625000000e-02
1.266479492187500000e-02
1.159667968750000000e-02
1.052856445312500000e-02
9.460449218750000000e-03
8.544921875000000000e-03
8.239746093750000000e-03
6.866455078125000000e-03
6.561279296875000000e-03
5.950927734375000000e-03
5.950927734375000000e-03
5.950927734375000000e-03
6.256103515625000000e-03
6.256103515625000000e-03
7.324218750000000000e-03
8.087158203125000000e-03
8.850097656250000000e-03
1.037597656250000000e-02
1.144409179687500000e-02
1.266479492187500000e-02
1.296997070312500000e-02
1.342773437500000000e-02
1.403808593750000000e-02
1.510620117187500000e-02
1.571655273437500000e-02
1.556396484375000000e-02
1.586914062500000000e-02
1.556396484375000000e-02
1.602172851562500000e-02
1.510620117187500000e-02
1.419067382812500000e-02
1.327514648437500000e-02
1.312255859375000000e-02
1.266479492187500000e-02
1.174926757812500000e-02
1.037597656250000000e-02
9.155273437500000000e-03
8.087158203125000000e-03
5.950927734375000000e-03
4.272460937500000000e-03
3.204345703125000000e-03
1.678466796875000000e-03
7.629394531250000000e-04
-3.051757812500000000e-04
-9.155273437500000000e-04
-9.155273437500000000e-04
-1.373291015625000000e-03
-9.155273437500000000e-04
-9.155273437500000000e-04
-7.629394531250000000e-04
1.068115234375000000e-03
2.746582031250000000e-03
3.662109375000000000e-03
5.340576171875000000e-03
6.408691406250000000e-03
7.629394531250000000e-03
8.850097656250000000e-03
1.007080078125000000e-02
1.083374023437500000e-02
1.159667968750000000e-02
1.266479492187500000e-02
1.281738281250000000e-02
1.342773437500000000e-02
1.312255859375000000e-02
1.327514648437500000e-02
1.327514648437500000e-02
1.296997070312500000e-02
1.144409179687500000e-02
1.068115234375000000e-02
1.052856445312500000e-02
8.544921875000000000e-03
6.256103515625000000e-03
3.967285156250000000e-03
1.831054687500000000e-03
-1.373291015625000000e-03
-4.882812500000000000e-03
-7.934570312500000000e-03
-1.083374023437500000e-02
-1.312255859375000000e-02
-1.571655273437500000e-02
-1.815795898437500000e-02
-2.044677734375000000e-02
-2.273559570312500000e-02
-2.487182617187500000e-02
-2.593994140625000000e-02
-2.685546875000000000e-02
-2.777099609375000000e-02
-2.746582031250000000e-02
-2.624511718750000000e-02
-2.517700195312500000e-02
-2.410888671875000000e-02
-2.243041992187500000e-02
-1.892089843750000000e-02
-1.571655273437500000e-02
-1.159667968750000000e-02
-5.950927734375000000e-03
3.051757812500000000e-04
7.781982421875000000e-03
1.495361328125000000e-02
2.426147460937500000e-02
3.356933593750000000e-02
4.333496093750000000e-02
5.264282226562500000e-02
6.240844726562500000e-02
7.232666015625000000e-02
8.178710937500000000e-02
9.048461914062500000e-02
9.689331054687500000e-02
1.020812988281250000e-01
1.043701171875000000e-01
1.065063476562500000e-01
1.049804687500000000e-01
1.002502441406250000e-01
9.368896484375000000e-02
8.422851562500000000e-02
7.247924804687500000e-02
5.783081054687500000e-02
3.982543945312500000e-02
1.861572265625000000e-02
-3.814697265625000000e-03
-2.914428710937500000e-02
-5.844116210937500000e-02
-8.972167968750000000e-02
-1.234436035156250000e-01
-1.593017578125000000e-01
-1.979064941406250000e-01
-2.388000488281250000e-01
-2.819824218750000000e-01
-3.280639648437500000e-01
-3.747558593750000000e-01
-4.241943359375000000e-01
-4.743957519531250000e-01
-5.249023437500000000e-01
-5.758666992187500000e-01
-6.263732910156250000e-01
-6.777954101562500000e-01
-7.284545898437500000e-01
-7.781982421875000000e-01
-8.268737792968750000e-01
-8.752441406250000000e-01
-9.222412109375000000e-01
-9.683227539062500000e-01
-1.012268066406250000e+00
-1.054687500000000000e+00
-1.095275878906250000e+00
-1.132507324218750000e+00
-1.167144775390625000e+00
-1.199340820312500000e+00
-1.228179931640625000e+00
-1.253662109375000000e+00
-1.275939941406250000e+00
-1.293182373046875000e+00
-1.306915283203125000e+00
-1.316528320312500000e+00
-1.322784423828125000e+00
-1.324462890625000000e+00
-1.321716308593750000e+00
-1.314544677734375000e+00
-1.302795410156250000e+00
-1.286468505859375000e+00
-1.265563964843750000e+00
-1.239166259765625000e+00
-1.209259033203125000e+00
-1.175231933593750000e+00
-1.138763427734375000e+00
-1.098632812500000000e+00
-1.055145263671875000e+00
-1.009979248046875000e+00
-9.634399414062500000e-01
-9.149169921875000000e-01
-8.644104003906250000e-01
-8.135986328125000000e-01
-7.617187500000000000e-01
-7.086181640625000000e-01
-6.559753417968750000e-01
-6.034851074218750000e-01
-5.511474609375000000e-01
-4.994201660156250000e-01
-4.501342773437500000e-01
-4.013061523437500000e-01
-3.533935546875000000e-01
-3.079223632812500000e-01
-2.641296386718750000e-01
-2.226257324218750000e-01
-1.832580566406250000e-01
-1.463317871093750000e-01
-1.115417480468750000e-01
-7.766723632812500000e-02
-4.776000976562500000e-02
-1.861572265625000000e-02
9.155273437500000000e-03
3.555297851562500000e-02
5.950927734375000000e-02
8.193969726562500000e-02
1.040649414062500000e-01
1.252746582031250000e-01
1.441955566406250000e-01
1.623535156250000000e-01
1.783752441406250000e-01
1.933288574218750000e-01
2.070617675781250000e-01
2.201843261718750000e-01
2.322387695312500000e-01
2.426147460937500000e-01
2.525329589843750000e-01
2.615356445312500000e-01
2.696228027343750000e-01
2.764892578125000000e-01
2.822875976562500000e-01
2.891540527343750000e-01
2.944946289062500000e-01
2.992248535156250000e-01
3.036499023437500000e-01
3.076171875000000000e-01
3.112792968750000000e-01
3.143310546875000000e-01
3.163146972656250000e-01
3.175354003906250000e-01
3.192138671875000000e-01
3.210449218750000000e-01
3.224182128906250000e-01
3.244018554687500000e-01
3.265380859375000000e-01
3.292846679687500000e-01
3.315734863281250000e-01
3.340148925781250000e-01
3.370666503906250000e-01
3.390502929687500000e-01
3.430175781250000000e-01
3.459167480468750000e-01
3.489685058593750000e-01
3.527832031250000000e-01
3.556823730468750000e-01
3.584289550781250000e-01
3.608703613281250000e-01
3.634643554687500000e-01
3.659057617187500000e-01
3.674316406250000000e-01
3.689575195312500000e-01
3.698730468750000000e-01
3.704833984375000000e-01
3.706359863281250000e-01
3.707885742187500000e-01
3.710937500000000000e-01
3.707885742187500000e-01
3.712463378906250000e-01
3.712463378906250000e-01
3.700256347656250000e-01
3.694152832031250000e-01
3.680419921875000000e-01
3.665161132812500000e-01
3.657531738281250000e-01
3.639221191406250000e-01
3.617858886718750000e-01
3.588867187500000000e-01
3.565979003906250000e-01
3.544616699218750000e-01
3.523254394531250000e-01
3.509521484375000000e-01
3.489685058593750000e-01
3.465270996093750000e-01
3.442382812500000000e-01
3.424072265625000000e-01
3.411865234375000000e-01
3.393554687500000000e-01
3.376770019531250000e-01
3.372192382812500000e-01
3.361511230468750000e-01
3.349304199218750000e-01
3.344726562500000000e-01
3.335571289062500000e-01
3.329467773437500000e-01
3.317260742187500000e-01
3.312683105468750000e-01
3.298950195312500000e-01
3.286743164062500000e-01
3.269958496093750000e-01
3.253173828125000000e-01
3.240966796875000000e-01
3.221130371093750000e-01
3.204345703125000000e-01
3.198242187500000000e-01
3.172302246093750000e-01
3.157043457031250000e-01
3.146362304687500000e-01
3.125000000000000000e-01
3.097534179687500000e-01
3.059387207031250000e-01
3.034973144531250000e-01
3.005981445312500000e-01
2.981567382812500000e-01
2.957153320312500000e-01
2.934265136718750000e-01
2.909851074218750000e-01
2.886962890625000000e-01
2.859497070312500000e-01
2.833557128906250000e-01
2.809143066406250000e-01
2.790832519531250000e-01
2.780151367187500000e-01
2.763366699218750000e-01
2.758789062500000000e-01
2.758789062500000000e-01
2.754211425781250000e-01
2.740478515625000000e-01
2.737426757812500000e-01
2.735900878906250000e-01
2.726745605468750000e-01
2.716064453125000000e-01
2.705383300781250000e-01
2.693176269531250000e-01
2.680969238281250000e-01
2.668762207031250000e-01
2.655029296875000000e-01
2.644348144531250000e-01
2.632141113281250000e-01
2.619934082031250000e-01
2.606201171875000000e-01
2.590942382812500000e-01
2.568054199218750000e-01
2.560424804687500000e-01
2.542114257812500000e-01
2.520751953125000000e-01
2.493286132812500000e-01
2.465820312500000000e-01
2.444458007812500000e-01
2.418518066406250000e-01
2.397155761718750000e-01
2.371215820312500000e-01
2.346801757812500000e-01
2.325439453125000000e-01
2.299499511718750000e-01
2.279663085937500000e-01
2.270507812500000000e-01
2.255249023437500000e-01
2.243041992187500000e-01
2.230834960937500000e-01
2.224731445312500000e-01
2.223205566406250000e-01
2.223205566406250000e-01
2.217102050781250000e-01
2.207946777343750000e-01
2.198791503906250000e-01
2.198791503906250000e-01
2.200317382812500000e-01
2.192687988281250000e-01
2.178955078125000000e-01
2.175903320312500000e-01
2.168273925781250000e-01
2.157592773437500000e-01
2.151489257812500000e-01
2.148437500000000000e-01
2.145385742187500000e-01
2.131652832031250000e-01
2.127075195312500000e-01
2.117919921875000000e-01
2.107238769531250000e-01
2.095031738281250000e-01
2.078247070312500000e-01
2.055358886718750000e-01
2.027893066406250000e-01
2.005004882812500000e-01
1.982116699218750000e-01
1.959228515625000000e-01
1.950073242187500000e-01
1.930236816406250000e-01
1.908874511718750000e-01
1.882934570312500000e-01
1.864624023437500000e-01
1.855468750000000000e-01
1.840209960937500000e-01
1.835632324218750000e-01
1.834106445312500000e-01
1.831054687500000000e-01
1.831054687500000000e-01
1.834106445312500000e-01
1.832580566406250000e-01
1.832580566406250000e-01
1.837158203125000000e-01
1.850891113281250000e-01
1.853942871093750000e-01
1.856994628906250000e-01
1.858520507812500000e-01
1.853942871093750000e-01
1.838684082031250000e-01
1.834106445312500000e-01
1.835632324218750000e-01
1.834106445312500000e-01
1.824951171875000000e-01
1.812744140625000000e-01
1.812744140625000000e-01
1.803588867187500000e-01
1.791381835937500000e-01
1.776123046875000000e-01
1.762390136718750000e-01
1.736450195312500000e-01
1.713562011718750000e-01
1.689147949218750000e-01
1.661682128906250000e-01
1.644897460937500000e-01
1.632690429687500000e-01
1.615905761718750000e-01
1.591491699218750000e-01
1.573181152343750000e-01
1.559448242187500000e-01
1.548767089843750000e-01
1.544189453125000000e-01
1.541137695312500000e-01
1.539611816406250000e-01
1.539611816406250000e-01
1.541137695312500000e-01
1.541137695312500000e-01
1.539611816406250000e-01
1.545715332031250000e-01
1.557922363281250000e-01
1.564025878906250000e-01
1.560974121093750000e-01
1.567077636718750000e-01
1.560974121093750000e-01
1.568603515625000000e-01
1.562500000000000000e-01
1.564025878906250000e-01
1.564025878906250000e-01
1.565551757812500000e-01
1.565551757812500000e-01
1.562500000000000000e-01
1.562500000000000000e-01
1.548767089843750000e-01
1.536560058593750000e-01
1.524353027343750000e-01
1.510620117187500000e-01
1.495361328125000000e-01
1.467895507812500000e-01
1.449584960937500000e-01
1.422119140625000000e-01
1.400756835937500000e-01
1.391601562500000000e-01
1.371765136718750000e-01
1.348876953125000000e-01
1.332092285156250000e-01
1.318359375000000000e-01
1.303100585937500000e-01
1.296997070312500000e-01
1.278686523437500000e-01
1.274108886718750000e-01
1.274108886718750000e-01
1.278686523437500000e-01
1.289367675781250000e-01
1.292419433593750000e-01
1.295471191406250000e-01
1.303100585937500000e-01
1.315307617187500000e-01
1.319885253906250000e-01
1.325988769531250000e-01
1.339721679687500000e-01
1.345825195312500000e-01
1.345825195312500000e-01
1.344299316406250000e-01
1.341247558593750000e-01
1.344299316406250000e-01
1.345825195312500000e-01
1.344299316406250000e-01
1.347351074218750000e-01
1.344299316406250000e-01
1.345825195312500000e-01
1.342773437500000000e-01
1.329040527343750000e-01
1.315307617187500000e-01
1.303100585937500000e-01
1.293945312500000000e-01
1.275634765625000000e-01
1.264953613281250000e-01
1.255798339843750000e-01
1.246643066406250000e-01
1.229858398437500000e-01
1.220703125000000000e-01
1.205444335937500000e-01
1.203918457031250000e-01
1.199340820312500000e-01
1.199340820312500000e-01
1.205444335937500000e-01
1.217651367187500000e-01
1.229858398437500000e-01
1.239013671875000000e-01
1.255798339843750000e-01
1.264953613281250000e-01
1.274108886718750000e-01
1.289367675781250000e-01
1.301574707031250000e-01
1.313781738281250000e-01
1.318359375000000000e-01
1.325988769531250000e-01
1.339721679687500000e-01
1.341247558593750000e-01
1.344299316406250000e-01
1.351928710937500000e-01
1.364135742187500000e-01
1.367187500000000000e-01
1.370239257812500000e-01
1.370239257812500000e-01
1.370239257812500000e-01
1.368713378906250000e-01
1.370239257812500000e-01
1.367187500000000000e-01
1.353454589843750000e-01
1.339721679687500000e-01
1.327514648437500000e-01
1.319885253906250000e-01
1.303100585937500000e-01
1.295471191406250000e-01
1.278686523437500000e-01
1.269531250000000000e-01
1.254272460937500000e-01
1.246643066406250000e-01
1.249694824218750000e-01
1.246643066406250000e-01
1.248168945312500000e-01
1.255798339843750000e-01
1.269531250000000000e-01
1.280212402343750000e-01
1.287841796875000000e-01
1.303100585937500000e-01
1.315307617187500000e-01
1.325988769531250000e-01
1.347351074218750000e-01
1.364135742187500000e-01
1.377868652343750000e-01
1.388549804687500000e-01
1.397705078125000000e-01
1.409912109375000000e-01
1.416015625000000000e-01
1.425170898437500000e-01
1.434326171875000000e-01
1.438903808593750000e-01
1.445007324218750000e-01
1.460266113281250000e-01
1.464843750000000000e-01
1.463317871093750000e-01
1.449584960937500000e-01
1.446533203125000000e-01
1.437377929687500000e-01
1.423645019531250000e-01
1.412963867187500000e-01
1.403808593750000000e-01
1.393127441406250000e-01
1.377868652343750000e-01
1.367187500000000000e-01
1.351928710937500000e-01
1.341247558593750000e-01
1.327514648437500000e-01
1.325988769531250000e-01
1.325988769531250000e-01
1.321411132812500000e-01
1.322937011718750000e-01
1.322937011718750000e-01
1.322937011718750000e-01
1.322937011718750000e-01
1.327514648437500000e-01
1.338195800781250000e-01
1.341247558593750000e-01
1.344299316406250000e-01
1.341247558593750000e-01
1.330566406250000000e-01
1.321411132812500000e-01
1.322937011718750000e-01
1.321411132812500000e-01
1.322937011718750000e-01
1.322937011718750000e-01
1.319885253906250000e-01
1.319885253906250000e-01
1.318359375000000000e-01
1.321411132812500000e-01
1.313781738281250000e-01
1.304626464843750000e-01
1.295471191406250000e-01
1.278686523437500000e-01
1.268005371093750000e-01
1.257324218750000000e-01
1.243591308593750000e-01
1.228332519531250000e-01
1.219177246093750000e-01
1.200866699218750000e-01
1.181030273437500000e-01
1.170349121093750000e-01
1.159667968750000000e-01
1.153564453125000000e-01
1.145935058593750000e-01
1.133728027343750000e-01
1.129150390625000000e-01
1.129150390625000000e-01
1.127624511718750000e-01
1.126098632812500000e-01
1.132202148437500000e-01
1.145935058593750000e-01
1.147460937500000000e-01
1.150512695312500000e-01
1.142883300781250000e-01
1.132202148437500000e-01
1.129150390625000000e-01
1.127624511718750000e-01
1.127624511718750000e-01
1.121520996093750000e-01
1.109313964843750000e-01
1.104736328125000000e-01
1.100158691406250000e-01
1.097106933593750000e-01
1.086425781250000000e-01
1.075744628906250000e-01
1.060485839843750000e-01
1.048278808593750000e-01
1.031494140625000000e-01
1.011657714843750000e-01
9.841918945312500000e-02
9.597778320312500000e-02
9.368896484375000000e-02
9.109497070312500000e-02
8.850097656250000000e-02
8.621215820312500000e-02
8.377075195312500000e-02
8.148193359375000000e-02
7.965087890625000000e-02
7.812500000000000000e-02
7.629394531250000000e-02
7.476806640625000000e-02
7.339477539062500000e-02
7.202148437500000000e-02
7.156372070312500000e-02
7.049560546875000000e-02
6.973266601562500000e-02
6.896972656250000000e-02
6.820678710937500000e-02
6.698608398437500000e-02
6.622314453125000000e-02
6.469726562500000000e-02
6.332397460937500000e-02
6.195068359375000000e-02
5.935668945312500000e-02
5.737304687500000000e-02
5.645751953125000000e-02
5.462646484375000000e-02
5.203247070312500000e-02
4.974365234375000000e-02
4.776000976562500000e-02
4.669189453125000000e-02
4.486083984375000000e-02
4.165649414062500000e-02
3.860473632812500000e-02
3.601074218750000000e-02
3.265380859375000000e-02
2.899169921875000000e-02
2.532958984375000000e-02
2.166748046875000000e-02
1.800537109375000000e-02
1.480102539062500000e-02
1.144409179687500000e-02
8.850097656250000000e-03
5.798339843750000000e-03
2.288818359375000000e-03
-1.068115234375000000e-03
-2.593994140625000000e-03
-4.119873046875000000e-03
-5.798339843750000000e-03
-8.087158203125000000e-03
-1.037597656250000000e-02
-1.129150390625000000e-02
-1.327514648437500000e-02
-1.541137695312500000e-02
-1.800537109375000000e-02
-2.014160156250000000e-02
-2.273559570312500000e-02
-2.532958984375000000e-02
-2.792358398437500000e-02
-2.990722656250000000e-02
-3.250122070312500000e-02
-3.479003906250000000e-02
-3.753662109375000000e-02
-4.013061523437500000e-02
-4.272460937500000000e-02
-4.638671875000000000e-02
-4.943847656250000000e-02
-5.233764648437500000e-02
-5.599975585937500000e-02
-5.996704101562500000e-02
-6.378173828125000000e-02
-6.698608398437500000e-02
-7.125854492187500000e-02
-7.568359375000000000e-02
-7.888793945312500000e-02
-8.285522460937500000e-02
-8.636474609375000000e-02
-9.048461914062500000e-02
-9.323120117187500000e-02
-9.643554687500000000e-02
-9.994506835937500000e-02
-1.022338867187500000e-01
-1.037597656250000000e-01
-1.055908203125000000e-01
-1.074218750000000000e-01
-1.089477539062500000e-01
-1.101684570312500000e-01
-1.109313964843750000e-01
-1.126098632812500000e-01
-1.130676269531250000e-01
-1.141357421875000000e-01
-1.150512695312500000e-01
-1.156616210937500000e-01
-1.161193847656250000e-01
-1.174926757812500000e-01
-1.184082031250000000e-01
-1.197814941406250000e-01
-1.208496093750000000e-01
-1.223754882812500000e-01
-1.231384277343750000e-01
-1.252746582031250000e-01
-1.268005371093750000e-01
-1.283264160156250000e-01
-1.300048828125000000e-01
-1.322937011718750000e-01
-1.348876953125000000e-01
-1.370239257812500000e-01
-1.396179199218750000e-01
-1.429748535156250000e-01
-1.460266113281250000e-01
-1.489257812500000000e-01
-1.515197753906250000e-01
-1.536560058593750000e-01
-1.551818847656250000e-01
-1.568603515625000000e-01
-1.585388183593750000e-01
-1.599121093750000000e-01
-1.611328125000000000e-01
-1.618957519531250000e-01
-1.615905761718750000e-01
-1.599121093750000000e-01
-1.596069335937500000e-01
-1.593017578125000000e-01
-1.586914062500000000e-01
-1.576232910156250000e-01
-1.574707031250000000e-01
-1.570129394531250000e-01
-1.570129394531250000e-01
-1.568603515625000000e-01
-1.568603515625000000e-01
-1.573181152343750000e-01
-1.577758789062500000e-01
-1.586914062500000000e-01
-1.596069335937500000e-01
-1.593017578125000000e-01
-1.600646972656250000e-01
-1.611328125000000000e-01
-1.623535156250000000e-01
-1.635742187500000000e-01
-1.647949218750000000e-01
-1.663208007812500000e-01
-1.670837402343750000e-01
-1.690673828125000000e-01
-1.705932617187500000e-01
-1.721191406250000000e-01
-1.733398437500000000e-01
-1.747131347656250000e-01
-1.762390136718750000e-01
-1.765441894531250000e-01
-1.768493652343750000e-01
-1.783752441406250000e-01
-1.788330078125000000e-01
-1.783752441406250000e-01
-1.777648925781250000e-01
-1.763916015625000000e-01
-1.747131347656250000e-01
-1.739501953125000000e-01
-1.718139648437500000e-01
-1.701354980468750000e-01
-1.689147949218750000e-01
-1.666259765625000000e-01
-1.652526855468750000e-01
-1.641845703125000000e-01
-1.628112792968750000e-01
-1.617431640625000000e-01
-1.602172851562500000e-01
-1.597595214843750000e-01
-1.589965820312500000e-01
-1.577758789062500000e-01
-1.574707031250000000e-01
-1.565551757812500000e-01
-1.550292968750000000e-01
-1.551818847656250000e-01
-1.541137695312500000e-01
-1.531982421875000000e-01
-1.522827148437500000e-01
-1.524353027343750000e-01
-1.525878906250000000e-01
-1.542663574218750000e-01
-1.545715332031250000e-01
-1.548767089843750000e-01
-1.565551757812500000e-01
-1.571655273437500000e-01
-1.570129394531250000e-01
-1.573181152343750000e-01
-1.573181152343750000e-01
-1.570129394531250000e-01
-1.571655273437500000e-01
-1.571655273437500000e-01
-1.567077636718750000e-01
-1.551818847656250000e-01
-1.542663574218750000e-01
-1.531982421875000000e-01
-1.519775390625000000e-01
-1.501464843750000000e-01
-1.478576660156250000e-01
-1.455688476562500000e-01
-1.445007324218750000e-01
-1.425170898437500000e-01
-1.408386230468750000e-01
-1.396179199218750000e-01
-1.377868652343750000e-01
-1.362609863281250000e-01
-1.350402832031250000e-01
-1.330566406250000000e-01
-1.325988769531250000e-01
-1.310729980468750000e-01
-1.307678222656250000e-01
-1.296997070312500000e-01
-1.283264160156250000e-01
-1.280212402343750000e-01
-1.277160644531250000e-01
-1.281738281250000000e-01
-1.280212402343750000e-01
-1.283264160156250000e-01
-1.293945312500000000e-01
-1.303100585937500000e-01
-1.319885253906250000e-01
-1.322937011718750000e-01
-1.333618164062500000e-01
-1.342773437500000000e-01
-1.347351074218750000e-01
-1.353454589843750000e-01
-1.351928710937500000e-01
-1.351928710937500000e-01
-1.344299316406250000e-01
-1.333618164062500000e-01
-1.322937011718750000e-01
-1.307678222656250000e-01
-1.298522949218750000e-01
-1.278686523437500000e-01
-1.252746582031250000e-01
-1.232910156250000000e-01
-1.214599609375000000e-01
-1.199340820312500000e-01
-1.181030273437500000e-01
-1.159667968750000000e-01
-1.139831542968750000e-01
-1.129150390625000000e-01
-1.113891601562500000e-01
-1.103210449218750000e-01
-1.091003417968750000e-01
-1.080322265625000000e-01
-1.063537597656250000e-01
-1.060485839843750000e-01
-1.054382324218750000e-01
-1.042175292968750000e-01
-1.040649414062500000e-01
-1.034545898437500000e-01
-1.040649414062500000e-01
-1.055908203125000000e-01
-1.058959960937500000e-01
-1.057434082031250000e-01
-1.058959960937500000e-01
-1.060485839843750000e-01
-1.066589355468750000e-01
-1.077270507812500000e-01
-1.078796386718750000e-01
-1.081848144531250000e-01
-1.083374023437500000e-01
-1.078796386718750000e-01
-1.065063476562500000e-01
-1.062011718750000000e-01
-1.055908203125000000e-01
-1.037597656250000000e-01
-1.016235351562500000e-01
-1.008605957031250000e-01
-9.902954101562500000e-02
-9.658813476562500000e-02
-9.445190429687500000e-02
-9.292602539062500000e-02
-9.185791015625000000e-02
-9.078979492187500000e-02
-8.895874023437500000e-02
-8.728027343750000000e-02
-8.682250976562500000e-02
-8.590698242187500000e-02
-8.438110351562500000e-02
-8.361816406250000000e-02
-8.239746093750000000e-02
-8.132934570312500000e-02
-7.980346679687500000e-02
-7.904052734375000000e-02
-7.934570312500000000e-02
-7.904052734375000000e-02
-7.919311523437500000e-02
-7.919311523437500000e-02
-7.888793945312500000e-02
-7.965087890625000000e-02
-8.087158203125000000e-02
-8.178710937500000000e-02
-8.117675781250000000e-02
-8.163452148437500000e-02
-8.224487304687500000e-02
-8.346557617187500000e-02
-8.377075195312500000e-02
-8.377075195312500000e-02
-8.224487304687500000e-02
-8.178710937500000000e-02
-8.087158203125000000e-02
-7.904052734375000000e-02
-7.736206054687500000e-02
-7.644653320312500000e-02
-7.492065429687500000e-02
-7.385253906250000000e-02
-7.186889648437500000e-02
-7.019042968750000000e-02
-6.958007812500000000e-02
-6.912231445312500000e-02
-6.713867187500000000e-02
-6.698608398437500000e-02
-6.530761718750000000e-02
-6.484985351562500000e-02
-6.408691406250000000e-02
-6.256103515625000000e-02
-6.195068359375000000e-02
-6.179809570312500000e-02
-6.057739257812500000e-02
-5.996704101562500000e-02
-5.981445312500000000e-02
-5.996704101562500000e-02
-5.981445312500000000e-02
-5.966186523437500000e-02
-5.966186523437500000e-02
-5.981445312500000000e-02
-6.149291992187500000e-02
-6.240844726562500000e-02
-6.378173828125000000e-02
-6.423950195312500000e-02
-6.454467773437500000e-02
-6.439208984375000000e-02
-6.423950195312500000e-02
-6.439208984375000000e-02
-6.439208984375000000e-02
-6.454467773437500000e-02
-6.393432617187500000e-02
-6.271362304687500000e-02
-6.179809570312500000e-02
-6.027221679687500000e-02
-5.935668945312500000e-02
-5.783081054687500000e-02
-5.661010742187500000e-02
-5.538940429687500000e-02
-5.416870117187500000e-02
-5.325317382812500000e-02
-5.218505859375000000e-02
-5.065917968750000000e-02
-5.004882812500000000e-02
-4.943847656250000000e-02
-4.821777343750000000e-02
-4.699707031250000000e-02
-4.577636718750000000e-02
-4.516601562500000000e-02
-4.531860351562500000e-02
-4.516601562500000000e-02
-4.486083984375000000e-02
-4.486083984375000000e-02
-4.486083984375000000e-02
-4.531860351562500000e-02
-4.577636718750000000e-02
-4.684448242187500000e-02
-4.730224609375000000e-02
-4.776000976562500000e-02
-4.913330078125000000e-02
-4.959106445312500000e-02
-5.004882812500000000e-02
-4.989624023437500000e-02
-4.989624023437500000e-02
-5.004882812500000000e-02
-5.004882812500000000e-02
-4.959106445312500000e-02
-4.821777343750000000e-02
-4.669189453125000000e-02
-4.577636718750000000e-02
-4.470825195312500000e-02
-4.333496093750000000e-02
-4.272460937500000000e-02
-4.180908203125000000e-02
-4.089355468750000000e-02
-4.028320312500000000e-02
-3.952026367187500000e-02
-3.829956054687500000e-02
-3.784179687500000000e-02
-3.799438476562500000e-02
-3.768920898437500000e-02
-3.768920898437500000e-02
-3.738403320312500000e-02
-3.585815429687500000e-02
-3.555297851562500000e-02
-3.540039062500000000e-02
-3.570556640625000000e-02
-3.723144531250000000e-02
-3.723144531250000000e-02
-3.829956054687500000e-02
-3.967285156250000000e-02
-4.043579101562500000e-02
-4.196166992187500000e-02
-4.287719726562500000e-02
-4.470825195312500000e-02
-4.547119140625000000e-02
-4.669189453125000000e-02
-4.745483398437500000e-02
-4.760742187500000000e-02
-4.745483398437500000e-02
-4.730224609375000000e-02
-4.714965820312500000e-02
-4.760742187500000000e-02
-4.745483398437500000e-02
-4.714965820312500000e-02
-4.562377929687500000e-02
-4.470825195312500000e-02
-4.333496093750000000e-02
-4.196166992187500000e-02
-4.104614257812500000e-02
-4.028320312500000000e-02
-3.997802734375000000e-02
-3.860473632812500000e-02
-3.784179687500000000e-02
-3.753662109375000000e-02
-3.768920898437500000e-02
-3.799438476562500000e-02
-3.784179687500000000e-02
-3.784179687500000000e-02
-3.768920898437500000e-02
-3.753662109375000000e-02
-3.753662109375000000e-02
-3.799438476562500000e-02
-3.829956054687500000e-02
-3.982543945312500000e-02
-3.997802734375000000e-02
-4.058837890625000000e-02
-4.196166992187500000e-02
-4.287719726562500000e-02
-4.486083984375000000e-02
-4.669189453125000000e-02
-4.730224609375000000e-02
-4.776000976562500000e-02
-4.959106445312500000e-02
-4.974365234375000000e-02
-4.989624023437500000e-02
-4.959106445312500000e-02
-4.913330078125000000e-02
-4.852294921875000000e-02
-4.760742187500000000e-02
-4.684448242187500000e-02
-4.516601562500000000e-02
-4.333496093750000000e-02
-4.226684570312500000e-02
-4.028320312500000000e-02
-3.890991210937500000e-02
-3.768920898437500000e-02
-3.601074218750000000e-02
-3.509521484375000000e-02
-3.356933593750000000e-02
-3.326416015625000000e-02
-3.265380859375000000e-02
-3.097534179687500000e-02
-3.067016601562500000e-02
-3.051757812500000000e-02
-3.082275390625000000e-02
-3.067016601562500000e-02
-3.067016601562500000e-02
-3.067016601562500000e-02
-3.021240234375000000e-02
-3.067016601562500000e-02
-3.219604492187500000e-02
-3.341674804687500000e-02
-3.463745117187500000e-02
-3.555297851562500000e-02
-3.707885742187500000e-02
-3.829956054687500000e-02
-3.967285156250000000e-02
-4.013061523437500000e-02
-4.074096679687500000e-02
-4.196166992187500000e-02
-4.257202148437500000e-02
-4.257202148437500000e-02
-4.272460937500000000e-02
-4.196166992187500000e-02
-4.104614257812500000e-02
-4.043579101562500000e-02
-3.936767578125000000e-02
-3.845214843750000000e-02
-3.723144531250000000e-02
-3.601074218750000000e-02
-3.570556640625000000e-02
-3.509521484375000000e-02
-3.463745117187500000e-02
-3.372192382812500000e-02
-3.326416015625000000e-02
-3.326416015625000000e-02
-3.295898437500000000e-02
-3.341674804687500000e-02
-3.280639648437500000e-02
-3.295898437500000000e-02
-3.295898437500000000e-02
-3.341674804687500000e-02
-3.479003906250000000e-02
-3.524780273437500000e-02
-3.524780273437500000e-02
-3.601074218750000000e-02
-3.799438476562500000e-02
-3.921508789062500000e-02
-4.043579101562500000e-02
-4.257202148437500000e-02
-4.425048828125000000e-02
-4.562377929687500000e-02
-4.669189453125000000e-02
-4.806518554687500000e-02
-4.928588867187500000e-02
-4.974365234375000000e-02
-4.989624023437500000e-02
-4.989624023437500000e-02
-4.943847656250000000e-02
-4.791259765625000000e-02
-4.699707031250000000e-02
-4.531860351562500000e-02
-4.470825195312500000e-02
-4.302978515625000000e-02
-4.089355468750000000e-02
-3.982543945312500000e-02
-3.784179687500000000e-02
-3.616333007812500000e-02
-3.540039062500000000e-02
-3.479003906250000000e-02
-3.341674804687500000e-02
-3.341674804687500000e-02
-3.250122070312500000e-02
-3.128051757812500000e-02
-3.051757812500000000e-02
-3.067016601562500000e-02
-3.067016601562500000e-02
-3.036499023437500000e-02
-3.067016601562500000e-02
-3.036499023437500000e-02
-3.036499023437500000e-02
-3.097534179687500000e-02
-3.219604492187500000e-02
-3.326416015625000000e-02
-3.524780273437500000e-02
-3.707885742187500000e-02
-3.829956054687500000e-02
-3.952026367187500000e-02
-4.013061523437500000e-02
-4.058837890625000000e-02
-4.211425781250000000e-02
-4.226684570312500000e-02
-4.302978515625000000e-02
-4.272460937500000000e-02
-4.196166992187500000e-02
-4.089355468750000000e-02
-4.058837890625000000e-02
-4.013061523437500000e-02
-3.875732421875000000e-02
-3.738403320312500000e-02
-3.616333007812500000e-02
-3.479003906250000000e-02
-3.372192382812500000e-02
-3.265380859375000000e-02
-3.143310546875000000e-02
-3.036499023437500000e-02
-2.990722656250000000e-02
-2.883911132812500000e-02
-2.822875976562500000e-02
-2.807617187500000000e-02
-2.746582031250000000e-02
-2.624511718750000000e-02
-2.609252929687500000e-02
-2.593994140625000000e-02
-2.517700195312500000e-02
-2.563476562500000000e-02
-2.532958984375000000e-02
-2.609252929687500000e-02
-2.731323242187500000e-02
-2.853393554687500000e-02
-3.005981445312500000e-02
-3.067016601562500000e-02
-3.204345703125000000e-02
-3.280639648437500000e-02
-3.311157226562500000e-02
-3.463745117187500000e-02
-3.540039062500000000e-02
-3.692626953125000000e-02
-3.768920898437500000e-02
-3.768920898437500000e-02
-3.723144531250000000e-02
-3.601074218750000000e-02
-3.540039062500000000e-02
-3.387451171875000000e-02
-3.250122070312500000e-02
-3.112792968750000000e-02
-3.005981445312500000e-02
-2.822875976562500000e-02
-2.838134765625000000e-02
-2.746582031250000000e-02
-2.624511718750000000e-02
-2.532958984375000000e-02
-2.395629882812500000e-02
-2.349853515625000000e-02
-2.258300781250000000e-02
-2.136230468750000000e-02
-2.090454101562500000e-02
-2.014160156250000000e-02
-1.876831054687500000e-02
-1.831054687500000000e-02
-1.846313476562500000e-02
-1.846313476562500000e-02
-1.831054687500000000e-02
-1.815795898437500000e-02
-1.861572265625000000e-02
-1.861572265625000000e-02
-2.029418945312500000e-02
-2.105712890625000000e-02
-2.243041992187500000e-02
-2.380371093750000000e-02
-2.517700195312500000e-02
-2.548217773437500000e-02
-2.624511718750000000e-02
-2.761840820312500000e-02
-2.792358398437500000e-02
-2.807617187500000000e-02
-2.807617187500000000e-02
-2.777099609375000000e-02
-2.792358398437500000e-02
-2.624511718750000000e-02
-2.578735351562500000e-02
-2.487182617187500000e-02
-2.380371093750000000e-02
-2.273559570312500000e-02
-2.166748046875000000e-02
-2.090454101562500000e-02
-2.029418945312500000e-02
-1.892089843750000000e-02
-1.861572265625000000e-02
-1.831054687500000000e-02
-1.754760742187500000e-02
-1.663208007812500000e-02
-1.602172851562500000e-02
-1.617431640625000000e-02
-1.602172851562500000e-02
-1.510620117187500000e-02
-1.388549804687500000e-02
-1.419067382812500000e-02
-1.510620117187500000e-02
-1.586914062500000000e-02
-1.556396484375000000e-02
-1.632690429687500000e-02
-1.708984375000000000e-02
-1.876831054687500000e-02
-2.014160156250000000e-02
-2.105712890625000000e-02
-2.243041992187500000e-02
-2.334594726562500000e-02
-2.517700195312500000e-02
-2.502441406250000000e-02
-2.548217773437500000e-02
-2.548217773437500000e-02
-2.563476562500000000e-02
-2.578735351562500000e-02
-2.502441406250000000e-02
-2.410888671875000000e-02
-2.288818359375000000e-02
-2.136230468750000000e-02
-2.029418945312500000e-02
-1.922607421875000000e-02
-1.831054687500000000e-02
-1.785278320312500000e-02
-1.647949218750000000e-02
-1.541137695312500000e-02
-1.403808593750000000e-02
-1.358032226562500000e-02
-1.358032226562500000e-02
-1.296997070312500000e-02
-1.190185546875000000e-02
-1.144409179687500000e-02
-1.022338867187500000e-02
-9.307861328125000000e-03
-8.850097656250000000e-03
-8.697509765625000000e-03
-8.697509765625000000e-03
-8.544921875000000000e-03
-9.155273437500000000e-03
-1.007080078125000000e-02
-1.083374023437500000e-02
-1.129150390625000000e-02
-1.296997070312500000e-02
-1.327514648437500000e-02
-1.358032226562500000e-02
-1.434326171875000000e-02
-1.525878906250000000e-02
-1.571655273437500000e-02
-1.586914062500000000e-02
-1.602172851562500000e-02
-1.571655273437500000e-02
-1.571655273437500000e-02
-1.419067382812500000e-02
-1.296997070312500000e-02
-1.190185546875000000e-02
-1.098632812500000000e-02
-1.052856445312500000e-02
-9.460449218750000000e-03
-8.850097656250000000e-03
-8.087158203125000000e-03
-6.713867187500000000e-03
-6.256103515625000000e-03
-6.103515625000000000e-03
-6.103515625000000000e-03
-6.256103515625000000e-03
-6.103515625000000000e-03
-5.950927734375000000e-03
-5.950927734375000000e-03
-6.103515625000000000e-03
-6.256103515625000000e-03
-6.408691406250000000e-03
-7.019042968750000000e-03
-7.934570312500000000e-03
-8.239746093750000000e-03
-9.307861328125000000e-03
-1.037597656250000000e-02
-1.098632812500000000e-02
-1.144409179687500000e-02
-1.281738281250000000e-02
-1.312255859375000000e-02
-1.388549804687500000e-02
-1.495361328125000000e-02
-1.571655273437500000e-02
-1.586914062500000000e-02
-1.602172851562500000e-02
-1.602172851562500000e-02
-1.541137695312500000e-02
-1.419067382812500000e-02
-1.358032226562500000e-02
-1.296997070312500000e-02
-1.144409179687500000e-02
-1.068115234375000000e-02
-9.307861328125000000e-03
-8.544921875000000000e-03
-8.239746093750000000e-03
-6.713867187500000000e-03
-6.408691406250000000e-03
-5.950927734375000000e-03
-5.798339843750000000e-03
-4.577636718750000000e-03
-3.814697265625000000e-03
-3.662109375000000000e-03
-3.967285156250000000e-03
-3.509521484375000000e-03
-3.509521484375000000e-03
-3.662109375000000000e-03
-3.509521484375000000e-03
-3.662109375000000000e-03
-3.814697265625000000e-03
-3.509521484375000000e-03
-3.509521484375000000e-03
-4.730224609375000000e-03
-5.493164062500000000e-03
-5.950927734375000000e-03
-6.866455078125000000e-03
-7.934570312500000000e-03
-8.392333984375000000e-03
-9.155273437500000000e-03
-1.037597656250000000e-02
-1.129150390625000000e-02
-1.083374023437500000e-02
-1.113891601562500000e-02
-1.068115234375000000e-02
-9.307861328125000000e-03
-8.544921875000000000e-03
-8.087158203125000000e-03
-6.713867187500000000e-03
-5.645751953125000000e-03
-4.425048828125000000e-03
-3.204345703125000000e-03
-1.983642578125000000e-03
-1.525878906250000000e-03
-1.373291015625000000e-03
-1.068115234375000000e-03
7.629394531250000000e-04
1.068115234375000000e-03
1.220703125000000000e-03
1.068115234375000000e-03
9.155273437500000000e-04
1.068115234375000000e-03
1.068115234375000000e-03
1.678466796875000000e-03
1.373291015625000000e-03
1.068115234375000000e-03
1.220703125000000000e-03
4.577636718750000000e-04
-6.103515625000000000e-04
-1.678466796875000000e-03
-2.746582031250000000e-03
-3.967285156250000000e-03
-5.340576171875000000e-03
-6.103515625000000000e-03
-6.561279296875000000e-03
-7.781982421875000000e-03
-8.392333984375000000e-03
-8.544921875000000000e-03
-8.239746093750000000e-03
-8.544921875000000000e-03
-8.544921875000000000e-03
-8.087158203125000000e-03
-6.713867187500000000e-03
-5.798339843750000000e-03
-4.425048828125000000e-03
-3.662109375000000000e-03
-1.678466796875000000e-03
-1.373291015625000000e-03
-1.068115234375000000e-03
4.577636718750000000e-04
9.155273437500000000e-04
1.373291015625000000e-03
9.155273437500000000e-04
2.136230468750000000e-03
2.746582031250000000e-03
3.356933593750000000e-03
3.051757812500000000e-03
1.678466796875000000e-03
1.220703125000000000e-03
1.220703125000000000e-03
1.373291015625000000e-03
1.220703125000000000e-03
6.103515625000000000e-04
-7.629394531250000000e-04
-1.678466796875000000e-03
-3.051757812500000000e-03
-4.272460937500000000e-03
-6.256103515625000000e-03
-7.629394531250000000e-03
-8.697509765625000000e-03
-1.022338867187500000e-02
-1.098632812500000000e-02
-1.144409179687500000e-02
-1.251220703125000000e-02
-1.342773437500000000e-02
-1.327514648437500000e-02
-1.296997070312500000e-02
-1.174926757812500000e-02
-1.144409179687500000e-02
-1.052856445312500000e-02
-8.544921875000000000e-03
-6.866455078125000000e-03
-5.340576171875000000e-03
-4.119873046875000000e-03
-3.356933593750000000e-03
-1.525878906250000000e-03
-6.103515625000000000e-04
4.577636718750000000e-04
9.155273437500000000e-04
1.068115234375000000e-03
9.155273437500000000e-04
1.373291015625000000e-03
1.525878906250000000e-03
3.356933593750000000e-03
3.509521484375000000e-03
3.814697265625000000e-03
3.051757812500000000e-03
1.831054687500000000e-03
1.525878906250000000e-03
3.051757812500000000e-04
-4.577636718750000000e-04
-1.831054687500000000e-03
-3.051757812500000000e-03
-3.967285156250000000e-03
-5.187988281250000000e-03
-6.408691406250000000e-03
-8.239746093750000000e-03
-8.850097656250000000e-03
-1.037597656250000000e-02
-1.098632812500000000e-02
-1.083374023437500000e-02
-1.098632812500000000e-02
-1.052856445312500000e-02
-9.460449218750000000e-03
-8.087158203125000000e-03
-6.866455078125000000e-03
-5.950927734375000000e-03
-3.662109375000000000e-03
-2.288818359375000000e-03
-7.629394531250000000e-04
1.525878906250000000e-04
1.525878906250000000e-03
3.051757812500000000e-03
3.509521484375000000e-03
4.119873046875000000e-03
5.493164062500000000e-03
6.256103515625000000e-03
6.103515625000000000e-03
6.713867187500000000e-03
7.781982421875000000e-03
8.087158203125000000e-03
8.239746093750000000e-03
8.392333984375000000e-03
8.239746093750000000e-03
8.239746093750000000e-03
6.561279296875000000e-03
6.103515625000000000e-03
5.493164062500000000e-03
4.425048828125000000e-03
2.899169921875000000e-03
1.831054687500000000e-03
9.155273437500000000e-04
-6.103515625000000000e-04
-1.678466796875000000e-03
-2.899169921875000000e-03
-3.356933593750000000e-03
-3.814697265625000000e-03
-3.814697265625000000e-03
-3.814697265625000000e-03
-3.814697265625000000e-03
-2.899169921875000000e-03
-1.831054687500000000e-03
-7.629394531250000000e-04
4.577636718750000000e-04
1.068115234375000000e-03
1.831054687500000000e-03
2.593994140625000000e-03
3.509521484375000000e-03
3.509521484375000000e-03
3.356933593750000000e-03
4.119873046875000000e-03
5.187988281250000000e-03
5.798339843750000000e-03
5.950927734375000000e-03
5.798339843750000000e-03
6.408691406250000000e-03
6.408691406250000000e-03
5.950927734375000000e-03
6.103515625000000000e-03
5.645751953125000000e-03
4.272460937500000000e-03
3.356933593750000000e-03
1.831054687500000000e-03
7.629394531250000000e-04
-1.068115234375000000e-03
-3.051757812500000000e-03
-3.967285156250000000e-03
-5.798339843750000000e-03
-6.561279296875000000e-03
-7.934570312500000000e-03
-9.002685546875000000e-03
-1.068115234375000000e-02
-1.098632812500000000e-02
-1.113891601562500000e-02
-1.098632812500000000e-02
-1.083374023437500000e-02
-9.002685546875000000e-03
-8.239746093750000000e-03
-6.256103515625000000e-03
-4.577636718750000000e-03
-3.204345703125000000e-03
-1.983642578125000000e-03
-9.155273437500000000e-04
7.629394531250000000e-04
7.629394531250000000e-04
1.220703125000000000e-03
1.068115234375000000e-03
1.373291015625000000e-03
1.373291015625000000e-03
3.662109375000000000e-03
8.087158203125000000e-03
1.007080078125000000e-02
1.068115234375000000e-02
1.022338867187500000e-02
9.155273437500000000e-03
8.544921875000000000e-03
7.781982421875000000e-03
6.408691406250000000e-03
6.408691406250000000e-03
5.340576171875000000e-03
4.425048828125000000e-03
3.204345703125000000e-03
1.983642578125000000e-03
1.068115234375000000e-03
1.068115234375000000e-03
7.629394531250000000e-04
-6.103515625000000000e-04
-7.629394531250000000e-04
3.051757812500000000e-04
7.629394531250000000e-04
1.373291015625000000e-03
1.678466796875000000e-03
2.899169921875000000e-03
3.356933593750000000e-03
3.509521484375000000e-03
3.509521484375000000e-03
4.119873046875000000e-03
5.645751953125000000e-03
6.408691406250000000e-03
6.256103515625000000e-03
6.103515625000000000e-03
6.103515625000000000e-03
6.713867187500000000e-03
7.934570312500000000e-03
8.392333984375000000e-03
8.087158203125000000e-03
8.392333984375000000e-03
7.781982421875000000e-03
6.713867187500000000e-03
6.103515625000000000e-03
5.187988281250000000e-03
3.967285156250000000e-03
3.204345703125000000e-03
1.678466796875000000e-03
9.155273437500000000e-04
-4.577636718750000000e-04
-1.831054687500000000e-03
-3.204345703125000000e-03
-3.509521484375000000e-03
-3.662109375000000000e-03
-3.662109375000000000e-03
-3.662109375000000000e-03
-3.662109375000000000e-03
-3.509521484375000000e-03
-3.051757812500000000e-03
-1.831054687500000000e-03
-6.103515625000000000e-04
6.103515625000000000e-04
1.220703125000000000e-03
1.068115234375000000e-03
1.525878906250000000e-03
3.051757812500000000e-03
3.509521484375000000e-03
3.509521484375000000e-03
4.119873046875000000e-03
5.493164062500000000e-03
5.798339843750000000e-03
6.103515625000000000e-03
5.950927734375000000e-03
6.103515625000000000e-03
5.950927734375000000e-03
5.798339843750000000e-03
6.103515625000000000e-03
5.950927734375000000e-03
6.103515625000000000e-03
5.950927734375000000e-03
5.645751953125000000e-03
4.272460937500000000e-03
3.204345703125000000e-03
1.983642578125000000e-03
1.678466796875000000e-03
9.155273437500000000e-04
6.103515625000000000e-04
-7.629394531250000000e-04
-1.068115234375000000e-03
-1.525878906250000000e-03
-1.068115234375000000e-03
-1.373291015625000000e-03
-1.068115234375000000e-03
-4.577636718750000000e-04
6.103515625000000000e-04
1.373291015625000000e-03
3.204345703125000000e-03
4.119873046875000000e-03
5.493164062500000000e-03
5.798339843750000000e-03
6.408691406250000000e-03
7.781982421875000000e-03
8.239746093750000000e-03
8.239746093750000000e-03
8.239746093750000000e-03
8.697509765625000000e-03
8.544921875000000000e-03
8.697509765625000000e-03
8.392333984375000000e-03
8.544921875000000000e-03
8.697509765625000000e-03
8.544921875000000000e-03
8.544921875000000000e-03
8.087158203125000000e-03
8.697509765625000000e-03
8.239746093750000000e-03
6.713867187500000000e-03
5.493164062500000000e-03
3.967285156250000000e-03
3.204345703125000000e-03
1.831054687500000000e-03
7.629394531250000000e-04
-6.103515625000000000e-04
-1.525878906250000000e-03
-2.899169921875000000e-03
-3.204345703125000000e-03
-3.662109375000000000e-03
-3.662109375000000000e-03
-3.356933593750000000e-03
-2.899169921875000000e-03
-1.831054687500000000e-03
-7.629394531250000000e-04
4.577636718750000000e-04
1.525878906250000000e-03
2.899169921875000000e-03
3.509521484375000000e-03
3.814697265625000000e-03
4.730224609375000000e-03
5.798339843750000000e-03
5.645751953125000000e-03
5.950927734375000000e-03
7.019042968750000000e-03
7.781982421875000000e-03
8.087158203125000000e-03
8.239746093750000000e-03
8.392333984375000000e-03
8.239746093750000000e-03
8.544921875000000000e-03
8.544921875000000000e-03
8.544921875000000000e-03
7.781982421875000000e-03
6.561279296875000000e-03
6.256103515625000000e-03
5.493164062500000000e-03
3.814697265625000000e-03
2.288818359375000000e-03
1.220703125000000000e-03
7.629394531250000000e-04
-6.103515625000000000e-04
-9.155273437500000000e-04
-1.068115234375000000e-03
-1.373291015625000000e-03
-1.220703125000000000e-03
-1.373291015625000000e-03
-1.373291015625000000e-03
-4.577636718750000000e-04
1.068115234375000000e-03
2.746582031250000000e-03
3.814697265625000000e-03
5.493164062500000000e-03
6.256103515625000000e-03
8.087158203125000000e-03
8.850097656250000000e-03
1.022338867187500000e-02
1.052856445312500000e-02
1.144409179687500000e-02
1.281738281250000000e-02
1.296997070312500000e-02
1.342773437500000000e-02
1.327514648437500000e-02
1.342773437500000000e-02
1.281738281250000000e-02
1.342773437500000000e-02
1.342773437500000000e-02
1.342773437500000000e-02
1.342773437500000000e-02
1.266479492187500000e-02
1.144409179687500000e-02
1.037597656250000000e-02
8.544921875000000000e-03
6.866455078125000000e-03
5.798339843750000000e-03
4.272460937500000000e-03
3.051757812500000000e-03
1.220703125000000000e-03
-6.103515625000000000e-04
-1.068115234375000000e-03
-2.136230468750000000e-03
-3.204345703125000000e-03
-3.814697265625000000e-03
-3.051757812500000000e-03
-1.831054687500000000e-03
-1.373291015625000000e-03
-4.577636718750000000e-04
4.577636718750000000e-04
1.678466796875000000e-03
2.746582031250000000e-03
3.356933593750000000e-03
4.119873046875000000e-03
5.340576171875000000e-03
5.645751953125000000e-03
6.103515625000000000e-03
6.103515625000000000e-03
6.103515625000000000e-03
5.798339843750000000e-03
5.798339843750000000e-03
4.272460937500000000e-03
3.967285156250000000e-03
3.051757812500000000e-03
1.831054687500000000e-03
7.629394531250000000e-04
-7.629394531250000000e-04
-1.525878906250000000e-03
-3.356933593750000000e-03
-5.645751953125000000e-03
-7.781982421875000000e-03
-8.697509765625000000e-03
-1.098632812500000000e-02
-1.342773437500000000e-02
-1.510620117187500000e-02
-1.602172851562500000e-02
-1.770019531250000000e-02
-1.861572265625000000e-02
-2.029418945312500000e-02
-2.059936523437500000e-02
-2.044677734375000000e-02
-2.075195312500000000e-02
-2.044677734375000000e-02
-2.014160156250000000e-02
-1.907348632812500000e-02
-1.800537109375000000e-02
-1.647949218750000000e-02
-1.541137695312500000e-02
-1.403808593750000000e-02
-1.281738281250000000e-02
-1.129150390625000000e-02
-9.460449218750000000e-03
-8.087158203125000000e-03
-6.103515625000000000e-03
-4.577636718750000000e-03
-3.356933593750000000e-03
-1.373291015625000000e-03
4.577636718750000000e-04
1.525878906250000000e-03
3.051757812500000000e-03
3.509521484375000000e-03
4.272460937500000000e-03
5.035400390625000000e-03
5.798339843750000000e-03
5.645751953125000000e-03
4.272460937500000000e-03
3.967285156250000000e-03
3.662109375000000000e-03
2.899169921875000000e-03
1.525878906250000000e-03
1.068115234375000000e-03
6.103515625000000000e-04
-7.629394531250000000e-04
-1.068115234375000000e-03
-1.220703125000000000e-03
-1.373291015625000000e-03
-7.629394531250000000e-04
4.577636718750000000e-04
1.373291015625000000e-03
1.525878906250000000e-03
2.899169921875000000e-03
3.967285156250000000e-03
6.103515625000000000e-03
7.934570312500000000e-03
8.239746093750000000e-03
8.850097656250000000e-03
1.007080078125000000e-02
1.052856445312500000e-02
1.144409179687500000e-02
1.266479492187500000e-02
1.327514648437500000e-02
1.312255859375000000e-02
1.327514648437500000e-02
1.327514648437500000e-02
1.296997070312500000e-02
1.342773437500000000e-02
1.312255859375000000e-02
1.281738281250000000e-02
1.144409179687500000e-02
1.098632812500000000e-02
1.022338867187500000e-02
9.460449218750000000e-03
8.087158203125000000e-03
6.408691406250000000e-03
4.272460937500000000e-03
3.814697265625000000e-03
2.899169921875000000e-03
1.678466796875000000e-03
1.068115234375000000e-03
9.155273437500000000e-04
1.220703125000000000e-03
1.220703125000000000e-03
1.525878906250000000e-03
1.831054687500000000e-03
2.899169921875000000e-03
4.119873046875000000e-03
5.493164062500000000e-03
6.408691406250000000e-03
8.392333984375000000e-03
1.007080078125000000e-02
1.129150390625000000e-02
1.296997070312500000e-02
1.358032226562500000e-02
1.525878906250000000e-02
1.602172851562500000e-02
1.754760742187500000e-02
1.815795898437500000e-02
1.876831054687500000e-02
1.998901367187500000e-02
2.029418945312500000e-02
2.120971679687500000e-02
2.075195312500000000e-02
2.059936523437500000e-02
2.044677734375000000e-02
1.983642578125000000e-02
1.876831054687500000e-02
1.754760742187500000e-02
1.586914062500000000e-02
1.388549804687500000e-02
1.312255859375000000e-02
1.098632812500000000e-02
9.307861328125000000e-03
8.087158203125000000e-03
6.561279296875000000e-03
5.798339843750000000e-03
3.967285156250000000e-03
3.967285156250000000e-03
3.051757812500000000e-03
2.441406250000000000e-03
3.204345703125000000e-03
3.356933593750000000e-03
4.272460937500000000e-03
5.493164062500000000e-03
5.950927734375000000e-03
7.781982421875000000e-03
8.239746093750000000e-03
9.002685546875000000e-03
1.037597656250000000e-02
1.052856445312500000e-02
1.159667968750000000e-02
1.281738281250000000e-02
1.281738281250000000e-02
1.312255859375000000e-02
1.296997070312500000e-02
1.327514648437500000e-02
1.312255859375000000e-02
1.327514648437500000e-02
1.358032226562500000e-02
1.419067382812500000e-02
1.403808593750000000e-02
1.342773437500000000e-02
1.342773437500000000e-02
1.281738281250000000e-02
1.129150390625000000e-02
1.052856445312500000e-02
8.697509765625000000e-03
6.713867187500000000e-03
5.493164062500000000e-03
4.425048828125000000e-03
3.051757812500000000e-03
1.678466796875000000e-03
9.155273437500000000e-04
-7.629394531250000000e-04
-1.220703125000000000e-03
-1.373291015625000000e-03
-1.525878906250000000e-03
-1.220703125000000000e-03
-1.525878906250000000e-03
-7.629394531250000000e-04
3.051757812500000000e-04
7.629394531250000000e-04
9.155273437500000000e-04
1.525878906250000000e-03
1.068115234375000000e-03
1.220703125000000000e-03
1.068115234375000000e-03
1.373291015625000000e-03
4.577636718750000000e-04
-6.103515625000000000e-04
-1.983642578125000000e-03
-3.051757812500000000e-03
-4.119873046875000000e-03
-5.950927734375000000e-03
-7.781982421875000000e-03
-9.307861328125000000e-03
-1.113891601562500000e-02
-1.312255859375000000e-02
-1.663208007812500000e-02
-2.014160156250000000e-02
-2.288818359375000000e-02
-2.517700195312500000e-02
-2.761840820312500000e-02
-3.036499023437500000e-02
-3.265380859375000000e-02
-3.433227539062500000e-02
-3.494262695312500000e-02
-3.540039062500000000e-02
-3.479003906250000000e-02
-3.295898437500000000e-02
-3.021240234375000000e-02
-2.593994140625000000e-02
-2.059936523437500000e-02
-1.327514648437500000e-02
-4.425048828125000000e-03
4.577636718750000000e-03
1.480102539062500000e-02
2.517700195312500000e-02
3.616333007812500000e-02
4.638671875000000000e-02
5.737304687500000000e-02
6.713867187500000000e-02
7.598876953125000000e-02
8.377075195312500000e-02
8.941650390625000000e-02
9.246826171875000000e-02
9.490966796875000000e-02
9.429931640625000000e-02
9.033203125000000000e-02
8.377075195312500000e-02
7.583618164062500000e-02
6.393432617187500000e-02
4.837036132812500000e-02
3.097534179687500000e-02
9.613037109375000000e-03
-1.495361328125000000e-02
-4.257202148437500000e-02
-7.247924804687500000e-02
-1.060485839843750000e-01
-1.423645019531250000e-01
-1.823425292968750000e-01
-2.244567871093750000e-01
-2.679443359375000000e-01
-3.144836425781250000e-01
-3.622436523437500000e-01
-4.112243652343750000e-01
-4.615783691406250000e-01
-5.123901367187500000e-01
-5.633544921875000000e-01
-6.127929687500000000e-01
-6.640625000000000000e-01
-7.144165039062500000e-01
-7.638549804687500000e-01
-8.125305175781250000e-01
-8.610534667968750000e-01
-9.080505371093750000e-01
-9.538269042968750000e-01
-9.976196289062500000e-01
-1.039886474609375000e+00
-1.080932617187500000e+00
-1.119384765625000000e+00
-1.154327392578125000e+00
-1.186523437500000000e+00
-1.215820312500000000e+00
-1.242523193359375000e+00
-1.265258789062500000e+00
-1.285247802734375000e+00
-1.301116943359375000e+00
-1.313323974609375000e+00
-1.322326660156250000e+00
-1.327362060546875000e+00
-1.327514648437500000e+00
-1.323852539062500000e+00
-1.316375732421875000e+00
-1.304626464843750000e+00
-1.287231445312500000e+00
-1.265106201171875000e+00
-1.239624023437500000e+00
-1.209411621093750000e+00
-1.175231933593750000e+00
-1.137390136718750000e+00
-1.095886230468750000e+00
-1.052856445312500000e+00
-1.006622314453125000e+00
-9.582519531250000000e-01
-9.071350097656250000e-01
-8.552551269531250000e-01
-8.030700683593750000e-01
-7.492065429687500000e-01
-6.939697265625000000e-01
-6.404113769531250000e-01
-5.867004394531250000e-01
-5.325317382812500000e-01
-4.797363281250000000e-01
-4.280090332031250000e-01
-3.773498535156250000e-01
-3.279113769531250000e-01
-2.801513671875000000e-01
-2.349853515625000000e-01
-1.919555664062500000e-01
-1.518249511718750000e-01
-1.130676269531250000e-01
-7.659912109375000000e-02
-4.379272460937500000e-02
-1.296997070312500000e-02
1.693725585937500000e-02
4.318237304687500000e-02
6.790161132812500000e-02
9.063720703125000000e-02
1.116943359375000000e-01
1.318359375000000000e-01
1.492309570312500000e-01
1.661682128906250000e-01
1.814270019531250000e-01
1.956176757812500000e-01
2.087402343750000000e-01
2.210998535156250000e-01
2.326965332031250000e-01
2.429199218750000000e-01
2.528381347656250000e-01
2.621459960937500000e-01
2.699279785156250000e-01
2.774047851562500000e-01
2.847290039062500000e-01
2.923583984375000000e-01
2.993774414062500000e-01
3.062438964843750000e-01
3.118896484375000000e-01
3.166198730468750000e-01
3.207397460937500000e-01
3.247070312500000000e-01
3.285217285156250000e-01
3.311157226562500000e-01
3.337097167968750000e-01
3.367614746093750000e-01
3.388977050781250000e-01
3.413391113281250000e-01
3.437805175781250000e-01
3.479003906250000000e-01
3.501892089843750000e-01
3.507995605468750000e-01
3.520202636718750000e-01
3.541564941406250000e-01
3.552246093750000000e-01
3.567504882812500000e-01
3.578186035156250000e-01
3.588867187500000000e-01
3.604125976562500000e-01
3.608703613281250000e-01
3.619384765625000000e-01
3.628540039062500000e-01
3.631591796875000000e-01
3.634643554687500000e-01
3.639221191406250000e-01
3.634643554687500000e-01
3.640747070312500000e-01
3.654479980468750000e-01
3.657531738281250000e-01
3.665161132812500000e-01
3.677368164062500000e-01
3.680419921875000000e-01
3.691101074218750000e-01
3.700256347656250000e-01
3.710937500000000000e-01
3.710937500000000000e-01
3.707885742187500000e-01
3.710937500000000000e-01
3.706359863281250000e-01
3.710937500000000000e-01
3.707885742187500000e-01
3.707885742187500000e-01
3.707885742187500000e-01
3.701782226562500000e-01
3.692626953125000000e-01
3.688049316406250000e-01
3.680419921875000000e-01
3.665161132812500000e-01
3.656005859375000000e-01
3.636169433593750000e-01
3.611755371093750000e-01
3.588867187500000000e-01
3.565979003906250000e-01
3.533935546875000000e-01
3.500366210937500000e-01
3.468322753906250000e-01
3.442382812500000000e-01
3.410339355468750000e-01
3.373718261718750000e-01
3.346252441406250000e-01
3.320312500000000000e-01
3.294372558593750000e-01
3.271484375000000000e-01
3.247070312500000000e-01
3.225708007812500000e-01
3.215026855468750000e-01
3.204345703125000000e-01
3.198242187500000000e-01
3.198242187500000000e-01
3.196716308593750000e-01
3.189086914062500000e-01
3.179931640625000000e-01
3.176879882812500000e-01
3.172302246093750000e-01
3.164672851562500000e-01
3.150939941406250000e-01
3.144836425781250000e-01
3.132629394531250000e-01
3.118896484375000000e-01
3.106689453125000000e-01
3.094482421875000000e-01
3.077697753906250000e-01
3.054809570312500000e-01
3.044128417968750000e-01
3.031921386718750000e-01
2.999877929687500000e-01
2.980041503906250000e-01
2.954101562500000000e-01
2.923583984375000000e-01
2.890014648437500000e-01
2.853393554687500000e-01
2.816772460937500000e-01
2.783203125000000000e-01
2.742004394531250000e-01
2.711486816406250000e-01
2.687072753906250000e-01
2.656555175781250000e-01
2.618408203125000000e-01
2.598571777343750000e-01
2.584838867187500000e-01
2.569580078125000000e-01
2.558898925781250000e-01
2.546691894531250000e-01
2.540588378906250000e-01
2.539062500000000000e-01
2.536010742187500000e-01
2.536010742187500000e-01
2.522277832031250000e-01
2.517700195312500000e-01
2.511596679687500000e-01
2.517700195312500000e-01
2.511596679687500000e-01
2.508544921875000000e-01
2.496337890625000000e-01
2.491760253906250000e-01
2.487182617187500000e-01
2.470397949218750000e-01
2.462768554687500000e-01
2.449035644531250000e-01
2.435302734375000000e-01
2.426147460937500000e-01
2.413940429687500000e-01
2.392578125000000000e-01
2.372741699218750000e-01
2.349853515625000000e-01
2.322387695312500000e-01
2.297973632812500000e-01
2.272033691406250000e-01
2.250671386718750000e-01
2.226257324218750000e-01
2.201843261718750000e-01
2.177429199218750000e-01
2.151489257812500000e-01
2.134704589843750000e-01
2.120971679687500000e-01
2.107238769531250000e-01
2.099609375000000000e-01
2.102661132812500000e-01
2.096557617187500000e-01
2.101135253906250000e-01
2.096557617187500000e-01
2.101135253906250000e-01
2.101135253906250000e-01
2.102661132812500000e-01
2.101135253906250000e-01
2.098083496093750000e-01
2.098083496093750000e-01
2.096557617187500000e-01
2.099609375000000000e-01
2.102661132812500000e-01
2.096557617187500000e-01
2.081298828125000000e-01
2.078247070312500000e-01
2.073669433593750000e-01
2.070617675781250000e-01
2.059936523437500000e-01
2.047729492187500000e-01
2.032470703125000000e-01
2.021789550781250000e-01
2.005004882812500000e-01
1.980590820312500000e-01
1.962280273437500000e-01
1.933288574218750000e-01
1.907348632812500000e-01
1.889038085937500000e-01
1.878356933593750000e-01
1.856994628906250000e-01
1.834106445312500000e-01
1.809692382812500000e-01
1.792907714843750000e-01
1.783752441406250000e-01
1.763916015625000000e-01
1.763916015625000000e-01
1.762390136718750000e-01
1.757812500000000000e-01
1.760864257812500000e-01
1.762390136718750000e-01
1.759338378906250000e-01
1.757812500000000000e-01
1.760864257812500000e-01
1.751708984375000000e-01
1.742553710937500000e-01
1.737976074218750000e-01
1.737976074218750000e-01
1.733398437500000000e-01
1.734924316406250000e-01
1.730346679687500000e-01
1.716613769531250000e-01
1.713562011718750000e-01
1.710510253906250000e-01
1.715087890625000000e-01
1.701354980468750000e-01
1.690673828125000000e-01
1.681518554687500000e-01
1.670837402343750000e-01
1.657104492187500000e-01
1.641845703125000000e-01
1.618957519531250000e-01
1.611328125000000000e-01
1.588439941406250000e-01
1.571655273437500000e-01
1.545715332031250000e-01
1.525878906250000000e-01
1.515197753906250000e-01
1.498413085937500000e-01
1.487731933593750000e-01
1.469421386718750000e-01
1.470947265625000000e-01
1.469421386718750000e-01
1.469421386718750000e-01
1.469421386718750000e-01
1.466369628906250000e-01
1.466369628906250000e-01
1.467895507812500000e-01
1.470947265625000000e-01
1.470947265625000000e-01
1.467895507812500000e-01
1.472473144531250000e-01
1.486206054687500000e-01
1.490783691406250000e-01
1.486206054687500000e-01
1.473999023437500000e-01
1.470947265625000000e-01
1.473999023437500000e-01
1.467895507812500000e-01
1.473999023437500000e-01
1.484680175781250000e-01
1.489257812500000000e-01
1.495361328125000000e-01
1.487731933593750000e-01
1.472473144531250000e-01
1.463317871093750000e-01
1.448059082031250000e-01
1.438903808593750000e-01
1.417541503906250000e-01
1.402282714843750000e-01
1.390075683593750000e-01
1.373291015625000000e-01
1.353454589843750000e-01
1.342773437500000000e-01
1.327514648437500000e-01
1.324462890625000000e-01
1.315307617187500000e-01
1.301574707031250000e-01
1.301574707031250000e-01
1.298522949218750000e-01
1.295471191406250000e-01
1.301574707031250000e-01
1.319885253906250000e-01
1.321411132812500000e-01
1.319885253906250000e-01
1.319885253906250000e-01
1.325988769531250000e-01
1.342773437500000000e-01
1.344299316406250000e-01
1.342773437500000000e-01
1.344299316406250000e-01
1.347351074218750000e-01
1.351928710937500000e-01
1.361083984375000000e-01
1.370239257812500000e-01
1.370239257812500000e-01
1.370239257812500000e-01
1.370239257812500000e-01
1.370239257812500000e-01
1.370239257812500000e-01
1.370239257812500000e-01
1.365661621093750000e-01
1.353454589843750000e-01
1.339721679687500000e-01
1.325988769531250000e-01
1.321411132812500000e-01
1.316833496093750000e-01
1.301574707031250000e-01
1.293945312500000000e-01
1.278686523437500000e-01
1.268005371093750000e-01
1.254272460937500000e-01
1.249694824218750000e-01
1.249694824218750000e-01
1.251220703125000000e-01
1.248168945312500000e-01
1.254272460937500000e-01
1.264953613281250000e-01
1.271057128906250000e-01
1.278686523437500000e-01
1.289367675781250000e-01
1.303100585937500000e-01
1.313781738281250000e-01
1.318359375000000000e-01
1.319885253906250000e-01
1.325988769531250000e-01
1.325988769531250000e-01
1.339721679687500000e-01
1.342773437500000000e-01
1.345825195312500000e-01
1.347351074218750000e-01
1.351928710937500000e-01
1.365661621093750000e-01
1.368713378906250000e-01
1.368713378906250000e-01
1.370239257812500000e-01
1.368713378906250000e-01
1.371765136718750000e-01
1.364135742187500000e-01
1.351928710937500000e-01
1.347351074218750000e-01
1.342773437500000000e-01
1.325988769531250000e-01
1.319885253906250000e-01
1.324462890625000000e-01
1.315307617187500000e-01
1.301574707031250000e-01
1.298522949218750000e-01
1.296997070312500000e-01
1.304626464843750000e-01
1.318359375000000000e-01
1.324462890625000000e-01
1.338195800781250000e-01
1.347351074218750000e-01
1.364135742187500000e-01
1.373291015625000000e-01
1.387023925781250000e-01
1.400756835937500000e-01
1.412963867187500000e-01
1.417541503906250000e-01
1.417541503906250000e-01
1.425170898437500000e-01
1.437377929687500000e-01
1.438903808593750000e-01
1.441955566406250000e-01
1.443481445312500000e-01
1.443481445312500000e-01
1.441955566406250000e-01
1.441955566406250000e-01
1.441955566406250000e-01
1.443481445312500000e-01
1.440429687500000000e-01
1.443481445312500000e-01
1.440429687500000000e-01
1.438903808593750000e-01
1.426696777343750000e-01
1.412963867187500000e-01
1.406860351562500000e-01
1.390075683593750000e-01
1.377868652343750000e-01
1.373291015625000000e-01
1.365661621093750000e-01
1.350402832031250000e-01
1.344299316406250000e-01
1.341247558593750000e-01
1.327514648437500000e-01
1.329040527343750000e-01
1.338195800781250000e-01
1.342773437500000000e-01
1.347351074218750000e-01
1.362609863281250000e-01
1.374816894531250000e-01
1.390075683593750000e-01
1.391601562500000000e-01
1.400756835937500000e-01
1.409912109375000000e-01
1.417541503906250000e-01
1.420593261718750000e-01
1.419067382812500000e-01
1.419067382812500000e-01
1.419067382812500000e-01
1.411437988281250000e-01
1.400756835937500000e-01
1.396179199218750000e-01
1.394653320312500000e-01
1.387023925781250000e-01
1.376342773437500000e-01
1.371765136718750000e-01
1.370239257812500000e-01
1.371765136718750000e-01
1.370239257812500000e-01
1.368713378906250000e-01
1.368713378906250000e-01
1.368713378906250000e-01
1.370239257812500000e-01
1.370239257812500000e-01
1.324462890625000000e-01
1.239013671875000000e-01
1.191711425781250000e-01
1.173400878906250000e-01
1.153564453125000000e-01
1.155090332031250000e-01
1.152038574218750000e-01
1.152038574218750000e-01
1.153564453125000000e-01
1.148986816406250000e-01
1.148986816406250000e-01
1.150512695312500000e-01
1.152038574218750000e-01
1.152038574218750000e-01
1.148986816406250000e-01
1.152038574218750000e-01
1.148986816406250000e-01
1.144409179687500000e-01
1.135253906250000000e-01
1.124572753906250000e-01
1.110839843750000000e-01
1.098632812500000000e-01
1.086425781250000000e-01
1.075744628906250000e-01
1.052856445312500000e-01
1.034545898437500000e-01
1.007080078125000000e-01
9.826660156250000000e-02
9.582519531250000000e-02
9.338378906250000000e-02
9.094238281250000000e-02
8.834838867187500000e-02
8.560180664062500000e-02
8.193969726562500000e-02
7.919311523437500000e-02
7.644653320312500000e-02
7.354736328125000000e-02
7.003784179687500000e-02
6.668090820312500000e-02
6.393432617187500000e-02
6.225585937500000000e-02
6.118774414062500000e-02
5.950927734375000000e-02
5.752563476562500000e-02
5.630493164062500000e-02
5.508422851562500000e-02
5.477905273437500000e-02
5.386352539062500000e-02
5.264282226562500000e-02
5.126953125000000000e-02
5.004882812500000000e-02
4.898071289062500000e-02
4.699707031250000000e-02
4.486083984375000000e-02
4.226684570312500000e-02
4.104614257812500000e-02
3.997802734375000000e-02
3.738403320312500000e-02
3.540039062500000000e-02
3.250122070312500000e-02
2.868652343750000000e-02
2.624511718750000000e-02
2.319335937500000000e-02
2.029418945312500000e-02
1.693725585937500000e-02
1.266479492187500000e-02
8.850097656250000000e-03
4.730224609375000000e-03
1.068115234375000000e-03
-3.662109375000000000e-03
-7.934570312500000000e-03
-1.220703125000000000e-02
-1.632690429687500000e-02
-2.014160156250000000e-02
-2.334594726562500000e-02
-2.685546875000000000e-02
-3.051757812500000000e-02
-3.265380859375000000e-02
-3.509521484375000000e-02
-3.738403320312500000e-02
-4.028320312500000000e-02
-4.180908203125000000e-02
-4.302978515625000000e-02
-4.470825195312500000e-02
-4.760742187500000000e-02
-4.913330078125000000e-02
-5.004882812500000000e-02
-5.218505859375000000e-02
-5.462646484375000000e-02
-5.691528320312500000e-02
-5.981445312500000000e-02
-6.164550781250000000e-02
-6.439208984375000000e-02
-6.668090820312500000e-02
-6.896972656250000000e-02
-7.125854492187500000e-02
-7.415771484375000000e-02
-7.659912109375000000e-02
-7.888793945312500000e-02
-8.132934570312500000e-02
-8.361816406250000000e-02
-8.621215820312500000e-02
-8.956909179687500000e-02
-9.292602539062500000e-02
-9.658813476562500000e-02
-1.000976562500000000e-01
-1.036071777343750000e-01
-1.077270507812500000e-01
-1.101684570312500000e-01
-1.126098632812500000e-01
-1.153564453125000000e-01
-1.181030273437500000e-01
-1.203918457031250000e-01
-1.223754882812500000e-01
-1.245117187500000000e-01
-1.252746582031250000e-01
-1.260375976562500000e-01
-1.271057128906250000e-01
-1.278686523437500000e-01
-1.280212402343750000e-01
-1.284790039062500000e-01
-1.293945312500000000e-01
-1.304626464843750000e-01
-1.318359375000000000e-01
-1.321411132812500000e-01
-1.329040527343750000e-01
-1.342773437500000000e-01
-1.358032226562500000e-01
-1.376342773437500000e-01
-1.391601562500000000e-01
-1.406860351562500000e-01
-1.412963867187500000e-01
-1.428222656250000000e-01
-1.448059082031250000e-01
-1.477050781250000000e-01
-1.495361328125000000e-01
-1.518249511718750000e-01
-1.544189453125000000e-01
-1.570129394531250000e-01
-1.594543457031250000e-01
-1.618957519531250000e-01
-1.643371582031250000e-01
-1.663208007812500000e-01
-1.689147949218750000e-01
-1.713562011718750000e-01
-1.741027832031250000e-01
-1.756286621093750000e-01
-1.770019531250000000e-01
-1.783752441406250000e-01
-1.789855957031250000e-01
-1.791381835937500000e-01
-1.785278320312500000e-01
-1.771545410156250000e-01
-1.763916015625000000e-01
-1.748657226562500000e-01
-1.734924316406250000e-01
-1.722717285156250000e-01
-1.708984375000000000e-01
-1.701354980468750000e-01
-1.692199707031250000e-01
-1.675415039062500000e-01
-1.667785644531250000e-01
