9.968453200707892367e-05
-2.115322612391852932e-04
8.783299736237298286e-05
-7.020512453011226533e-05
7.754468455358523278e-05
-6.892628535693774532e-04
6.815508836193962449e-04
-8.205467952328285492e-05
2.246158105801909712e-04
-7.668599991587072662e-05
-7.038432152815724387e-05
-6.179093050827191879e-05
-5.122083356914944986e-05
1.134392002268454078e-04
1.264091022750309893e-04
-3.181803468009270527e-04
4.574064082679086748e-04
-1.415329205728419002e-04
2.061340610404739063e-05
-2.773230061830479439e-04
-1.200761005270063227e-04
3.455876074626157554e-05
1.867745492035926083e-04
3.178114719511407490e-05
2.787165692123307997e-05
-2.820998974917607706e-04
4.758077131309619090e-04
-2.917703855108057394e-04
-1.428699249572410932e-04
7.421642804739403929e-06
1.593834337237046042e-04
7.923536193084497391e-06
1.632638087597739938e-04
1.673036783685635462e-04
-1.330539298857837452e-04
-5.858433975873261887e-04
6.393267540775335539e-04
-1.202845977000655908e-04
-1.186313655406652382e-04
-1.190407605106957043e-04
3.087254766121618019e-05
1.785213271535929604e-04
-1.336562439721211335e-04
1.025030784896003691e-05
4.189191228656389654e-07
-3.151103753695950094e-04
5.902090349418236993e-04
-3.347378071689471771e-04
-3.763878324710327814e-05
-4.396318330282989080e-05
2.568620541272722798e-04
-5.068238766056466012e-05
1.013125264986285845e-04
2.546915361182086699e-04
-4.882827834508507285e-05
-8.098160452856849106e-04
4.125973736664826914e-04
1.084546576074239073e-04
1.085234312159386527e-04
-1.976597508931519779e-04
-4.708290552744115817e-05
1.027399874902630697e-04
-5.296584772442278232e-05
-2.085178328405900541e-04
9.439693302426914164e-05
-2.118212146297746229e-04
3.991092110082250836e-04
9.635503195337590736e-05
2.532075106147065806e-04
-1.986696888071057591e-04
-3.897468512686231700e-05
-1.837451320585275485e-04
-2.316683607473891602e-05
1.370945556390472094e-04
-8.524244520556539803e-06
-6.128668000053033192e-04
6.127642545933252799e-04
-1.463356368479104672e-04
9.073179081495234372e-06
1.098175303423763438e-05
1.646756867171967839e-04
1.248672007764373922e-05
1.226031159868568936e-05
1.640833109410489040e-04
-1.422737259616910959e-04
-6.014477881794190461e-04
3.127072089056109221e-04
1.591206181270368681e-04
-2.989037737726272918e-04
7.082870050330348749e-06
1.617906692942609444e-04
3.178929278689932936e-04
1.752865126870793429e-05
1.759520700663999191e-04
-1.227657898003735337e-04
-5.739023146351232346e-04
3.480026674951176976e-04
-1.039442126435140366e-04
5.374105075984746929e-05
-9.446170270629498347e-05
-9.063411600796199849e-05
-2.396960614823811879e-04
3.741683886041629811e-04
7.273378797608250545e-05
7.682212980667817354e-05
-3.765638497855183808e-04
5.433740352587609771e-04
8.961324971827738513e-05
-2.125408738190842509e-04
-5.853798473550736204e-05
9.327906070065870490e-05
-2.152902223132327985e-04
-6.893763790471290601e-05
-2.305641157177254648e-04
2.156508996636971750e-04
-4.082564139638252573e-04
6.449325727474914402e-04
1.896558954993048628e-05
3.306229604185338881e-06
-1.644327703774003816e-04
-2.605629190918538085e-05
1.135684310206845919e-04
1.020559104348035270e-04
9.212067971279800131e-05
-6.873543353240235861e-05
-5.330090407535795259e-04
2.252967186109789831e-04
-2.350801694280680438e-04
2.222316039014805063e-04
7.143962525778675384e-05
7.545977704149641092e-05
8.152817991092827356e-05
8.930111808872105705e-05
9.828486382379124776e-05
-1.972919021657742068e-04
-3.402943527799243508e-04
4.316289145149717612e-04
-1.708217501089260735e-04
-1.174099258197778603e-05
-6.795880618279207697e-06
-1.559339598619550278e-04
-1.164439664042605455e-06
1.094686149905422605e-07
3.060850595964492433e-04
1.671717684625883874e-06
-7.601732180122973978e-04
6.147825337344559613e-04
6.720236117305248743e-06
1.620597167379776314e-04
1.230592872348679693e-05
1.672520307177602892e-04
1.588733539520755704e-05
-2.898557627441899608e-04
-2.927555113891922890e-04
1.594390567763575846e-04
-4.592295779171834728e-04
5.980076088514749968e-04
-2.536350480581778732e-05
-3.993174920924655704e-05
-2.079405895994617466e-04
-7.089880477505869816e-05
3.718846223885721638e-04
-9.969785279223579910e-05
1.932795670491167317e-04
3.042046542456398450e-05
-4.355216132472209279e-04
4.739769777453931975e-04
-1.402625645275967271e-04
-1.420409502094183531e-04
-1.417289141798020716e-04
1.327069343714244941e-05
1.781228290575199145e-05
2.450348900568582387e-05
-1.192827154473177233e-04
3.492406241373723834e-04
-5.538832734322097313e-04
6.803606929815998088e-04
-6.860111959031595140e-05
9.754093634705289007e-05
-1.954505936185914642e-04
1.196127571730998870e-04
1.264195185848271364e-04
-3.281391397560767440e-04
-2.352021166215437502e-05
-2.758318715181339823e-05
-7.974236925652069099e-04
5.671390379552422806e-04
-5.254327707387466219e-05
2.439722277356882324e-04
2.371345527676213451e-04
8.042440942867095364e-05
-7.302145729443039511e-05
8.215479833791363947e-05
8.803765619884794229e-05
-2.083738352207394724e-04
-5.024866028168229479e-04
4.257389793523823351e-04
-1.709537270593568400e-04
-4.387954893749749435e-06
9.322357864627669552e-06
1.748297409686823422e-04
3.391474244637942154e-05
-1.086271738671016669e-04
3.572671662622217432e-04
-9.445332216185891531e-05
-7.008795372659416519e-04
5.217584852397276181e-04
-2.409563605301605371e-04
6.313588670210809833e-05
-9.137226424575984099e-05
2.115223201195017737e-04
-9.588070283473534058e-05
2.074218877143456678e-04
5.346751277220594364e-05
5.260709257283566111e-05
-4.056447347164381686e-04
3.569508901255980969e-04
-2.538748244195528233e-04
5.042157427323722379e-05
4.890149991561829247e-05
4.657503804881491980e-05
-1.092216516819716817e-04
-1.132899813381662381e-04
1.870767467904550460e-04
2.913937013467377864e-05
-4.342568082474816357e-04
4.756388393115905671e-04
1.252201541464831556e-05
7.690188039403005567e-06
-3.016088684166288395e-04
1.528601163341041034e-04
-2.146559033439100462e-06
1.488713087954593277e-04
-4.536805686847634340e-06
-1.573577298022144609e-04
-4.623932921425997328e-04
7.585712743562266326e-04
-1.568498272266123802e-04
1.479949246778127598e-04
-1.582081188139429918e-04
-1.601303790273329842e-04
-1.046246376114283467e-05
-1.436394981299947737e-05
-1.910932605779207673e-05
1.281299519378986717e-04
-3.352761940714007343e-04
4.220624713530604904e-04
1.116472484452670551e-04
-4.554827182437774964e-05
-3.544984774916848836e-04
1.004480058600723535e-04
9.863163176366396409e-05
-2.073992260508491386e-04
4.029345647069538616e-04
-5.421342529113537491e-05
-6.635845772920114438e-04
8.633326058144792777e-04
1.011821122158494679e-04
-3.563017219909568774e-04
-2.041024611235677747e-04
-5.258403612933626795e-05
-5.417594125522107922e-05
9.661708062900884071e-05
9.505729048212874265e-05
-5.836427512077572879e-05
-2.105914652663885031e-04
4.016864887159052040e-04
-5.237304755327802826e-05
-4.687956414343267555e-05
-3.979872508612135394e-05
2.736470086478288359e-04
-2.261826068480575198e-05
-1.369680158853454992e-05
-1.579798426989983777e-04
-1.508345480302854583e-04
-2.978296324015643269e-04
4.689427880582554492e-04
-1.393550448055600832e-04
1.365132327299482303e-05
1.270118354426912276e-05
-1.418635745260322652e-04
3.132662858680038348e-04
1.577434387109214701e-04
-3.029466564404656339e-04
-1.530351505804617698e-04
-3.078928827348274399e-04
6.058255634396918698e-04
-1.585256056285799916e-04
2.980366817502175356e-04
-8.421745892801836339e-06
-1.627232017781488841e-04
-1.261845384112306386e-05
-1.612173244879486347e-05
-1.733272452527355218e-04
1.262238353048395531e-04
-4.904378099731563972e-04
4.186082292970970983e-04
-4.515384958793860820e-05
2.552287495468410204e-04
-3.579966137976872838e-04
2.520377563185713420e-04
1.021952382499793628e-04
-1.968353624964821807e-04
-3.455446875133076883e-05
1.312275492046798713e-04
-3.100754233948629403e-04
6.247747766958614132e-04
-2.691117317763388442e-04
5.938177087128918496e-05
-2.214854920144908063e-04
-1.968655749923747377e-04
1.326093201173839662e-04
1.560259361462073581e-04
2.548941925187193393e-05
1.983610349734482169e-04
-6.989711858211392374e-04
6.901892444311515497e-04
-2.119461018197980559e-04
-4.851095893121562367e-05
-4.019534423446937706e-05
-3.432565331634226263e-05
-3.075691396009470088e-05
-2.930348605170235909e-05
4.280047077068434356e-04
-1.844988493727359440e-04
-3.407211833671875832e-04
5.699119659574627657e-04
-1.989357186101449329e-04
-2.055732531444912818e-04
-6.001750475012379614e-05
8.552679923495299372e-05
-7.370374194620244249e-05
-7.954059776455423263e-05
2.209533430619940654e-04
6.508226245559973165e-05
-3.944693273580244706e-04
6.732788361776951462e-04
-2.414408642039492258e-04
6.532451970656941913e-05
-2.379709116398967647e-04
6.884892348879891597e-05
6.975906201246313810e-05
6.952470936531448837e-05
-8.472247723552393263e-05
-2.405221106759058438e-04
-5.504403383573199405e-04
6.641266425997425322e-04
1.990265401612581855e-04
3.808514932488200736e-05
-1.237532201786917859e-04
1.871857622950243356e-05
7.682011657450893988e-06
-4.393175490927991887e-06
1.349330426300786431e-04
-1.848335305992722258e-04
-6.586275485784671112e-04
5.445381709830331889e-04
6.769758639973195329e-05
1.996532531755881271e-04
-1.277226537779041905e-04
1.536805602976290997e-04
-2.422204049662085384e-05
-5.097102977453350981e-05
-2.315100892572022535e-04
1.974928707342844651e-04
-5.944507159448287606e-04
4.451384012055563865e-04
-3.984546626975450504e-05
-6.489582443946952800e-05
2.182218978512833081e-04
1.998675126977407100e-04
-2.719977617333122822e-04
2.368728992331189549e-05
1.715531379485447472e-04
-2.862034177800408248e-04
-2.816966904975553546e-04
3.372481731667338351e-04
4.416169421217216280e-05
2.115793088399395045e-04
7.567084849224037517e-05
-5.935980034843098773e-05
-3.470787623224866163e-04
1.271397048285606048e-04
-1.074550200331447499e-05
1.660734147530331488e-06
-4.463038133255383191e-04
4.763404347715451646e-04
1.757407294339797383e-04
1.781028638823054769e-04
-5.842106329582204965e-04
-1.269657556015247506e-04
2.461732970710371247e-05
3.289677630063651717e-04
1.763366608279628262e-04
2.496342758736536083e-05
-5.826124492787490084e-04
3.373593165818833959e-04
3.820603981949109479e-05
1.981204757806769349e-04
-9.884727210998693831e-05
6.231571503723944919e-05
7.072608950880236126e-05
-7.408373892032442539e-05
-2.198562645383795818e-04
-3.667376826966242849e-04
-5.146839653031535372e-04
1.014966294451163497e-03
-4.997525273520297289e-05
4.106379238431812008e-04
-4.437731827960499521e-05
-1.941554512978910393e-04
-3.437468410556670313e-04
-3.526403582365423032e-05
-3.150186207552107143e-05
1.254635674864986307e-04
-4.797531871502027506e-04
5.943255940595885620e-04
1.433020184059023629e-04
-1.979914864091917065e-06
5.522103995945445703e-06
1.273043440661522607e-05
1.910757501863235121e-05
-1.284296330377021731e-04
-1.250693550182792920e-04
1.816133677844180574e-04
-7.341874648538284677e-04
3.321730066672008686e-04
2.423216745783777896e-05
1.735993580408985812e-04
1.787262255094653862e-05
1.678343130126969042e-04
1.659854560852738270e-04
-1.401830618727986828e-04
1.217967482829242309e-05
1.251282921604284205e-05
-5.972191125647002526e-04
3.189328674821768732e-04
1.667201738381924605e-04
1.404920778710122432e-05
-1.392366094450605185e-04
1.193566764614346756e-05
9.752542583056682813e-06
6.802248719321619342e-06
1.557188088916685469e-04
-1.173699360841562057e-06
-6.163367588932683111e-04
5.992104912947229800e-04
1.361425222855708697e-04
-2.166879485844200185e-05
-1.791309040062838127e-04
-1.833392671781138624e-04
-3.392559312435071157e-05
-3.565879877961681508e-05
2.696370064562222013e-04
-3.319612494875885764e-05
-4.861207875318560674e-04
7.420485530452450513e-04
-1.084272331230285180e-05
-1.510344339769247675e-04
-4.418785087507175386e-04
3.367653422103277752e-04
4.799112948367057971e-05
-8.824379551345510621e-05
2.324685082085166897e-04
9.386674314908118478e-05
-6.572753894002755044e-04
5.725534594847077200e-04
-1.842103000567057189e-04
-2.844139192745859398e-05
-1.806483363294794533e-04
-3.006692816520226857e-05
-3.387870584684338644e-05
1.137721679306482361e-04
2.609922099846710740e-04
-4.935385454578618378e-05
-3.590032540958429364e-04
7.056666142727415891e-04
-3.647130369018339270e-04
9.195389155203437985e-05
-3.658873735455475370e-04
2.451602260425573567e-04
-2.114409825096572591e-04
9.502160989565195033e-05
9.607518103035191386e-05
2.491276894683683318e-04
-5.142684945430474807e-04
5.521881023190586138e-04
-2.138065481950960939e-04
-6.574460942994978234e-05
-7.166726199242958557e-05
7.383601313080525642e-05
-3.917895938676363540e-04
5.783147989322872089e-05
2.025425862396707400e-04
1.954522897211574228e-04
-2.681922329955139920e-04
6.429383398896853152e-04
-1.228053076292667063e-04
-2.766460124871793886e-04
-2.764972503360313698e-04
3.001851285356526211e-05
3.231667123659059579e-05
3.533751299368029458e-05
3.440260021176957104e-04
1.952213010784028570e-04
-7.164536953939706302e-04
2.028299783607078160e-04
5.378680152456530956e-05
5.705641760519802527e-05
-2.451463640087920355e-04
2.152953364790839935e-04
6.509386788489302965e-05
-8.541217266976856729e-05
2.215022430802029876e-04
7.024746430757230944e-05
-6.918389030350873123e-04
5.291651723581830167e-04
-8.149698948323267494e-05
-8.246369790832912315e-05
-8.412117997938248844e-05
6.608481391050739079e-05
2.155245541581505522e-04
-9.362080266510155470e-05
5.411105382166951714e-05
4.830732479444123714e-05
-4.162445066409227045e-04
3.389315570596698746e-04
2.508861878573227997e-05
-1.369278629669274218e-04
-1.469036191790544228e-04
1.480296683494942262e-04
1.378554798320222471e-04
1.281249286259960273e-04
-3.334766103643298013e-05
-3.461457541732313663e-04
-5.046807349797939038e-04
7.121280388256155973e-04
-5.235699776816294358e-05
1.011987734572463593e-04
-4.791098153026423167e-05
1.104833178880097852e-04
-3.431305781247719891e-05
-2.499984511102328893e-05
-1.469376019957991091e-05
-3.931969745590568786e-06
-6.035641433406351616e-04
4.747972624598708409e-04
2.644886432705614984e-05
1.873255649981930197e-04
-2.635258171152386124e-04
4.696875690066734752e-05
-1.020821232920317246e-04
3.572810756493388271e-04
5.165716615954300361e-05
-1.034680114948934493e-04
-4.132124955587335212e-04
3.433128634496289844e-04
-1.223799085448679894e-04
-1.313536954597617609e-04
1.179973014836089232e-05
1.551453627503049252e-04
-5.827989662122385165e-06
-1.274174411949901757e-05
-1.767631159887898769e-05
-2.028044911247499162e-05
-4.781595736708910919e-04
8.974489015447418725e-04
-1.359628452158847087e-05
-7.397209850604312302e-06
-1.526293540609352929e-04
-1.446984390782445637e-04
-1.367017150947390160e-04
-2.815929880952080817e-04
1.833770629636936422e-04
1.900680346902055391e-04
-4.140138544519312148e-04
5.075108607504355248e-04
2.081989764016523893e-04
-2.437560292219919885e-04
-8.542408986964609519e-05
7.274212205958715800e-05
-7.461451536069164990e-05
-6.997309507730460653e-05
2.389712975213474156e-04
8.897809138460848594e-05
-6.728375099809856324e-04
5.472467906032541267e-04
8.689167251336829577e-05
-2.230240322647413594e-04
-2.300253000048466698e-04
2.184320587441143484e-04
2.068494544353887581e-04
-1.120814250157307662e-04
2.476388400320895866e-05
1.598995106721619417e-04
-4.692300624186821530e-04
2.741031444402779768e-04
-2.034902829620748510e-04
-7.026821435173006289e-05
2.167346341848819930e-04
4.788628273896132135e-05
3.419819374969918662e-05
2.364260984600832967e-05
1.692431189673986958e-04
1.353686454417036974e-05
-9.010775036997700641e-04
3.245858168044975841e-04
1.808540871776150483e-04
4.066935653528885451e-05
3.612242607438934864e-04
7.361307733960649512e-05
-6.019177978908960306e-05
-1.938397461422862065e-04
-2.320497390821695433e-05
-1.595698150794437750e-04
-4.510706627294595026e-04
6.277074120028602400e-04
1.774093786941741450e-04
-2.760006095802718801e-04
-1.218408429574718361e-04
3.007392458391577145e-05
-1.247413820169145928e-04
2.484137857374144179e-05
1.744311417074105466e-04
3.247447960198125857e-04
-5.917448835663263913e-04
6.297303396496498800e-04
2.213307203556894292e-05
-2.782189564996812698e-04
-2.713708720803283602e-04
-1.100608398007418191e-04
5.287986177739974593e-05
2.171062027698876637e-04
-7.561372923456576793e-05
2.422251607841818593e-04
-3.560077048805635673e-04
5.702312081622989580e-04
1.208637661218819697e-04
-1.790855957626925942e-04
-1.777068826306539171e-04
-2.796353160006345153e-05
-1.875910370564178302e-04
-4.575444250455655256e-05
-2.118817519742314723e-04
-7.434447820401926196e-05
-3.946034636071356892e-04
6.598794613609072031e-04
3.438013419645909998e-04
1.839348322824980650e-04
-1.245030070000222359e-04
2.870077509687739400e-05
3.257644512150975461e-05
-1.138583556852964623e-04
-1.066214766121878347e-04
-9.954169104211624481e-05
-2.463431004875472614e-04
3.675932692109621595e-04
-8.938115503960030231e-05
6.097128335485654230e-05
-9.672387883495717513e-05
-1.041819700181342818e-04
3.944030807898632821e-05
3.005448829795536104e-05
-1.311163047947612578e-04
-1.376691872353149389e-04
-2.936945518923515862e-04
7.748972921857368457e-04
1.673749045946084485e-05
1.783117093757433753e-04
3.832692134039496689e-05
-9.906083423335233719e-05
-2.351788794535014009e-04
-6.633077103238093719e-05
1.008374042802900959e-04
1.124203390475499886e-04
-7.955739288986070617e-04
4.278971768851614114e-04
2.729655499667939071e-04
1.129413000470479459e-04
-2.044030520927470822e-04
-6.804976684180903137e-05
-2.400112692532008337e-04
3.489575223695587955e-04
2.164972539471756905e-05
7.488641702910463798e-08
-6.300296297082973824e-04
5.738769821058203532e-04
1.031931629161606233e-04
-5.780580061403049535e-05
-2.140003626257749457e-04
2.448985662099053087e-04
9.777846715907475476e-05
1.068628346972941198e-04
-3.391566267241659621e-04
-1.732791725628074736e-04
-1.596280892658321227e-04
7.687431565219607658e-04
-1.358213429497970054e-04
-1.276383164187519991e-04
2.971191600362660173e-05
-1.218405811677097808e-04
-1.244495962229659101e-04
-2.828045229988320657e-04
1.668896212855968699e-04
1.576567895969154627e-04
-4.617949726420310071e-04
4.460662529998169596e-04
-1.677733808865247071e-05
2.867705068493654774e-04
-1.686895156444232348e-04
1.427649156273776870e-04
-1.525472181053676981e-04
1.271589046597258284e-05
1.797210711448398660e-04
1.946287842708664239e-04
-7.068051057853758134e-04
3.733623653098112308e-04
-7.542226553941242288e-05
8.232571944786399069e-05
-2.219100063685551733e-04
7.995218058613236126e-05
-7.988328583369394727e-05
-2.430306348556583414e-04
2.017031720820734882e-04
1.871585718386386556e-04
-2.857064591800308499e-04
3.098466154296411284e-04
1.434514230814648063e-04
1.311191130970992477e-04
1.205531734291543614e-04
-1.932701771928766615e-04
-1.999089568006906493e-04
-3.570208434477417105e-04
9.850518863006499761e-05
9.879609683974781677e-05
-5.084662042789524303e-04
4.131662448277271778e-04
2.697687531993052629e-04
1.292930947211994681e-04
-8.704994032717932459e-06
1.602315080575591761e-04
2.482086655171785632e-05
-1.107944726211219634e-04
-9.503148570533459993e-05
-2.339147463594480646e-04
-5.280410023350144873e-04
3.955797207841377943e-04
9.552058226970832689e-05
-5.473160566558639764e-05
-5.485583569662181696e-05
4.006754815130247871e-04
9.146379584187088081e-05
-3.719306280401088222e-04
2.312937555661074651e-04
7.008664871500875975e-05
-3.978396390526985462e-04
3.533376104729776790e-04
3.479451348944025092e-05
-1.326672469400367194e-04
-1.488000066111419843e-04
-1.317785049218277113e-05
1.222211610477754243e-04
-1.995949574514791977e-04
9.037379766459386525e-05
2.301153580564373386e-04
-5.424250000932675413e-04
2.149084326196483126e-04
6.123197049285933119e-05
2.174649180905333427e-04
-7.947517827189490703e-05
2.380128934053846765e-04
1.009662767632756226e-04
1.186409234234832299e-04
-3.205360165628446376e-04
-1.496587516897003351e-04
-7.430908765169683431e-04
6.449015969854455859e-04
4.644939228282830683e-05
2.078131346101454830e-04
6.079633852335181198e-05
-2.418810677233388697e-04
-8.954755453380376542e-05
6.051312957954676727e-05
2.089036805750330451e-04
-2.540515828638212651e-04
-5.647254602590383180e-04
8.033905597486179712e-04
-1.164888731130987476e-04
3.287966651899918076e-05
3.087952182604674256e-05
1.825527130823698682e-04
-1.227661223894458103e-04
3.002661890280454828e-05
3.013314635688329907e-05
2.976110700477197139e-05
-8.868597316041606496e-04
4.845483204257582566e-04
-1.283749306837877417e-04
3.263513433861339329e-04
1.794734465311687379e-05
-1.378056554235856435e-04
1.644427694920218275e-04
9.225614215746208736e-06
6.831233714105504761e-06
1.570880914639944976e-04
-6.083637881448788988e-04
6.093752845290617689e-04
-1.572229790587258765e-04
-9.152772397882178449e-06
-1.671550922505985663e-04
2.844231336649792152e-04
-1.799870489044664917e-04
-1.866033772525238184e-04
-1.925490334467875242e-04
1.080775557280144034e-04
-1.995318163776555517e-04
5.636960514010270215e-04
1.093387905748765621e-04
1.159835931171597739e-04
-3.320686862758726976e-04
1.380426045497640947e-04
1.524100756130330190e-04
1.550131418215751014e-05
-4.259739467396255071e-04
4.807320818439033902e-05
-6.990649170789197493e-04
6.892085839656466369e-04
9.278502554489107240e-05
-4.712927569156129780e-05
-3.594154824957922624e-05
-2.655196866995385038e-05
1.332139566801409498e-04
4.428559534016007510e-04
-1.368946070615207327e-05
-3.213830833277592528e-04
-4.805633358944311792e-04
4.242034408904211268e-04
-2.008617272882631832e-04
-6.639694435181810422e-05
-8.708420354030145668e-05
4.333310436038863051e-05
2.090048880200361331e-05
3.046352879201762935e-04
2.853691161495984551e-04
-1.884553139180426265e-04
-6.582513939869251126e-04
5.550295915250877702e-04
-2.104028874200953030e-04
-5.533978030557845911e-05
2.570301477760412383e-04
1.158239764993539579e-04
-1.745678161807317347e-04
1.478070823631251799e-04
-1.388711211544515350e-04
1.849379544750411942e-04
-7.129460233964209775e-04
6.759820750966704121e-04
-7.417940608510406977e-05
-2.175029737366437855e-04
-2.121913669225453818e-04
2.467091220923931199e-04
9.106676593404847034e-05
8.399249053684102373e-05
2.258314846860572805e-04
-9.325361183936328193e-05
-7.199893760403726492e-04
6.352979512709871655e-04
-1.462571835965962110e-04
-1.643661799651809324e-04
-2.821431475164258720e-05
-4.184545131937030031e-05
2.535076825206206250e-04
-2.094909274139068213e-04
2.480950467731186243e-04
1.004845461211325918e-04
-3.474500977889348973e-04
2.768843974778031946e-04
-1.120282511901801288e-05
1.602588409621525181e-04
2.684713075989176082e-05
-1.077730743452431233e-04
-9.240656184894568709e-05
7.181258488317159483e-05
-7.363998784667436512e-05
-2.239040523693181135e-04
-5.314224979032282315e-04
3.776539089341973145e-04
6.278522319568058190e-05
2.034693861431699697e-04
3.781182414026653684e-05
1.770941814977613550e-04
1.642834945665556630e-04
-1.209063810899672503e-07
-3.158347534674223775e-04
-1.979999018629393899e-05
-3.327054311883728558e-04
4.238802795112226666e-04
-3.890834025307536310e-05
-4.264156263470774506e-05
-1.976880811467204824e-04
1.063077565379347939e-04
1.064260530207349520e-04
1.078676138281167831e-04
1.106532098150450844e-04
-1.903833180274534082e-04
-6.426628494007040771e-04
5.848269473529817478e-04
-1.701273221378675482e-04
1.440300696724238513e-04
1.088786960495466186e-06
3.161044950885386821e-04
2.036997093281245601e-05
-1.238345206221347253e-04
3.543134232067626105e-05
-1.127321120080095881e-04
-7.212862302866130402e-04
3.458435613418570868e-04
1.895498526902480107e-04
3.078076344596572045e-05
1.750847006449532622e-04
1.255690963096396796e-05
-1.511447407695706044e-04
1.422394152509732059e-04
-2.231642042896048655e-05
-3.395688528184517070e-05
-5.025344919579949679e-04
4.034812763388270058e-04
-6.207259533379708258e-05
-6.782436040486837709e-05
8.121863894174083192e-05
2.324523126059426133e-04
-2.246905342029542434e-04
2.352675776845763859e-04
2.384930471880460274e-04
-6.303759070331479389e-05
-5.173267229401721633e-04
9.584925639039874943e-05
-2.074523000555576627e-04
2.511471029582941386e-04
-2.067034079445580468e-04
2.503311510433354039e-04
-5.583054212620570185e-05
9.593990901129152249e-05
-5.689314794444837121e-05
-5.623470628584309455e-05
-2.070399058003723788e-04
5.588921493782843340e-04
-1.999020734190349148e-04
1.103828973553856648e-04
-1.890086289449538471e-04
-3.030600466179797693e-05
-1.768018376040729098e-04
1.341214326272069661e-04
2.918496704303807573e-04
-8.978618839426259315e-06
-6.158746611826150389e-04
3.022049121791946279e-04
-1.256380991023326572e-06
1.523271280035642440e-04
-3.050176133093647577e-04
4.579027668613946380e-04
-1.980967067838585790e-07
-7.517207162366987123e-07
-3.065988201032104877e-04
-2.094365444822256198e-06
-3.077880152787315963e-04
6.075676385203775684e-04
-2.386921541852540852e-06
-1.537719385734153603e-04
-1.515257977461026938e-04
4.574908850751262895e-06
9.544623279524218012e-06
1.610068156214967294e-05
1.768657509571233710e-04
-1.186059106267587661e-04
-4.128025273876250356e-04
3.619626024570203756e-04
2.214376174005054231e-04
8.037904627845132396e-05
9.049479802125749207e-05
9.829689698075187677e-05
-2.021936110930150376e-04
-3.537952088457715786e-04
-5.158944092528654061e-05
9.419782413450734828e-05
-5.262786058189229460e-04
3.766233814011401919e-04
2.099397608481959397e-04
4.288659474169082800e-05
-1.234982587997431806e-04
1.694143297428600797e-04
1.593062710448699072e-04
-8.857791079568508462e-07
1.466917333833647340e-04
-1.610218487685427969e-04
-6.191171717068849048e-04
2.979362986256175083e-04
-4.242660764033798759e-06
-1.841165899713180104e-07
4.501804174194424487e-06
1.619324123137046297e-04
1.383216669670903920e-05
1.700102210728113229e-04
1.957355551312184143e-05
-1.327922802424597840e-04
-4.400544959086623320e-04
3.182768302332703025e-04
1.585506296597660909e-04
-1.560805117062024044e-04
-1.483406632271487167e-05
-1.800235851393936653e-04
1.120688125203136976e-04
9.937294404731212194e-05
-6.464015308413512161e-05
-2.265707008804742034e-04
-2.331755661793006435e-04
8.314946970410364404e-04
6.840453284826948622e-05
-2.337986017659333211e-04
-7.556276268571793177e-05
-6.789623670730238821e-05
9.360413703126150772e-05
1.029737009094548435e-04
-1.930872828706828130e-04
-3.219746089557942281e-05
-4.828258677887305628e-04
4.385375092904193186e-04
1.379699675089127414e-04
-1.100481215517977111e-05
-3.132236340375876295e-04
2.998177857608714278e-04
-2.548112160724072422e-06
7.223769566055137940e-07
-1.478748908316706516e-04
3.147549282610860957e-04
-4.424042962386294671e-04
1.745587934814229060e-04
2.921173705579742269e-05
3.677009658462778948e-05
1.968321894934198994e-04
5.117655294198932773e-05
-2.480754689128964667e-04
-2.435813121448593421e-04
2.169208881903766646e-04
2.177076224404118562e-04
-6.990354775862141516e-04
5.185421468722788618e-04
2.085522732882279088e-04
-2.553861288139698776e-04
4.266730163924773540e-05
3.507615553022732242e-05
-1.250463771977664788e-04
2.061106123036083188e-05
1.482269462125725179e-05
1.066345739118111742e-05
-4.492424083489456195e-04
6.189851437109983529e-04
-1.415474036562643979e-04
1.555256859870046129e-05
2.174397659847899090e-05
1.815642704610574926e-04
-1.161342863815028454e-04
4.330185178173577250e-05
4.866634019130777961e-05
-1.007761902847204336e-04
-4.055522657364197896e-04
3.547877621964112002e-04
-1.085261213520390784e-04
-1.166868485111121083e-04
2.571674495239650480e-05
1.426891540268479358e-05
-1.501898393923713194e-04
2.961011525044870149e-04
1.331482747155391690e-04
1.244181777531342065e-04
-4.927222217032406352e-04
4.180389020887787552e-04
-4.258688726561018763e-05
-4.381659637783198095e-05
-4.377840239379822743e-05
-4.286444542017368744e-05
-1.940226795876653508e-04
1.128154956833071407e-04
1.145301109071677706e-04
1.162248017747782467e-04
-6.450138056565042372e-04
4.249097162130035707e-04
1.217932792876483511e-04
1.242526653229753583e-04
-1.779419306301182517e-04
-1.743668296203299169e-04
1.349876912843912618e-04
1.397103227287527412e-04
-7.743980491122021400e-06
-1.549937430747730708e-04
-4.549042262421659050e-04
6.180585433963290158e-04
1.172933473085694500e-05
1.446992973161432643e-05
-1.371349077072904813e-04
1.668209422259057289e-04
1.045931173816936422e-05
3.944853147174878949e-06
-1.578588078533380771e-04
-1.688046762710438493e-05
-7.932405752964377275e-04
5.656387539543436538e-04
2.460362084054363413e-04
8.002836227593066289e-05
-8.401930049212183644e-05
-9.273247413386318536e-05
-9.815251249551949731e-05
2.051568582117480988e-04
5.421126646019756151e-05
2.116095035710221747e-04
-3.913594417366050631e-04
2.281649851551013420e-04
-6.692725340598661534e-05
9.577519781168507913e-05
-2.000392288197109006e-04
1.131396027658610300e-04
-3.316738604644451597e-05
-1.812874536870576767e-04
-2.586851370939491834e-05
-1.768652174487795584e-04
-3.285701112394541512e-04
5.876835937569097187e-04
1.309378283868505943e-04
1.324889626180028558e-04
1.345529688865994993e-04
1.368552095743911698e-04
-1.662394994759102762e-04
-1.649099139426275275e-04
-1.221491777605322484e-05
-1.662144392406699367e-04
-6.269564551274972326e-04
2.842410150178623519e-04
2.789923607616935641e-04
1.207964640402085077e-04
-3.718164258918090349e-05
1.107293568730051224e-04
1.071085578779713225e-04
-2.004777155579702292e-04
1.034619036607612824e-04
1.032000814746806953e-04
-3.541698071563013678e-04
2.568489080838124686e-04
-4.777509414577615877e-05
-4.768155416803988671e-05
-4.829984703615759002e-05
1.028246568433280772e-04
-2.046566097938585832e-04
9.750997405238812251e-05
9.405343381722801950e-05
-6.209571379230425592e-05
-5.231389951463031760e-04
6.949473341035874736e-04
-6.961891464664032403e-05
8.256657664285481260e-05
-6.907699920444959618e-05
-6.677238339895986844e-05
-6.318186458298409418e-05
9.414863857581301694e-05
-5.271017100840356593e-05
-4.617129672956239841e-05
-3.441755077119920811e-04
4.263901942937264140e-04
-2.348028937445716157e-05
1.370605406180900004e-04
-1.603311515324245412e-04
-3.675876178946195852e-07
6.370568962391546382e-06
1.648680135414282676e-04
1.723667600075445377e-05
-1.313805979380725962e-04
-5.860872198587479620e-04
4.843435329739765650e-04
2.839560376244422343e-05
-1.226149212264817919e-04
-1.210531029684811888e-04
4.909764680082108089e-04
3.501250238858446499e-05
-1.157842814169148242e-04
-2.668379463754641805e-04
1.918752795221221794e-04
-4.184713634672217728e-04
6.483587026609730552e-04
-1.174439916624826058e-04
-1.220755690763961673e-04
-2.811192677820070480e-04
1.684698298079912034e-04
6.265008592467047174e-06
1.482297401610330428e-04
-1.542149968881617659e-05
-3.314495947501167679e-04
-3.414127255119142482e-04
5.656750039594874357e-04
1.015095690169850128e-04
9.747412136823289627e-05
-5.667754951251704576e-05
9.670253866186512292e-05
-5.303417794819321627e-05
-4.853624586195878012e-05
-4.284258482222712489e-05
-1.889613862413923534e-04
-4.872347820195659833e-04
5.879682278606205821e-04
-1.678659880813863838e-04
2.969005145202468360e-04
-1.477374599894968137e-06
1.576047349332387957e-04
-1.414651770541242254e-04
1.679960600890365862e-05
-1.304995743697017960e-04
-1.254483401690206193e-04
-4.255451944932297820e-04
4.954402047104286078e-04
-1.086959329950515937e-04
2.037792177654267187e-04
-2.454057533337058810e-04
2.222158685005058872e-04
8.053154607464176864e-05
9.200798030995868573e-05
1.033745850088657348e-04
-1.913767766188318169e-04
-6.405598540760872690e-04
5.859940921189289676e-04
-2.202949814004940085e-05
1.287296734811495995e-04
1.223294974330823149e-04
-1.939575109278380421e-04
-2.095973240390606725e-04
-7.664842984717184257e-05
5.316693273859355489e-05
2.840935184868151602e-05
-4.547594138636897390e-04
5.887062925751100108e-04
-4.420762454122881074e-05
-6.355355404368584113e-05
7.372590373213647858e-05
6.290076600105740838e-05
2.091960615850786784e-04
5.452706243225610315e-05
5.603582366629223635e-05
-2.448623853266018312e-04
-8.490762033392273327e-04
6.839032085690697040e-04
8.079802093178292633e-05
8.749241266371722526e-05
-2.121014433480805997e-04
-5.545817171637077412e-05
9.939483562186345641e-05
9.975535153237746278e-05
9.824155724910442814e-05
-5.756577010512259763e-05
-5.199553273952676937e-04
5.425439072382994997e-04
-7.390357307937532312e-05
-2.324969136833448353e-04
6.735363764659376036e-05
2.158616011949210205e-04
-2.442398435107176989e-04
2.133179676292115158e-04
6.290867173836439718e-05
-8.502017311550577226e-05
-5.357143444106494826e-04
3.890545924446865765e-04
4.000653829617851803e-04
-4.547094930400322763e-05
-3.378721057122001359e-04
1.324809083545061745e-04
-8.432688647752385237e-06
1.666968457154558226e-06
-1.429260655272726610e-04
1.677842055566778311e-04
-2.870589959083061555e-04
3.236548025399625336e-04
-1.360516256298367982e-04
-1.398781335866066658e-04
7.544414784162183496e-06
1.652792990203157741e-06
3.008284482660267289e-04
-9.893407245213270117e-06
-1.671158786041360210e-04
-1.793391254051114849e-05
-3.251320349453738008e-04
4.371494617661072970e-04
2.850737197888557426e-04
-1.713613226336475014e-04
-1.696920669025558026e-04
-1.682250846522475153e-04
-1.492012998385358360e-05
2.897290463016717697e-04
1.349822370780418934e-04
1.309533754314128236e-04
-6.379303959912755633e-04
1.173249703048017604e-04
-4.428560724994808008e-05
-5.405028171675495794e-05
8.875954107153555261e-05
7.974282366755212860e-05
7.221636942943248088e-05
6.678139173104164395e-05
6.385221367977511153e-05
6.362626405120165682e-05
-5.442685339991857859e-04
5.287701926936703946e-04
-7.456341318810692266e-05
2.392475363208440130e-04
-3.613739219343040836e-04
-1.984663599887752871e-04
1.171828088592507275e-04
1.274762410019356226e-04
-1.522080446223522477e-05
-5.855998155906546016e-06
-6.074205375541256785e-04
6.214730156217767578e-04
1.868559434640869245e-05
1.781334236605809521e-04
-1.210299460652356017e-04
3.652504023058925260e-05
4.023133494645318383e-05
-1.100920827759528019e-04
-1.093622594769485276e-04
4.245769113210130059e-05
-4.173870169704734954e-04
3.424793259128356988e-04
1.862441584641961253e-04
-2.752849254787104747e-04
2.643553886351081978e-05
1.762161268577899873e-04
-1.309227687119840456e-04
1.731546348241771831e-04
2.016754886840166160e-05
1.727202541408505757e-04
-5.903523129141939477e-04
6.295951242023358537e-04
1.735525169271678403e-05
-2.912549658609522667e-04
-1.438879713728959510e-04
1.683634895087772854e-06
-1.594670216158352303e-04
1.360935996226863285e-04
1.261160389806371691e-04
1.165861971366971014e-04
-6.545949371525001210e-04
5.599321656251414958e-04
9.868468245472388270e-05
-5.429223277901310744e-05
-2.040435749776466827e-04
2.596250685228627671e-04
1.155817399909582157e-04
-1.790645312219978059e-04
1.378156928750136107e-04
1.498159479981665950e-04
-9.068623208121675541e-04
4.765404517346305655e-04
1.795401487884891304e-04
-1.198294101191484882e-04
3.594707364564599149e-05
-1.161399989862621149e-04
3.435418869821042835e-05
2.990101911540342706e-05
2.343915145655562743e-05
3.205842639850195052e-04
-6.040367908308565993e-04
4.544744714492472758e-04
-1.282011941547366177e-05
-3.268574135350117943e-04
1.233020083212960918e-04
-3.508143471849189493e-05
1.139998448362007709e-04
-3.943532698505257785e-05
-3.739993079730840957e-05
1.201517087113985224e-04
-4.824603588807015631e-04
5.958115882900128597e-04
-2.520705707094674053e-06
1.632315082822016295e-04
-1.284547974687131765e-04
-2.680674097968229743e-04
4.880198221299787502e-05
5.859993026012195788e-05
-2.390767340928838243e-04
2.237206518171550257e-04
-3.839994286553045509e-04
3.794261621621354270e-04
-7.960404421997500446e-05
-8.216437339301444626e-05
6.702434149242584985e-05
2.157642584594163747e-04
-9.342736162455678173e-05
-9.746170374877963650e-05
2.036796132948285633e-04
4.696548974270112030e-05
-5.677697836429588781e-04
4.955088833191138983e-04
3.227748866562185219e-05
2.606288030028713491e-05
-2.860854752529667509e-04
1.148748598875480558e-05
3.539377165292737987e-06
1.482719952552027996e-04
-1.641033413042603233e-04
-1.742200545574083641e-05
-4.791559375886736264e-04
5.874938059898200454e-04
1.311804854480127624e-04
1.357328013813567896e-04
-9.275252708213211665e-06
-1.515869152815390588e-04
-1.391647687276625239e-04
-1.253110418707103428e-04
4.174165253602996322e-05
2.085292751679903309e-04
-3.887768335489212037e-04
5.377793214353945254e-04
-6.435148116855815732e-05
9.298190248092515187e-05
-2.114046838146615764e-04
-6.221596020294529864e-05
-6.973697438541447407e-05
-8.099259950938106237e-05
-9.528909200262536871e-05
1.934981634166470048e-04
-2.816238701156651173e-04
4.641835922024014401e-04
1.432709035544253739e-04
-1.751950506249279208e-04
-3.377616743707431203e-04
2.665491965983928240e-04
-1.929668712574136088e-04
1.147900203654320279e-04
1.214284105541113952e-04
1.315290515461355991e-04
-3.135576716330872602e-04
3.109256562478991031e-04
-1.325282599339934670e-04
1.858022791478458374e-04
-2.612403033651931948e-04
2.036986377479697906e-04
-2.512788574418588499e-04
5.180016279841751349e-05
-1.078632025278644001e-04
1.855709743254340272e-04
-5.930852712198714629e-04
3.037518783432170059e-04
2.833041434556870641e-04
1.098293726854155907e-04
-2.153600129711280217e-04
7.189036010218875436e-05
5.710111927824611494e-05
-1.063081504495777356e-04
4.000823745889365386e-05
3.859758806477386824e-05
-4.156884267309751495e-04
3.553555151511536840e-04
-9.022421566344884596e-05
2.303989561658571425e-04
9.547753819532548509e-05
1.141602702504353027e-04
-1.725789343054229047e-04
-1.555931995833959383e-04
1.150005918181513566e-05
2.276771722379007765e-05
-7.325668344046407923e-04
7.971761699024480395e-04
-1.179883633917627489e-04
-2.732207258966627282e-04
1.795581393183178864e-04
1.729869580837446372e-04
1.300341660798301105e-05
5.489903082125424941e-06
-1.532461494830712335e-06
-7.574523615642963940e-06
-4.700389693415272813e-04
4.423598815518986699e-04
1.357291595379193753e-04
-1.692532510991442854e-04
-1.675538526091617389e-04
1.405846673770578539e-04
1.444891457006758405e-04
-1.562168753478166208e-04
1.000528054077131570e-06
1.579693147130265722e-04
-4.486374360501879763e-04
3.170621815743331052e-04
1.336319074321114181e-05
-1.392743830969351377e-04
1.641429072555910629e-04
1.605631438148180060e-04
-1.500406905478110378e-04
-4.649685401518452363e-06
-1.340833717619466700e-05
1.292063669532922247e-04
-7.970266348939762007e-04
4.128251541822006631e-04
9.728832985523062113e-05
2.406187980094139263e-04
-7.219051569579390038e-05
-7.782401096243292567e-05
2.239287756608904722e-04
7.018205768455140357e-05
-2.339575255371102995e-04
2.268946873743464337e-04
-8.362449917154408724e-04
5.437586756761851213e-04
2.469140349466326522e-04
-2.009936318082309280e-04
-3.422915044207907741e-04
1.280758196669907036e-04
-1.078368762021087919e-05
3.089481838016671614e-04
1.713108957238611426e-04
1.860837604969299162e-04
-8.681189631613450306e-04
5.174860044566726054e-04
6.971139290266771397e-05
-2.284469609136169474e-04
-7.231930072412246684e-05
2.326042591498794776e-04
-7.670038080363013235e-05
6.805020145967633437e-05
5.693235452707736934e-05
-2.619668244039181026e-04
-5.825875645149018083e-04
4.693856021541450204e-04
3.010271289972345416e-04
-1.854427130199560298e-05
-1.833142764000015874e-04
2.650829869237629629e-04
1.062763298025781072e-04
-4.931701301770807539e-05
1.033144825401109441e-04
-3.516938551497809386e-04
-6.518529298259865710e-04
5.756108761280008231e-04
1.257915550329110049e-04
2.869138609729956113e-04
-1.623400029082388294e-04
-1.873995199501375557e-06
-1.477685364880945620e-04
1.624713846866366544e-04
-1.395555904408190683e-04
1.417130075029979516e-05
-5.969451830832003857e-04
6.213748991455985294e-04
7.440108035298801627e-06
-1.494466999803049933e-04
-1.392235803134131003e-06
-5.745273588406853834e-06
1.429696865325150884e-04
1.397322860559274769e-04
1.371375017105525636e-04
-1.701088771599044492e-04
-4.770307869763223030e-04
4.368473351258350418e-04
-2.267436760313886048e-05
-2.468662007155238296e-05
-1.796006593008555295e-04
-2.961490766462610203e-05
2.728151517904059105e-04
-1.876288007600390739e-04
-3.739986511001906148e-05
1.134155324091660951e-04
-4.978895332287525512e-04
7.228374119579509790e-04
-3.905048091750018655e-05
-1.896326981559127913e-04
-3.427428903204294609e-05
2.741647212400549565e-04
-2.755917655009965193e-05
-2.419424526012539287e-05
-1.736923953114914709e-04
-1.709355307412838371e-04
-6.261902433853477846e-04
5.969731529516211950e-04
2.944575967039604158e-04
-7.641903711751094674e-06
-1.566269819362599107e-04
1.526385829478399002e-04
4.429492493989770160e-06
3.139425646132982238e-04
-1.399350583700305914e-04
-2.895076806103871595e-04
-7.454883375956919498e-04
6.280972394292969052e-04
3.215930632778125236e-04
1.344476298444389523e-05
-2.962724257594458589e-04
1.555395519194926958e-04
-1.567639716743207332e-04
1.404101814541034170e-04
-2.069561950494008134e-05
-2.933596707659476494e-05
-4.954587859557723056e-04
5.649586262520242584e-04
1.004784316536844446e-04
-5.761671763888429726e-05
-2.143847713884118860e-04
8.794493257223193173e-05
8.634309762690738207e-05
-6.676482207473101492e-05
2.387694203393389417e-04
8.721116025736788463e-05
-8.267899286325450757e-04
2.432337742588267372e-04
2.454788629149479758e-04
2.480720300092207546e-04
-3.592940076782819123e-04
1.018987318946570550e-04
-4.678049932593961408e-05
-4.238937811144937400e-05
2.676153423450521734e-04
1.201932605766562736e-04
-7.899900238859036347e-04
5.886120733583087615e-04
-1.671663230302376281e-05
1.403181423212853253e-04
-3.138777904506963833e-04
1.462799357818012232e-04
-1.579332773746077324e-04
1.465799393762601624e-04
1.441869474837583669e-04
-1.252026654952044912e-05
-4.759986066314953542e-04
2.798993844610107818e-04
1.193486979139983317e-04
1.109934475766672426e-04
-3.548897290497753532e-04
9.568484972674353155e-05
-6.244340611167400513e-05
8.694048834306206488e-05
8.666605981144442569e-05
-2.154232397493172015e-04
-2.087706034039492516e-04
4.117246016745598151e-04
1.197922961296418390e-04
-1.716479990764679367e-05
-1.449423201624234360e-07
1.696477503646636983e-04
3.315749028533200132e-05
-2.582662675812154827e-04
5.727699147214438714e-05
-8.904019552499504043e-05
-6.975165049609843978e-04
5.208122749737202802e-04
5.698592689146279720e-05
4.813155382132458575e-05
-2.675708666361643223e-04
3.317981904948287975e-04
1.637329633545185094e-05
7.908343645462364774e-06
-1.505387676709513036e-04
1.519095045529006384e-04
-6.104375470902860751e-04
7.665979669043531796e-04
1.004059578453987086e-05
1.824334737901354270e-05
2.723218995772573679e-05
3.587605586001727507e-05
-2.620864246211526629e-04
4.797155197238647719e-05
-2.552560523375105024e-04
-1.038942964710916459e-04
-4.133430244225931149e-04
4.953048922454687114e-04
1.812949948775663454e-04
1.865940833189262986e-05
8.114776073069695277e-06
1.502700436111558747e-04
1.404081578380442447e-04
-3.263406382400764537e-04
1.234968987584653946e-04
1.167345908343724861e-04
-6.517275752373436013e-04
5.647758209334255127e-04
-2.009331445398173798e-04
-2.021484037257609691e-04
-4.910832132449762704e-05
1.056600316837870922e-04
4.147086414082175689e-04
1.149337361574962683e-04
-3.102228713988642791e-05
-2.356101875390631930e-05
-7.786644319364791891e-04
2.972094748383416539e-04
3.044829303718252244e-04
5.753848429103553267e-06
1.110668702944984073e-05
-1.374122358401284644e-04
-1.347405038165134931e-04
-1.335099023158662832e-04
3.240516878591975032e-04
1.698653050735581590e-04
-4.434408780791258722e-04
3.152174757025670332e-04
4.452193826407672472e-06
1.501623063138408725e-04
-1.631303675419080057e-04
-1.978410022011194597e-05
-2.993397567436372240e-05
1.119408996029146652e-04
-3.566191289425271423e-04
-6.173020718735237812e-05
-2.234417843937677164e-04
5.321733789438662376e-04
2.220015057435916091e-04
-2.380890043596510172e-04
6.753079825461839718e-05
-8.199466616288161327e-05
2.284759500319562178e-04
-6.974321697140504843e-05
9.077717863342801125e-05
-2.062114352898825162e-04
-5.036246167501769047e-04
4.186645179060120370e-04
1.188128537440049623e-04
-3.017260368833254048e-05
-2.842358564826900463e-05
1.240740096635752293e-04
-1.828812892067832499e-04
-3.349174501032475528e-05
1.148440409016297938e-04
-1.952163920941370613e-04
-3.528956400271700310e-04
4.051159590916665458e-04
2.480195661010553944e-04
9.144338464171150583e-05
8.791617171485692289e-05
8.467063369156553078e-05
-2.236896793058361160e-04
-2.269757272066734877e-04
7.480199511528329770e-05
-8.109100515687675667e-05
-5.416307358621768328e-04
3.722783065604222592e-04
6.737578928906730270e-05
7.025973241575737577e-05
7.633090008027578366e-05
8.591142127992646880e-05
-5.359714366996880708e-05
1.151901912017640569e-04
1.337723768128708289e-04
-1.514837616269709361e-04
-5.892598069625131591e-04
6.501106063245009909e-04
2.083041476525140793e-04
-8.489032734916503609e-05
-7.789641620146725294e-05
-7.652139890044629275e-05
-3.860917148216059603e-04
-9.069749562351221792e-05
4.762378321974042100e-05
1.827972956728378081e-04
-5.990760332758946621e-04
6.029095048571275631e-04
1.282921236210007084e-04
1.146829004811394264e-04
1.052963941984718142e-04
-2.045428282821180443e-04
-5.188587270214685789e-05
1.050633357258896818e-04
2.654981720239715359e-04
-2.940415224207665714e-05
-6.282350098990885931e-04
2.988960299999153590e-04
4.378154948733047209e-06
1.328985971242220949e-05
1.994383681949870018e-05
-1.284422812625516752e-04
-1.265741557071898020e-04
2.594337888750521094e-05
1.771276385896609277e-04
2.252844311258735875e-05
-4.371102263360417540e-04
3.247497519104248641e-04
1.723588825018751035e-04
-1.311124448593967303e-04
2.463104384845472876e-05
3.340776882461882376e-04
3.389051869605956275e-04
-2.667408234406271105e-04
-1.102331757194469411e-04
-2.601968460791685592e-04
-1.022054757368369513e-03
8.086006964486115939e-04
4.412407454555230721e-05
4.198254015129117311e-05
3.983854342984424253e-05
1.908274892221590072e-04
-2.675969677444637652e-04
1.906185071269451568e-04
3.447043602573810948e-04
1.943751285691204056e-04
-7.185754180818090244e-04
1.993361698955594709e-04
-1.041322211922465920e-04
-1.034812548483213409e-04
-1.041127398405184611e-04
1.990933441660414907e-04
1.958904446611387440e-04
3.910701561684099448e-05
-1.183240528668852139e-04
-1.233987954136676977e-04
-5.860208273308363568e-04
4.778820002023132668e-04
3.220795946856160898e-04
1.674946870209530864e-04
1.418335119817199239e-05
-1.379581346861228329e-04
-2.891590946666820869e-04
-1.345514942795049461e-04
1.729309615247192873e-04
-1.300134904212901159e-04
-2.808215249010252062e-04
6.356377342863339793e-04
1.775409433244410870e-04
2.293940161294003932e-05
1.888546911622007870e-05
-1.400197778022970862e-04
-4.537761857428024054e-04
-1.591572572398407509e-04
2.866624728909069621e-04
-1.835861052620628604e-04
-5.007855095102248201e-04
7.093745148392822377e-04
2.434329162577941882e-04
-6.693927297034415417e-05
-6.889441113438273152e-05
8.485564721805093579e-05
2.412505351263736695e-04
-5.820562715360820972e-05
1.011504114634415849e-04
-1.970583517686127020e-04
-8.009416349227262664e-04
2.726972612183270472e-04
1.245346803807589593e-04
-2.461060009796611406e-05
1.307505393555129496e-04
-1.931965918391277258e-05
1.359443915182544874e-04
-1.348100475595882750e-05
1.429357055724149060e-04
-5.157094673765699767e-06
-6.105309258637521726e-04
4.626974896172687986e-04
3.148860676809963938e-04
-1.389786150389894879e-04
1.686847082711628561e-04
-2.884398711346933329e-04
-1.373108065613753309e-04
-1.408592498585801295e-04
1.589757046835880408e-04
-1.527649961822408404e-04
-4.649566441591507552e-04
4.439772065643408493e-04
2.860664892828055912e-04
2.827170133568082644e-04
-1.759553486243564798e-04
-2.164522522438970282e-05
-1.737347667721180627e-05
-1.634525962053512220e-04
-2.605022704012316102e-06
6.805117033669186233e-06
-4.410611746746011968e-04
6.367538274279607767e-04
3.523256757278947124e-05
-1.100168231384040618e-04
-1.046976820078019082e-04
2.033988162096327112e-04
5.115719408946435407e-05
-4.087631818595164083e-04
4.468253240338235688e-05
3.880546575938345914e-05
-5.781686835183672294e-04
6.361050954252505827e-04
1.730576814734462567e-04
-1.354076480211348398e-04
-1.360614742703203199e-04
1.886633707462893945e-05
1.768173296025000085e-04
3.230425269670399657e-05
4.246085893130400151e-05
2.063966905650659262e-04
-5.450654985227624183e-04
3.809443432574056575e-04
-2.209897781327731085e-04
2.422188442088606857e-04
-2.137247082183214874e-04
-2.158591912108118540e-04
2.358436096342955040e-04
-7.893514624822321019e-05
-2.439677524420808007e-04
1.994520181347425960e-04
-2.734697195391356107e-04
4.746112856671758410e-04
3.319277224139286623e-06
-1.606134464654884828e-04
1.360142162459294229e-04
1.306087149282747777e-04
-2.415589099828191119e-05
-2.324083597064441434e-05
-1.953860122255523941e-05
-1.660486217364969420e-04
-6.158274278191141170e-04
3.090928308056242356e-04
4.719540444448980265e-04
1.773639724210815264e-04
-2.701146059539492991e-04
1.969937825857731649e-04
-2.529893343245334029e-04
5.785176702012289772e-05
-9.160830371426606554e-05
6.131944624560254980e-05
-5.515367871276961789e-04
6.639532631914573475e-04
4.598837892399859075e-05
-1.161640383511070745e-04
2.546540172635539202e-05
-2.914286895489284161e-04
1.545332040420831080e-04
-9.264123999521152561e-06
-1.925854447408747024e-05
1.250611828771191700e-04
-6.440780121809505524e-04
7.252050271663272726e-04
1.129091302240665419e-04
-3.994281033530328495e-05
-3.913019174847052204e-05
-3.799027097986910510e-05
2.678613259512028664e-04
-3.429962669821171668e-04
-1.926321150709557021e-04
1.083296105414217263e-04
-3.556091231507477407e-04
2.469259156629619013e-04
-6.715685703911195275e-05
7.612295921794690751e-05
-8.545519193096560127e-05
3.642795562593423124e-04
5.252140388776791011e-05
4.766486659519830738e-05
-1.079873328012470721e-04
4.321077683449273024e-05
-5.671068060744960523e-04
5.021393245895638567e-04
-1.063366572060712274e-04
4.853368591035456031e-05
-1.016582069545990418e-04
-9.937535885452586414e-05
2.078243918341732429e-04
5.694336141717786957e-05
-9.422545988247175769e-05
5.960510810890698826e-05
-7.020872748859883225e-04
5.200945187561954687e-04
3.694583122639951778e-04
-8.565760886999242564e-05
-8.212957739389158194e-05
-7.757796529449198259e-05
-2.244766703947965439e-04
8.762511021842875987e-05
2.484696104895867488e-04
1.055598828960055424e-04
-6.461931612006492761e-04
4.346954128501570808e-04
1.439434143960148722e-04
-2.977088029601725715e-04
2.526377416643396710e-05
1.972784965698531120e-04
-8.696139909585908574e-05
-6.471445090019061581e-05
1.111470758193190830e-04
-1.751913197997329567e-05
-6.037815918829054921e-04
4.879996899005722456e-04
2.053624053315246953e-04
2.259643586349051867e-04
-6.142393493924666581e-05
-1.999187522314540394e-04
-3.428997983189451546e-04
4.245521181309925879e-04
-3.413494636191210949e-05
1.120780377676906879e-04
-9.675247461159382266e-04
5.424396231941682823e-04
6.531912701983977148e-05
4.372180845890962398e-05
1.737909372627034852e-04
-8.996078930132644037e-07
-1.739029955199631803e-04
-3.890638655207684306e-05
2.524532830981249427e-04
-6.203866694962170160e-05
-5.241501541901235879e-04
5.447761631942183011e-04
-5.970557576897176440e-05
-4.916915772752880159e-05
-3.463507946580735724e-05
2.881616268451311891e-04
-3.025808507479444700e-04
1.755627879324418510e-04
-1.097196278197826635e-04
6.105703898695028691e-05
-5.339157011135959316e-04
5.458363389448801480e-04
4.004311072278342255e-04
-2.076489122291890529e-04
-5.156410626125833632e-04
-3.708465813528016527e-04
2.271097232450979496e-04
5.158675032161684276e-04
3.835942415790236722e-05
-1.365761744498813677e-04
-4.660279518934307662e-04
5.764584533918680649e-04
9.216142957618324674e-05
-8.754607305036986255e-05
3.754700848469563735e-05
-2.953507872311181260e-04
-1.798565000071286580e-05
2.594693632272996567e-04
-7.308348264569999528e-05
-9.977030220427613187e-05
-5.830934703519247489e-04
7.662703361430979422e-04
-1.843156731038921763e-05
-1.901062775140330470e-04
-5.348693744817592597e-05
8.658769511091880594e-05
2.303224512701978945e-04
-2.325771591257975329e-04
7.108478603293225053e-05
-7.963727140084789127e-05
-3.799475196609198723e-04
5.429389941797716813e-04
-5.817750952263406805e-05
1.048155851389576105e-04
-3.695095965052006372e-05
-1.790466442367750989e-04
2.882115123244024342e-04
-1.615789985207727428e-04
-1.554487760232323612e-04
1.341417695653413398e-06
-4.539934589501087403e-04
3.099613251264852869e-04
3.100631352201512272e-04
-1.479554948632471841e-04
1.571410565866149971e-04
-1.474932983036691253e-04
6.575823958214992720e-06
1.617656588644506759e-04
1.655422124072486857e-04
1.704517412154854311e-04
-8.917137874387367526e-04
1.832910133253649312e-04
3.845170346343412576e-05
1.995875923818987002e-04
-9.629759661439135719e-05
3.714207393376555148e-04
-7.584097889315450204e-05
-2.175367310023478993e-04
-5.385401453488642011e-05
-4.276126428757151576e-05
-1.844730619323996863e-04
5.889001525398240367e-04
-3.168782901867055950e-04
-2.900417003573995856e-06
4.679649931498054546e-06
1.633529706513163395e-04
1.510986977341615777e-05
1.752438502340089124e-05
-2.872693554302884898e-04
1.626568684936783508e-05
-2.924431739856049811e-04
3.127227315339882029e-04
1.536180613069361228e-04
1.461416045705086683e-04
1.381049948123616426e-04
-3.278328992210275696e-04
-1.831039868959403473e-04
2.676053349847026526e-04
-1.958915854082392575e-04
-1.997942407683368999e-04
-5.065998922610886286e-04
8.676283495341830182e-04
1.082545571755895583e-04
-3.837581461063296114e-05
-1.831693246740258990e-04
4.359766265443840031e-04
1.395683243716006137e-04
-1.579491088063352000e-04
-3.049682565812770292e-04
-1.496298953941616202e-04
-6.078282692449456020e-04
3.041180878684925700e-04
2.978058140043147984e-04
-1.571234428027793947e-05
1.273676717865709267e-04
-3.499285164873034478e-05
-4.420546235547893660e-05
1.003915898534735277e-04
-5.852510713710353679e-05
8.958579148092762217e-05
-3.708635984424826109e-04
6.960746853548014246e-04
-6.698191176459961267e-05
-2.191622750411128368e-04
-6.616616491742412112e-05
-6.617118142420385339e-05
-6.681223567663871011e-05
-6.807371021433887429e-05
8.289163890579524297e-05
-7.121395407421670873e-05
-5.297924370632474227e-04
5.388395357147623141e-04
8.347073594924722109e-05
3.932826869204492396e-04
-5.748982179418376018e-05
-4.829486745407335704e-05
-1.898656580918452858e-04
-2.498160362753527522e-05
-1.202895830876923499e-05
9.536263215519421717e-07
-4.443716487020076835e-04
3.299717372709020735e-04
3.399423985102556435e-04
-4.147756625799607177e-04
4.921234323133276238e-05
2.058352868295154040e-04
5.494989509818139835e-05
-9.836069767456781683e-05
-1.015400134934608180e-04
1.980465482503270349e-04
-2.675735663125742626e-04
3.329064737310521082e-04
-2.889649134688846875e-04
3.517789910292238272e-06
-1.623739047651107039e-04
1.295009312645561961e-04
1.168185193128777670e-04
-4.726872403826377412e-05
9.546964556024519735e-05
8.760825703497605898e-05
-2.232409348072787150e-04
3.836974467285483143e-04
-2.278344240181904331e-04
-7.428254357109252020e-05
-7.128439834427671685e-05
8.623497070631662561e-05
-2.121531787271122385e-04
1.016075862955286783e-04
-4.066110479861314940e-05
2.764667763420403015e-04
-4.730632358158732512e-04
6.096398839032167146e-04
-2.905180162283462755e-04
1.828863698607212569e-04
-2.595639602996096694e-04
3.651290024437421015e-04
-2.324901815048198732e-04
8.323577970455143735e-05
-2.140309462701198064e-04
-5.648536830654293675e-05
-5.123939429098233389e-04
7.070538199052142734e-04
9.243859940668217848e-05
8.534540385994443242e-05
-7.692517858360172281e-05
6.370316541755196692e-05
-1.027029352453731912e-04
3.477211010475735476e-05
-1.334832213676008408e-04
-1.487857990582144721e-04
-6.204249162976453518e-04
5.889522604507752132e-04
1.234718471200850140e-04
-3.236939115740655596e-05
-1.832339832777047403e-04
4.338869783535352024e-04
-1.248845880721504739e-05
1.551898138060688330e-04
2.005895573385214307e-05
3.825561557530277995e-05
-7.074994988626259014e-04
5.276802640170051876e-04
8.021880939627039483e-05
-3.725103597601733081e-04
-6.818146934665658156e-05
7.760348197311122439e-05
6.531582501283004604e-05
-1.040728696179233010e-04
-1.240079205575741865e-04
1.597533238766983012e-04
-6.243091540926300155e-04
7.298638128227069024e-04
1.038870290770574562e-04
2.454667775000622817e-04
-2.180133865322209726e-04
2.395258181252658922e-04
-3.658015393785102429e-04
-2.035608492243179922e-04
-3.760649351834587854e-05
2.835199503251021203e-04
-4.621556887834297697e-04
6.231943065403487518e-04
1.813013986336084135e-04
4.198859396299507198e-05
-1.009333306532528697e-04
-4.007261062169274637e-04
-2.472702976822952186e-04
2.071096526388022932e-04
-2.575446002477279456e-04
3.837369010988387751e-05
-4.296261883546109435e-04
6.287249163562776350e-04
3.155765408557427085e-04
1.578287183036214923e-04
-1.490809053802035638e-04
5.368043934541720366e-06
-1.420090857706027938e-04
1.855994271358692458e-05
1.810934543583993565e-04
-1.130884859747609879e-04
-5.597279168465792241e-04
3.662219421794417405e-04
-8.251208873000255150e-05
-7.540457872679876797e-05
-7.059334634037866488e-05
3.894441056980458226e-04
8.387314279655644117e-05
8.077549214836860598e-05
-7.754141409720255429e-05
-8.570532624679344936e-05
-5.537255514577644642e-04
1.973545477663906039e-04
3.191243402560301682e-05
1.872866962473098082e-05
5.859316331548322555e-06
4.516137540978307978e-04
-1.694951071724202195e-04
1.263918483504569712e-04
1.186287483631945914e-04
-1.928409253772822649e-04
-6.555410977613062564e-04
4.088794311561061651e-04
1.011605662499110694e-04
-2.054684492356609240e-04
9.929462961589868505e-05
9.986262755211765285e-05
1.013219493898525285e-04
1.035469409028920451e-04
1.063855338374603942e-04
-1.954926058704290403e-04
-6.496292737776535259e-04
2.697650472443336518e-04
1.212270932985076287e-04
1.254051773970321865e-04
-2.296733546978637535e-05
2.863066868631153816e-04
-1.510903379187790133e-05
1.406386358512548725e-04
-3.148210412617919569e-04
-1.609800550235602459e-04
-6.186372947262279128e-04
4.484483041292876174e-04
2.937833651011595806e-04
1.381883384431138652e-04
-1.823689696726652691e-05
-2.284446984614186497e-05
-2.819395564475024948e-05
1.183325282097423211e-04
-4.095067669540893544e-05
-4.810876462837421501e-05
-6.657881479469025072e-04
2.426550531562786275e-04
2.363089892408695193e-04
-2.265595809204520796e-04
2.277640666501089988e-04
2.262516948645549599e-04
7.412554287393832058e-05
-7.621323207713487737e-05
-7.257263903321224696e-05
8.449929413760087782e-05
-5.211493040982817602e-04
3.986781870108376631e-04
9.685348314823599410e-05
9.884715117802212456e-05
-2.059108705948582067e-04
-2.070591682207912709e-04
-5.693046739860843598e-05
2.449622481816592957e-04
-2.162363443050333445e-04
2.387222681744420399e-04
-5.255953032753898392e-04
3.906904330570800114e-04
8.893187036353877471e-05
9.526075846366972443e-05
-4.815250544938977654e-05
2.686537161960475539e-04
-2.310808906960440368e-05
-1.613709699737553229e-04
-1.470993316679950521e-04
1.713534495127463182e-04
-5.801197023996381612e-04
6.496226366434593950e-04
-4.122571376147250830e-04
4.880733379913147871e-05
4.926518034123348661e-05
4.714880575409235736e-05
-1.097439835978473587e-04
3.678766643092627091e-05
3.345828975120998939e-04
-1.315181515198623953e-04
-4.457114513185280163e-04
6.128807570695331492e-04
-7.419301366334982402e-06
-1.703715084770213921e-04
-1.811747884183354028e-04
1.127462929431986643e-04
-5.151033994511438924e-05
8.910903112234985865e-05
-7.554387197849531436e-05
6.517212932836756012e-05
-5.564993020113484512e-04
5.012458860379912298e-04
1.870473884829334035e-04
1.797308148359627708e-04
-4.359380707827881858e-04
1.872306386667604362e-05
-1.346170542605486253e-04
1.722104646346036118e-04
1.762329518993746070e-04
2.991320543416112025e-05
-5.721415288422517518e-04
5.059970581651047862e-04
5.960795457079408002e-05
-8.068588727076988099e-05
-2.205264510983959646e-04
9.737494767012617612e-05
-4.296766494369524958e-05
1.209642315720838989e-04
1.310417554660953153e-04
-1.302748695004968408e-05
-6.166224504280745514e-04
6.089734288336452013e-04
-1.509339812849126608e-04
1.555153281497232733e-04
-3.025448069027979105e-04
-1.515664626864176949e-04
3.035761580972868982e-04
1.476735208650149854e-04
-8.616434385282032221e-06
-1.243116724713083607e-05
-6.264785743597089647e-04
5.908290176180792681e-04
-2.249423815338033594e-05
-2.498457174371516699e-05
-1.795935711616731330e-04
1.239530907734684374e-04
1.225867292900648293e-04
1.213227016706754487e-04
-1.851789968102759043e-04
-3.411686841953718506e-05
-4.936934080040182842e-04
4.197068727223186705e-04
-4.047408382104180171e-05
2.620474948345265513e-04
-1.985466154295916668e-04
2.562674310215551083e-04
-5.191959260803605009e-05
-2.075063382814857109e-04
9.479219586938700379e-05
-2.129844336631239580e-04
-5.202921003872985157e-04
6.989489859065923854e-04
8.796988048245926511e-05
8.826178481797794051e-05
8.945419601482768838e-05
-2.137470717134352645e-04
-2.111796420205299253e-04
-5.565214116883312188e-05
2.526189592089061781e-04
1.030951815686660824e-04
-5.043655695346321291e-04
4.137906988715096346e-04
1.109516221137083153e-04
-1.921491094810651027e-04
-3.765458202583118558e-05
-3.576070884257084533e-05
1.189205107075924064e-04
-3.112002844753773522e-05
-2.784462004637031291e-05
2.815974461892467584e-04
-9.336355876149958748e-04
4.464445993397299145e-04
1.493396395422506070e-04
1.584494662838931026e-04
1.553032568481017069e-05
1.776343063228529343e-04
-1.190679367244214628e-04
3.998052734962711472e-05
3.486831738025915361e-04
-2.618023827156138643e-04
-7.237604907119726252e-04
3.361249792474821840e-04
-1.334175750314107393e-04
-1.478342869508315937e-04
-1.636561064914898679e-04
2.782818351396690228e-04
4.164348044972709701e-04
9.943843798748604754e-05
9.115965117915232011e-05
-2.181898387332772559e-04
-5.232473046485761276e-04
7.017070780804909478e-04
-5.329575793999179905e-05
-4.233485510383988700e-05
-1.817262728521711426e-04
-1.671240121610534628e-04
-1.519137046277417547e-04
1.683627929108091664e-04
1.827371557744095481e-04
1.958703892189562795e-04
-5.555967495103889724e-04
2.168223354598939993e-04
7.147347375474662613e-05
3.814836732786568998e-04
-2.265105411215490429e-04
-7.400634404812822596e-05
-2.289534162878296216e-04
7.189635976181647879e-05
6.605037786571397172e-05
5.924152215356612338e-05
-5.582628501870204102e-04
5.029738088440190895e-04
1.917435359132359859e-04
-1.182416717505515549e-04
3.103303855600500651e-05
2.928315230607303780e-05
-1.235973992256334030e-04
2.990554201835087574e-05
3.167585641949743008e-05
1.864787176823588669e-04
-7.268138924569510955e-04
6.483310628838384734e-04
-1.134808082803432413e-04
3.924116278279892437e-05
-1.143755226275238606e-04
1.885537452204771197e-04
-1.200148515817210806e-04
-1.243546914889643912e-04
2.325917618091482989e-05
-1.345454870487835131e-04
-2.921799181070385779e-04
4.662433238674517657e-04
4.721478507123705444e-06
1.750597936966758880e-06
1.519523973967407159e-04
3.023177931736794862e-04
-5.493202520511913696e-06
-1.617532636988978630e-04
-1.670023017363228828e-04
-2.156672205410012128e-05
-6.409912440745695180e-04
2.638720602286992087e-04
9.967588565058731567e-05
-6.459069291746670776e-05
7.721894349289594407e-05
2.208538380542564381e-04
-9.070160030227769252e-05
5.855293792982616333e-05
3.635869710394025304e-04
6.127805674652396181e-05
-5.436602705799178014e-04
3.791721308880462724e-04
-3.753116104919604497e-04
2.439224415018219046e-04
-3.577401095672084965e-04
2.606496055210153861e-04
-1.899930925476880277e-04
-3.127883172832587492e-05
1.265245537114997030e-04
2.836164908300086796e-04
-6.278569616966694434e-04
5.967192092758911081e-04
-3.148865945281787023e-04
1.469986543924872106e-04
-1.217557515889926421e-06
1.559342841421688204e-04
-1.446391956418420640e-04
1.236721967830691091e-05
1.635020044905061530e-05
1.722457425389573656e-04
-7.408405107086978676e-04
4.813188468956248653e-04
1.765773094014037219e-04
-1.291483535817351976e-04
-2.831717790415935808e-04
3.250006717813888569e-04
1.707091173875890374e-05
-1.386654800376810478e-04
1.631486702545625216e-04
1.597511441011894998e-04
-7.590385395240024794e-04
4.586990477711206846e-04
1.509983298996173150e-04
-3.560448804816391363e-06
-1.574935962381611974e-04
-5.601825185143953751e-06
-5.674676507767639355e-06
-5.198695445433053408e-06
1.482928750234727697e-04
1.494609888164475547e-04
-6.122421935250702473e-04
4.569613513427068585e-04
-8.302958769638822400e-08
1.526445259327528173e-04
-3.057430640266848632e-04
-3.072723834929212109e-04
4.531428637632691002e-04
-8.175398853526931228e-06
-1.274631633536919954e-05
-1.827448673560225055e-05
-3.298326112918748758e-04
5.786072603235989115e-04
-1.919265146852751445e-04
-4.718826079297938462e-05
-2.075730405399859322e-04
9.022113537807233434e-05
8.365910565790108180e-05
7.833748519962168344e-05
-2.305175323356054083e-04
7.296221617155049211e-05
-5.368694070802061723e-04
8.392343612555040354e-04
-7.130651512393248060e-05
8.810792232150998040e-05
-3.615233373461748537e-04
2.575795370760254935e-04
-3.899230452845599563e-05
-3.129370173712985753e-05
1.274293109287780070e-04
1.315283220954035224e-04
-9.347426145380976180e-04
5.907997056458066856e-04
-1.742930242758242501e-04
-2.506481419142035159e-05
1.237357322056018482e-04
1.203719401229180888e-04
-1.869191650756556091e-04
2.706875555525438339e-04
-3.216158132847338864e-05
-2.705668029060316702e-05
-3.243066900944700207e-04
4.491702726036125729e-04
4.113752083638332750e-06
-2.868250219334756985e-04
3.332997746984714784e-05
2.007641822570766768e-04
-9.059481331939858500e-05
-7.865787601691279381e-05
3.884255640756955718e-04
-2.157866985797566065e-04
-8.235208667590052838e-04
7.013591842501454461e-04
-6.604637868983202623e-05
7.897047805723866345e-05
-2.363504987450085345e-04
3.619336543601200636e-04
4.349999490424926102e-05
-1.227566977219865930e-04
1.655524902780679844e-05
4.478702483718596286e-06
-7.685583572004764689e-04
4.447312456771825582e-04
1.353900375846044178e-04
2.874078769077145681e-04
-1.672647222688068594e-04
-8.175760755354393266e-06
1.170479221784719661e-06
1.651122484806141506e-04
2.484908611222211517e-05
1.895951334483741263e-04
-8.676531710170289026e-04
5.142152111071357284e-04
3.671415662435320712e-04
-5.464103542216124315e-04
-9.034518771410687561e-05
2.096719609330728107e-04
-2.561779838480998965e-04
3.876664564402655189e-05
2.732471844482316597e-05
3.208173761577403065e-04
-6.057453452893640311e-04
7.578669116039565444e-04
1.396539289746965922e-04
-3.239678129015187056e-04
-2.271825838944682721e-05
-2.498917614945848131e-05
-2.601446061060347007e-05
-2.626140846688439202e-05
1.264013271989659448e-04
-2.618074549650079784e-05
-6.368832891214057249e-04
5.829438226558075623e-04
1.237260828335718440e-04
-3.360269507081683972e-04
-3.326237918235957087e-05
2.692419746277021448e-04
2.665061139615583019e-04
-4.124065399024325843e-05
-4.336961053054958935e-05
-1.972974400086558995e-04
-8.077704022457847218e-04
5.671142648459806144e-04
1.131698553511861066e-04
-3.293083493346517807e-05
1.290962278931620901e-04
1.415387532663276761e-04
4.173026474904193067e-06
-1.309158269223404736e-04
1.932867302417567718e-04
6.031902972780455808e-05
-8.360364076250170360e-04
7.074986241956280003e-04
-4.031862094971417601e-05
-2.863427669269912507e-05
-1.737098318764701880e-04
1.342888390021028042e-04
-1.730188728314448318e-04
2.776649579562260662e-04
-3.925580997549440695e-05
-5.512072017111787080e-05
-6.846815489700671309e-04
5.144199553802588547e-04
1.863034425497189523e-04
1.050293725837541697e-05
-1.645719595676858286e-04
1.197033711141525674e-04
-5.151808861099998397e-05
8.518180732211165160e-05
2.249051879143783013e-04
-9.001404105619983096e-05
-5.544484523382035976e-04
2.047370435579261749e-04
2.036682441015988268e-04
-1.001774590202820841e-04
5.581243545325465882e-05
6.093270514210896108e-05
6.740939438656441294e-05
-7.769207629483389547e-05
-2.220906952911985406e-04
2.443179088233769325e-04
-3.571115925500289718e-04
4.149121393392663903e-04
-1.862621529461862876e-04
-1.770423956309614532e-04
1.373322586449319345e-04
-6.185590137705545222e-06
3.077530938247248645e-04
1.077210276106825976e-05
-2.871140892043279953e-04
2.405712637527312417e-05
-4.294115375710431666e-04
6.409119237118602328e-04
3.355297946818830619e-04
-2.776670738610235761e-04
-2.832190068740194472e-04
-1.387476341566699846e-04
3.545849694056793194e-06
1.442941922307345291e-04
-2.083621349647370944e-05
1.194889008261268057e-04
-6.544019891363671987e-04
5.576361412323859465e-04
9.430305021513694789e-05
-2.128035760478892279e-04
2.468696422568930518e-04
-5.273243613953202400e-05
1.085473992464952011e-04
1.194970456428108720e-04
1.316272568956639401e-04
-8.812610462534524548e-06
-7.606884106499276149e-04
3.165017722215899610e-04
1.703980201954850859e-04
-4.363039260760099582e-04
2.239401529012638621e-05
3.262287434307407637e-04
-1.344687566007078943e-04
-1.381710640313614871e-04
3.159795078849901183e-04
1.606558131660796912e-04
-6.035114799971062326e-04
3.127026768166888369e-04
3.154444191083567001e-04
-2.902526552340088271e-04
1.736667827784584808e-04
2.809806370696296785e-05
-2.699914421880397352e-04
1.940553873441911977e-04
4.609498622997578777e-05
4.832228431337934707e-05
-5.627568779407803815e-04
5.013767482302175765e-04
3.637708856511275040e-05
-1.263857314035463607e-04
-2.914661860808465772e-04
1.523758564038498852e-04
-1.670641565974786621e-04
1.246910735748047935e-04
1.132827325620232398e-04
1.049147567719267596e-04
-5.099891318892888501e-04
4.052340590765404022e-04
2.566226735108026002e-04
1.119093528746086994e-04
-1.822565213554250025e-04
-1.658143003411588392e-05
1.499408987526288425e-04
-1.417127902211732203e-04
-1.297519371472928714e-04
-1.202730379742514478e-04
-5.716550362690580840e-04
6.520493362144648289e-04
4.134517065357835695e-05
-1.146696519987262450e-04
3.187824250823443630e-05
1.763872541949317496e-04
1.431178644906890380e-05
-1.485274117582635763e-04
1.462670370289877056e-04
-1.622499732600982169e-05
-4.828460773464954650e-04
4.253886793792249288e-04
-3.765633361567079446e-05
-4.057719048381294193e-05
-1.934993987706397714e-04
2.665982361791970740e-04
1.189382035648518023e-04
-2.635674831178863597e-05
-1.706417916989250947e-05
-6.242587594522963069e-06
-6.047824314204737787e-04
3.229715441498954122e-04
3.350229894996831779e-04
-1.114549715407032549e-04
5.107946477539871289e-05
5.915956419899596775e-05
-8.765493351348164228e-05
-8.449588338441295235e-05
-8.408644324329760968e-05
2.188099014456779622e-04
-5.488407672177011368e-04
3.599715336794320265e-04
4.662673892762019982e-05
-1.149772578471458366e-04
2.834146788024000254e-05
1.719245794270011737e-04
1.098846424831364256e-05
3.536240220416319569e-06
-2.936906971303969820e-06
1.441015922450721791e-04
-6.236241453106359514e-04
4.402415559127925942e-04
-2.148767645723741968e-05
1.271763777543751472e-04
-2.948852366274515129e-05
1.187596671995800278e-04
-1.910075415474526159e-04
-3.482850875608236533e-04
1.049833190639783706e-04
-5.151143750928206697e-05
-3.595816836820737755e-04
7.070127645874198794e-04
9.672038561521972356e-05
-5.424371711153509984e-05
1.012741148111031631e-04
-4.754885616961835551e-05
1.090296737489506080e-04
-1.925749933825956269e-04
-1.899961463604489358e-04
-3.622867926873877013e-05
-3.418054127158884131e-04
4.192145296395526489e-04
1.108832007610003961e-04
-1.982318781278015864e-04
-4.980875678938943076e-05
2.515762513636782900e-04
9.615409196157559000e-05
-2.103801420096191265e-04
9.533739109246819657e-05
9.808986389433534256e-05
-5.071133736199970364e-04
4.160078601753745354e-04
-1.844020806450810137e-04
-1.978369365645464648e-05
1.464938833460464104e-04
8.655496338184286866e-06
1.763028785604020619e-04
3.822632760873751119e-05
-1.012998662585168569e-04
6.203602149177224294e-05
-8.458001781525484450e-04
8.367500551614624575e-04
-7.861024872039921053e-05
-8.239794378155832052e-05
-8.989639840740604583e-05
2.045956998222062768e-04
-1.136568187637891327e-04
1.770749049766933477e-04
-6.004726249042463028e-04
1.489915091769189546e-04
-4.724273885765970416e-04
5.881419561279835687e-04
1.271592738359140205e-04
2.812302030998186362e-04
-1.788311670986828276e-05
2.973203269699739972e-04
-3.000636525187671448e-04
-1.328667168202818545e-04
-1.180212412820948631e-04
4.830054391131985490e-05
-7.031733801779639506e-04
8.310265432069635768e-04
-7.987786172125509675e-05
-2.317697720948747118e-04
-2.349314868569980937e-04
2.161336267399886280e-04
3.589990138810719472e-04
4.171908028479818977e-05
-1.246374692342293051e-04
-1.393201590758444441e-04
-6.119305071032443829e-04
7.470634260055077384e-04
-2.898924519799639084e-05
-4.040749885407181493e-05
-4.977688239265043565e-05
9.566987134920540339e-05
-2.144150067058939505e-04
8.792290777829609881e-05
-6.573779115620781855e-05
3.922928590478956209e-04
-5.221377977597325059e-04
3.947644334378914576e-04
9.070007915037723374e-05
-3.666921336703192849e-04
-6.224301584983432363e-05
2.409117491304901284e-04
-6.758589530482585228e-05
8.057261471519416634e-05
7.542219591361108266e-05
-8.248127091159068529e-05
-8.502209894326969624e-04
5.195189211725427135e-04
2.127311618058149963e-04
-9.158208115828543302e-05
6.462289904036189734e-05
3.761285272490921924e-04
-7.297155452701132162e-05
8.993928337150998030e-05
1.010457908065855994e-04
-1.931875329967941803e-04
-6.410525387471145481e-04
2.826386260213106230e-04
1.360555923205939376e-04
-3.179944272986368948e-04
-1.126173981865296872e-05
1.410640035570113646e-04
1.394381295790989180e-04
1.369328678997951999e-04
1.339890901692653859e-04
1.309612629482339555e-04
-6.348326028500190328e-04
2.781879320650717147e-04
1.235562537513375768e-04
-1.831198644273385266e-04
-3.142607384763768135e-05
1.209280564363716942e-04
-3.118818783953341081e-05
-1.825728505883831068e-04
1.245265965427397596e-04
1.270973207673594036e-04
-6.327877185487365682e-04
5.911754034884909815e-04
1.364714061671544498e-04
1.388071411852654247e-04
-1.653545375262146632e-04
1.389213422395353160e-04
-1.696213760257868233e-05
1.296756767861368927e-04
-4.892212162161268954e-04
-3.473441902680393613e-04
-5.120215719245116382e-04
5.436793404464288978e-04
2.269286094180331202e-04
2.172793639926278049e-04
2.103901580149816839e-04
5.413492165617936141e-05
-9.885526056104679336e-05
-9.633908213768390251e-05
3.662126122477268376e-04
-8.530868735493081631e-05
-8.413955130698586157e-04
3.860336668473980833e-04
8.692856816362072993e-05
-2.130979356386348568e-04
9.631086643994778802e-05
9.987361776005094268e-05
-2.019824818316257780e-04
1.067986408791983326e-04
-4.135859902574210849e-05
1.169438252555374312e-04
-4.861147954912383665e-04
8.961155019868982923e-04
-9.014968297901231793e-06
2.406429798230441922e-06
-5.961202544275690787e-04
3.309149375961612156e-04
-2.689658806591689317e-04
3.501921498186129030e-04
-1.008888988935267655e-04
5.601848828544117169e-05
-8.575448337720140103e-04
5.156045109992541059e-04
2.086353636295321221e-04
5.319807297896424940e-05
4.995996432853979166e-05
4.701076317509267355e-05
-1.075958707362356122e-04
-2.607018222543134212e-04
4.592218160274465428e-05
4.965844152474127907e-05
-4.019496569310644749e-04
6.746340950102686605e-04
7.468586395182951832e-05
-6.621920477935120189e-05
-2.067435154738506793e-04
1.098073050336498832e-04
1.193562975898927785e-04
1.259927546104471635e-04
-2.378300223337650099e-05
-1.780065586783660778e-04
-9.472805016507349464e-04
4.151325643369857478e-04
2.476573290809259520e-04
2.295917923097147895e-04
-9.580968158953804149e-05
1.880748958272701545e-04
-1.383772356317729572e-04
1.465378705774145706e-04
-1.770041350707087966e-04
1.124293714384302424e-04
-6.630691093406259262e-04
3.960376092159282636e-04
2.381431413852839736e-04
2.364562563017567963e-04
-2.196890946331036436e-04
8.989322869338492309e-05
-2.087515150163630193e-04
-4.824868839373569463e-05
1.128902859581814894e-04
-3.120630962753883746e-05
-3.285516533788222435e-04
4.410774324507843892e-04
-1.640724975906489389e-04
1.446040337475070674e-04
-1.588539749543450450e-04
1.462992064046062055e-04
-1.604817430089395007e-04
-1.082415003800272478e-05
1.378413735579379841e-04
-1.718734913690734265e-04
-3.292410891014039089e-04
4.290085882031645977e-04
1.194743225936452933e-04
1.155700099346641953e-04
-4.046646977717491267e-05
1.090374698138004729e-04
-1.989870807801589537e-04
-2.017037179962895830e-04
-5.172029812410564248e-05
9.847119015068787895e-05
-3.612679382044178236e-04
7.055940856307283456e-04
-2.101232456058673434e-04
-2.089266489104086547e-04
-2.060953706085675414e-04
2.562524168312866626e-04
-4.264656706949166955e-05
4.228148251217748142e-04
-2.631896764691788945e-05
1.351569494204686670e-04
-7.720159688482893835e-04
6.082766502161941887e-04
-1.497659057823730430e-04
-1.475740246152922334e-04
-1.484712759435215679e-04
1.525901929063815977e-04
1.454006279926143555e-04
-1.696388770991456775e-04
2.762181408114559237e-04
-1.946775042605693152e-04
-5.132645695351531262e-04
3.895725605699255781e-04
7.339332951856794292e-05
-8.767583795421289778e-05
5.957120355423127365e-05
3.628857289261010308e-04
-9.322462537226356392e-05
-8.830912116295966787e-05
2.245600299390731981e-04
-7.077845532745995953e-05
-6.698408046875338343e-04
4.103467163733827243e-04
-1.877404263586099451e-04
-2.318794119013500442e-05
-1.192486541416264564e-05
3.034743183398694679e-04
7.178053550552790004e-06
1.442535775723790695e-05
3.249465994688406720e-04
-1.296001559611915314e-04
-8.915985843832038935e-04
4.803219195760081387e-04
1.896514916167900601e-05
1.659393446123653753e-04
-1.465840723136594597e-04
1.498488850582851300e-04
-1.251384130473380016e-05
-1.755404336362637410e-04
2.714821376435849255e-04
-4.438822089397418270e-05
-5.124663353284645900e-04
6.986181335592920151e-04
-2.255392713130731602e-04
-2.329186802937881077e-04
-8.623944318955509497e-05
2.146612957138563935e-04
5.951929203505108661e-05
5.868237072823320559e-05
5.946328614693075865e-05
2.142662734962535694e-04
-8.504424499795470863e-04
5.271754941678878778e-04
7.438706305483184112e-05
-7.283196058720830851e-05
-2.198837635913525649e-04
2.433906271247409574e-04
-5.645774632059521363e-05
-5.144068816694688452e-05
-4.683734053584013283e-05
2.624391375245578215e-04
-6.495746248238253679e-04
5.739663519207829608e-04
-3.431919243489349469e-05
2.720555490501467611e-04
-3.285647778553080992e-05
-3.352524355014182070e-05
-4.927663869233504064e-04
-3.700665287900185580e-05
-3.909159610165711246e-05
2.644895951561932845e-04
-4.989313710390188292e-04
7.229821267027822154e-04
-1.892026916994910012e-04
2.742638661644086566e-04
-1.754583816880623138e-04
-1.276043099120263328e-05
-1.063638090334375752e-06
1.158447534598763325e-05
-1.281246142259970179e-04
1.894220115715541703e-04
-8.675293641368596841e-04
8.202778842866383872e-04
6.435118478709250930e-05
6.866867501643402513e-05
7.009035493361177264e-05
-2.365539838387218589e-04
-8.807459725712233701e-05
-9.430762252510582245e-05
-2.544877572590253066e-04
1.952786488206777768e-04
-5.750255695826031466e-04
6.399291057367462003e-04
3.314066592947524366e-04
2.575097426013472804e-05
-1.243782599272834398e-04
3.327564473865674596e-05
4.026442144990043630e-05
4.823241263301715964e-05
-9.649000422034883519e-05
-8.981920256371104584e-05
-6.956819279496947008e-04
5.265318974746888625e-04
2.193333605546330745e-04
6.089332406409146036e-05
-2.539999074053030559e-04
3.781062840999180037e-05
2.125697641263732911e-05
1.547848036787985470e-04
-1.710822659119914273e-04
1.127987239545667726e-04
-5.183244483348536371e-04
3.781115818998009533e-04
5.662987328239197293e-05
-1.085147992345264050e-04
3.600337943774978229e-05
3.286483948896204486e-05
1.873532177636691508e-04
4.146602151205366633e-05
5.240624914666528676e-05
-2.384144815878612759e-04
-2.216514682187701072e-04
4.067753819253404823e-04
1.198966028784761236e-04
-1.677576245651542740e-04
-3.044259772133089026e-04
-1.381194657312573488e-04
1.782289778792985340e-04
3.416715953283121351e-05
4.015114980405296735e-05
3.490225226609831714e-04
-7.173422360666067369e-04
5.035440011814876085e-04
4.476098721210859503e-05
-1.097339900728931509e-04
-1.122893179295793054e-04
3.724753675741566597e-05
1.863545315605173215e-04
-1.227415664589317319e-04
1.780118782235516617e-04
2.041655649579068806e-05
-7.481805634075743743e-04
7.713802934601710981e-04
1.536816902127586407e-06
-1.583618573085746192e-04
-1.657841835101968222e-04
-2.031981200334377537e-05
-1.792263953278092742e-04
2.735830500297302902e-04
-3.463033540412027483e-05
1.173113081684346747e-04
-4.909644836140675045e-04
7.346697024238667620e-04
-2.057990308492726799e-05
-3.156392159504833980e-04
1.533551298706642915e-06
1.469462598876561500e-05
2.818909826472261617e-05
4.113336154659912416e-05
5.265461708394144160e-05
6.195562717791773988e-05
-3.893861748794912882e-04
2.240428559706757216e-04
2.235459888593595648e-04
-2.382594018612858898e-04
-2.455524901042320561e-04
2.022073061624761058e-04
-1.149354590109965261e-04
3.297919748438578867e-04
-1.411119590394433170e-04
-1.534001893919423841e-04
-4.691464498663755803e-04
7.434007558504031722e-04
-2.482135983644271834e-05
1.255308657868435031e-04
-2.636803558047074163e-05
-1.757316390874942851e-04
-1.797876109421077677e-05
-1.159296870027577802e-05
1.478400399256316695e-04
1.830516878086716388e-06
-6.028371846814583332e-04
3.169927644399618419e-04
1.669992810933918945e-04
1.512795916677478457e-05
1.393926739977528386e-05
-1.416464789319510560e-04
6.335569181691689507e-06
4.092136816529767014e-07
2.986917702566679812e-04
-1.394504820435748883e-05
-6.319019963919562813e-04
2.762994047679788239e-04
1.170576309451527874e-04
-4.118952767466760713e-05
-4.564067927467113547e-05
1.037803193886255857e-04
2.544161001511711950e-04
1.008934155430451482e-04
-2.044810231452353581e-04
-5.165685934592083349e-05
-5.090030640280547277e-04
4.069695073003229782e-04
1.022390413604037712e-04
-2.023973475048936965e-04
-4.898856970845843405e-05
-4.765094986606056881e-05
1.070172978233470071e-04
-4.259154092886075128e-05
2.664945332119410585e-04
1.186239793298992588e-04
-3.338999891537288919e-04
4.343850297431983243e-04
-1.710072951778550431e-04
-1.669293863916264452e-04
-1.641551380795479070e-04
1.422048442540241623e-04
-1.089966305276962115e-05
-1.304087018335424262e-05
-1.655911622081342137e-05
-1.736624842858895939e-04
-3.313091034375629401e-04
7.316622510486654740e-04
-3.611328885248782502e-05
1.122229584698185382e-04
-1.964781511458476399e-04
1.059235819859224623e-04
-4.873270450692127303e-05
1.024370484423351942e-04
-5.092340774461681820e-05
-2.035468290009930480e-04
-8.129934489671842039e-04
5.624334102590180422e-04
2.609358608556542930e-04
1.138107983838045528e-04
1.211444769481230765e-04
-2.236613207524332930e-05
-1.644906011867586519e-04
-6.194422257751537491e-07
1.633452147611980988e-04
-1.311824445751527928e-04
-4.272867998493729610e-04
4.949294291733014614e-04
4.077081410353633809e-05
4.075229294134580796e-05
-2.683902313380629335e-04
1.813971612489719638e-04
-1.355269357462546417e-04
2.090518993343785164e-06
-1.525496297576857366e-05
-3.387916768484142734e-05
-6.628693746135912992e-04
6.930897067356707767e-04
6.796090789477321589e-05
5.678348573352478776e-05
-1.026468233368717361e-04
2.003787590788714808e-04
-1.022989502877745386e-04
5.700938425497377606e-05
6.719890568208220340e-05
-7.273119627405690859e-05
-6.691120262934157140e-04
5.656588406040518853e-04
1.208705586005469758e-04
1.316719250903340959e-04
-1.657697530521589518e-04
1.434501722846804900e-04
-3.142359174997181844e-04
-1.282594749816362942e-05
-1.989654761278563018e-05
-2.935157453170564827e-05
-6.503270615564649181e-04
5.599596765334440224e-04
9.335778835363364291e-05
8.728885956065898680e-05
-6.773698861824425173e-05
3.916529435797520223e-04
2.447291497564826673e-04
-5.118940881734999567e-05
-1.916852961989050353e-04
-1.776865186024441975e-04
-7.730819620375768871e-04
4.626815555466110984e-04
1.939205251608428859e-05
3.276630032786690945e-05
1.972703859089821655e-04
5.490336117739718676e-05
-8.930625016982394527e-05
6.974180076257820279e-05
7.427490787671029338e-05
-7.564610588107119088e-05
-5.324749469907506935e-04
3.824584618972618291e-04
7.541538178065417799e-05
7.255495198464879611e-05
-8.361072929475186154e-05
-8.765795862086891456e-05
2.132067213222684269e-04
-9.638750374077528630e-05
5.178092169430092810e-05
-1.051700114683960818e-04
-7.198199191574058010e-04
8.017795353111990906e-04
3.396491901936704648e-04
2.985700678819584188e-05
-4.329656909343487423e-04
1.912135584324302351e-05
-1.398617616486244543e-04
5.629419991951585652e-06
1.505733215201149854e-04
-9.924154336928667596e-06
-6.280767547653592431e-04
5.853457981701391680e-04
-3.138205786884313219e-05
1.160257121116075842e-04
1.121962153462569749e-04
1.097196743330169271e-04
-4.412217548822038613e-05
-3.495461157132909494e-04
1.087301661348540267e-04
1.097827744556902248e-04
-6.517275800264554168e-04
4.180939507799576638e-04
-3.773862381293259451e-05
4.221439150375963533e-04
-1.859529196466896636e-04
-3.105649078155969502e-05
-2.880150539362559466e-05
1.258762052739831945e-04
-2.487368751663690059e-05
-2.332037232077956753e-05
-6.323623599216397209e-04
4.369367114439388824e-04
1.329971663550116217e-04
-1.809568876992336125e-05
-1.614193821497957699e-05
1.390257420337719704e-04
-1.023367567640027073e-05
-1.586655043906882870e-04
1.515377887380784131e-04
-3.003092004655008216e-04
-2.935099027970942010e-04
6.296598832529726837e-04
2.770582835173469177e-05
-1.158792977438155981e-04
-1.064839680687573622e-04
5.562939746165499757e-05
-8.759218922175107203e-05
2.265009846978378123e-04
-7.047002000644122740e-05
8.939654131115138931e-05
-5.147476885177759654e-04
2.532563643404398056e-04
-4.800760724716345853e-05
1.073599334837749926e-04
-1.961588731373913963e-04
1.095074826663278112e-04
2.612917901063437705e-04
1.063853886501272232e-04
1.022589283949168476e-04
-2.091651816259109873e-04
-5.229736145355834811e-04
5.339895561258605448e-04
6.260901454169256705e-05
-2.583654306231328930e-04
-2.758234768503696477e-04
1.635647935242766642e-04
-7.406723314473026645e-06
-2.480359754047251899e-05
2.649444869437943989e-04
-5.282021284290408080e-05
-3.670778892306008246e-04
5.432739746626829604e-04
-2.208446918765668773e-04
8.691895653747526863e-05
9.275033624677555850e-05
1.010654807048762770e-04
-4.163333522192161817e-05
-3.363029706995718498e-04
1.316847513111086719e-04
1.408751310042244994e-04
-6.144494957335270213e-04
4.594002184880446047e-04
5.414912140612774994e-06
-2.978240175687703046e-04
7.691910556446652079e-06
3.119156622324946557e-04
4.791777486092530174e-06
1.546712716277126153e-04
1.513538961860930404e-04
-1.576742376076267522e-04
-6.197971027238983457e-04
4.434755199322635080e-04
1.330289259739933787e-04
-2.514586809074101847e-05
-1.834534846988385268e-04
-1.890469511882450905e-04
1.109897248611796828e-04
2.592704737291722395e-04
1.036060947027413599e-04
-5.043798126196372470e-05
-6.602727827442917427e-04
5.632069281583717895e-04
-1.945099534743711164e-04
-3.420963733316066354e-05
-2.414721228489033402e-05
2.930867058084261011e-04
1.539749079554941823e-04
-1.370864724643993857e-04
1.819158175160644967e-04
-1.107110875007051316e-04
-7.107487536397290523e-04
3.646110722904005903e-04
2.155587327041842704e-04
2.149897434904304741e-04
-9.497656780327976976e-05
-1.038021863381391122e-04
-2.687483413981024108e-04
-1.312442413331632574e-04
1.571876591032498271e-04
1.400234671147960325e-04
-4.866116700211645476e-04
5.673359041832562368e-04
-5.402005883065749627e-05
9.148588703137539003e-05
-6.385394065496575794e-05
2.429369600966389299e-04
-5.656465074247165009e-05
-2.000101149269240474e-04
1.169889181797623091e-04
-2.198512467124172799e-05
-6.178398841211313591e-04
3.122067261706050782e-04
3.259737619520803871e-04
-1.194467782268302761e-04
-1.090890625076675654e-04
2.040154273096688679e-04
5.661475106937734967e-05
-9.369078839456823637e-05
-9.430880520537747772e-05
2.075332631113700462e-04
-7.136818159481385631e-04
4.994918377502041880e-04
-1.196201276048044322e-04
2.361323527523063234e-05
1.424640850421392582e-05
5.318990343482173120e-06
1.496842559975325242e-04
1.422190332339143878e-04
1.353619914933794984e-04
1.288121475332543165e-04
-6.407410433827414199e-04
2.677632888991908293e-04
-1.976648794205680074e-04
-5.344218787155279515e-05
-6.237204687925886222e-05
8.103742397361110529e-05
2.246496179728964032e-04
-8.877472239742127485e-05
-9.576480874413778046e-05
3.567445820357726988e-04
-7.145168976092612255e-04
5.053754412141002678e-04
4.919260651685943361e-05
2.056290041022689591e-04
-2.463086467449502790e-04
6.625178540651339900e-05
-2.304742011675398093e-04
2.362952870443365151e-04
-5.979065755695122622e-05
1.015753381632185669e-04
-8.057846531702661736e-04
5.748585357495532592e-04
1.234969751552200126e-04
-1.763325926536536833e-04
1.330147210480092884e-04
1.358499417136740885e-04
-1.680410871134314173e-04
1.366152782654936337e-04
1.340322465073442342e-04
-2.341830620537893571e-05
-4.884412839823625225e-04
2.648739753911433931e-04
-5.207882776043000229e-05
8.697710704552953566e-05
-3.855111808141187799e-04
2.096049344560255601e-04
4.201024371145102343e-05
1.805477936723660871e-04
1.551811154939107171e-05
1.578017866308660793e-04
-7.655115654693998980e-04
6.027388695785012348e-04
2.953529083012342211e-04
-1.618221323237507218e-04
-1.585433937652736729e-04
-1.258841612733611357e-07
-4.496397345046807600e-04
1.712751000267853868e-04
3.146414728713368394e-05
4.631609325393198977e-05
-2.421711121413288388e-04
6.914864330166251060e-04
-5.246697315457285763e-05
-3.339878907015567263e-05
-1.677535190548048929e-04
-1.513376111409880541e-04
1.674857555268030259e-04
-1.276325738030750691e-04
1.834076783890275847e-04
1.847715535234411904e-04
-5.812580688479356775e-04
4.797489493391994303e-04
-2.934886372969592976e-04
-3.057948970545055676e-04
-1.348233173540809718e-05
2.798659201770960507e-04
-3.452758939691895584e-05
-3.975174277750860065e-05
1.126390403538274338e-04
2.706129988344726958e-04
-4.813565124823121250e-04
6.027394058989642102e-04
1.648668509856417662e-04
-1.180238439053329892e-04
-2.476990753442040623e-04
7.920188599053103878e-05
-2.070920159957332230e-04
1.128113731761894140e-04
-3.002868558886154514e-05
-3.306961709631601391e-04
-4.836985931836222468e-04
5.799114613018531731e-04
1.147760138841294420e-04
-4.659823874319813384e-05
-5.529434265506919790e-05
2.426724812766788120e-04
-6.706582091619816004e-05
2.370265251147471398e-04
-2.178801309085899791e-04
9.418068473876956047e-05
-5.055124540505088419e-04
7.290808791131695278e-04
-1.749482250389125461e-05
-4.573160491894717608e-04
-1.335671583108148327e-04
1.898880898638960100e-04
5.444659307332656715e-05
2.223365793053864374e-04
-6.993456452838310415e-05
-5.980262323520414800e-05
-8.155732544320703483e-04
7.144923556866629053e-04
-4.712709755479949580e-05
1.041107109018872751e-04
-2.048609619243624161e-04
2.468743824301302694e-04
2.388017177635075035e-04
7.627247829042387234e-05
-2.405133831491589719e-04
-1.009316044985698391e-04
-7.253004842796709553e-04
4.808796375261153696e-04
8.679873152396923576e-06
-5.059641641761527068e-06
1.350253182858140348e-04
2.767373508813279434e-04
-3.750032504679762756e-05
-4.478333639976300718e-05
-5.052777350291115581e-05
-5.513722880115699349e-05
-5.168896604188691997e-04
6.998707643199683246e-04
-6.755846391133754647e-05
-2.257605645219049506e-04
-2.330308844383340765e-04
2.153466388070527954e-04
3.560671889756083868e-04
3.629345567165095129e-05
-1.337312222171271566e-04
-1.539466533031486322e-04
-7.870460416024939237e-04
5.613900657094814117e-04
2.298186108165958309e-04
2.025299840047640218e-04
-1.301585506754490706e-04
-4.661589272452179666e-06
-3.072993197311168400e-05
-2.078150173070108337e-04
2.275170933591213205e-04
-9.758898437185602886e-05
-4.198285156713632690e-04
4.817785322361569831e-04
1.340618284522325416e-05
6.153999035475209057e-06
1.547682716215797809e-04
1.304861315382621675e-06
-1.493066467885128948e-04
-1.447475187551490548e-04
-2.904512523720130458e-04
3.288768636584437255e-04
-4.232127649850002719e-04
6.573893742584082040e-04
-9.171448507572224824e-05
-7.689424530697248829e-05
-6.152968717278332954e-05
2.590631461260411409e-04
-3.114028956830441018e-05
1.355326530336652591e-04
-3.093580354193756318e-04
-1.452651523712560468e-04
-5.928581789896872562e-04
4.842932259260046904e-04
-1.178582274565414444e-04
5.001593331388583166e-04
-1.028484486310220908e-04
2.094068448421824123e-04
6.352135912787556713e-05
6.959561657117329530e-05
-3.830404380180102821e-04
7.860602377599199800e-05
-6.818938122732362333e-04
3.871695434588527142e-04
2.341519157649827405e-04
8.001214804118444665e-05
-7.488747501401442689e-05
7.506154029387914048e-05
-8.001974230487795972e-05
-8.188221235113587483e-05
-8.264514734980116250e-05
7.069372147404151584e-05
-5.370794646166191432e-04
6.881905381862074957e-04
8.435813457157735943e-05
2.451618240596211925e-04
-3.557376223642490709e-04
1.121038830563582275e-04
-3.045810563970114131e-05
-1.737233295085661609e-04
1.395316996015330394e-04
-1.591762050908453706e-04
-6.122521419872404115e-04
6.113769263948787324e-04
-1.502402822215157137e-04
3.074712233905722869e-04
1.100427178370637260e-06
1.515336707721712879e-04
-3.092323947052770311e-04
-7.862909508599119008e-06
1.401119521142107156e-04
-1.791485298802867834e-05
-1.767697388991823059e-04
4.265344083485615679e-04
-3.441057704031020843e-04
-4.705541150953965597e-05
-2.078545375798230427e-04
2.420515331961181074e-04
8.247091539867408604e-05
2.294719001475549903e-04
-3.845372538784021417e-04
-8.063149679763169993e-05
-3.843461587361356006e-04
6.881382919569021530e-04
2.376146989435656549e-04
-2.103176653024794074e-04
-1.984122495737085390e-04
1.200293664619554116e-04
1.338144226287880077e-04
-5.351733626868134811e-06
6.876388820973001598e-06
-1.353641594839068076e-04
-5.851302377427016138e-04
6.410156980913261611e-04
-1.189683377443340770e-04
-2.707755126886333638e-04
1.860980716179488415e-04
1.841615133459125592e-04
-1.233302756694116685e-04
-1.253918242225621421e-04
1.785107005660560640e-04
1.784056435716853070e-04
-5.832825024520376213e-04
4.874173631482703784e-04
3.333811468482520627e-05
3.770122615511841275e-05
-1.104069573674498289e-04
4.614196363330199627e-05
-1.036310514053908602e-04
2.026766210810626600e-04
-1.034229200990290581e-04
-2.591448381350925224e-04
-4.169890358035597037e-04
4.914786213455486340e-04
2.535506856980048292e-05
1.689012927183361707e-04
7.250719314193210186e-06
-1.191594403585743058e-06
-3.136128400203611099e-04
2.911689497345013445e-04
-3.227217802462519825e-04
2.863283702651509780e-04
-4.756362214350129966e-04
5.955866998213036083e-04
1.427398453151411438e-04
-3.601273125413069977e-06
-3.017842198010370000e-04
-1.420766729191119118e-04
1.717488550147187984e-05
1.754819383918636809e-04
-1.252781728246645887e-04
3.020438310230765330e-05
-4.262701382951898307e-04
4.889642111232202952e-04
2.942109860099617114e-05
2.628740322975378716e-05
2.194287521760376826e-05
1.653320479381248191e-05
-2.949641062010041441e-04
1.557393892617268093e-04
1.481452358569410185e-04
-1.232893518413224426e-05
-7.831701171820054435e-04
7.350914231259682904e-04
1.177097238111809074e-04
-1.936253648005883141e-04
1.065107773090200830e-04
-4.978679504939775066e-05
-5.198958687573554919e-05
-2.051228287150038115e-04
2.538789064473571402e-04
1.044066562393399173e-04
-6.534937788375744022e-04
4.215573908433204115e-04
2.776760415475828950e-04
-1.698613300901614682e-04
-3.110918398359783696e-04
3.112257672020518769e-04
1.705798384823064759e-04
2.921020825456332006e-05
3.900184331410516090e-05
4.673922562853108446e-05
-8.635774010072037096e-04
3.595543167946255191e-04
5.401345423794279125e-05
5.107445396857278845e-05
4.596920891608722914e-05
3.923452857424508037e-05
3.147572157038491054e-05
-1.292756246599003418e-04
3.205089864791640908e-04
8.062418728605069779e-06
-9.135962148098626320e-04
6.076043110176738331e-04
1.467845195629128847e-04
-7.235680123672612797e-06
-7.221138442712946461e-06
1.464846761242066190e-04
-1.569431189935058225e-04
-2.524957136918878612e-06
-1.170752048047397412e-06
-8.004302681788844588e-07
-6.121743062770960758e-04
7.584218507127317129e-04
-1.616132847405956437e-04
-1.534954611989760702e-05
-2.336436971207310880e-05
1.197640054448144675e-04
-1.959604650076084424e-04
-5.456163644406733743e-05
8.671384338058872262e-05
7.582839290681758846e-05
-5.444405865023732366e-04
6.678004921410990013e-04
2.034256355616971274e-04
-2.588167825139331911e-04
4.418041365838852206e-05
-1.082130278362601681e-04
-1.056418073266775020e-04
-2.533293098770093604e-04
2.115648702729514908e-04
2.207554034570364393e-04
-6.837948151301013761e-04
7.018502645159763534e-04
1.046641198215208146e-04
-3.466185464880776443e-05
-2.212537714177383399e-05
-1.116565873884324896e-05
1.500269994964249321e-04
-1.494942622234616831e-04
-1.471055509875580643e-04
-1.479552980072789444e-04
-7.620139293538363704e-04
6.053956713666306918e-04
1.404512874107607598e-04
1.328940570806558133e-04
-2.680169455304812123e-05
2.723316611046479731e-04
1.151118546188150635e-04
-4.062651436788708307e-05
-4.245020566923621448e-05
-1.958322337613746284e-04
-5.011195077493545624e-04
4.146608276772778610e-04
-4.272667956904843787e-05
-4.237685672625734204e-05
-4.212190904216935093e-05
1.106127595513346063e-04
1.106626730358690124e-04
-4.196320554998820846e-05
1.104886398478389546e-04
-4.236678452058085750e-05
-5.005801318151278587e-04
4.142584472471985625e-04
1.081034768209876467e-04
2.593898796182607228e-04
-3.525785174196552287e-04
-2.018528970617272601e-04
1.013684142775167604e-04
-5.302434215357867573e-05
9.822261015225766656e-05
-5.489087218891365995e-05
-3.594361548612730350e-04
5.581565782736947444e-04
2.566534615974055598e-04
-1.957909527910466291e-04
-3.415087911952884004e-04
