4.369788302955051121e-03
4.677296042343064876e-03
4.984902146780700698e-03
5.292958543726180784e-03
5.601682616549957111e-03
5.911161343623612049e-03
6.221357359247278035e-03
6.532116725902889151e-03
6.843178243255063770e-03
7.154184121223658779e-03
7.464691815202808764e-03
7.774186644841319868e-03
8.082094979521101119e-03
8.387797860412750384e-03
8.690644708903162707e-03
8.989966816842474145e-03
9.285090535232919801e-03
9.575349833646535844e-03
9.860098062694071588e-03
1.013871868230828768e-02
1.041063494679676099e-02
1.067531820033094762e-02
1.093229484161419192e-02
1.118115187671018564e-02
1.142154091206322095e-02
1.165318073610099522e-02
1.187585836115239921e-02
1.208942858936538217e-02
1.229381230429994754e-02
1.248899346073236924e-02
1.267501490063501282e-02
1.285197316050945560e-02
1.302001246990075467e-02
1.317931803607473411e-02
1.333010879155727309e-02
1.347262985964068835e-02
1.360714483759197478e-02
1.373392811334514171e-02
1.385325735370098940e-02
1.396540638528958808e-02
1.407063857649864733e-02
1.416920085853913720e-02
1.426131848947747617e-02
1.434719067106178352e-02
1.442698712050897308e-02
1.450084562426543974e-02
1.456887048065021346e-02
1.463113207556662049e-02
1.468766739482630333e-02
1.473848142081695713e-02
1.478354949049301252e-02
1.482282040661977822e-02
1.485622021733790619e-02
1.488365659714840222e-02
1.490502374020898774e-02
1.492020743348879477e-02
1.492909045818772637e-02
1.493155790657735120e-02
1.492750247178870580e-02
1.491682946823243150e-02
1.489946147713233464e-02
1.487534251048537072e-02
1.484444155381507528e-02
1.480675547122268718e-02
1.476231112348571836e-02
1.471116665305426813e-02
1.465341190342411143e-02
1.458916799063886272e-02
1.451858605590495947e-02
1.444184512492150720e-02
1.435914922964255831e-02
1.427072375921236910e-02
1.417681121082586121e-02
1.407766645945725953e-02
1.397355153565550158e-02
1.386473013899245169e-02
1.375146201797349671e-02
1.363399730358375722e-02
1.351257096337418750e-02
1.338739761029732363e-02
1.325866662368265121e-02
1.312653785966742641e-02
1.299113796872636631e-02
1.285255750518484071e-02
1.271084886577807278e-02
1.256602519388642404e-02
1.241806027149683182e-02
1.226688940733932330e-02
1.211241131860491850e-02
1.195449104617374650e-02
1.179296388075220560e-02
1.162764022029863856e-02
1.145831127752534699e-02
1.128475546789780952e-02
1.110674548489921400e-02
1.092405594194432485e-02
1.073647131379489375e-02
1.054379407906077745e-02
1.034585289101505080e-02
1.014251066566398095e-02
9.933672343885851380e-03
9.719292206640757492e-03
9.499380543571524574e-03
9.274009558145416762e-03
9.043318332125314940e-03
8.807516739660854743e-03
8.566888204821746303e-03
8.321791186640312837e-03
8.072659440750676665e-03
7.820000848280578287e-03
7.564394911922242906e-03
7.306488808645313776e-03
7.046992201582065463e-03
6.786670728135171804e-03
6.526338323373594846e-03
6.266848467118780498e-03
6.009084481260799915e-03
5.753949041982842939e-03
5.502353054111612518e-03
5.255204029894138679e-03
5.013394314082862159e-03
4.777789207185524113e-03
4.549215212572656208e-03
4.328448673591925658e-03
4.116204929944161650e-03
3.913128250620930351e-03
3.719782625207243218e-03
3.536643758767825819e-03
3.364092201961418893e-03
3.202407945465331456e-03
3.051766485666011341e-03
2.912236416735777302e-03
2.783778616836696512e-03
2.666247117077549540e-03
2.559391632797872965e-03
2.462861619767616351e-03
2.376211952889302655e-03
2.298910101765779326e-03
2.230344615119284925e-03
2.169834777121944312e-03
2.116641401743861537e-03
2.069978423139319252e-03
2.029025226847747890e-03
1.992939441629221035e-03
1.960870017480667495e-03
1.931970287347076340e-03
1.905410891762364866e-03
1.880392283642444212e-03
1.856156682153772353e-03
1.831999142812983832e-03
1.807277664016537430e-03
1.781422054616981681e-03
1.753941556342191246e-03
1.724430935302928092e-03
1.692575140209090848e-03
1.658152228596112719e-03
1.621034675098232455e-03
1.581188922243353815e-03
1.538673300557226627e-03
1.493634315991573163e-03
1.446301427398746483e-03
1.396980269571620158e-03
1.346044556066317141e-03
1.293926801622840086e-03
1.241107987451192619e-03
1.188106424616034362e-03
1.135465963113750426e-03
1.083743757607614740e-03
1.033497828593385286e-03
9.852746353889911633e-04
9.395968561863932752e-04
8.969516938784987108e-04
8.577797573727756345e-04
8.224648454351204214e-04
7.913247057542309231e-04
7.646030255566041260e-04
7.424627629127998228e-04
7.249809461567154360e-04
7.121449685445191673e-04
7.038505788368035806e-04
6.999014827061409609e-04
7.000105783863000506e-04
7.038028933792441801e-04
7.108200759971939177e-04
7.205263875444334809e-04
7.323162069911443852e-04
7.455227853621651480e-04
7.594281129403855938e-04
7.732737755823209085e-04
7.862726409615394558e-04
7.976211771757419451e-04
8.065121620388686569e-04
8.121475704365489507e-04
8.137514593606371294e-04
8.105826534726094787e-04
8.019469541912015251e-04
7.872087566136374811e-04
7.658018231242552610e-04
7.372391100127790448e-04
7.011214828024535861e-04
6.571450405263044641e-04
6.051071456692187853e-04
5.449109255885933043e-04
4.765682500146226335e-04
4.002010800496323814e-04
3.160412993458227389e-04
2.244288436785446018e-04
1.258083259276172102e-04
2.072416862456121040e-05
-9.018571515915577695e-05
-2.061975224007227552e-04
-3.265104136168497711e-04
-4.502563846657825779e-04
-5.765110038830940789e-04
-7.043049214032247665e-04
-8.326359599763990182e-04
-9.604815909640161209e-04
-1.086811588791405415e-03
-1.210600713353271463e-03
-1.330841223150731325e-03
-1.446555108504099345e-03
-1.556805804383856262e-03
-1.660709183762182567e-03
-1.757443839702039047e-03
-1.846260410373265059e-03
-1.926489871929880056e-03
-1.997550731007087174e-03
-2.058955007094209234e-03
-2.110312996892983132e-03
-2.151336658658301731e-03
-2.181841743168295468e-03
-2.201748682718428565e-03
-2.211082158606601008e-03
-2.209969447232805039e-03
-2.198637518447155246e-03
-2.177409079835572123e-03
-2.146697577583761129e-03
-2.107001313437465925e-03
-2.058896647218667279e-03
-2.003030530664044653e-03
-1.940112435211260606e-03
-1.870905782812291949e-03
-1.796219024396078414e-03
-1.716896499308294237e-03
-1.633809107233281672e-03
-1.547845006267533751e-03
-1.459900458716439269e-03
-1.370870784381802076e-03
-1.281641736563557355e-03
-1.193081147522437324e-03
-1.106031070215403962e-03
-1.021300463498848402e-03
-9.396583777228539793e-04
-8.618278447534248859e-04
-7.884803793753343559e-04
-7.202311370352282131e-04
-6.576347240637291525e-04
-6.011817802815183284e-04
-5.512962149316694149e-04
-5.083330669683880018e-04
-4.725770702744594952e-04
-4.442418546174435492e-04
-4.234697082317021737e-04
-4.103319070288456391e-04
-4.048295574331307921e-04
-4.068950074618457569e-04
-4.163936799879091157e-04
-4.331262850042021367e-04
-4.568314901844589319e-04
-4.871888874955728529e-04
-5.238223347084604515e-04
-5.663034587097866149e-04
-6.141554747493963885e-04
-6.668572741131754923e-04
-7.238476580163214543e-04
-7.845297950623850245e-04
-8.482757823036743200e-04
-9.144313378229162884e-04
-9.823207180384492965e-04
-1.051251606331224386e-03
-1.120520157855423244e-03
-1.189416091730379583e-03
-1.257227805172594264e-03
-1.323247566711058774e-03
-1.386776682037922171e-03
-1.447130636225147466e-03
-1.503644245199687755e-03
-1.555676697944871146e-03
-1.602616528953393956e-03
-1.643886443496936226e-03
-1.678947990280345000e-03
-1.707306001010371489e-03
-1.728512838295098676e-03
-1.742172358368240630e-03
-1.747943550546124380e-03
-1.745543848122007311e-03
-1.734751979068839545e-03
-1.715410457798325185e-03
-1.687427573080814164e-03
-1.650778823981170285e-03
-1.605507867154700201e-03
-1.551726916492457030e-03
-1.489616502422669037e-03
-1.419424698589679236e-03
-1.341465715525592571e-03
-1.256117831505690861e-03
-1.163820737224324862e-03
-1.065072352219403190e-03
-9.604250107860904393e-04
-8.504811593339194759e-04
-7.358885020239644718e-04
-6.173346759193587682e-04
-4.955415073586567735e-04
-3.712589699101108464e-04
-2.452587981399535853e-04
-1.183279296638308018e-04
8.738251612034719949e-06
1.351427534506717142e-04
2.600937526896726117e-04
3.828113467612103945e-04
5.025341953123227488e-04
6.185258401753069082e-04
7.300807768472300204e-04
8.365301631803057905e-04
9.372470701627215461e-04
1.031651235111230797e-03
1.119213331228769218e-03
1.199458601900469388e-03
1.271969889881143130e-03
1.336390076718645559e-03
1.392423824595684324e-03
1.439838704256116240e-03
1.478465629974090893e-03
1.508198629326961511e-03
1.528994092272078099e-03
1.540869351727249805e-03
1.543900789719181502e-03
1.538221380802401320e-03
1.524017818937118979e-03
1.501527276435329385e-03
1.471033847611609435e-03
1.432864698580118721e-03
1.387386025494957492e-03
1.334998906423423733e-03
1.276135132576648951e-03
1.211252971628866458e-03
1.140833034630124674e-03
1.065374253377144361e-03
9.853900153783210630e-04
9.014044926917623522e-04
8.139492789954566295e-04
7.235602246481584107e-04
6.307746173844563453e-04
5.361286630390404203e-04
4.401552730640754911e-04
3.433821574224821542e-04
2.463301945311621830e-04
1.495121183335477685e-04
5.343137275944981655e-05
-4.141870076719664662e-05
-1.345556172227172875e-04
-2.255082830602956852e-04
-3.138174730011760762e-04
-3.990362479796836278e-04
-4.807303712468721790e-04
-5.584787926823326981e-04
-6.318741679819202999e-04
-7.005235395360588299e-04
-7.640491692409880206e-04
-8.220895870126485819e-04
-8.743007567934011140e-04
-9.203575964582636501e-04
-9.599556420118180236e-04
-9.928129496790630715e-04
-1.018672260271065748e-03
-1.037303371354701600e-03
-1.048505630090547586e-03
-1.052110682372732952e-03
-1.047985220747316669e-03
-1.036033886768130503e-03
-1.016202079420502414e-03
-9.884787949414870854e-04
-9.528992594741113580e-04
-9.095474572185631651e-04
-8.585583576789199449e-04
-8.001198256462600886e-04
-7.344742025667571391e-04
-6.619193715923326043e-04
-5.828093298239319427e-04
-4.975542806029188171e-04
-4.066199658750921917e-04
-3.105265423372457383e-04
-2.098466497473030221e-04
-1.052028696240912164e-04
2.735469249420007267e-06
1.132562542929582737e-04
2.256091493686015678e-04
3.390108221222550879e-04
4.526507396722511539e-04
5.656975719991240523e-04
6.773060057400734791e-04
7.866239980035795920e-04
8.928003279374365549e-04
9.949924225348379461e-04
1.092374272061674961e-03
1.184144428245493142e-03
1.269533946567635678e-03
1.347814136180161028e-03
1.418304012622732075e-03
1.480377489590550778e-03
1.533469988125859976e-03
1.577084517782233186e-03
1.610797106581003321e-03
1.634261475627695132e-03
1.647212954846957907e-03
1.649471509982015178e-03
1.640943849388407441e-03
1.621624670686822598e-03
1.591596882500347565e-03
1.551030882938100354e-03
1.500182920216592457e-03
1.439392482768734119e-03
1.369078857730039690e-03
1.289736781915590746e-03
1.201931296498242241e-03
1.106291982133188060e-03
1.003506512182005287e-03
8.943136566395774433e-04
7.794958843722131058e-04
6.598716001583400425e-04
5.362871235409112083e-04
4.096085692264666341e-04
2.807137451202046667e-04
1.504841068849388519e-04
1.979683314374999217e-05
-1.104827057351719387e-04
-2.395081972822897184e-04
-3.664591435591653379e-04
-4.905470633005078792e-04
-6.110211697867815343e-04
-7.271734448972002555e-04
-8.383429869456315072e-04
-9.439196250811245428e-04
-1.043346857080742216e-03
-1.136124118701697201e-03
-1.221808292260073790e-03
-1.300014538764083637e-03
-1.370416545211172602e-03
-1.432746104079137819e-03
-1.486792190640730867e-03
-1.532399499933434538e-03
-1.569466574182689289e-03
-1.597943589956606243e-03
-1.617829838264956462e-03
-1.629170958235017256e-03
-1.632056032715942587e-03
-1.626614634849797699e-03
-1.613013802210779739e-03
-1.591455126994115610e-03
-1.562171886826477707e-03
-1.525426370171001789e-03
-1.481507343113978598e-03
-1.430727758198062621e-03
-1.373422647276960123e-03
-1.309947374413668580e-03
-1.240675974091032122e-03
-1.165999850416448661e-03
-1.086326671953330740e-03
-1.002079457726394235e-03
-9.136957802919081937e-04
-8.216271095306537653e-04
-7.263382444573640573e-04
-6.283067592848420565e-04
-5.280224507985299687e-04
-4.259866942994493103e-04
-3.227116334776182829e-04
-2.187192191774797452e-04
-1.145399916536020299e-04
-1.071163209022788088e-05
9.222280874648388456e-05
1.937170202311187979e-04
2.932239026005842341e-04
3.901984275475161830e-04
4.841008238090046861e-04
5.744001747056483613e-04
6.605782527253038902e-04
7.421337124444739308e-04
8.185865296275808859e-04
8.894826079383022716e-04
9.543985596376504225e-04
1.012946505966413110e-03
1.064778935052074129e-03
1.109593358300929372e-03
1.147136849558696168e-03
1.177210275670788646e-03
1.199672161607506825e-03
1.214442079268854757e-03
1.221503477549617991e-03
1.220905869821075187e-03
1.212766369715098918e-03
1.197270426622712262e-03
1.174671723336744847e-03
1.145291198402083061e-03
1.109515160459009732e-03
1.067792550187872608e-03
1.020631279494494314e-03
9.685936431277477948e-04
9.122909080957400515e-04
8.523770931012296078e-04
7.895420495655655841e-04
7.245038553978861351e-04
6.580006928323023276e-04
5.907822588861388544e-04
5.236008682654194569e-04
4.572024170558026306e-04
3.923172303966901615e-04
3.296510426140518055e-04
2.698762509430733441e-04
2.136234940952868992e-04
1.614738302023412033e-04
1.139515826218303858e-04
7.151793311453035927e-05
3.456549827945822013e-05
3.413875418137393002e-06
-2.169355201811062200e-05
-4.059183054050947943e-05
-5.319525931371797445e-05
-5.949693731222696012e-05
-5.956707564127984122e-05
-5.354998811865745178e-05
-4.165983925060903314e-05
-2.417521175829843839e-05
-1.432546896576638553e-06
2.618142560456313702e-05
5.823814519623541318e-05
9.427643891450537069e-05
1.338123296001003854e-04
1.763492619082371652e-04
2.213886658480738773e-04
2.684404996904914565e-04
3.170336986123149553e-04
3.667262957086306493e-04
4.171149979374461710e-04
4.678441121224087172e-04
5.186135773857925143e-04
5.691859219313287433e-04
6.193921042689705956e-04
6.691359287952363148e-04
7.183970876611765624e-04
7.672326480882173854e-04
8.157769956727616229e-04
8.642401052958779799e-04
9.129042484274918750e-04
9.621190356712006888e-04
1.012294939790838203e-03
1.063895374510846845e-03
1.117427442160837938e-03
1.173431434512042619e-03
1.232469247723343500e-03
1.295111979780045556e-03
1.361926882561741419e-03
1.433463773396603542e-03
1.510241361927225660e-03
1.592733523162902362e-03
1.681355947242755633e-03
1.776453279607661346e-03
1.878287029081344506e-03
1.987024531121263284e-03
2.102729144110294674e-03
2.225351918595548997e-03
2.354724900250334662e-03
2.490556235921437007e-03
2.632427304934345253e-03
2.779791797508989176e-03
2.931976997572366492e-03
3.088187222525874513e-03
3.247509472029003978e-03
3.408921182187284876e-03
3.571300077556926935e-03
3.733435955818723007e-03
3.894044290454714684e-03
4.051781513961832254e-03
4.205261686453146130e-03
4.353074451783558660e-03
4.493803843647177498e-03
4.626047830509007371e-03
4.748438151543537926e-03
4.859660216497295807e-03
4.958472769000614282e-03
5.043726932160734998e-03
5.114384309556938707e-03
5.169533952957694987e-03
5.208407788290236873e-03
5.230394216165138929e-03
5.235049799583506476e-03
5.222108624166356232e-03
5.191489225747277295e-03
5.143298949090957875e-03
5.077835657853639779e-03
4.995586601066419503e-03
4.897224580158629839e-03
4.783601247422998928e-03
4.655737808195704007e-03
4.514813033261784285e-03
4.362148877467778713e-03
4.199193868015744721e-03
4.027504413119786970e-03
3.848724425872300080e-03
3.664563454336862858e-03
3.476773725766641506e-03
3.287126430136092133e-03
3.097387482571231296e-03
2.909293352677818668e-03
2.724527230627477210e-03
2.544695860754176298e-03
2.371307507830449583e-03
2.205751382453343453e-03
2.049278798790804199e-03
1.902986428034928422e-03
1.767801951763237718e-03
1.644472326405235644e-03
1.533554770071842138e-03
1.435410810349892034e-03
1.350203381368636230e-03
1.277897026836578593e-03
1.218261295605303470e-03
1.170877202042802483e-03
1.135146695790431202e-03
1.110305066775288873e-03
1.095435930450343797e-03
1.089488712536618902e-03
1.091298291589445826e-03
1.099606500158715810e-03
1.113085078113170432e-03
1.130359802098687000e-03
1.150035324342510304e-03
1.170720309085411222e-03
1.191052536881561296e-03
1.209723412597949301e-03
1.225501635662828515e-03
1.237255453353221539e-03
1.243973234952690547e-03
1.244781998636094967e-03
1.238963553257772104e-03
1.225967959635384510e-03
1.205424083904381568e-03
1.177147031514704390e-03
1.141142422875760388e-03
1.097607228966672238e-03
1.046927291580831542e-03
9.896715139738265169e-04
9.265827328712430890e-04
8.585654764397394846e-04
7.866708017312235663e-04
7.120783832696816118e-04
6.360761838725088662e-04
5.600380630154742478e-04
4.853995556560937474e-04
4.136324110613949783e-04
3.462181650653104576e-04
2.846211891725089677e-04
2.302617871229896949e-04
1.844896356987046427e-04
1.485581086054620222e-04
1.235998836580249607e-04
1.106042983104587056e-04
1.103968057361517810e-04
1.236209053588458752e-04
1.507228625840868112e-04
1.919394871501140507e-04
2.472891746874631000e-04
3.165664600381120470e-04
3.993401559425281862e-04
4.949551011870604060e-04
6.025375821188288291e-04
7.210043279650642017e-04
8.490749979569003946e-04
9.852879111998389446e-04
1.128018871357231324e-03
1.275502753435215882e-03
1.425857516891793032e-03
1.577110329048040825e-03
1.727225342712600253e-03
1.874132695454264847e-03
2.015758339713360613e-03
2.150054175475931296e-03
2.275027954669460884e-03
2.388772596223404793e-03
2.489494354393569694e-03
2.575539458348022250e-03
2.645418796952256433e-03
2.697830189783562583e-03
2.731677921051867217e-03
2.746089249792381393e-03
2.740427625750775989e-03
2.714302401637231320e-03
2.667574820925711337e-03
2.600360311669428891e-03
2.513026949093781666e-03
2.406190213065002598e-03
2.280704006853970667e-03
2.137648205361181424e-03
1.978312843840496476e-03
1.804179274918944536e-03
1.616898573499948345e-03
1.418267529098589342e-03
1.210202674145384764e-03
9.947126504272281629e-04
7.738694707736234807e-04
5.497790517108575156e-04
3.245516061966778327e-04
1.002721922637415941e-04
-1.210278952868689919e-04
-3.373986840279336714e-04
-5.469974505588943601e-04
-7.481126299716705282e-04
-9.391854225636344072e-04
-1.118828675034874449e-03
-1.285842882268628095e-03
-1.439228978293827319e-03
-1.578197782245078324e-03
-1.702176026975887576e-03
-1.810808889486470495e-03
-1.903958989198555832e-03
-1.981702026919904790e-03
-2.044319065383645717e-03
-2.092285685730133852e-03
-2.126258195751902762e-03
-2.147057325558859343e-03
-2.155649505130452590e-03
-2.153126236271122457e-03
-2.140681898289318978e-03
-2.119590381004122972e-03
-2.091180915192766832e-03
-2.056813640804797030e-03
-2.017855275914777827e-03
-1.975655261715190524e-03
-1.931522854834185829e-03
-1.886705634660259916e-03
-1.842369586665140680e-03
-1.799581228972507588e-03
-1.759292017575016503e-03
-1.722325282068965218e-03
-1.689365878841638966e-03
-1.660952659545281282e-03
-1.637473943388134722e-03
-1.619165901568247893e-03
-1.606113940188047149e-03
-1.598256916715366316e-03
-1.595394109952907001e-03
-1.597194768625881389e-03
-1.603209995641251490e-03
-1.612886659286502569e-03
-1.625583137945613372e-03
-1.640586428525585326e-03
-1.657130428839651221e-03
-1.674414852797342229e-03
-1.691624515522305262e-03
-1.707948522977185361e-03
-1.722599017247833592e-03
-1.734829201693615383e-03
-1.743950168891052590e-03
-1.749346217369813702e-03
-1.750488379089657582e-03
-1.746945919340729377e-03
-1.738395558302273554e-03
-1.724628318673507472e-03
-1.705553755348005124e-03
-1.681201605871232097e-03
-1.651720726387493308e-03
-1.617375483441950857e-03
-1.578539542364734184e-03
-1.535687304661675868e-03
-1.489383095425598352e-03
-1.440268370397049811e-03
-1.389047087385207168e-03
-1.336469751404489913e-03
-1.283316306468812408e-03
-1.230378268149412901e-03
-1.178440373929487200e-03
-1.128262323064908911e-03
-1.080560830403678920e-03
-1.035992317343572763e-03
-9.951367602134973851e-04
-9.584829289499572974e-04
-9.264153107395411806e-04
-8.992030978312332435e-04
-8.769914176783280470e-04
-8.597949929589175514e-04
-8.474943759318782520e-04
-8.398349789504852602e-04
-8.364288151886695600e-04
-8.367590499203191425e-04
-8.401872322053144902e-04
-8.459631284750135372e-04
-8.532370903810681520e-04
-8.610745641155226077e-04
-8.684727031509161975e-04
-8.743786418306702998e-04
-8.777091866397952616e-04
-8.773715538015834214e-04
-8.722846651993341723e-04
-8.614008424902367669e-04
-8.437272537045234890e-04
-8.183468463243864007e-04
-7.844383294194932433e-04
-7.412948493539320022e-04
-6.883409400382136788e-04
-6.251474028871599909e-04
-5.514438953700250695e-04
-4.671288723686055529e-04
-3.722767084520186729e-04
-2.671417378005441659e-04
-1.521592785587238758e-04
-2.794335691388892960e-05
1.047187349340882598e-04
2.448750321282978817e-04
3.914205767331653649e-04
5.431119717653538253e-04
6.985845867570438092e-04
8.563722320227111495e-04
1.014928916411598093e-03
1.172652339812886753e-03
1.327908705481480132e-03
1.479058573800649465e-03
1.624483156188285312e-03
1.762610700371118697e-03
1.891942518240947741e-03
2.011078109790326047e-03
2.118739110219350699e-03
2.213791441014829799e-03
2.295265361242053957e-03
2.362373157581935858e-03
2.414523995568428061e-03
2.451335696343488746e-03
2.472643219539496021e-03
2.478503653493964193e-03
2.469197674556772217e-03
2.445227347769557847e-03
2.407310275526548804e-03
2.356370178077347565e-03
2.293524063237852798e-03
2.220066102573030071e-03
2.137448485286594455e-03
2.047259575111951176e-03
1.951199701971359328e-03
1.851054939219760540e-03
1.748669365501484335e-03
1.645916096686977090e-03
1.544667808932040929e-03
1.446766930172738467e-03
1.353996271723715032e-03
1.268050400597541417e-03
1.190508266052070626e-03
1.122807601457361752e-03
1.066221432049517482e-03
1.021837090852779125e-03
9.905381283712047340e-04
9.729894626446317562e-04
9.696258985617153782e-04
9.806442958074932173e-04
1.005999493063723356e-03
1.045404096527388508e-03
1.098332061065044338e-03
1.164026059629005155e-03
1.241508513180930584e-03
1.329596173377366663e-03
1.426917920081328820e-03
1.531935468989283934e-03
1.642966821646218555e-03
1.758211937611536780e-03
1.875780225893770988e-03
1.993719372523121858e-03
2.110045157866721494e-03
2.222771757836579636e-03
2.329941951514901029e-03
2.429656858529919122e-03
2.520104627000779862e-03
2.599587696128774841e-03
2.666548217500893520e-03
2.719591181508473551e-03
2.757504897004364481e-03
2.779278578603047029e-03
2.784116671270709699e-03
2.771449807465727142e-03
2.740942200556873310e-03
2.692495321648727662e-03
2.626247967557789921e-03
2.542572641973279545e-03
2.442068334229893257e-03
2.325549886061019367e-03
2.194034140182181056e-03
2.048723093176158753e-03
1.890984382158614717e-03
1.722329406867128404e-03
1.544389502963636630e-03
1.358890549142730388e-03
1.167626378772016740e-03
9.724315602616869251e-04
7.751538866827556440e-04
5.776269378057719787e-04
3.816433953535631790e-04
1.889293408269850495e-04
1.119941041395602899e-06
-1.802629850572616066e-04
-3.538312875532425368e-04
-5.183484271503704856e-04
-6.727447224010006405e-04
-8.161296358597701838e-04
-9.478010850185770997e-04
-1.067251543346692038e-03
-1.174171014777844425e-03
-1.268446790402847670e-03
-1.350160063750758350e-03
-1.419579510177899299e-03
-1.477152015682961245e-03
-1.523490705161131050e-03
-1.559360552389869826e-03
-1.585661869037667277e-03
-1.603411878240834339e-03
-1.613724803250954224e-03
-1.617790868178725552e-03
-1.616854357550878913e-03
-1.612191397394405808e-03
-1.605087619374078118e-03
-1.596816127740368664e-03
-1.588616143276232835e-03
-1.581672681884589053e-03
-1.577097574555293494e-03
-1.575912002832649105e-03
-1.579031007014917564e-03
-1.587250019934453296e-03
-1.601233660063447342e-03
-1.621506937754945300e-03
-1.648448948365148839e-03
-1.682289157716923729e-03
-1.723106172769198327e-03
-1.770829087749132636e-03
-1.825241309637574928e-03
-1.885986700608154477e-03
-1.952577925387982650e-03
-2.024406846678141088e-03
-2.100756680538419085e-03
-2.180815787653128061e-03
-2.263692765877151070e-03
-2.348432620920989228e-03
-2.434033691576108389e-03
-2.519465097374143283e-03
-2.603684411293918401e-03
-2.685655194682940242e-03
-2.764364236286360760e-03
-2.838838168680063619e-03
-2.908159241840194142e-03
-2.971479994969952743e-03
-3.028036698361996279e-03
-3.077161299431875694e-03
-3.118291756925426882e-03
-3.150980665116073168e-03
-3.174902073576045276e-03
-3.189856373437949429e-03
-3.195773363500503412e-03
-3.192713320159837678e-03
-3.180866237433857373e-03
-3.160549248042259819e-03
-3.132202254920529293e-03
-3.096381961033416088e-03
-3.053754350693353367e-03
-3.005085782184500551e-03
-2.951232890630595997e-03
-2.893131362360857207e-03
-2.831783892562315767e-03
-2.768247387268874243e-03
-2.703619645631828369e-03
-2.639025690597254434e-03
-2.575603932876464972e-03
-2.514492393805133150e-03
-2.456814986096251836e-03
-2.403668225561569286e-03
-2.356108285860991983e-03
-2.315138760782303046e-03
-2.281699102312834734e-03
-2.256653914074707376e-03
-2.240783123867374355e-03
-2.234773196099864006e-03
-2.239209342398808342e-03
-2.254568879796645890e-03
-2.281215723632716748e-03
-2.319396025521699815e-03
-2.369234995545514092e-03
-2.430734915389216183e-03
-2.503774272622175112e-03
-2.588108141571954669e-03
-2.683369554108618483e-03
-2.789072096159396497e-03
-2.904613469820648865e-03
-3.029280084880769594e-03
-3.162252630804659754e-03
-3.302612549756511924e-03
-3.449349397106356470e-03
-3.601368979302423633e-03
-3.757502264674616663e-03
-3.916514916326414332e-03
-4.077117460156511747e-03
-4.237975973741285249e-03
-4.397723258224980544e-03
-4.554970388540107405e-03
-4.708318521439324410e-03
-4.856370985511387385e-03
-4.997745442218394334e-03
-5.131086029062587386e-03
-5.255075570051047709e-03
-5.368447471876325490e-03
-5.469997336726946553e-03
-5.558594230209864227e-03
-5.633191391031848461e-03
-5.692836297449121487e-03
-5.736680007388112769e-03
-5.763985616282715947e-03
-5.774135762571369450e-03
-5.766638978370489804e-03
-5.741134913709555233e-03
-5.697398269649803573e-03
-5.635341293706225448e-03
-5.555014925917257408e-03
-5.456608405311425859e-03
-5.340447277823236541e-03
-5.206989911439122501e-03
-5.056822414666171939e-03
-4.890651992981161038e-03
-4.709298800216467525e-03
-4.513686327434728897e-03
-4.304830389952417520e-03
-4.083826849210906058e-03
-3.851838213509119462e-03
-3.610079265176394277e-03
-3.359801764180540828e-03
-3.102278595148881112e-03
-2.838787474939297260e-03
-2.570594410840293907e-03
-2.298937212337413740e-03
-2.025009225756848903e-03
-1.749943508951701861e-03
-1.474797816407993423e-03
-1.200540530043437684e-03
-9.280377906587172548e-04
-6.580420102389299966e-04
-3.911820538261672744e-04
-1.279552251876341009e-04
1.312789017870502248e-04
3.863024624650313195e-04
6.370411361700917784e-04
8.835637266278192990e-04
1.126079403867321629e-03
1.364932735120852770e-03
1.600596409094117876e-03
1.833661862296695954e-03
2.064827761273898069e-03
2.294886622032941536e-03
2.524709684790463898e-03
2.755230282767790959e-03
2.987425915780575654e-03
3.222299339156230527e-03
3.460858911831649933e-03
3.704098546538585075e-03
3.952977439427968719e-03
4.208400114889599732e-03
4.471196902023098774e-03
4.742105310760135438e-03
5.021752483090582281e-03
5.310639033669807205e-03
5.609124578880180824e-03
5.917415139149034831e-03
6.235552639788953695e-03
6.563406653414321709e-03
6.900668594126507099e-03
7.246848353853196922e-03
7.601273453869660142e-03
7.963090750665069092e-03
8.331270610930916962e-03
8.704613590542436066e-03
9.081759316741686711e-03
9.461197547155100057e-03
9.841281208290270782e-03
1.022024108457614440e-02
1.059620208640353611e-02
1.096720062477087552e-02
1.133120302697160700e-02
1.168612454503790456e-02
1.202984873964879631e-02
1.236024690755562101e-02
1.267519724323597392e-02
1.297260355165205138e-02
1.325041316457866575e-02
1.350663396822575357e-02
1.373935020823283115e-02
1.394673693957292591e-02
1.412707306394064312e-02
1.427875280853150609e-02
1.440029561113912414e-02
1.449035442766914011e-02
1.454772243714712483e-02
1.457133819669168169e-02
1.456028945220810833e-02
1.451381559609886233e-02
1.443130903866211845e-02
1.431231555528348319e-02
1.415653393190106565e-02
1.396381498724449943e-02
1.373416022239965818e-02
1.346772035789640769e-02
1.316479377261151051e-02
1.282582519401101809e-02
1.245140469561794964e-02
1.204226713381042861e-02
1.159929209522035307e-02
1.112350438094088408e-02
1.061607513295685472e-02
1.007832347730420498e-02
9.511718547844679947e-03
8.917881929126333929e-03
8.298590141025434172e-03
7.655777126998703982e-03
6.991536463347695733e-03
6.308122919379195379e-03
5.607953216237431329e-03
4.893605467994335649e-03
4.167817222193929798e-03
3.433481547295301473e-03
2.693641017913964673e-03
1.951479195927917657e-03
1.210309388238604584e-03
4.735604454601160455e-04
-2.552405724610312720e-04
-9.724890239860270241e-04
-1.674526633283147676e-03
-2.357668695526893721e-03
-3.018234523253354989e-03
-3.652580922860119809e-03
-4.257138399195934710e-03
-4.828449875210654232e-03
-5.363211293349685362e-03
-5.858313740945721854e-03
-6.310886426452050682e-03
-6.718339885043327075e-03
-7.078408680163001017e-03
-7.389192844302020814e-03
-7.649197225118826299e-03
-7.857367995570048794e-03
-8.013125287620364440e-03
-8.116391374647083032e-03
-8.167613413424415145e-03
-8.167780104145927478e-03
-8.118431534751365322e-03
-8.021661614433761925e-03
-7.880112551616151942e-03
-7.696960958674784609e-03
-7.475895457044863524e-03
-7.221085430732097910e-03
-6.937141048949057448e-03
-6.629064718963962634e-03
-6.302194323975293319e-03
-5.962138674022180590e-03
-5.614705885705322669e-03
-5.265825488840494145e-03
-4.921465197796681679e-03
-4.587543607270077456e-03
-4.269839877870491678e-03
-3.973901797419308705e-03
-3.704953744782826970e-03
-3.467806004657089311e-03
-3.266767037963930892e-03
-3.105560166252734500e-03
-2.987246399570627712e-03
-2.914154889093499307e-03
-2.887822346514568300e-03
-2.908942916217796375e-03
-2.977329759395309135e-03
-3.091889329388633999e-03
-3.250609301722134914e-03
-3.450560819389520296e-03
-3.687915571370235356e-03
-3.957977956224883673e-03
-4.255232267954999620e-03
-4.573404644747705410e-03
-4.905539329865781818e-03
-5.244088238300188658e-03
-5.581012959051928797e-03
-5.907897743995233972e-03
-6.216071976033535340e-03
-6.496740383362773798e-03
-6.741118967199842722e-03
-6.940574489446115283e-03
-7.086765393982123046e-03
-7.171781718531312910e-03
-7.188281576337567438e-03
-7.129621924097747157e-03
-6.989981057536409810e-03
-6.764470598195996935e-03
-6.449234826606638042e-03
-6.041535266754994617e-03
-5.539818665975037443e-03
-4.943766965057507477e-03
-4.254327626156337305e-03
-3.473723586894437304e-03
-2.605442019317255609e-03
-1.654201596823146134e-03
-6.258983780426391344e-04
4.724693604752658403e-04
1.632896439036933545e-03
2.846485097428134298e-03
4.103576777664558022e-03
5.393899410911903204e-03
6.706728110789596589e-03
8.031056594609868246e-03
9.355776725922256010e-03
1.066986309268157414e-02
1.196255953638724299e-02
1.322356438434737179e-02
1.444321111418665413e-02
1.561264115949834164e-02
1.672396560271710922e-02
1.777041274321783729e-02
1.874645868892740527e-02
1.964793815224415152e-02
2.047213322042443912e-02
2.121783807148707249e-02
2.188539797822727784e-02
2.247672147648627911e-02
2.299526497206451706e-02
2.344598946425379207e-02
2.383528977889111042e-02
2.417089697769736131e-02
2.446175527072017020e-02
2.471787517347272950e-02
2.495016516508740539e-02
2.517024453059257122e-02
2.539024041073453461e-02
2.562257255370414821e-02
2.587972935151064066e-02
2.617403929450519418e-02
2.651744179613682584e-02
2.692126172496746295e-02
2.739599176167454783e-02
2.795108679127372014e-02
2.859477422221572487e-02
2.933388423482500770e-02
3.017370328076123681e-02
3.111785405919382727e-02
3.216820456166619852e-02
3.332480852935135185e-02
3.458587886592218164e-02
3.594779513234724194e-02
3.740514555959857657e-02
3.895080342098328208e-02
4.057603687666727632e-02
4.227065085064989763e-02
4.402315874827469194e-02
4.582098137545035504e-02
4.765066970933002494e-02
4.949814766989547865e-02
5.134897066147350864e-02
5.318859524955140555e-02
5.500265489532827484e-02
5.677723669451263666e-02
5.849915378408311606e-02
6.015620798234441735e-02
6.173743748518221303e-02
6.323334452162884811e-02
6.463609815864930497e-02
6.593970786330365097e-02
6.714016380346540802e-02
6.823554065455005035e-02
6.922606195826357112e-02
7.011412307811401567e-02
7.090427147124214735e-02
7.160314378910774546e-02
7.221936018351649000e-02
7.276337695110485226e-02
7.324729962495758750e-02
7.368465942517894718e-02
7.409015663464725565e-02
7.447937539473925561e-02
7.486847500476730144e-02
7.527386340292541167e-02
7.571185903475131929e-02
7.619834771350769698e-02
7.674844131682777293e-02
7.737614545111234921e-02
7.809404303654221557e-02
7.891300086881779252e-02
7.984190579883719552e-02
8.088743684503965636e-02
8.205387912368378167e-02
8.334298467495114549e-02
8.475388466261056519e-02
8.628305638412682443e-02
8.792434776721735901e-02
8.966906079439833366e-02
9.150609421659829101e-02
9.342214495001659180e-02
9.540196601397275822e-02
9.742867814910420587e-02
9.948413061092165055e-02
1.015493058632185031e-01
1.036047616247241648e-01
1.056311029235490889e-01
1.076094757777697475e-01
1.095220733621536796e-01
1.113526451400044248e-01
1.130869987183126119e-01
1.147134839590130684e-01
1.162234488916102093e-01
1.176116570096846642e-01
1.188766556097354682e-01
1.200210856706980939e-01
1.210519240621626275e-01
1.219806498931798461e-01
1.228233278684080360e-01
1.236006025956161297e-01
1.243375991925069618e-01
1.250637269203085933e-01
1.258123842703236239e-01
1.266205654275844861e-01
1.275283699789435676e-01
1.285784192238337564e-01
1.298151844045130066e-01
1.312842338273582099e-01
1.330314074909370869e-01
1.351019294035979701e-01
1.375394695085863372e-01
1.403851680224084131e-01
1.436766365530177669e-01
1.474469511667511334e-01
1.517236532905811008e-01
1.565277749387240513e-01
1.618729050432201888e-01
1.677643136177051908e-01
1.741981502775416246e-01
1.811607330654503023e-01
1.886279429376902239e-01
1.965647378473302509e-01
2.049247994397905837e-01
2.136503235973020165e-01
2.226719643304434781e-01
2.319089385925060531e-01
2.412692974108330557e-01
2.506503665842004236e-01
2.599393574965896958e-01
2.690141464232609358e-01
2.777442180509780978e-01
2.859917663385743158e-01
2.936129435913881758e-01
3.004592459573203755e-01
3.063790214225436959e-01
3.112190841433272182e-01
3.148264170768532155e-01
3.170499429983109629e-01
3.177423426518748428e-01
3.167618974908033569e-01
3.139743335361079857e-01
3.092546422585443766e-01
3.024888543582276434e-01
2.935757419785946509e-01
2.824284257145107668e-01
2.689758632843149422e-01
2.531641980321411300e-01
2.349579468026798956e-01
2.143410085611413274e-01
1.913174769518560803e-01
1.659122427426777957e-01
1.381713741284005814e-01
1.081622661172998573e-01
7.597355280312197146e-02
4.171477953363246505e-02
5.515835073038878079e-03
-3.247385300344992481e-02
-7.208635334289022201e-02
-1.131364866368586991e-01
-1.554232898990899336e-01
-1.987316738437433228e-01
-2.428342554329857572e-01
-2.874933450086857301e-01
-3.324630655967792947e-01
-3.774915799202683830e-01
-4.223233990375256375e-01
-4.667017454557390033e-01
-5.103709427058945591e-01
-5.530788029142504891e-01
-5.945789837369332975e-01
-6.346332864940200658e-01
-6.730138680228400228e-01
-7.095053397973778431e-01
-7.439067293618144561e-01
-7.760332808645247216e-01
-8.057180737080837929e-01
-8.328134406271349155e-01
-8.571921690557718909e-01
-8.787484728191274908e-01
-8.973987238236132979e-01
-9.130819368478582110e-01
-9.257600036910479391e-01
-9.354176762956765145e-01
-9.420623015046923898e-01
-9.457233134259223073e-01
-9.464514926673195383e-01
-9.443180044588225241e-01
-9.394132303455546840e-01
-9.318454109032729971e-01
-9.217391190778962962e-01
-9.092335858072696508e-01
-8.944809010601538768e-01
-8.776441149629693461e-01
-8.588952645448836298e-01
-8.384133522773984382e-01
-8.163823025349835616e-01
-7.929889224980237739e-01
-7.684208929239498831e-01
-7.428648136557967074e-01
-7.165043274898333925e-01
-6.895183444840148335e-01
-6.620793868374147406e-01
-6.343520727490249422e-01
-6.064917549384002404e-01
-5.786433272462693234e-01
-5.509402101389219153e-01
-5.235035232541219719e-01
-4.964414499528825298e-01
-4.698487964933876215e-01
-4.438067453718756994e-01
-4.183827996483422962e-01
-3.936309125664186892e-01
-3.695917940990189887e-01
-3.462933838135489606e-01
-3.237514774803858519e-01
-3.019704926963795444e-01
-2.809443573645253878e-01
-2.606575035053049771e-01
-2.410859476811694213e-01
-2.221984389413419192e-01
-2.039576542847385543e-01
-1.863214218837624669e-01
-1.692439523626430298e-01
-1.526770589320858851e-01
-1.365713478423606630e-01
-1.208773619201590627e-01
-1.055466608745810747e-01
-9.053282394623615725e-02
-7.579236169393088751e-02
-6.128552603645881502e-02
-4.697700916617612854e-02
-3.283652457925654439e-02
-1.883926483832877238e-02
-4.966233621224837649e-03
8.795548851447418034e-03
2.245296566040504149e-02
3.600684470614121113e-02
4.945211691517451685e-02
6.277808396206700781e-02
7.596878681630962749e-02
8.900346519922446020e-02
1.018570967799072857e-01
1.145010037235199701e-01
1.269035137502345645e-01
1.390306621670670539e-01
1.508469210972771812e-01
1.623159421093763322e-01
1.734012985764204484e-01
1.840672144891977724e-01
1.942792672542304755e-01
2.040050525822079408e-01
2.132148006671512330e-01
2.218819339949510416e-01
2.299835585077542599e-01
2.375008810991324770e-01
2.444195478214907513e-01
2.507298989505412079e-01
2.564271383849120456e-01
2.615114165722408068e-01
2.659878275947855641e-01
2.698663225267765586e-01
2.731615425403373099e-01
2.758925765578423839e-01
2.780826496149392257e-01
2.797587488167989078e-01
2.809511949930523778e-01
2.816931686078539832e-01
2.820201992550959713e-01
2.819696285111958911e-01
2.815800557946882554e-01
2.808907772600471864e-01
2.799412276031716384e-01
2.787704340715630447e-01
2.774164918667666457e-01
2.759160691849898983e-01
2.743039496566463953e-01
2.726126190571344643e-01
2.708719020652369802e-01
2.691086539383703569e-01
2.673465109022410413e-01
2.656057018204833753e-01
2.639029227122665633e-01
2.622512744362404113e-01
2.606602626838057657e-01
2.591358586375865358e-01
2.576806173312805037e-01
2.562938498443374513e-01
2.549718448282441985e-01
2.537081340137730123e-01
2.524937956309787346e-01
2.513177891679571618e-01
2.501673147598630909e-01
2.490281899263810383e-01
2.478852365781734346e-01
2.467226709594060319e-01
2.455244894822494472e-01
2.442748436964193859e-01
2.429583979961189022e-01
2.415606641545002820e-01
2.400683072666744966e-01
2.384694185519660725e-01
2.367537509586716826e-01
2.349129144893170318e-01
2.329405289422363801e-01
2.308323323875812461e-01
2.285862449841163102e-01
2.262023880965011169e-01
2.236830597462519110e-01
2.210326681569760587e-01
2.182576258905568334e-01
2.153662077466011460e-01
2.123683758929513776e-01
2.092755766868900913e-01
2.061005136648076941e-01
2.028569016036649852e-01
1.995592068153753118e-01
1.962223790194363715e-01
1.928615799037779466e-01
1.894919135919774511e-01
1.861281641246854412e-01
1.827845446262550133e-01
1.794744626681794020e-01
1.762103056381694455e-01
1.730032498953785192e-01
1.698630964519846076e-01
1.667981358790021351e-01
1.638150440320133294e-01
1.609188099156417806e-01
1.581126962883649123e-01
1.553982329406721208e-01
1.527752420184368132e-01
1.502418941289550558e-01
1.477947935166106230e-01
1.454290900909778195e-01
1.431386155743493427e-01
1.409160406471383076e-01
1.387530498185346461e-01
1.366405303144276051e-01
1.345687711878882087e-01
1.325276687369376649e-01
1.305069343533847293e-01
1.284963009178179683e-01
1.264857239344477358e-01
1.244655739204859057e-01
1.224268166804225316e-01
1.203611784495305093e-01
1.182612932308965276e-01
1.161208301064535209e-01
1.139345985539974154e-01
1.116986304568705762e-01
1.094102378816554921e-01
1.070680459986871752e-01
1.046720013097947877e-01
1.022233554824436008e-01
9.972462573101037453e-02
9.717953297365952703e-02
9.459291945920787759e-02
9.197064789904121906e-02
8.931948420854023130e-02
8.664696651583025933e-02
8.396126305045178984e-02
8.127102187860549276e-02
7.858521521555192346e-02
7.591298140713766129e-02
7.326346734455363441e-02
7.064567427698485724e-02
6.806830955685835849e-02
6.553964692855969443e-02
6.306739761137593325e-02
6.065859420406469887e-02
5.831948909606683024e-02
5.605546897413198754e-02
5.387098630510370190e-02
5.176950878525920369e-02
4.975348694727066423e-02
4.782434020646048750e-02
4.598246092064967733e-02
4.422723597908383153e-02
4.255708500388721838e-02
4.096951398052724180e-02
3.946118297419667215e-02
3.802798631036367200e-02
3.666514331008732114e-02
3.536729775924406932e-02
3.412862404424982926e-02
3.294293778111862664e-02
3.180380893702776379e-02
3.070467532856931483e-02
2.963895436122456276e-02
2.860015117179473543e-02
2.758196131326544689e-02
2.657836630337656950e-02
2.558372068966066268e-02
2.459282919273375612e-02
2.360101295598383483e-02
2.260416416727506483e-02
2.159878842047074227e-02
2.058203440684012314e-02
