CH11
0.4336666
0.43423963
0.43481162
0.43538254
0.43595243
0.43652126
0.43708903
0.43765572
0.4382214
0.43878597
0.43934953
0.43991202
0.44047344
0.4410338
0.44159314
0.44215143
0.4427086
0.44326478
0.44381988
0.44437394
0.44492692
0.44547886
0.44602972
0.44657955
0.44712833
0.44767603
0.4482227
0.4487683
0.44931284
0.4498563
0.45039877
0.45094013
0.45148048
0.45201972
0.45255795
0.4530951
0.4536312
0.45416626
0.45470023
0.4552332
0.45576507
0.45629588
0.45682564
0.45735437
0.45788202
0.45840862
0.4589342
0.45945868
0.4599821
0.4605045
0.4610258
0.4615461
0.4620653
0.46258345
0.46310055
0.4636166
0.4641316
0.46464553
0.46515843
0.46567026
0.466181
0.46669075
0.4671994
0.467707
0.46821356
0.46871904
0.46922347
0.46972686
0.4702292
0.47073045
0.4712307
0.47172984
0.47222796
0.472725
0.473221
0.47371593
0.47420982
0.47470266
0.47519442
0.47568515
0.4761748
0.4766634
0.47715095
0.47763744
0.4781229
0.47860727
0.4790906
0.4795729
0.4800541
0.48053426
0.48101336
0.48149142
0.4819684
0.48244435
0.48291925
0.48339307
0.48386586
0.48433757
0.48480824
0.48527783
0.48574638
0.4862139
0.48668033
0.48714572
0.48761004
0.48807332
0.48853555
0.4889967
0.4894568
0.48991588
0.49037388
0.4908308
0.4912867
0.49174154
0.4921953
0.49264804
0.4930997
0.4935503
0.49399987
0.49444836
0.49489582
0.4953422
0.49578753
0.4962318
0.496675
0.4971172
0.4975583
0.49799836
0.49843735
0.4988753
0.4993122
0.49974802
0.5001828
0.50061655
0.50104916
0.5014808
0.50191134
0.50234085
0.5027693
0.5031967
0.503623
0.5040483
0.50447255
0.5048957
0.5053178
0.50573885
0.5061589
0.5065778
0.5069957
0.50741255
0.5078283
0.508243
0.50865674
0.5090693
0.5094809
0.5098914
0.5103008
0.5107092
0.51111656
0.5115228
0.5119281
0.51233226
0.51273537
0.5131374
0.5135384
0.51393837
0.51433724
0.5147351
0.5151319
0.5155276
0.51592225
0.5163159
0.51670843
0.5171
0.5174904
0.5178798
0.5182681
0.5186554
0.51904166
0.5194268
0.5198109
0.520194
0.520576
0.52095693
0.52133685
0.5217157
0.5220935
0.5224702
0.52284586
0.5232205
0.523594
0.52396655
0.524338
0.5247084
0.5250777
0.525446
0.5258132
0.52617943
0.5265445
0.5269086
0.5272716
0.52763355
0.52799445
0.5283543
0.52871305
0.5290708
0.52942747
0.52978307
0.53013766
0.5304912
0.5308436
0.53119504
0.53154534
0.5318946
0.5322429
0.53259003
0.53293616
0.5332812
0.53362525
0.5339682
0.5343101
0.5346509
0.5349907
0.53532946
0.5356671
0.53600377
0.53633934
0.53667384
0.5370073
0.5373397
0.537671
0.5380013
0.53833055
0.53865874
0.53898585
0.5393119
0.5396369
0.53996086
0.5402838
0.5406056
0.5409264
0.5412461
0.5415648
0.54188246
0.542199
0.5425145
0.542829
0.5431424
0.5434547
0.543766
0.54407626
0.54438543
0.5446935
0.5450006
0.5453066
0.54561156
0.5459155
0.54621834
0.5465201
0.5468208
0.5471205
0.54741913
0.54771674
0.5480132
0.5483087
0.5486031
0.54889643
0.54918873
0.54947996
0.5497701
0.55005926
0.5503473
0.5506343
0.5509203
0.5512052
0.55148906
0.5517719
0.5520536
0.55233425
0.5526139
0.55289245
0.55316997
0.5534464
0.55372185
0.5539962
0.5542695
0.5545417
0.5548129
0.55508304
0.5553521
0.55562013
0.5558871
0.556153
0.5564178
0.55668163
0.5569444
0.55720603
0.5574667
0.55772626
0.55798477
0.5582422
0.5584986
0.55875397
0.5590083
0.5592615
0.5595137
0.5597648
0.5600149
0.56026393
0.5605119
0.56075877
0.56100464
0.56124943
0.56149316
0.56173587
0.5619775
0.56221807
0.56245756
0.56269604
0.56293344
0.5631698
0.5634051
0.56363934
0.5638725
0.5641047
0.5643357
0.5645657
0.5647947
0.5650226
0.56524944
0.5654753
0.5657
0.5659237
0.5661463
0.5663679
0.5665884
0.56680787
0.5670263
0.56724364
0.56745994
0.5676752
0.5678894
0.5681025
0.56831455
0.5685256
0.56873554
0.56894445
0.56915236
0.5693591
0.5695649
0.56976956
0.5699732
0.57017577
0.5703773
0.57057774
0.5707772
0.57097554
0.57117283
0.57136905
0.57156426
0.5717584
0.57195145
0.5721435
0.57233447
0.57252437
0.5727132
0.572901
0.57308775
0.5732735
0.5734581
0.57364166
0.57382417
0.57400566
0.5741861
0.57436544
0.5745437
0.574721
0.57489717
0.5750723
0.5752464
0.5754194
0.5755914
0.5757623
0.57593215
0.57610095
0.5762687
0.5764354
0.576601
0.5767656
0.57692915
0.5770916
0.57725304
0.5774134
0.5775727
0.57773095
0.57788813
0.57804424
0.5781993
0.57835335
0.57850635
0.5786582
0.5788091
0.5789589
0.57910764
0.57925534
0.57940197
0.5795476
0.5796921
0.5798356
0.579978
0.5801194
0.5802597
0.5803989
0.5805371
0.58067423
0.5808103
0.5809454
0.5810793
0.5812122
0.58134407
0.5814749
0.58160466
0.58173335
0.58186096
0.58198756
0.5821131
0.5822376
0.582361
0.58248335
0.58260465
0.5827249
0.5828441
0.5829623
0.58307934
0.5831954
0.5833103
0.58342427
0.5835371
0.5836489
0.58375967
0.5838694
0.583978
0.5840856
0.58419216
0.5842976
0.584402
0.5845054
0.5846077
0.5847089
0.5848091
0.5849083
0.58500636
0.5851034
0.58519936
0.5852943
0.5853882
0.585481
0.5855727
0.58566344
0.5857531
0.58584166
0.5859292
0.58601564
0.5861011
0.58618546
0.5862688
0.58635104
0.5864322
0.5865124
0.5865914
0.5866695
0.58674645
0.5868224
0.58689725
0.58697104
0.5870438
0.5871155
0.58718616
0.5872558
0.58732426
0.58739173
0.5874582
0.5875236
0.5875879
0.58765113
0.5877133
0.58777446
0.58783454
0.5878936
0.5879516
0.5880085
0.5880644
0.58811915
0.5881729
0.58822566
0.5882773
0.5883279
0.5883774
0.5884259
0.5884733
0.5885197
0.588565
0.5886093
0.58865243
0.58869463
0.5887357
0.58877575
0.58881474
0.58885264
0.5888895
0.5889253
0.58896005
0.5889938
0.58902645
0.58905804
0.58908856
0.58911806
0.5891465
0.58917385
0.58920014
0.5892254
0.5892496
0.5892728
0.58929485
0.5893159
0.58933586
0.5893548
0.5893727
0.5893895
0.58940524
0.58941996
0.5894336
0.5894462
0.58945775
0.58946824
0.58947766
0.58948606
0.58949333
0.5894996
0.58950484
0.58950895
0.58951205
0.5895141
0.5895151
0.58951503
0.5895139
0.5895117
0.5895085
0.5895042
0.5894988
0.58949244
0.589485
0.58947647
0.58946687
0.58945626
0.5894446
0.5894318
0.58941805
0.5894032
0.5893873
0.5893703
0.5893523
0.58933324
0.58931315
0.58929193
0.5892697
0.5892464
0.5892221
0.5891967
0.5891702
0.5891427
0.5891141
0.5890845
0.5890538
0.5890221
0.5889893
0.58895546
0.58892053
0.5888846
0.5888476
0.58880955
0.5887704
0.5887302
0.58868897
0.5886467
0.5886034
0.588559
0.5885135
0.588467
0.58841944
0.5883708
0.5883211
0.58827037
0.58821857
0.58816576
0.5881119
0.5880569
0.5880009
0.5879438
0.5878857
0.58782655
0.5877663
0.587705
0.58764267
0.58757925
0.5875148
0.5874493
0.5873831
0.5873166
0.5872498
0.58718276
0.58711547
0.5870479
0.58698
0.58691186
0.58684343
0.5867747
0.58670574
0.5866365
0.5865669
0.5864971
0.58642703
0.58635664
0.586286
0.5862151
0.58614385
0.5860724
0.5860006
0.5859286
0.5858563
0.5857837
0.5857108
0.5856377
0.5855643
0.5854906
0.5854166
0.58534235
0.58526784
0.58519304
0.58511794
0.5850426
0.58496696
0.584891
0.58481485
0.5847384
0.58466166
0.5845846
0.58450735
0.58442974
0.5843519
0.58427376
0.5841954
0.58411664
0.5840377
0.58395845
0.58387893
0.5837991
0.5837191
0.5836387
0.5835581
0.5834772
0.583396
0.58331454
0.5832328
0.5831508
0.5830685
0.58298594
0.5829031
0.58282
0.5827366
0.5826529
0.58256894
0.5824847
0.5824002
0.58231544
0.5822304
0.58214504
0.58205944
0.58197355
0.58188736
0.5818009
0.58171415
0.5816272
0.58153987
0.58145237
0.5813645
0.5812764
0.581188
0.58109933
0.5810104
0.5809212
0.5808317
0.5807419
0.5806519
0.5805615
0.5804709
0.58038
0.5802889
0.58019745
0.5801057
0.58001375
0.5799215
0.5798289
0.5797361
0.579643
0.5795496
0.579456
0.57936203
0.5792678
0.5791733
0.57907856
0.57898355
0.5788882
0.57879263
0.5786967
0.5786006
0.57850415
0.57840747
0.5783105
0.5782132
0.57811564
0.57801783
0.5779198
0.5778214
0.5777227
0.57762384
0.5775246
0.5774252
0.5773254
0.5772254
0.5771251
0.57702446
0.5769236
0.57682246
0.5767211
0.5766193
0.5765174
0.5764151
0.5763126
0.5762098
0.5761067
0.5760034
0.5758997
0.5757958
0.57569164
0.57558715
0.5754824
0.5753774
0.5752721
0.5751665
0.57506067
0.5749545
0.5748481
0.5747414
0.5746345
0.57452726
0.57441974
0.5743119
0.57420385
0.57409555
0.5739869
0.573878
0.5737688
0.57365936
0.5735496
0.5734396
0.5733293
0.57321876
0.5731079
0.5729968
0.5728854
0.5727737
0.57266176
0.5725495
0.57243705
0.5723243
0.5722112
0.57209784
0.57198423
0.5718703
0.5717562
0.57164174
0.571527
0.571412
0.57129675
0.5711812
0.57106537
0.57094926
0.57083285
0.5707162
0.57059926
0.570482
0.57036453
0.57024676
0.5701287
0.57001036
0.56989175
0.5697729
0.56965375
0.5695343
0.56941456
0.5692946
0.5691743
0.56905377
0.56893295
0.56881183
0.5686905
0.5685688
0.5684469
0.5683247
0.5682022
0.5680794
0.5679564
0.56783307
0.56770945
0.5675856
0.56746143
0.56733704
0.56721234
0.56708735
0.56696206
0.56683654
0.5667107
0.56658465
0.5664583
0.5663316
0.5662047
0.56607753
0.56595004
0.5658223
0.5656943
0.56556594
0.5654374
0.5653085
0.56517935
0.56504995
0.56492025
0.5647903
0.56466
0.56452954
0.5643987
0.56426764
0.56413627
0.56400466
0.56387275
0.56374055
0.56360805
0.5634753
0.56334233
0.563209
0.5630754
0.5629416
0.56280744
0.56267303
0.5625384
0.5624034
0.5622682
0.56213266
0.5619969
0.5618608
0.5617244
0.5615878
0.5614509
0.56131375
0.5611763
0.56103855
0.56090057
0.5607623
0.5606237
0.5604848
0.5603457
0.56020635
0.56006664
0.5599267
0.5597865
0.559646
0.5595052
0.55936414
0.5592228
0.5590812
0.5589393
0.5587971
0.55865467
0.558512
0.558369
0.5582257
0.5580821
0.5579383
0.5577942
0.5576498
0.55750513
0.55736023
0.557215
0.5570695
0.55692375
0.55677766
0.5566313
0.55648476
0.55633783
0.5561907
0.55604327
0.55589557
0.55574757
0.5555993
0.55545074
0.5553019
0.55515283
0.55500346
0.5548538
0.5547039
0.5545537
0.5544032
0.55425245
0.5541014
0.5539501
0.5537985
0.5536466
0.55349445
0.55334204
0.55318934
0.55303633
0.5528831
0.55272955
0.55257577
0.5524216
0.5522673
0.55211264
0.5519577
0.5518025
0.55164707
0.5514913
0.5513353
0.551179
0.5510224
0.55086553
0.5507084
0.550551
0.5503933
0.55023533
0.5500771
0.54991853
0.54975975
0.54960066
0.54944134
0.54928166
0.5491218
0.5489616
0.5488011
0.5486404
0.5484794
0.5483181
0.5481565
0.5479946
0.5478325
0.5476701
0.5475074
0.54734445
0.54718125
0.5470177
0.5468539
0.54668987
0.54652554
0.5463609
0.546196
0.5460308
0.54586536
0.5456996
0.5455336
0.54536736
0.54520077
0.54503393
0.5448668
0.54469943
0.54453176
0.5443638
0.5441956
0.5440271
0.5438583
0.54368925
0.5435199
0.5433503
0.5431804
0.54301023
0.54283977
0.54266906
0.54249805
0.5423268
0.5421552
0.5419834
0.5418113
0.5416389
0.54146624
0.5412933
0.5411201
0.5409466
0.54077286
0.5405988
0.54042447
0.5402498
0.54007494
0.5398998
0.5397244
0.5395487
0.5393727
0.53919643
0.5390199
0.53884304
0.53866595
0.53848857
0.53831095
0.538133
0.5379549
0.53777677
0.53759867
0.5374205
0.53724235
0.53706414
0.536886
0.53670776
0.5365295
0.53635126
0.536173
0.5359947
0.5358164
0.53563803
0.5354597
0.53528136
0.53510296
0.53492457
0.53474617
0.5345677
0.53438926
0.5342108
0.5340323
0.5338538
0.53367525
0.53349674
0.53331816
0.5331396
0.532961
0.5327824
0.5326038
0.5324251
0.5322465
0.5320678
0.5318891
0.5317104
0.53153163
0.5313529
0.5311741
0.5309953
0.5308165
0.5306377
0.53045887
0.53028
0.5301011
0.52992225
0.5297433
0.5295644
0.52938545
0.52920645
0.52902746
0.52884847
0.5286695
0.5284904
0.5283114
0.5281323
0.5279532
0.5277741
0.527595
0.5274158
0.52723664
0.52705747
0.5268783
0.52669907
0.52651983
0.5263406
0.5261613
0.525982
0.52580273
0.52562344
0.5254441
0.52526474
0.52508533
0.524906
0.52472657
0.5245471
0.5243677
0.5241882
0.52400875
0.5238292
0.5236497
0.52347016
0.52329063
0.52311105
0.52293146
0.52275187
0.5225722
0.52239263
0.5222129
0.5220333
0.52185357
0.52167386
0.52149415
0.5213144
0.5211346
0.52095485
0.520775
0.5205952
0.52041537
0.52023554
0.52005565
0.51987576
0.5196959
0.51951593
0.519336
0.51915604
0.51897603
0.5187961
0.518616
0.518436
0.51825595
0.5180759
0.5178958
0.5177157
0.51753557
0.51735544
0.5171753
0.51699513
0.51681495
0.5166347
0.5164545
0.5162743
0.51609397
0.5159137
0.5157334
0.5155531
0.51537275
0.51519245
0.515012
0.51483166
0.51465124
0.5144708
0.5142904
0.51410997
0.5139295
0.513749
0.51356846
0.5133879
0.5132074
0.51302683
0.51284623
0.5126656
0.512485
0.5123044
0.51212376
0.5119431
0.5117624
0.51158166
0.51140094
0.5112202
0.51103944
0.51085865
0.5106779
0.5104971
0.51031625
0.5101354
0.5099545
0.5097737
0.5095928
0.5094118
0.5092309
0.50904995
0.508869
0.508688
0.50850695
0.50832593
0.5081449
0.50796384
0.50778276
0.5076017
0.50742054
0.5072394
0.50705826
0.5068771
0.5066959
0.5065147
0.5063335
0.5061523
0.505971
0.5057897
0.50560844
0.5054271
0.5052458
0.5050644
0.5048831
0.50470173
0.5045203
0.5043389
0.5041575
0.503976
0.50379455
0.50361305
0.50343156
0.50325
0.5030685
0.50288695
0.50270534
0.5025238
0.50234216
0.5021605
0.5019789
0.5017972
0.5016155
0.50143385
0.5012521
0.5010704
0.5008886
0.50070685
0.50052506
0.50034326
0.5001614
0.4999796
0.49979773
0.49961585
0.49943396
0.49925205
0.4990701
0.49888816
0.4987062
0.49852422
0.49834222
0.49816018
0.49797815
0.4977961
0.49761403
0.49743193
0.4972498
0.4970677
0.49688554
0.4967034
0.4965212
0.49633902
0.4961568
0.49597457
0.49579233
0.49561006
0.49542776
0.49524546
0.49506313
0.4948808
0.49469844
0.49451607
0.49433368
0.49415126
0.49396884
0.4937864
0.49360391
0.49342144
0.49323896
0.49305642
0.4928739
0.49269134
0.49250877
0.4923262
0.49214357
0.49196094
0.4917783
0.49159566
0.49141297
0.49123028
0.49104756
0.49086484
0.4906821
0.49049932
0.49031654
0.49013376
0.48995093
0.4897681
0.48958525
0.48940235
0.4892195
0.48903656
0.48885363
0.4886707
0.48848775
0.48830476
0.48812178
0.48793876
0.48775572
0.48757267
0.4873896
0.48720652
0.4870234
0.4868403
0.48665717
0.486474
0.48629084
0.48610765
0.48592442
0.4857412
0.48555797
0.4853747
0.4851914
0.48500812
0.4848248
0.48464146
0.48445812
0.48427474
0.48409137
0.48390797
0.48372453
0.4835411
0.48335764
0.48317418
0.48299068
0.48280716
0.48262364
0.48244008
0.48225653
0.48207295
0.48188934
0.48170573
0.48152208
0.48133844
0.48115477
0.48097107
0.48078737
0.48060364
0.4804199
0.48023614
0.48005235
0.47986856
0.47968477
0.47950092
0.47931707
0.47913322
0.47894934
0.47876543
0.47858152
0.47839758
0.4782136
0.47802964
0.47784567
0.47766164
0.4774776
0.47729358
0.47710952
0.47692543
0.47674134
0.47655722
0.4763731
0.47618896
0.47600478
0.4758206
0.4756364
0.47545215
0.47526792
0.47508368
0.47489938
0.4747151
0.4745308
0.47434646
0.47416213
0.47397774
0.4737934
0.47360897
0.47342455
0.47324014
0.47305566
0.4728712
0.4726867
0.4725022
0.4723177
0.47213316
0.4719486
0.47176403
0.47157943
0.4713948
0.47121018
0.47102553
0.47084087
0.4706562
0.47047147
0.47028676
0.47010204
0.46991727
0.4697325
0.46954772
0.4693629
0.46917808
0.46899325
0.46880838
0.4686235
0.4684386
0.4682537
0.46806875
0.46788383
0.46769884
0.46751386
0.46732885
0.46714383
0.4669588
0.46677375
0.46658868
0.46640357
0.46621847
0.46603334
0.4658482
0.46566305
0.46547785
0.46529266
0.46510744
0.46492222
0.46473697
0.46455222
0.46436882
0.46418676
0.464006
0.4638266
0.4636485
0.46347174
0.46329632
0.46312222
0.46294945
0.46277803
0.46260792
0.46243915
0.46227172
0.4621056
0.46194082
0.4617774
0.46161526
0.46145448
0.461295
0.46113688
0.4609801
0.4608246
0.46067047
0.46051767
0.4603662
0.46021605
0.46006724
0.45991975
0.4597736
0.45962876
0.45948526
0.4593431
0.4592023
0.45906278
0.4589246
0.45878777
0.45865226
0.45851806
0.45838523
0.4582537
0.4581235
0.45799464
0.45786712
0.45774093
0.45761606
0.45749253
0.4573703
0.45724943
0.4571299
0.45701167
0.4568948
0.45677924
0.456665
0.45655212
0.45644057
0.45633033
0.45622143
0.45611385
0.4560076
0.4559027
0.45579913
0.45569688
0.45559594
0.45549637
0.4553981
0.45530117
0.4552056
0.45511132
0.45501837
0.45492676
0.4548365
0.45474756
0.45465994
0.45457366
0.4544887
0.45440507
0.4543228
0.4542418
0.45416218
0.4540839
0.4540069
0.45393127
0.45385695
0.453784
0.4537123
0.453642
0.45357302
0.45350537
0.45343903
0.45337403
0.45331037
0.45324802
0.45318702
0.45312735
0.453069
0.453012
0.45295632
0.45290196
0.45284894
0.45279723
0.45274687
0.45269784
0.45265013
0.45260376
0.45255873
0.452515
0.45247263
0.4524316
0.45239186
0.45235348
0.45231643
0.4522807
0.4522463
0.45221323
0.4521815
0.4521511
0.452122
0.4520943
0.45206785
0.4520428
0.452019
0.4519966
0.4519755
0.45195574
0.45193732
0.4519202
0.45190445
0.45189
0.45187688
0.4518651
0.45185465
0.45184553
0.45183775
0.45183128
0.45182616
0.45182237
0.4518199
0.45181876
0.45181897
0.4518205
0.45182335
0.45182753
0.45183304
0.4518399
0.45184806
0.45185757
0.4518684
0.45188057
0.45189407
0.45190892
0.45192507
0.45194256
0.45196137
0.45198154
0.452003
0.45202583
0.45204997
0.45207545
0.45210224
0.45213038
0.45215985
0.45219064
0.45222276
0.45225623
0.452291
0.45232713
0.45236456
0.45240334
0.45244345
0.4524849
0.45252767
0.45257175
0.4526172
0.45266396
0.45271203
0.45276147
0.45281222
0.4528643
0.4529177
0.45297244
0.45302853
0.45308593
0.45314467
0.45320472
0.4532661
0.45332885
0.4533929
0.45345828
0.453525
0.45359305
0.45366243
0.45373315
0.45380518
0.45387855
0.45395324
0.45402926
0.45410663
0.45418534
0.45426536
0.4543467
0.4544294
0.4545134
0.45459872
0.45468542
0.45477343
0.45486274
0.4549534
0.4550454
0.45513874
0.4552334
0.4553294
0.4554267
0.45552534
0.45562533
0.45572662
0.45582926
0.45593324
0.45603853
0.45614517
0.4562531
0.45636243
0.45647302
0.456585
0.45669827
0.4568129
0.45692882
0.4570461
0.4571647
0.45728463
0.4574059
0.4575285
0.45765242
0.45777768
0.45790428
0.4580322
0.45816144
0.458292
0.4584239
0.45855716
0.45869172
0.4588276
0.45896485
0.4591034
0.4592433
0.45938453
0.45952708
0.45967096
0.4598162
0.45996273
0.4601106
0.4602598
0.46041033
0.4605622
0.46071538
0.4608699
0.46102577
0.46118295
0.46134147
0.46150133
0.4616625
0.461825
0.46198887
0.46215403
0.46232054
0.46248835
0.4626575
0.462828
0.46299982
0.46317297
0.46334746
0.46352327
0.4637004
0.4638789
0.4640587
0.46423984
0.46442232
0.4646061
0.46479124
0.46497768
0.46516547
0.4653546
0.46554503
0.4657368
0.46592993
0.46612436
0.46632013
0.46651724
0.46671566
0.46691543
0.4671165
0.46731895
0.46752268
0.46772778
0.4679342
0.46814194
0.468351
0.4685614
0.46877316
0.4689862
0.4692006
0.46941635
0.4696334
0.4698518
0.4700715
0.47029254
0.47051492
0.47073865
0.4709637
0.47119004
0.47141775
0.4716468
0.47187713
0.47210884
0.47234187
0.4725762
0.47281188
0.4730489
0.47328725
0.47352692
0.47376794
0.47401026
0.47425392
0.47449893
0.47474524
0.4749929
0.4752419
0.4754922
0.47574386
0.47599685
0.47625116
0.4765068
0.47676376
0.47702205
0.4772817
0.47754267
0.47780496
0.47806856
0.47833353
0.47859982
0.4788674
0.47913638
0.47940665
0.47967824
0.47995117
0.48022544
0.48050106
0.48077798
0.48105624
0.48133582
0.48161674
0.481899
0.48218256
0.48246747
0.48275372
0.4830413
0.4833302
0.4836204
0.483912
0.4842049
0.4844991
0.48479465
0.48509154
0.48538974
0.48568928
0.48599017
0.48629236
0.4865959
0.48690078
0.48720697
0.4875145
0.48782337
0.48813355
0.48844507
0.4887579
0.48907208
0.4893876
0.48970443
0.49002263
0.4903421
0.49066296
0.49098513
0.4913086
0.49163342
0.49195957
0.49228707
0.49261588
0.49294603
0.4932775
0.4936103
0.49394444
0.49427992
0.49461672
0.49495482
0.4952943
0.4956351
0.4959772
0.49632064
0.49666542
0.49701154
0.49735898
0.49770775
0.49805784
0.49840927
0.49876118
0.49911213
0.49946207
0.49981105
0.500159
0.50050604
0.50085205
0.5011971
0.5015412
0.5018842
0.50222635
0.50256747
0.5029076
0.5032467
0.50358486
0.50392205
0.5042583
0.5045935
0.5049277
0.50526094
0.5055932
0.50592446
0.5062548
0.5065841
0.5069124
0.50723976
0.50756615
0.50789154
0.5082159
0.5085393
0.5088618
0.5091832
0.5095037
0.5098232
0.5101417
0.5104592
0.51077574
0.5110913
0.5114059
0.51171947
0.5120321
0.5123437
0.5126543
0.512964
0.51327264
0.5135804
0.51388705
0.51419276
0.5144975
0.51480126
0.51510406
0.51540583
0.51570666
0.51600647
0.5163053
0.51660323
0.51690006
0.517196
0.5174909
0.51778483
0.5180778
0.51836973
0.5186607
0.5189507
0.5192397
0.5195278
0.51981485
0.5201009
0.520386
0.52067006
0.5209532
0.52123535
0.5215165
0.52179664
0.52207583
0.52235407
0.5226313
0.5229075
0.52318275
0.52345705
0.52373034
0.5240026
0.52427393
0.5245443
0.52481365
0.52508205
0.52534944
0.5256158
0.5258813
0.5261457
0.52640915
0.52667165
0.52693313
0.52719367
0.5274532
0.52771175
0.5279693
0.5282259
0.5284815
0.5287361
0.52898973
0.5292424
0.52949405
0.52974474
0.5299944
0.53024316
0.5304909
0.53073764
0.5309834
0.5312282
0.53147197
0.5317148
0.5319567
0.5321975
0.5324374
0.5326763
0.53291416
0.5331511
0.53338706
0.53362197
0.533856
0.53408897
0.53432095
0.534552
0.53478205
0.5350111
0.53523916
0.53546625
0.5356924
0.5359175
0.53614163
0.5363648
0.536587
0.5368082
0.53702843
0.53724766
0.5374659
0.5376831
0.53789943
0.5381147
0.53832906
0.5385424
0.53875476
0.5389661
0.53917646
0.5393859
0.5395943
0.5398018
0.5400082
0.5402137
0.54041815
0.5406217
0.5408242
0.54102576
0.54122627
0.5414259
0.5416244
0.5418221
0.5420187
0.54221433
0.542409
0.54260266
0.54279536
0.54298705
0.5431778
0.54336756
0.5435563
0.5437441
0.5439309
0.5441167
0.5443015
0.5444854
0.54466826
0.5448501
0.545031
0.5452109
0.54538983
0.5455678
0.5457448
0.5459208
0.5460958
0.5462698
0.5464428
0.5466149
0.54678595
0.546956
0.5471251
0.54729325
0.5474604
0.54762655
0.5477917
0.54795593
0.5481191
0.5482813
0.5484426
0.5486028
0.5487621
0.5489204
0.5490777
0.54923403
0.54938936
0.54954374
0.5496971
0.5498495
0.5500009
0.55015135
0.5503008
0.55044925
0.5505968
0.5507432
0.5508888
0.5510333
0.55117685
0.5513194
0.551461
0.5516016
0.5517412
0.5518798
0.5520175
0.5521542
0.55228984
0.55242455
0.55255824
0.552691
0.55282277
0.55295354
0.5530833
0.5532121
0.55333996
0.5534668
0.5535926
0.5537175
0.5538414
0.5539643
0.55408627
0.5542072
0.55432713
0.5544461
0.5545641
0.5546811
0.5547972
0.5549122
0.55502623
0.55513936
0.5552514
0.5553625
0.5554727
0.5555818
0.55569
0.55579716
0.5559034
0.5560086
0.5561128
0.55621606
0.55631834
0.5564196
0.5565199
0.5566192
0.5567176
0.5568149
0.5569113
0.5570067
0.5571011
0.55719453
0.557287
0.5573784
0.5574689
0.55755836
0.5576469
0.55773443
0.557821
0.5579065
0.5579911
0.55807465
0.55815727
0.5582389
0.55831957
0.5583992
0.5584779
0.5585556
0.5586323
0.558708
0.55878276
0.55885655
0.5589293
0.55900115
0.55907196
0.55914176
0.5592106
0.5592785
0.55934536
0.5594113
0.5594762
0.55954015
0.5596031
0.559665
0.55972606
0.559786
0.55984503
0.5599031
0.5599601
0.5600162
0.5600713
0.5601254
0.5601785
0.5602307
0.5602818
0.560332
0.5603812
0.5604294
0.56047666
0.56052285
0.56056815
0.56061244
0.5606557
0.56069803
0.56073934
0.5607797
0.56081903
0.5608574
0.56089485
0.56093127
0.5609667
0.5610011
0.5610346
0.5610671
0.5610986
0.5611291
0.5611586
0.56118715
0.56121475
0.5612413
0.56126696
0.5612916
0.5613152
0.5613378
0.5613595
0.5613802
0.5613999
0.56141865
0.56143636
0.5614531
0.5614689
0.5614837
0.5614975
0.5615103
0.5615222
0.56153303
0.56154287
0.5615518
0.5615597
0.56156665
0.56157255
0.56157756
0.5615815
0.56158453
0.5615865
0.5615876
0.5615876
0.5615867
0.5615848
0.56158185
0.561578
0.5615731
0.56156725
0.5615604
0.5615526
0.56154376
0.561534
0.56152326
0.5615115
0.56149876
0.56148505
0.5614703
0.56145465
0.561438
0.5614204
0.5614017
0.5613821
0.56136155
0.56134
0.5613174
0.56129384
0.56126934
0.56124383
0.5612173
0.5611899
0.5611614
0.56113195
0.56110156
0.56107014
0.5610378
0.5610044
0.56097
0.56093466
0.56089836
0.56086105
0.5608228
0.5607835
0.5607433
0.560702
0.5606598
0.5606166
0.56057245
0.56052744
0.56048197
0.56043595
0.5603895
0.56034255
0.5602951
0.5602472
0.5601987
0.56014985
0.56010044
0.56005055
0.5600002
0.55994934
0.55989796
0.5598461
0.5597938
0.55974096
0.5596877
0.55963385
0.5595796
0.55952483
0.5594696
0.5594138
0.5593576
0.55930084
0.5592436
0.5591859
0.55912775
0.55906904
0.5590099
0.55895025
0.5588901
0.5588294
0.55876833
0.5587067
0.5586446
0.558582
0.55851895
0.5584554
0.55839133
0.5583268
0.55826175
0.55819625
0.5581302
0.55806375
0.55799675
0.5579293
0.5578613
0.55779284
0.55772394
0.5576545
0.5575846
0.5575142
0.55744326
0.55737185
0.55730003
0.5572277
0.55715483
0.55708146
0.5570077
0.55693334
0.55685854
0.55678326
0.55670744
0.5566312
0.55655444
0.5564772
0.55639946
0.5563212
0.5562425
0.5561633
0.5560836
0.55600345
0.5559228
0.5558416
0.55575997
0.5556779
0.5555952
0.55551213
0.55542856
0.55534446
0.5552599
0.5551748
0.5550893
0.5550032
0.5549167
0.5548297
0.55474216
0.5546542
0.5545657
0.55447674
0.5543873
0.5542973
0.5542069
0.55411595
0.5540246
0.55393267
0.5538403
0.5537474
0.553654
0.55356014
0.55346584
0.553371
0.55327564
0.55317986
0.55308354
0.55298674
0.55288947
0.5527917
0.5526935
0.5525947
0.5524955
0.55239576
0.55229557
0.5521949
0.5520937
0.551992
0.55188984
0.5517872
0.5516841
0.5515804
0.55147636
0.55137175
0.5512666
0.55116105
0.551055
0.55094844
0.5508414
0.55073386
0.5506258
0.5505173
0.5504083
0.5502988
0.55018884
0.5500784
0.5499674
0.549856
0.54974407
0.54963166
0.5495187
0.54940534
0.54929143
0.54917705
0.5490622
0.54894686
0.548831
0.5487147
0.5485979
0.5484806
0.54836273
0.5482445
0.5481257
0.5480064
0.54788667
0.54776645
0.54764575
0.5475245
0.5474028
0.5472806
0.54715794
0.54703474
0.5469111
0.54678696
0.54666233
0.5465372
0.5464116
0.5462855
0.5461589
0.54603183
0.5459043
0.5457762
0.5456477
0.54551864
0.5453891
0.5452591
0.5451286
0.54499763
0.54486614
0.5447342
0.54460174
0.5444688
0.54433537
0.54420143
0.544067
0.54393214
0.5437968
0.5436609
0.54352456
0.5433877
0.5432504
0.5431125
0.54297423
0.5428354
0.5426961
0.54255635
0.5424161
0.5422753
0.54213405
0.54199237
0.5418501
0.5417074
0.5415642
0.5414205
0.54127634
0.5411317
0.54098654
0.54084086
0.5406948
0.54054815
0.54040104
0.5402534
0.54010534
0.53995675
0.53980774
0.5396582
0.5395081
0.5393576
0.53920656
0.53905505
0.53890306
0.5387506
0.53859764
0.53844416
0.5382902
0.53813577
0.53798085
0.53782547
0.53766954
0.53751314
0.53735626
0.5371989
0.53704107
0.5368827
0.53672385
0.5365645
0.5364047
0.53624445
0.53608364
0.5359224
0.53576064
0.5355984
0.5354356
0.5352724
0.5351087
0.5349445
0.5347798
0.5346146
0.5344489
0.53428274
0.5341161
0.53394896
0.53378135
0.5336132
0.53344464
0.53327554
0.53310597
0.53293586
0.5327653
0.53259426
0.5324227
0.5322507
0.5320782
0.53190523
0.5317317
0.53155774
0.5313833
0.53120834
0.53103286
0.53085697
0.53068054
0.53050363
0.5303262
0.5301483
0.52996993
0.5297911
0.52961177
0.5294319
0.5292516
0.52907073
0.5288894
0.5287076
0.52852535
0.5283426
0.5281593
0.52797556
0.5277913
0.5276066
0.5274214
0.5272357
0.52704954
0.52686286
0.52667564
0.526488
0.5262999
0.52611125
0.5259221
0.5257325
0.5255424
0.5253518
0.52516073
0.52496916
0.5247771
0.5245846
0.52439153
0.524198
0.524004
0.5238095
0.5236145
0.523419
0.5232231
0.52302665
0.5228297
0.52263224
0.52243435
0.52223593
0.522037
0.52183765
0.5216378
0.52143747
0.5212366
0.52103525
0.52083343
0.52063113
0.5204283
0.52022505
0.52002126
0.519817
0.5196122
0.519407
0.5192012
0.51899505
0.51878834
0.5185811
0.5183734
0.51816523
0.51795655
0.5177474
0.5175378
0.51732767
0.517117
0.5169059
0.5166943
0.51648223
0.5162697
0.5160566
0.5158431
0.51562905
0.5154145
0.5151995
0.51498395
0.514768
0.5145515
0.51433456
0.51411706
0.51389915
0.5136807
0.51346177
0.51324236
0.5130225
0.51280206
0.51258117
0.5123598
0.51213795
0.5119156
0.51169276
0.5114695
0.51124567
0.5110214
0.51079655
0.5105713
0.5103455
0.51011926
0.5098925
0.5096653
0.50943756
0.5092094
0.5089807
0.5087515
0.50852185
0.50829166
0.508061
0.5078299
0.5075983
0.5073661
0.50713354
0.5069004
0.50666684
0.5064328
0.5061982
0.5059632
0.50572765
0.5054916
0.5052551
0.5050181
0.50478065
0.50454265
0.5043042
0.5040652
0.5038258
0.5035859
0.50334543
0.5031045
0.5028631
0.50262123
0.5023797
0.5021402
0.50190276
0.50166744
0.50143427
0.5012031
0.50097406
0.5007471
0.50052226
0.50029945
0.5000788
0.4998602
0.49964368
0.4994293
0.49921697
0.49900675
0.4987986
0.49859256
0.49838862
0.49818677
0.49798697
0.49778932
0.49759373
0.49740022
0.49720883
0.4970195
0.49683228
0.49664715
0.4964641
0.49628317
0.4961043
0.49592754
0.49575287
0.4955803
0.4954098
0.49524137
0.49507508
0.49491087
0.4947487
0.49458867
0.49443075
0.49427488
0.49412113
0.49396944
0.49381986
0.49367237
0.49352697
0.49338368
0.49324244
0.49310333
0.4929663
0.49283135
0.4926985
0.49256775
0.49243906
0.4923125
0.492188
0.4920656
0.4919453
0.49182707
0.49171096
0.49159694
0.491485
0.49137515
0.49126738
0.4911617
0.49105814
0.49095666
0.49085727
0.49075997
0.49066475
0.49057162
0.4904806
0.49039167
0.49030483
0.49022007
0.4901374
0.4900568
0.48997834
0.48990196
0.48982766
0.48975545
0.48968533
0.4896173
0.48955137
0.48948753
0.48942578
0.4893661
0.48930854
0.48925304
0.48919967
0.48914838
0.48909917
0.48905206
0.48900703
0.4889641
0.48892325
0.4888845
0.48884785
0.48881328
0.4887808
0.48875043
0.48872212
0.48869592
0.4886718
0.4886498
0.48862988
0.48861203
0.4885963
0.4885826
0.48857105
0.48856157
0.4885542
0.4885489
0.48854572
0.4885446
0.4885456
0.48854867
0.48855382
0.4885611
0.48857042
0.48858187
0.4885954
0.488611
0.48862872
0.48864853
0.48867044
0.4886944
0.48872048
0.48874867
0.48877892
0.48881125
0.4888457
0.48888224
0.48892087
0.48896158
0.48900437
0.4890493
0.48909625
0.48914534
0.4891965
0.48924977
0.48930514
0.48936257
0.4894221
0.48948374
0.48954746
0.48961326
0.48968115
0.48975116
0.48982325
0.4898974
0.48997366
0.49005204
0.49013248
0.490215
0.49029964
0.49038637
0.49047518
0.49056607
0.4906591
0.49075416
0.49085134
0.4909506
0.49105197
0.49115542
0.49126095
0.4913686
0.4914783
0.4915901
0.49170402
0.49182004
0.4919381
0.49205828
0.49218056
0.49230492
0.49243137
0.4925599
0.49269056
0.49282327
0.4929581
0.493095
0.493234
0.4933751
0.4935183
0.49366355
0.49381092
0.49396038
0.49411193
0.49426556
0.49442127
0.4945791
0.49473903
0.49490103
0.49506512
0.4952313
0.49539956
0.49556994
0.4957424
0.49591696
0.4960936
0.49627233
0.49645314
0.49663606
0.49682108
0.49700814
0.49719736
0.49738863
0.497582
0.49777746
0.49797502
0.49817467
0.4983764
0.49858022
0.49878612
0.49899414
0.49920425
0.49941644
0.49963072
0.49984708
0.50006557
0.5002861
0.5005087
0.5007335
0.5009603
0.50118923
0.50142026
0.5016534
0.5018885
0.5021258
0.5023652
0.5026067
0.50285023
0.50309587
0.50334364
0.50359344
0.5038454
0.50409937
0.5043555
0.5046137
0.504874
0.5051364
0.50540084
0.5056674
0.505936
0.50620675
0.5064796
0.5067545
0.50703156
0.5073107
0.50759184
0.50787514
0.50816053
0.508448
0.50873756
0.5090292
0.50932294
0.5096188
0.5099167
0.5102168
0.51051885
0.5108231
0.5111294
0.5114377
0.5117482
0.51206076
0.5123754
0.5126922
0.51301104
0.51333195
0.513655
0.5139801
0.5143073
0.5146366
0.514968
0.51530147
0.51563704
0.5159747
0.51631445
0.5166563
0.5170002
0.51734626
0.51769435
0.5180446
0.51839685
0.51875126
0.51910776
0.51946634
0.51982695
0.5201897
0.5205546
0.5209215
0.52129054
0.52166164
0.5220349
0.52241015
0.5227876
0.5231671
0.5235486
0.5239323
0.52431804
0.5247059
0.5250958
0.52548784
0.525882
0.5262782
0.52667654
0.5270769
0.5274794
0.52788395
0.5282906
0.5286994
0.52911025
0.5295232
0.5299382
0.53035533
0.5307746
0.5311959
0.53161925
0.53204477
0.5324724
0.532902
0.5333338
0.53376764
0.5342036
0.5346416
0.53508174
0.53552395
0.53596824
0.5364147
0.53686315
0.53731376
0.5377664
0.5382212
0.53867805
0.539137
0.53959805
0.5400612
0.5405264
0.5409937
0.5414631
0.5419346
0.54240817
0.5428839
0.5433616
0.5438415
0.54432344
0.5448075
0.5452936
0.54578185
0.54627216
0.54676455
0.5472591
0.54775566
0.5482543
0.5487551
0.549258
0.5497629
0.55026996
0.5507791
0.55129033
0.55180365
0.55231905
0.55283654
0.5533562
0.55387783
0.55440164
0.55492747
0.55545545
0.55598545
0.5565176
0.55705184
0.55758816
0.55812657
0.55866706
0.5592097
0.5597544
0.5603011
0.56085
0.56140095
0.561954
0.5625092
0.5630664
0.56362575
0.56418717
0.5647507
0.56531626
0.56588393
0.5664537
0.5670256
0.56759953
0.5681756
0.5687537
0.569334
0.5699163
0.57050073
0.57108724
0.57167584
0.5722665
0.5728593
0.5734542
0.57405114
0.5746502
0.57525134
0.5758534
0.5764537
0.5770521
0.5776487
0.5782434
0.5788362
0.5794272
0.58001626
0.5806035
0.58118886
0.5817723
0.58235395
0.5829337
0.5835116
0.58408767
0.5846618
0.5852341
0.5858045
0.5863731
0.58693975
0.5875046
0.58806753
0.58862865
0.58918786
0.5897452
0.59030074
0.59085435
0.5914061
0.591956
0.592504
0.5930502
0.5935945
0.5941369
0.59467745
0.59521616
0.595753
0.59628797
0.59682107
0.59735227
0.5978816
0.5984091
0.59893477
0.5994585
0.5999804
0.6005004
0.6010186
0.6015349
0.6020493
0.60256183
0.6030725
0.60358137
0.60408837
0.60459346
0.60509664
0.60559803
0.6060975
0.60659516
0.6070909
0.6075848
0.6080768
0.608567
0.6090553
0.6095417
0.61002624
0.6105089
0.61098975
0.61146873
0.6119458
0.61242104
0.6128944
0.6133659
0.6138355
0.6143033
0.61476916
0.6152332
0.61569536
0.6161556
0.6166141
0.6170706
0.61752534
0.61797816
0.6184291
0.6188782
0.6193254
0.61977077
0.6202143
0.6206559
0.62109566
0.6215336
0.6219696
0.62240374
0.62283605
0.62326646
0.623695
0.6241217
0.6245465
0.6249695
0.6253906
0.6258098
0.6262272
0.62664264
0.6270563
0.62746805
0.62787795
0.62828594
0.62869215
0.6290964
0.62949884
0.6298994
0.6302981
0.6306949
0.63108987
0.63148296
0.6318742
0.63226354
0.63265103
0.6330367
0.6334204
0.6338023
0.63418233
0.6345605
0.6349368
0.63531125
0.6356838
0.63605446
0.6364233
0.6367903
0.63715535
0.6375186
0.6378799
0.63823944
0.6385971
0.6389528
0.6393067
0.63965875
0.64000887
0.6403572
0.6407036
0.6410482
0.64139086
0.6417317
0.64207065
0.6424077
0.64274293
0.6430763
0.6434078
0.64373744
0.6440652
0.64439106
0.64471513
0.6450373
0.64535755
0.64567596
0.6459925
0.64630723
0.64662004
0.646931
0.6472401
0.64754736
0.6478527
0.64815617
0.6484578
0.6487576
0.6490555
0.6493515
0.6496456
0.6499379
0.6502284
0.6505169
0.6508036
0.6510884
0.6513714
0.6516525
0.6519317
0.65220904
0.65248454
0.6527582
0.6530299
0.65329987
0.65356785
0.65383404
0.65409833
0.6543607
0.6546213
0.65488
0.6551368
0.65539175
0.6556449
0.65589607
0.65614545
0.65639293
0.65663856
0.65688235
0.6571242
0.65736425
0.65760237
0.6578387
0.6580731
0.65830564
0.6585364
0.6587652
0.6589922
0.65921724
0.65944046
0.6596618
0.6598813
0.66009897
0.6603147
0.6605286
0.6607406
0.6609508
0.66115904
0.6613655
0.6615701
0.6617727
0.66197354
0.6621725
0.6623696
0.6625648
0.6627582
0.6629497
0.66313934
0.6633271
0.66351295
0.663697
0.66387916
0.66405946
0.66423786
0.6644144
0.6645891
0.66476196
0.6649329
0.665102
0.6652692
0.6654346
0.66559803
0.6657597
0.6659194
0.6660773
0.66623336
0.6663875
0.6665398
0.66669023
0.66683877
0.6669855
0.6671303
0.6672733
0.66741437
0.6675536
0.66769093
0.6678264
0.66796005
0.66809183
0.6682217
0.66834974
0.66847587
0.6686002
0.6687226
0.66884315
0.6689619
0.6690787
0.6691936
0.66930676
0.669418
0.6695273
0.6696348
0.66974044
0.6698442
0.6699461
0.6700461
0.67014426
0.6702406
0.670335
0.67042756
0.6705182
0.67060703
0.670694
0.6707791
0.6708623
0.6709437
0.6710232
0.6711008
0.67117655
0.67125046
0.67132246
0.6713926
0.6714609
0.6715273
0.6715919
0.6716546
0.67171544
0.6717744
0.6718315
0.6718867
0.67194
0.6719915
0.6720412
0.6720889
0.6721348
0.67217886
0.672221
0.6722613
0.6722997
0.6723363
0.672371
0.6724038
0.67243475
0.67246383
0.6724911
0.6725164
0.6725399
0.6725615
0.6725813
0.6725992
0.67261523
0.67262936
0.67264163
0.67265207
0.67266065
0.6726673
0.67267215
0.67267513
0.6726762
0.67267543
0.6726728
0.6726683
0.6726619
0.6726537
0.67264354
0.67263156
0.67261773
0.672602
0.6725844
0.672565
0.6725437
0.6725205
0.6724955
0.67246854
0.6724398
0.6724091
0.67237663
0.67234224
0.672306
0.6722679
0.6722279
0.6721861
0.6721424
0.6720968
0.67204934
0.67200005
0.67194885
0.67189586
0.6718409
0.67178416
0.6717255
0.671665
0.6716026
0.67153835
0.67147225
0.6714043
0.67133445
0.67126274
0.6711892
0.6711137
0.6710364
0.67095727
0.6708762
0.6707933
0.67070854
0.6706219
0.67053336
0.670443
0.67035073
0.6702566
0.67016065
0.67006284
0.6699631
0.66986156
0.6697581
0.66965276
0.6695456
0.6694366
0.66932565
0.6692129
0.66909826
0.66898173
0.66886336
0.6687431
0.668621
0.668497
0.6683712
0.66824347
0.6681139
0.66798246
0.6678491
0.66771394
0.6675769
0.66743803
0.66729724
0.6671546
0.66701007
0.6668637
0.66671544
0.66656536
0.6664138
0.66626185
0.6661095
0.66595685
0.66580385
0.6656504
0.6654967
0.6653426
0.6651882
0.6650334
0.66487825
0.6647228
0.66456693
0.6644107
0.6642542
0.66409725
0.66394
0.6637824
0.6636244
0.6634661
0.6633074
0.6631484
0.662989
0.6628293
0.6626692
0.6625088
0.662348
0.66218686
0.66202533
0.6618635
0.66170126
0.6615387
0.6613758
0.66121256
0.66104895
0.660885
0.66072065
0.66055596
0.6603909
0.6602255
0.6600598
0.6598937
0.6597273
0.65956044
0.6593933
0.6592258
0.659058
0.6588898
0.6587212
0.6585523
0.658383
0.6582134
0.6580434
0.6578731
0.6577024
0.6575314
0.65735996
0.65718824
0.6570161
0.65684366
0.65667087
0.6564977
0.6563242
0.65615034
0.6559761
0.6558016
0.65562665
0.65545136
0.65527576
0.65509975
0.65492344
0.6547468
0.6545697
0.6543923
0.65421456
0.65403646
0.653858
0.6536792
0.6535001
0.65332055
0.65314066
0.6529605
0.6527799
0.652599
0.65241766
0.65223604
0.6520541
0.65187174
0.65168905
0.651506
0.6513226
0.65113884
0.6509547
0.6507703
0.6505855
0.65040034
0.6502148
0.65002894
0.6498427
0.6496561
0.6494692
0.6492819
0.6490943
0.6489063
0.64871794
0.64852923
0.6483402
0.6481508
0.647961
0.64777094
0.64758044
0.64738965
0.6471985
0.647007
0.6468151
0.6466229
0.6464303
0.6462374
0.6460441
0.6458504
0.6456564
0.6454621
0.64526737
0.64507234
0.6448769
0.64468116
0.64448506
0.6442886
0.6440918
0.6438946
0.6436971
0.6434992
0.64330095
0.64310235
0.64290345
0.6427041
0.6425045
0.6423045
0.64210415
0.64190346
0.6417024
0.64150095
0.6412992
0.64109707
0.64089465
0.6406918
0.6404886
0.6402851
0.6400812
0.63987696
0.6396724
0.6394674
0.63926214
0.6390565
0.6388505
0.63864416
0.63843745
0.6382304
0.63802296
0.6378152
0.63760704
0.6373986
0.63718975
0.6369806
0.636771
0.63656116
0.6363509
0.63614035
0.63592935
0.63571805
0.63550645
0.63529444
0.63508207
0.63486934
0.63465625
0.63444287
0.63422906
0.63401496
0.63380045
0.63358563
0.63337046
0.6331549
0.63293904
0.6327228
0.6325062
0.63228923
0.6320719
0.6318543
0.63163626
0.6314179
0.6311992
0.6309801
0.63076067
0.6305409
0.6303208
0.6301003
0.6298795
0.6296583
0.62943673
0.6292148
0.62899256
0.62877
0.628547
0.6283237
0.62810004
0.62787604
0.62765163
0.6274269
0.62720186
0.62697643
0.62675065
0.6265245
0.626298
0.62607116
0.625844
0.62561643
0.62538856
0.6251603
0.6249317
0.6247027
0.6244734
0.62424374
0.6240137
0.62378335
0.6235526
0.62332153
0.6230901
0.62285835
0.6226262
0.62239367
0.62216085
0.6219276
0.6216941
0.6214602
0.6212259
0.6209913
0.6207563
0.620521
0.62028533
0.62004936
0.61981297
0.6195762
0.6193391
0.6191017
0.6188639
0.61862576
0.6183873
0.61814845
0.6179092
0.61766964
0.61742973
0.61718947
0.61694884
0.6167079
0.6164666
0.6162249
0.6159829
0.6157405
0.61549777
0.61525464
0.6150112
0.61476743
0.6145233
0.6142788
0.61403394
0.6137887
0.61354315
0.6132972
0.613051
0.61280435
0.61255735
0.61231005
0.6120624
0.6118143
0.61156595
0.6113172
0.6110681
0.6108187
0.6105689
0.6103187
0.6100682
0.6098173
0.60956615
0.60931456
0.6090627
0.60881037
0.60855776
0.6083048
0.6080514
0.60779774
0.6075437
0.6072893
0.60703456
0.6067795
0.60652405
0.6062682
0.6060121
0.60575557
0.60549873
0.6052415
0.6049839
0.604726
0.6044677
0.60420907
0.6039501
0.60369074
0.6034311
0.60317105
0.60291064
0.60264987
0.6023888
0.6021273
0.60186553
0.6016034
0.60134083
0.601078
0.60081476
0.6005512
0.60028726
0.600023
0.5997583
0.5994934
0.599228
0.5989623
0.5986963
0.59842986
0.5981631
0.59789604
0.59762853
0.59736073
0.59709257
0.59682405
0.5965552
0.59628594
0.5960164
0.59574646
0.59547615
0.59520555
0.5949345
0.5946632
0.59439147
0.5941194
0.59384704
0.5935743
0.5933012
0.5930277
0.5927539
0.5924797
0.59220517
0.5919303
0.5916551
0.5913795
0.59110355
0.5908273
0.5905506
0.5902736
0.5899963
0.5897186
0.5894405
0.5891621
0.58888334
0.5886042
0.5883248
0.58804494
0.5877648
0.58748424
0.5872034
0.5869221
0.58664054
0.5863586
0.5860763
0.5857937
0.5855107
0.5852273
0.5849436
0.5846595
0.58437514
0.58409035
0.58380526
0.58351976
0.58323395
0.58294773
0.5826612
0.58237433
0.5820871
0.5817995
0.58151156
0.58122325
0.5809346
0.5806456
0.58035624
0.58006656
0.57977647
0.5794861
0.57919526
0.57890415
0.5786127
0.57832086
0.5780287
0.57773614
0.57744324
0.57715
0.5768564
0.57656246
0.5762684
0.5759747
0.57568145
0.5753887
0.5750964
0.5748046
0.57451326
0.5742223
0.5739319
0.5736419
0.5733524
0.5730633
0.57277477
0.5724866
0.5721989
0.5719117
0.57162493
0.57133865
0.57105285
0.57076746
0.57048255
0.5701981
0.5699141
0.56963056
0.5693475
0.5690649
0.56878275
0.56850106
0.56821984
0.5679391
0.5676588
0.56737894
0.5670996
0.5668206
0.5665422
0.5662642
0.56598663
0.5657096
0.56543297
0.5651568
0.56488115
0.5646059
0.5643311
0.5640568
0.56378293
0.5635096
0.56323665
0.5629642
0.56269217
0.5624206
0.5621495
0.5618789
0.5616088
0.5613391
0.56106985
0.560801
0.56053275
0.5602649
0.5599975
0.5597305
0.5594641
0.5591981
0.5589325
0.5586674
0.5584028
0.5581386
0.5578749
0.55761164
0.5573489
0.5570866
0.5568247
0.5565633
0.55630237
0.5560419
0.55578184
0.55552226
0.5552632
0.55500454
0.5547464
0.55448866
0.5542314
0.5539746
0.55371827
0.55346245
0.553207
0.55295205
0.55269754
0.55244356
0.55218995
0.55193686
0.5516842
0.551432
0.5511803
0.55092907
0.55067825
0.5504279
0.55017805
0.5499286
0.54967964
0.54943115
0.54918313
0.54893553
0.5486885
0.54844177
0.5481956
0.54794985
0.5477046
0.5474598
0.54721546
0.54697156
0.54672813
0.5464852
0.54624265
0.5460006
0.545759
0.5455179
0.54527724
0.5450371
0.5447973
0.54455805
0.5443192
0.54408085
0.543843
0.54360557
0.5433686
0.54313207
0.54289603
0.5426604
0.54242533
0.5421906
0.5419564
0.5417227
0.5414894
0.5412566
0.5410242
0.5407923
0.5405609
0.5403299
0.5400994
0.5398693
0.5396397
0.5394106
0.5391819
0.5389537
0.538726
0.53849864
0.53827184
0.53804547
0.53781956
0.5375941
0.53736913
0.5371446
0.5369205
0.5366969
0.53647375
0.53625107
0.53602886
0.53580713
0.5355858
0.535365
0.53514457
0.5349247
0.5347052
0.53448623
0.53426766
0.53404963
0.533832
0.5336149
0.53339815
0.5331819
0.5329662
0.53275084
0.53253603
0.53232163
0.5321077
0.53189427
0.53168124
0.5314687
0.5312566
0.531045
0.53083384
0.53062314
0.5304129
0.5302031
0.52999383
0.529785
0.52957654
0.52936864
0.52916116
0.52895415
0.5287476
0.5285415
0.52833587
0.5281307
0.527926
0.52772176
0.527518
0.52731466
0.5271118
0.5269094
0.5267075
0.526506
0.52630496
0.5261044
0.5259043
0.5257047
0.52550554
0.5253068
0.5251086
0.52491075
0.52471346
0.5245166
0.5243202
0.5241242
0.5239287
0.5237337
0.5235391
0.52334505
0.5231514
0.5229582
0.52276546
0.52257323
0.5223814
0.5221901
0.52199924
0.5218088
0.52161884
0.52142936
0.5212403
0.52105176
0.52086365
0.520676
0.5204888
0.52030206
0.5201158
0.51993
0.51974463
0.51955974
0.5193753
0.5191914
0.51900786
0.5188248
0.51864225
0.51846015
0.5182785
0.5180973
0.51791656
0.51773626
0.5175565
0.51737714
0.5171982
0.5170198
0.5168418
0.5166643
0.51648724
0.5163107
0.51613456
0.5159589
0.51578367
0.51560897
0.5154347
0.5152608
0.5150875
0.5149146
0.51474214
0.5145702
0.51439863
0.51422757
0.514057
0.51388687
0.5137172
0.51354796
0.5133792
0.51321095
0.5130431
0.51287574
0.51270884
0.5125424
0.5123764
0.5122109
0.5120458
0.51188123
0.5117171
0.5115534
0.5113902
0.5112274
0.5110651
0.5109033
0.5107419
0.510581
0.51042056
0.5102606
0.510101
0.50994194
0.5097833
0.5096252
0.5094675
0.5093103
0.50915354
0.5089972
0.5088414
0.508686
0.5085311
0.5083766
0.5082226
0.50806904
0.507916
0.5077634
0.5076112
0.5074595
0.5073083
0.5071575
0.5070072
0.50685734
0.50670797
0.506559
0.50641054
0.50626254
0.506115
0.5059679
0.5058213
0.50567514
0.5055294
0.5053842
0.5052394
0.50509506
0.50495124
0.50480783
0.5046649
0.50452244
0.5043804
0.50423884
0.50409776
0.50395715
0.50381696
0.50367725
0.503538
0.5033992
0.50326085
0.503123
0.5029856
0.5028487
0.5027122
0.5025762
0.5024406
0.5023055
0.50217086
0.5020367
0.50190294
0.5017697
0.5016369
0.50150454
0.5013727
0.50124127
0.5011103
0.50097984
0.5008498
0.50072026
0.50059116
0.5004625
0.5003343
0.5002066
0.50007933
0.4999525
0.49982616
0.49970028
0.49957487
0.4994499
0.4993254
0.49920136
0.4990778
0.49895465
0.49883202
0.49870983
0.4985881
0.49846682
0.498346
0.49822566
0.49810576
0.49798635
0.49786738
0.49774885
0.4976308
0.49751323
0.4973961
0.49727944
0.49716324
0.4970475
0.49693224
0.4968174
0.49670306
0.49658915
0.49647573
0.49636275
0.49625024
0.4961382
0.49602658
0.49591544
0.4958048
0.49569458
0.49558482
0.49547553
0.49536672
0.49525833
0.49515063
0.4950441
0.49493888
0.4948349
0.49473217
0.4946307
0.4945305
0.49443156
0.49433386
0.49423742
0.49414226
0.49404836
0.49395567
0.4938643
0.49377415
0.49368528
0.49359766
0.4935113
0.49342617
0.49334234
0.49325976
0.49317843
0.49309835
0.49301955
0.49294198
0.49286568
0.49279067
0.49271688
0.49264437
0.4925731
0.4925031
0.49243435
0.49236688
0.49230066
0.4922357
0.49217197
0.49210954
0.49204832
0.4919884
0.49192974
0.4918723
0.49181616
0.49176127
0.49170762
0.49165523
0.49160412
0.49155426
0.49150565
0.4914583
0.49141222
0.49136737
0.4913238
0.4912815
0.49124044
0.49120066
0.49116212
0.49112484
0.4910888
0.49105406
0.49102056
0.4909883
0.49095732
0.4909276
0.49089915
0.49087194
0.49084598
0.49082127
0.49079785
0.49077567
0.49075475
0.4907351
0.4907167
0.49069956
0.49068367
0.49066907
0.4906557
0.4906436
0.49063274
0.49062315
0.49061483
0.49060777
0.49060196
0.4905974
0.4905941
0.49059206
0.4905913
0.49059176
0.4905935
0.4905965
0.49060076
0.49060628
0.49061304
0.4906211
0.49063036
0.4906409
0.49065274
0.4906658
0.49068013
0.49069571
0.49071255
0.49073064
0.49075
0.49077064
0.4907925
0.49081564
0.49084002
0.49086568
0.4908926
0.49092075
0.4909502
0.4909809
0.49101284
0.49104604
0.4910805
0.49111623
0.4911532
0.49119145
0.49123093
0.49127167
0.4913137
0.49135697
0.4914015
0.4914473
0.49149436
0.49154267
0.49159223
0.49164304
0.49169514
0.49174848
0.49180308
0.49185893
0.49191606
0.4919744
0.49203405
0.49209496
0.4921571
0.49222052
0.4922852
0.4923511
0.4924183
0.49248675
0.49255645
0.4926274
0.49269962
0.49277312
0.49284786
0.49292386
0.4930011
0.4930796
0.49315938
0.49324042
0.4933227
0.49340627
0.49349105
0.49357712
0.49366444
0.49375305
0.49384287
0.49393398
0.49402633
0.49411997
0.49421483
0.49431098
0.49440837
0.494507
0.4946069
0.4947081
0.49481052
0.4949142
0.49501914
0.49512535
0.49523282
0.49534154
0.4954515
0.49556276
0.49567524
0.495789
0.49590403
0.4960203
0.49613783
0.49625662
0.49637666
0.49649796
0.49662054
0.49674436
0.49686944
0.49699578
0.4971234
0.49725223
0.49738234
0.49751374
0.49764636
0.49778026
0.49791542
0.49805182
0.49818948
0.49832842
0.4984686
0.49861005
0.49875274
0.49889672
0.49904191
0.4991884
0.49933615
0.49948514
0.4996354
0.4997869
0.49993968
0.5000937
0.50024897
0.50040555
0.5005633
0.5007224
0.50088274
0.50104433
0.5012072
0.50137126
0.5015366
0.50170326
0.5018711
0.50204027
0.5022106
0.5023823
0.5025552
0.50272936
0.5029048
0.5030815
0.5032594
0.5034386
0.5036191
0.5038008
0.5039838
0.50416803
0.5043535
0.50454026
0.50472826
0.50491756
0.50510806
0.50529987
0.5054929
0.50568724
0.5058828
0.5060796
0.5062777
0.50647706
0.5066776
0.5068795
0.5070826
0.50728697
0.5074926
0.5076995
0.5079076
0.5081171
0.5083277
0.5085397
0.5087528
0.5089673
0.509183
0.50939995
0.50961816
0.5098376
0.5100584
0.5102804
0.51050365
0.5107281
0.5109539
0.51118094
0.5114092
0.51163876
0.51186955
0.51210165
0.51233494
0.51256955
0.5128054
0.5130425
0.5132808
0.5135205
0.51376134
0.51400346
0.5142468
0.5144915
0.5147374
0.51498455
0.515233
0.51548266
0.5157336
0.51598585
0.5162393
0.51649404
0.51675
0.51700723
0.51726574
0.5175255
0.5177865
0.51804876
0.5183123
0.51857704
0.5188431
0.51911044
0.51937896
0.5196488
0.5199199
0.5201922
0.5204658
0.5207407
0.5210168
0.5212942
0.52157277
0.5218527
0.5221338
0.52241623
0.5226999
0.52298486
0.523271
0.52355844
0.52384716
0.52413714
0.52442837
0.5247208
0.5250146
0.52530956
0.5256058
0.5259033
0.5262021
0.52650213
0.5268034
0.5271059
0.52740973
0.5277148
0.52802116
0.5283287
0.5286375
0.52894765
0.529259
0.5295716
0.5298855
0.5302006
0.530517
0.5308347
0.53115356
0.53147376
0.53179514
0.53211784
0.5324418
0.532767
0.53309345
0.53342116
0.5337501
0.5340804
0.53441185
0.5347446
0.53507864
0.5354139
0.53575045
0.5360882
0.53642726
0.53676754
0.53710914
0.5374519
0.537796
0.53814137
0.538488
0.5388358
0.5391849
0.5395353
0.53988695
0.5402398
0.540594
0.54094934
0.541306
0.54166394
0.5420231
0.5423836
0.5427453
0.5431082
0.54347247
0.54383796
0.54420465
0.54457265
0.5449419
0.5453124
0.5456842
0.5460572
0.5464315
0.54680705
0.5471839
0.54756194
0.54794127
0.54832184
0.5487037
0.54908675
0.5494711
0.5498567
0.5502436
0.5506317
0.5510211
0.55141175
0.55180365
0.55219686
0.55259126
0.5529869
0.5533839
0.5537821
0.5541815
0.55458176
0.55498105
0.5553793
0.5557764
0.5561725
0.55656755
0.5569615
0.55735433
0.5577462
0.5581369
0.5585265
0.55891514
0.5593027
0.5596891
0.5600745
0.5604588
0.56084204
0.5612242
0.56160533
0.5619854
0.56236434
0.56274223
0.56311905
0.5634948
0.5638695
0.5642431
0.5646156
0.56498706
0.5653575
0.5657268
0.5660951
0.5664623
0.56682837
0.56719345
0.56755745
0.5679203
0.5682822
0.568643
0.5690026
0.56936127
0.56971884
0.57007533
0.57043076
0.5707851
0.5711384
0.5714906
0.5718417
0.57219183
0.5725408
0.57288873
0.5732356
0.5735814
0.5739261
0.5742698
0.5746123
0.57495385
0.5752943
0.57563365
0.57597196
0.5763092
0.5766453
0.5769804
0.57731444
0.5776474
0.57797927
0.5783101
0.5786398
0.57896847
0.5792961
0.5796226
0.57994807
0.5802725
0.5805958
0.580918
0.5812392
0.5815593
0.58187836
0.58219635
0.5825132
0.58282906
0.58314383
0.58345747
0.5837701
0.58408165
0.58439213
0.58470154
0.5850099
0.58531713
0.5856233
0.5859285
0.58623254
0.5865355
0.5868374
0.5871383
0.58743805
0.5877368
0.5880344
0.588331
0.58862644
0.5889209
0.58921427
0.5895065
0.58979774
0.5900879
0.590377
0.590665
0.5909519
0.5912378
0.5915226
0.5918063
0.59208894
0.5923705
0.59265107
0.5929305
0.59320885
0.5934862
0.5937624
0.5940376
0.59431165
0.5945847
0.5948566
0.5951275
0.59539735
0.5956661
0.59593374
0.59620035
0.5964659
0.59673035
0.59699374
0.59725606
0.5975173
0.5977775
0.59803665
0.5982947
0.59855163
0.5988076
0.5990624
0.5993161
0.59956884
0.59982044
0.600071
0.6003205
0.6005689
0.60081625
0.60106254
0.60130775
0.60155183
0.6017949
0.6020369
0.6022778
0.60251766
0.60275644
0.6029942
0.60323083
0.6034664
0.6037009
0.60393435
0.6041667
0.60439795
0.6046282
0.6048573
0.60508543
0.60531247
0.60553837
0.60576326
0.6059871
0.60620975
0.6064314
0.606652
0.60687155
0.60709
0.6073074
0.6075237
0.6077389
0.60795313
0.6081662
0.60837823
0.6085892
0.6087991
0.6090079
0.6092157
0.6094223
0.60962796
0.60983247
0.61003596
0.6102384
0.61043966
0.6106399
0.6108391
0.61103725
0.6112343
0.6114303
0.6116252
0.611819
0.6120118
0.6122035
0.6123941
0.6125837
0.61277217
0.61295956
0.61314595
0.6133312
0.61351544
0.61369854
0.61388063
0.6140616
0.61424154
0.6144204
0.6145982
0.6147749
0.61495054
0.6151251
0.6152986
0.61547107
0.6156424
0.6158127
0.61598194
0.61615014
0.6163172
0.6164832
0.6166482
0.61681205
0.61697483
0.6171366
0.61729723
0.61745685
0.6176154
0.6177728
0.6179292
0.61808455
0.6182388
0.61839193
0.61854404
0.6186951
0.61884505
0.61899394
0.61914176
0.61928856
0.61943424
0.61957884
0.61972237
0.6198649
0.62000626
0.6201466
0.62028587
0.62042403
0.6205612
0.62069726
0.6208322
0.62096614
0.621099
0.6212307
0.62136143
0.6214911
0.62161964
0.62174714
0.62187356
0.6219989
0.6221232
0.6222464
0.6223686
0.62248963
0.6226096
0.6227286
0.6228464
0.62296325
0.62307894
0.6231936
0.62330717
0.6234197
0.62353116
0.6236415
0.6237508
0.62385905
0.6239662
0.6240723
0.62417734
0.6242813
0.62438416
0.62448597
0.6245867
0.62468636
0.624785
0.6248825
0.62497896
0.6250744
0.6251687
0.62526196
0.6253541
0.62544525
0.62553525
0.62562424
0.62571216
0.62579894
0.6258847
0.6259694
0.62605304
0.6261356
0.62621707
0.6262975
0.6263768
0.62645507
0.6265323
0.62660843
0.6266835
0.62675744
0.6268304
0.6269022
0.62697303
0.6270427
0.6271114
0.6271789
0.6272454
0.6273109
0.62737525
0.6274385
0.6275007
0.62756187
0.62762195
0.62768096
0.6277389
0.62779576
0.62785155
0.6279063
0.62795997
0.62801254
0.62806404
0.6281145
0.6281639
0.6282122
0.6282594
0.6283056
0.6283507
0.6283947
0.6284377
0.62847954
0.62852037
0.6285601
0.6285988
0.6286364
0.62867296
0.6287084
0.6287428
0.62877613
0.6288084
0.6288396
0.6288697
0.62889874
0.62892675
0.62895364
0.62897944
0.62900424
0.6290279
0.62905055
0.6290721
0.6290926
0.629112
0.62913036
0.62914765
0.62916386
0.629179
0.629193
0.62920606
0.629218
0.62922883
0.6292386
0.6292473
0.62925494
0.62926155
0.62926704
0.62927145
0.62927485
0.6292771
0.62927836
0.6292785
0.6292776
0.6292756
0.6292725
0.6292684
0.6292632
0.62925696
0.62924963
0.6292412
0.62923175
0.6292212
0.6292096
0.6291969
0.6291831
0.62916833
0.6291524
0.62913543
0.6291174
0.6290983
0.6290781
0.6290569
0.6290346
0.62901115
0.6289867
0.6289612
0.62893456
0.6289069
0.6288782
0.6288484
0.6288175
0.6287856
0.62875295
0.62871957
0.6286854
0.6286505
0.62861484
0.6285784
0.6285413
0.6285034
0.62846476
0.62842536
0.6283852
0.6283443
0.6283027
0.6282603
0.62821716
0.6281733
0.62812865
0.6280832
0.6280371
0.62799025
0.6279426
0.6278942
0.6278451
0.6277952
0.6277446
0.62769324
0.62764114
0.6275883
0.6275346
0.62748027
0.6274252
0.6273693
0.6273127
0.6272553
0.62719727
0.6271384
0.6270788
0.62701845
0.62695736
0.6268955
0.6268329
0.62676954
0.62670547
0.6266406
0.626575
0.62650865
0.6264416
0.62637377
0.62630516
0.62623584
0.62616575
0.62609494
0.62602335
0.62595105
0.625878
0.6258041
0.62572956
0.6256542
0.62557817
0.62550133
0.6254238
0.62534547
0.6252664
0.62518656
0.62510604
0.62502474
0.62494266
0.62485987
0.6247763
0.624692
0.62460697
0.62452114
0.6244346
0.6243473
0.6242593
0.6241705
0.62408096
0.62399065
0.6238996
0.6238078
0.6237153
0.623622
0.62352794
0.6234332
0.6233376
0.62324136
0.6231443
0.6230466
0.62294805
0.62284875
0.62274873
0.622648
0.6225465
0.6224442
0.6223412
0.62223744
0.6221329
0.62202764
0.62192166
0.6218149
0.6217074
0.62159914
0.6214901
0.6213804
0.6212699
0.62115866
0.62104666
0.6209339
0.6208204
0.62070614
0.62059116
0.6204754
0.62035894
0.6202417
0.62012374
0.620005
0.6198855
0.6197653
0.6196443
0.6195226
0.6194001
0.6192769
0.6191529
0.6190282
0.61890274
0.6187765
0.61864954
0.6185218
0.61839336
0.61826414
0.6181342
0.6180035
0.61787206
0.61773986
0.6176069
0.6174732
0.6173387
0.61720353
0.6170676
0.6169309
0.61679345
0.61665523
0.6165163
0.61637664
0.6162362
0.616095
0.6159531
0.6158104
0.6156669
0.61552274
0.61537784
0.61523217
0.6150857
0.61493856
0.6147906
0.61464196
0.61449254
0.6143424
0.6141915
0.6140398
0.61388737
0.61373425
0.61358035
0.6134257
0.6132703
0.6131141
0.6129572
0.6127995
0.61264116
0.612482
0.6123221
0.61216146
0.61200005
0.6118379
0.611675
0.61151135
0.61134696
0.61118186
0.611016
0.6108493
0.61068195
0.6105138
0.61034495
0.6101753
0.61000496
0.60983384
0.60966194
0.6094893
0.60931593
0.6091418
0.60896695
0.60879135
0.608615
0.60843784
0.60826
0.6080814
0.60790205
0.6077219
0.6075411
0.60735947
0.60717714
0.60699403
0.60681015
0.60662556
0.60644025
0.6062541
0.6060673
0.6058797
0.6056914
0.60550225
0.6053124
0.60512185
0.6049305
0.6047384
0.6045456
0.604352
0.6041577
0.6039626
0.6037668
0.6035702
0.6033729
0.6031748
0.602976
0.60277647
0.60257614
0.6023751
0.60217327
0.6019707
0.60176736
0.60156333
0.60135853
0.60115296
0.60094666
0.6007396
0.6005318
0.60032326
0.600114
0.59990394
0.5996931
0.5994816
0.5992693
0.59905624
0.59884244
0.5986279
0.59841263
0.5981966
0.59797984
0.5977623
0.597544
0.59732497
0.5971052
0.59688467
0.5966634
0.5964414
0.59621865
0.5959951
0.59577084
0.5955458
0.59532005
0.59509355
0.5948663
0.5946383
0.5944095
0.59418005
0.5939498
0.59371877
0.593487
0.5932545
0.5930213
0.59278727
0.59255254
0.59231704
0.5920808
0.5918438
0.5916061
0.59136754
0.59112835
0.5908883
0.59064764
0.5904061
0.5901639
0.58992094
0.5896772
0.5894327
0.5891875
0.5889415
0.5886948
0.58844733
0.58819914
0.58795017
0.5877004
0.58744997
0.5871988
0.5869468
0.5866941
0.5864406
0.5861864
0.5859315
0.5856758
0.58541936
0.5851621
0.5849042
0.5846455
0.58438605
0.5841259
0.5838649
0.5836032
0.58334076
0.5830776
0.5828137
0.582549
0.58228356
0.58201736
0.58175045
0.58148277
0.5812143
0.58094513
0.58067524
0.5804046
0.58013314
0.579861
0.57958806
0.5793144
0.57904
0.5787648
0.5784889
0.57821226
0.57793486
0.5776567
0.5773778
0.57709813
0.5768177
0.57653654
0.57625467
0.575972
0.5756886
0.57540447
0.5751196
0.5748339
0.5745475
0.5742604
0.5739725
0.5736839
0.57339454
0.5731044
0.5728135
0.57252187
0.5722295
0.57193637
0.5716425
0.5713479
0.5710525
0.5707564
0.5704595
0.5701619
0.56986356
0.5695644
0.56926453
0.56896394
0.5686626
0.5683605
0.5680576
0.56775403
0.5674497
0.5671446
0.56683874
0.56653214
0.56622475
0.56591666
0.56560785
0.56529826
0.5649879
0.5646768
0.56436497
0.5640524
0.56373906
0.56342494
0.5631101
0.56279457
0.56247824
0.56216115
0.56184334
0.56152475
0.56120545
0.56088537
0.5605645
0.56024295
0.55992067
0.5595976
0.5592738
0.55894923
0.5586239
0.5582979
0.55797106
0.5576435
0.5573152
0.55698615
0.5566563
0.5563258
0.55599445
0.55566245
0.5553296
0.5549961
0.5546623
0.5543302
0.5540002
0.5536722
0.55334616
0.55302215
0.55270016
0.55238014
0.55206215
0.5517462
0.5514322
0.5511202
0.5508103
0.5505023
0.55019635
0.5498924
0.54959047
0.54929054
0.5489926
0.5486967
0.5484028
0.54811084
0.5478209
0.54753304
0.5472472
0.5469633
0.5466814
0.5464015
0.5461236
0.5458478
0.54557395
0.5453021
0.54503226
0.5447644
0.54449856
0.54423475
0.5439729
0.5437131
0.5434553
0.5431995
0.54294574
0.5426939
0.54244417
0.5421964
0.5419506
0.54170686
0.5414651
0.5412253
0.5409876
0.5407519
0.5405181
0.5402864
0.5400567
0.53982896
0.53960323
0.53937954
0.53915787
0.53893816
0.5387205
0.53850484
0.53829116
0.5380795
0.5378698
0.53766215
0.5374565
0.5372529
0.53705126
0.53685164
0.536654
0.5364584
0.5362648
0.5360732
0.5358836
0.535696
0.5355104
0.53532684
0.5351453
0.5349657
0.53478813
0.5346126
0.5344391
0.53426754
0.53409797
0.5339305
0.53376496
0.5336014
0.53343993
0.53328043
0.5331229
0.53296745
0.53281397
0.53266245
0.532513
0.53236556
0.53222007
0.5320766
0.53193516
0.53179574
0.5316583
0.53152287
0.5313895
0.53125805
0.53112864
0.5310012
0.5308758
0.5307524
0.53063107
0.5305117
0.5303943
0.5302789
0.53016555
0.5300542
0.5299449
0.52983755
0.5297322
0.5296289
0.52952754
0.52942824
0.5293309
0.5292356
0.5291423
0.529051
0.5289617
0.52887446
0.52878916
0.5287059
0.52862465
0.5285454
0.52846813
0.5283929
0.52831966
0.5282484
0.5281792
0.528112
0.5280468
0.5279836
0.5279224
0.5278632
0.52780604
0.52775085
0.5276977
0.5276465
0.52759737
0.52755016
0.52750504
0.5274619
0.52742076
0.5273816
0.5273445
0.52730936
0.5272763
0.52724516
0.5272161
0.52718896
0.52716386
0.5271408
0.52711976
0.5271007
0.5270836
0.52706856
0.5270555
0.5270445
0.5270354
0.5270284
0.5270234
0.52702034
0.5270193
0.52702034
0.5270233
0.5270283
0.52703536
0.52704436
0.5270554
0.52706844
0.52708346
0.5271005
0.5271195
0.5271406
0.5271637
0.5271887
0.5272158
0.52724487
0.527276
0.52730906
0.52734417
0.52738124
0.5274204
0.52746147
0.5275046
0.52754974
0.5275969
0.527646
0.52769715
0.5277503
0.5278055
0.52786267
0.52792186
0.527983
0.5280462
0.5281114
0.5281786
0.5282478
0.528319
0.5283922
0.5284674
0.52854466
0.5286239
0.5287051
0.5287884
0.5288736
0.5289609
0.5290502
0.5291414
0.5292347
0.52933
0.5294273
0.5295266
0.5296279
0.5297312
0.52983654
0.5299438
0.5300532
0.53016454
0.53027785
0.5303932
0.53051054
0.53062993
0.5307513
0.53087467
0.531
0.5311274
0.5312568
0.5313882
0.5315216
0.531657
0.5317944
0.53193384
0.5320753
0.5322187
0.53236413
0.5325116
0.532661
0.5328125
0.53296596
0.53312147
0.53327894
0.5334384
0.5335999
0.5337634
0.5339289
0.5340964
0.53426594
0.5344374
0.5346109
0.53478646
0.534964
0.53514355
0.5353251
0.5355087
0.53569424
0.5358818
0.53607136
0.536263
0.5364566
0.53665215
0.53684974
0.53704935
0.537251
0.5374546
0.53766024
0.53786784
0.5380775
0.5382891
0.5385028
0.53871846
0.5389361
0.5391558
0.53937745
0.53960115
0.5398268
0.5400545
0.5402842
0.5405159
0.5407496
0.54098535
0.54122305
0.5414628
0.54170454
0.54194826
0.542194
0.5424418
0.5426915
0.5429433
0.5431971
0.54345286
0.54371065
0.54397047
0.54423225
0.54449606
0.5447619
0.5450297
0.54529953
0.5455713
0.5458452
0.546121
0.5463989
0.5466787
0.5469606
0.5472444
0.54753035
0.5478182
0.5481081
0.5484
0.5486939
0.5489898
0.5492877
0.5495876
0.54988956
0.5501935
0.5504994
0.55080736
0.5511173
0.5514293
0.5517432
0.5520592
0.55237716
0.5526971
0.5530191
0.5533431
0.5536691
0.5539971
0.55432713
0.5546591
0.55499315
0.5553292
0.5556672
0.55600727
0.5563493
0.5566934
0.55703944
0.5573875
0.5577375
0.5580896
0.5584437
0.5587998
0.5591579
0.55951804
0.55988014
0.56024426
0.56061035
0.5609785
0.5613486
0.5617207
0.5620949
0.56247103
0.5628492
0.5632294
0.56361157
0.5639957
0.5643819
0.5647701
0.5651603
0.5655525
0.5659467
0.56634295
0.56674117
0.56714135
0.5675436
0.56794786
0.56835407
0.56876236
0.5691726
0.56958485
0.56999916
0.5704154
0.5708337
0.57125396
0.57167625
0.5721006
0.5725269
0.5729552
0.57338554
0.57381785
0.5742522
0.5746885
0.5751268
0.5755672
0.5760096
0.5764539
0.5769003
0.57734865
0.5777991
0.5782514
0.57870585
0.57916224
0.57962066
0.58008105
0.58054346
0.5810079
0.5814743
0.5819428
0.5824132
0.5828857
0.58336014
0.583836
0.5843106
0.58478343
0.58525467
0.58572423
0.5861921
0.5866583
0.5871228
0.5875856
0.58804685
0.58850634
0.58896416
0.5894203
0.5898748
0.59032756
0.5907787
0.5912282
0.59167594
0.5921221
0.5925665
0.59300923
0.59345037
0.5938898
0.5943275
0.5947636
0.595198
0.59563065
0.5960617
0.5964911
0.59691876
0.5973448
0.59776914
0.5981918
0.5986128
0.5990321
0.59944975
0.59986573
0.60028005
0.6006927
0.60110366
0.6015129
0.60192055
0.60232645
0.60273075
0.6031333
0.6035342
0.60393345
0.604331
0.6047269
0.60512114
0.6055137
0.6059045
0.60629374
0.6066812
0.6070671
0.60745126
0.60783374
0.60821456
0.60859376
0.60897124
0.609347
0.6097211
0.6100936
0.6104644
0.61083347
0.6112009
0.61156666
0.6119307
0.6122932
0.6126539
0.61301297
0.61337036
0.6137261
0.61408013
0.61443245
0.61478317
0.61513215
0.6154795
0.6158252
0.6161692
0.6165115
0.61685216
0.61719114
0.61752844
0.6178641
0.61819804
0.6185303
0.6188609
0.61918986
0.6195171
0.61984265
0.6201666
0.6204888
0.6208094
0.62112826
0.6214455
0.621761
0.6220749
0.62238705
0.6226976
0.6230064
0.6233136
0.6236191
0.62392294
0.6242251
0.62452555
0.62482435
0.6251215
0.62541693
0.62571067
0.6260028
0.62629324
0.62658197
0.6268691
0.62715447
0.6274382
0.62772024
0.6280007
0.6282794
0.62855643
0.62883174
0.62910545
0.6293775
0.6296478
0.6299165
0.63018346
0.6304488
0.63071245
0.6309744
0.6312347
0.63149333
0.6317503
0.6320056
0.6322592
0.6325111
0.63276136
0.6330099
0.63325685
0.63350207
0.6337456
0.6339875
0.63422775
0.6344663
0.6347031
0.6349383
0.63517183
0.6354037
0.6356338
0.63586235
0.63608915
0.6363143
0.6365378
0.6367596
0.6369797
0.63719815
0.63741493
0.63763
0.63784343
0.6380552
0.63826525
0.6384737
0.6386804
0.6388855
0.63908887
0.6392906
0.6394906
0.63968897
0.63988566
0.6400807
0.640274
0.6404657
0.64065564
0.640844
0.6410306
0.6412156
0.6413989
0.6415805
0.64176047
0.64193875
0.64211535
0.64229023
0.6424635
0.6426351
0.642805
0.64297324
0.6431398
0.64330465
0.6434679
0.64362943
0.6437893
0.6439475
0.644104
0.6442588
0.644412
0.6445635
0.6447133
0.6448614
0.6450079
0.6451527
0.6452958
0.64543724
0.645577
0.6457151
0.64585155
0.6459863
0.6461194
0.6462508
0.64638054
0.6465086
0.64663494
0.6467597
0.6468827
0.64700407
0.64712375
0.6472418
0.6473581
0.64747274
0.64758575
0.6476971
0.6478067
0.64791465
0.648021
0.6481256
0.6482285
0.6483298
0.6484294
0.6485273
0.6486236
0.6487182
0.64881104
0.6489023
0.6489918
0.64907974
0.6491659
0.64925045
0.6493333
0.6494145
0.649494
0.64957184
0.649648
0.6497225
0.6497953
0.64986646
0.6499359
0.65000373
0.65006983
0.65013427
0.650197
0.6502582
0.65031755
0.6503753
0.6504314
0.6504858
0.6505385
0.6505896
0.65063894
0.6506867
0.6507327
0.65077704
0.6508197
0.6508607
0.65090007
0.65093774
0.65097374
0.65100807
0.6510407
0.65107167
0.65110093
0.6511286
0.6511545
0.6511788
0.65120137
0.6512223
0.65124154
0.6512591
0.65127504
0.6512892
0.6513018
0.6513127
0.6513219
0.6513294
0.6513353
0.6513395
0.651342
0.6513428
0.651342
0.6513395
0.65133524
0.6513294
0.6513219
0.65131265
0.65130174
0.6512892
0.651275
0.65125906
0.6512415
0.6512222
0.6512013
0.6511787
0.65115446
0.6511285
0.6511009
0.65107155
0.6510406
0.65100795
0.6509736
0.6509377
0.6509
0.65086067
0.6508196
0.6507769
0.6507326
0.65068656
0.6506388
0.65058947
0.6505384
0.65048563
0.6504313
0.6503752
0.65031743
0.650258
0.6501969
0.6501341
0.65006965
0.65000355
0.6499357
0.6498663
0.6497951
0.6497223
0.64964783
0.64957166
0.6494938
0.6494143
0.6493331
0.6492502
0.6491657
0.6490795
0.6489916
0.64890206
0.6488108
0.6487179
0.6486233
0.6485271
0.64842916
0.64832956
0.6482282
0.6481253
0.6480207
0.64791435
0.6478064
0.64769673
0.64758545
0.64747244
0.64735776
0.6472414
0.6471234
0.6470037
0.64688236
0.64675933
0.64663464
0.6465082
0.6463802
0.6462504
0.646119
0.64598596
0.6458512
0.64571476
0.64557666
0.6454369
0.64529544
0.6451523
0.6450075
0.64486104
0.64471287
0.6445631
0.64441156
0.6442584
0.6441035
0.643947
0.6437888
0.64362895
0.6434674
0.6433042
0.6431393
0.64297277
0.6428045
0.64263463
0.642463
0.64228976
0.6421149
0.64193827
0.64176
0.64158
0.6413984
0.6412151
0.64103013
0.64084345
0.64065516
0.64046514
0.64027345
0.64008015
0.6398851
0.63968843
0.63949007
0.6392903
0.6390904
0.63889074
0.63869125
0.63849187
0.6382927
0.6380936
0.6378947
0.6376959
0.63749737
0.6372989
0.63710064
0.63690245
0.6367045
0.6365067
0.63630897
0.6361115
0.6359141
0.6357169
0.63551986
0.6353229
0.63512623
0.6349296
0.6347332
0.6345369
0.63434076
0.6341448
0.633949
0.6337533
0.6335578
0.6333624
0.6331672
0.6329722
0.6327773
0.63258255
0.63238794
0.6321935
0.63199925
0.6318051
0.63161117
0.63141733
0.6312237
0.6310302
0.63083684
0.6306436
0.6304506
0.63025767
0.63006496
0.6298724
0.6296799
0.6294877
0.6292955
0.6291036
0.6289118
0.6287201
0.6285286
0.62833726
0.6281461
0.627955
0.62776417
0.62757343
0.6273829
0.62719244
0.6270022
0.62681204
0.6266221
0.6264323
0.62624264
0.62605315
0.6258638
0.6256746
0.6254856
0.6252967
0.62510794
0.6249194
0.624731
0.6245427
0.6243546
0.62416667
0.62397885
0.6237912
0.6236037
0.62341636
0.6232292
0.62304217
0.6228553
0.62266856
0.622482
0.6222956
0.62210935
0.62192327
0.6217373
0.6215515
0.62136585
0.62118036
0.62099504
0.62080985
0.62062484
0.62043995
0.62025523
0.6200707
0.6198863
0.61970204
0.6195179
0.619334
0.6191502
0.6189666
0.6187831
0.6185998
0.6184166
0.61823356
0.6180507
0.617868
0.61768544
0.61750305
0.6173208
0.6171387
0.6169568
0.616775
0.61659336
0.61641186
0.61623055
0.6160494
0.6158684
0.61568755
0.6155068
0.6153263
0.61514586
0.6149656
0.61478555
0.6146056
0.61442584
0.6142462
0.6140667
0.6138874
0.61370826
0.61352926
0.6133504
0.6131717
0.6129932
0.6128148
0.6126365
0.61245847
0.61228055
0.61210275
0.6119251
0.6117477
0.61157036
0.6113932
0.6112162
0.61103934
0.6108627
0.6106861
0.61050975
0.6103335
0.61015743
0.6099815
0.6098057
0.6096301
0.60945463
0.60927933
0.6091042
0.6089292
0.60875434
0.6085797
0.6084051
0.60823077
0.60805655
0.60788244
0.6077085
0.60753477
0.60736114
0.6071877
0.6070144
0.60684127
0.6066683
0.60649544
0.60632277
0.6061502
0.60597783
0.60580564
0.60563356
0.60546166
0.6052899
0.6051183
0.60494685
0.60477555
0.6046044
0.6044334
0.6042626
0.6040919
0.60392135
0.603751
0.6035808
0.6034107
0.60324085
0.6030711
0.60290146
0.60273206
0.6025627
0.6023936
0.60222465
0.6020558
0.6018871
0.6017186
0.6015502
0.601382
0.601214
0.6010461
0.6008783
0.60071075
0.6005433
0.600376
0.6002089
0.6000419
0.5998751
0.59970844
0.5995419
0.59937555
0.5992093
0.5990433
0.5988774
0.59871167
0.5985461
0.5983806
0.59821534
0.59805024
0.59788525
0.59772044
0.59755576
0.59739125
0.5972269
0.5970627
0.5968987
0.59673476
0.596571
0.5964075
0.59624404
0.5960807
0.59591764
0.5957547
0.59559184
0.5954292
0.5952667
0.59510434
0.59494215
0.5947801
0.5946182
0.5944565
0.5942949
0.5941335
0.5939722
0.5938111
0.59365016
0.59348935
0.5933287
0.5931682
0.59300786
0.59284765
0.5926876
0.59252775
0.592368
0.59220845
0.592049
0.59188974
0.59173065
0.5915717
0.5914129
0.59125423
0.59109575
0.59093744
0.59077924
0.5906212
0.59046334
0.5903056
0.59014803
0.5899906
0.5898334
0.58967626
0.5895193
0.5893625
0.58920586
0.5890494
0.58889306
0.5887369
0.58858085
0.588425
0.58826923
0.5881137
0.5879583
0.58780307
0.5876479
0.587493
0.5873382
0.5871836
0.5870291
0.5868748
0.5867206
0.58656657
0.5864127
0.586259
0.5861054
0.58595204
0.5857988
0.5856457
0.58549273
0.58533996
0.5851873
0.58503485
0.58488256
0.5847304
0.58457834
0.58442646
0.58427477
0.58412325
0.58397186
0.5838206
0.5836695
0.58351856
0.58336776
0.58321714
0.5830667
0.5829164
0.58276623
0.5826162
0.58246636
0.58231664
0.5821671
0.5820177
0.58186847
0.5817194
0.58157045
0.5814217
0.5812731
0.5811246
0.5809763
0.58082813
0.58068013
0.58053225
0.58038455
0.58023703
0.5800896
0.5799424
0.57979536
0.57964844
0.5795016
0.579355
0.57920855
0.5790623
0.57891613
0.5787701
0.57862425
0.5784786
0.578333
0.57818764
0.57804245
0.57789737
0.5777524
0.5776077
0.57746303
0.5773186
0.5771743
0.5770302
0.5768862
0.57674235
0.57659864
0.5764551
0.5763117
0.57616854
0.5760254
0.57588255
0.57573974
0.57559717
0.5754547
0.57531244
0.5751703
0.5750283
0.57488644
0.57474476
0.57460326
0.5744619
0.5743207
0.5741796
0.5740387
0.57389796
0.57375735
0.57361686
0.5734766
0.5733365
0.5731965
0.57305664
0.572917
0.57277745
0.5726381
0.57249886
0.5723598
0.5722209
0.57208216
0.5719436
0.5718051
0.57166684
0.57152873
0.57139075
0.5712529
0.5711153
0.5709784
0.57084227
0.5707069
0.5705723
0.5704385
0.5703054
0.57017314
0.5700416
0.5699108
0.5697808
0.5696516
0.56952316
0.5693954
0.5692685
0.56914234
0.569017
0.56889236
0.5687685
0.5686454
0.56852305
0.5684015
0.56828076
0.5681607
0.56804144
0.567923
0.5678053
0.5676883
0.5675721
0.5674567
0.56734204
0.5672282
0.56711507
0.5670027
0.56689113
0.5667803
0.5666703
0.56656104
0.5664525
0.56634474
0.5662378
0.5661316
0.56602615
0.5659215
0.5658176
0.5657144
0.5656121
0.56551045
0.5654096
0.5653095
0.5652102
0.5651117
0.56501395
0.56491697
0.5648207
0.5647253
0.56463057
0.56453663
0.56444347
0.5643511
0.56425947
0.5641686
0.5640785
0.56398916
0.5639006
0.56381285
0.5637258
0.5636395
0.56355405
0.56346935
0.56338537
0.5633022
0.5632198
0.5631381
0.56305724
0.56297714
0.5628978
0.5628192
0.5627414
0.56266433
0.56258804
0.5625125
0.5624378
0.5623638
0.5622906
0.5622182
0.5621465
0.56207556
0.56200546
0.5619361
0.5618675
0.56179965
0.56173253
0.56166625
0.5616007
0.56153595
0.56147194
0.5614087
0.56134623
0.56128454
0.5612236
0.5611634
0.56110406
0.5610454
0.56098753
0.56093043
0.5608741
0.56081855
0.5607638
0.5607098
0.5606565
0.560604
0.5605523
0.56050134
0.56045115
0.56040174
0.56035304
0.5603052
0.56025803
0.5602117
0.5601661
0.5601213
0.56007725
0.560034
0.5599914
0.5599497
0.5599087
0.5598685
0.55982906
0.5597904
0.55975246
0.55971533
0.559679
0.5596433
0.5596085
0.5595744
0.5595411
0.55950856
0.5594768
0.5594458
0.5594156
0.5593861
0.5593574
0.55932945
0.5593023
0.55927587
0.55925024
0.5592254
0.5592013
0.55917794
0.5591554
0.5591336
0.55911255
0.5590923
0.5590728
0.5590541
0.55903614
0.5590189
0.5590025
0.55898684
0.55897194
0.5589578
0.55894446
0.5589319
0.5589201
0.558909
0.55889875
0.5588892
0.55888045
0.55887246
0.55886525
0.5588588
0.55885315
0.5588482
0.5588441
0.5588407
0.55883807
0.5588362
0.55883515
0.55883485
0.5588353
0.5588365
0.55883855
0.5588413
0.5588448
0.5588491
0.55885416
0.55886
0.5588666
0.55887395
0.55888206
0.558891
0.55890065
0.5589111
0.5589223
0.5589343
0.55894697
0.5589605
0.55897474
0.5589898
0.5590056
0.5590222
0.55903953
0.5590576
0.5590765
0.55909616
0.55911654
0.5591377
0.55915964
0.55918235
0.55920583
0.5592301
0.5592551
0.5592809
0.55930746
0.55933475
0.5593628
0.5593917
0.5594213
0.5594517
0.5594829
0.55951476
0.5595474
0.5595809
0.55961514
0.5596501
0.5596859
0.5597224
0.5597597
0.55979776
0.55983657
0.55987614
0.5599165
0.5599576
0.5599995
0.5600422
0.56008565
0.5601298
0.5601748
0.56022054
0.56026703
0.5603143
0.56036234
0.56041116
0.5604607
0.56051105
0.56056213
0.560614
0.5606667
0.5607201
0.5607742
0.56082916
0.5608849
0.56094134
0.5609986
0.5610566
0.5611154
0.5611749
0.56123525
0.56129634
0.56135815
0.5614208
0.56148416
0.5615483
0.56161326
0.5616789
0.56174535
0.5618126
0.5618806
0.5619493
0.5620189
0.56208915
0.5621602
0.562232
0.5623046
0.5623779
0.5624521
0.562527
0.56260264
0.56267905
0.56275624
0.5628342
0.56291294
0.56299245
0.5630727
0.56315374
0.5632355
0.5633181
0.56340146
0.56348556
0.5635704
0.56365603
0.56374246
0.5638296
0.5639176
0.56400627
0.56409574
0.564186
0.564277
0.5643687
0.5644613
0.5645546
0.5646487
0.5647435
0.5648391
0.5649355
0.56503266
0.5651306
0.56522924
0.5653287
0.5654289
0.5655299
0.5656316
0.56573415
0.56583744
0.5659415
0.5660463
0.5661519
0.56625825
0.56636536
0.56647325
0.5665819
0.56669134
0.56680155
0.5669125
0.56702423
0.5671367
0.56724995
0.56736404
0.5674788
0.56759435
0.5677107
0.5678278
0.56794566
0.5680643
0.5681837
0.5683039
0.5684248
0.5685465
0.56866896
0.5687922
0.5689162
0.56904095
0.56916654
0.56929284
0.5694199
0.5695477
0.56967634
0.56980574
0.56993586
0.57006675
0.5701985
0.5703309
0.57046413
0.57059807
0.57073283
0.5708684
0.5710046
0.57114166
0.57127947
0.5714181
0.5715574
0.57169753
0.57183844
0.57198006
0.5721225
0.5722657
0.57240963
0.57255435
0.57269984
0.5728461
0.57299316
0.5731409
0.5732895
0.5734388
0.5735889
0.57373977
0.5738914
0.5740438
0.574197
0.5743509
0.5745056
0.5746611
0.5748173
0.5749743
0.5751321
0.5752906
0.5754499
0.57561
0.5757708
0.57593244
0.5760948
0.57625794
0.57642186
0.57658654
0.57675195
0.5769182
0.57708514
0.57725286
0.5774214
0.5775907
0.5777607
0.5779315
0.5781031
0.5782754
0.5784478
0.57862025
0.57879275
0.5789653
0.5791379
0.5793106
0.5794833
0.579656
0.5798288
0.5800016
0.5801745
0.5803474
0.5805204
0.58069336
0.58086646
0.58103955
0.5812127
0.5813859
0.5815591
0.5817324
0.5819057
0.5820791
0.58225256
0.582426
0.5825995
0.5827731
0.5829467
0.58312035
0.58329403
0.5834678
0.5836416
0.5838154
0.5839893
0.58416325
0.58433723
0.5845112
0.5846853
0.58485943
0.58503354
0.58520776
0.58538204
0.5855563
0.5857307
0.585905
0.5860795
0.58625394
0.58642846
0.58660305
0.5867777
0.5869523
0.58712703
0.5873018
0.5874766
0.58765143
0.5878263
0.58800125
0.58817625
0.58835125
0.58852637
0.5887015
0.5888766
0.58905184
0.5892271
0.5894024
0.58957773
0.58975315
0.58992857
0.59010404
0.5902796
0.5904552
0.5906308
0.5908065
0.5909822
0.591158
0.59133375
0.59150964
0.59168553
0.5918614
0.59203744
0.5922135
0.5923896
0.5925657
0.59274185
0.5929181
0.59309435
0.59327066
0.593447
0.5936234
0.5937999
0.5939764
0.5941529
0.5943295
0.59450614
0.5946828
0.59485954
0.5950363
0.5952131
0.59538996
0.59556687
0.59574383
0.59592086
0.5960979
0.596275
0.5964521
0.5966293
0.5968065
0.5969838
0.5971611
0.5973385
0.5975159
0.5976933
0.5978708
0.5980484
0.598226
0.59840363
0.5985813
0.59875906
0.59893686
0.59911466
0.5992925
0.59947044
0.5996484
0.5998264
0.6000045
0.6001826
0.6003607
0.6005389
0.6007171
0.6008954
0.60107374
0.60125214
0.60143054
0.601609
0.6017875
0.6019661
0.60214466
0.60232335
0.60250205
0.60268074
0.60285956
0.6030384
0.60321724
0.6033962
0.60357517
0.60375416
0.6039332
0.6041123
0.6042915
0.6044707
0.60464996
0.60482925
0.60500854
0.60518795
0.60536736
0.60554683
0.60572636
0.60590595
0.60608554
0.6062652
0.6064449
0.60662466
0.60680443
0.6069843
0.6071642
0.6073441
0.6075241
0.6077041
0.60788417
0.6080643
0.6082445
0.60842466
0.6086049
0.6087852
0.6089656
0.60914594
0.6093264
0.6095069
0.6096874
0.609868
0.6100486
0.61022925
0.61041
0.61059076
0.61077154
0.6109524
0.6111333
0.61131424
0.6114952
0.6116762
0.6118573
0.61203843
0.61221963
0.6124008
0.6125821
0.6127634
0.6129447
0.61312616
0.6133076
0.6134891
0.61367065
0.6138522
0.6140338
0.6142155
0.6143972
0.61457896
0.6147608
0.61494267
0.6151246
0.6153065
0.6154885
0.61567056
0.61585265
0.61603475
0.61621696
0.61639917
0.61658144
0.6167638
0.6169461
0.6171285
0.617311
0.61749345
0.617676
0.6178586
0.6180412
0.6182239
0.61840665
0.6185894
0.61877227
0.61895514
0.619138
0.619321
0.619504
0.619687
0.6198701
0.6200533
0.62023646
0.6204197
0.62060297
0.6207863
0.62096965
0.62115306
0.6213365
0.62152004
0.6217036
0.6218872
0.62207085
0.62225455
0.62243825
0.6226221
0.6228059
0.6229898
0.62317365
0.62335765
0.62354165
0.6237257
0.62390983
0.62409395
0.6242781
0.62446237
0.62464666
0.624831
0.6250154
0.6251998
0.6253843
0.6255688
0.62575334
0.625938
0.6261226
0.6263073
0.6264921
0.62667686
0.6268617
0.6270466
0.6272315
0.6274165
0.6276015
0.6277866
0.62797165
0.62815684
0.62834203
0.6285273
0.6287126
0.6288979
0.62908334
0.62926877
0.6294542
0.62963974
0.6298253
0.6300109
0.6301966
0.6303823
0.630568
0.6307539
0.63093966
0.63112557
0.63131154
0.6314975
0.6316835
0.6318696
0.6320557
0.6322419
0.6324281
0.6326144
0.63280064
0.632987
0.6331734
0.63335985
0.63354635
0.63373286
0.6339194
0.63410604
0.6342927
0.63447946
0.6346662
0.634853
0.63503987
0.6352268
0.6354137
0.6356007
0.6357877
0.6359748
0.6361619
0.63634914
0.63653636
0.63672364
0.6369109
0.63709825
0.6372857
0.6374731
0.6376606
0.63784814
0.6380358
0.6382234
0.63841105
0.6385988
0.63878655
0.63897437
0.63916224
0.6393501
0.6395381
0.6397261
0.63991416
0.6401022
0.6402904
0.64047855
0.6406668
0.6408551
0.64104337
0.6412317
0.6414201
0.6416086
0.6417971
0.64198565
0.64217424
0.6423629
0.6425516
0.6427403
0.6429291
0.6431179
0.6433068
0.6434957
0.6436847
0.6438737
0.6440627
0.6442518
0.64444095
0.64463013
0.6448194
0.6450087
0.645198
0.64538735
0.6455768
0.64576626
0.64595574
0.64614534
0.64633495
0.64652455
0.64671427
0.646904
0.6470938
0.6472836
0.6474735
0.6476634
0.6478534
0.6480434
0.6482335
0.6484236
0.64861375
0.64880395
0.6489942
0.64918447
0.6493748
0.64956516
0.6497556
0.6499461
0.6501366
0.6503272
0.65051776
0.65070844
0.6508992
0.6510899
0.6512807
0.65147156
0.65166235
0.65185255
0.65204203
0.65223086
0.6524189
0.65260625
0.6527929
0.6529788
0.65316397
0.6533484
0.65353215
0.6537152
0.6538975
0.6540791
0.65426
0.6544401
0.6546196
0.65479827
0.6549763
0.6551536
0.6553301
0.65550596
0.65568113
0.65585554
0.6560292
0.6562022
0.65637445
0.656546
0.65671676
0.6568869
0.6570563
0.65722495
0.65739286
0.6575601
0.6577266
0.6578924
0.65805745
0.65822184
0.65838546
0.65854836
0.65871054
0.65887207
0.6590328
0.65919286
0.6593522
0.6595108
0.6596687
0.6598258
0.65998226
0.660138
0.66029304
0.6604473
0.6606009
0.6607537
0.6609059
0.6610573
0.66120803
0.661358
0.66150725
0.6616558
0.6618036
0.66195077
0.66209716
0.6622428
0.6623878
0.662532
0.6626755
0.6628183
0.6629604
0.66310173
0.6632424
0.66338235
0.6635215
0.66366005
0.6637978
0.6639348
0.6640712
0.6642068
0.6643417
0.66447586
0.6646093
0.66474205
0.6648741
0.6650054
0.665136
0.66526586
0.665395
0.66552347
0.66565114
0.66577816
0.66590446
0.66603
0.6661548
0.66627896
0.66640234
0.66652507
0.666647
0.66676825
0.6668888
0.6670086
0.66712767
0.66724604
0.6673637
0.66748065
0.6675969
0.6677124
0.6678271
0.6679412
0.6680546
0.6681672
0.6682791
0.6683903
0.6685008
0.6686105
0.66871953
0.6688279
0.6689355
0.66904235
0.6691485
0.66925395
0.6693587
0.6694627
0.669566
0.66966856
0.6697704
0.6698715
0.66997194
0.67007166
0.6701706
0.6702689
0.6703664
0.6704632
0.67055935
0.6706547
0.67074937
0.67084336
0.6709366
0.6710291
0.6711209
0.67121196
0.6713023
0.67139196
0.67148083
0.67156905
0.67165655
0.67174333
0.67182934
0.6719147
0.6719993
0.6720832
0.67216635
0.67224884
0.67233056
0.67241156
0.67249185
0.6725714
0.67265034
0.6727285
0.6728059
0.67288256
0.67295855
0.67303383
0.6731084
0.67318225
0.6732553
0.67332774
0.67339945
0.6734704
0.6735406
0.67361015
0.67367893
0.67374706
0.6738144
0.67388105
0.673947
0.6740122
0.6740767
0.67414045
0.6742035
0.67426586
0.6743275
0.6743884
0.67444855
0.67450804
0.6745668
0.6746248
0.67468214
0.6747387
0.6747946
0.67484975
0.67490417
0.6749579
0.6750109
0.6750632
0.67511475
0.6751656
0.6752157
0.67526513
0.67531383
0.67536175
0.675409
0.6754556
0.6755014
0.67554647
0.6755909
0.6756345
0.6756775
0.6757197
0.67576116
0.675802
0.67584205
0.6758814
0.67592
0.6759579
0.6759951
0.6760316
0.67606735
0.6761024
0.67613673
0.67617035
0.67620325
0.6762354
0.67626685
0.67629755
0.6763276
0.67635685
0.67638546
0.6764133
0.6764404
0.6764669
0.6764926
0.67651755
0.6765418
0.67656535
0.6765882
0.6766103
0.6766317
0.6766524
0.6766723
0.67669153
0.67671007
0.67672783
0.67674494
0.67676127
0.67677695
0.67679185
0.6768061
0.67681956
0.6768323
0.67684436
0.6768557
0.6768663
0.67687625
0.67688537
0.67689383
0.6769016
0.6769086
0.67691493
0.67692053
0.67692536
0.67692953
0.67693293
0.6769357
0.67693764
0.67693895
0.6769395
0.6769393
0.6769385
0.67693686
0.67693454
0.6769315
0.67692775
0.6769233
0.6769181
0.6769122
0.6769056
0.6768982
0.67689013
0.6768814
0.67687184
0.67686164
0.6768507
0.67683905
0.67682666
0.67681354
0.6767998
0.67678523
0.67677
0.676754
0.6767373
0.6767199
0.6767018
0.67668295
0.6766634
0.67664313
0.67662215
0.6766004
0.676578
0.67655486
0.67653096
0.6765064
0.67648107
0.6764551
0.6764283
0.67640084
0.67637265
0.6763438
0.6763142
0.67628384
0.6762528
0.676221
0.6761885
0.6761553
0.67612135
0.6760867
0.6760514
0.67601526
0.6759785
0.675941
0.6759027
0.6758638
0.6758241
0.6757837
0.6757426
0.6757008
0.6756582
0.67561495
0.67557096
0.67552626
0.67548084
0.6754347
0.67538786
0.6753403
0.67529196
0.67524296
0.67519325
0.67514277
0.6750916
0.6750397
0.67498714
0.6749338
0.6748798
0.674825
0.6747695
0.6747133
0.6746564
0.67459875
0.6745404
0.67448133
0.67442155
0.67436105
0.67429984
0.6742379
0.6741752
0.67411184
0.67404777
0.6739829
0.6739174
0.67385113
0.67378414
0.6737165
0.67364806
0.6735789
0.67350906
0.67343855
0.67336726
0.67329526
0.67322254
0.6731491
0.6730749
0.67300004
0.67292446
0.67284817
0.6727711
0.6726934
0.6726149
0.6725357
0.6724558
0.6723752
0.67229384
0.67221177
0.67212903
0.6720455
0.6719613
0.6718764
0.6717907
0.67170435
0.67161727
0.6715295
0.6714409
0.6713517
0.6712617
0.671171
0.67107964
0.67098755
0.6708947
0.67080116
0.67070687
0.67061186
0.6705162
0.67041975
0.6703226
0.6702247
0.67012614
0.67002684
0.66992706
0.66982675
0.66972595
0.6696246
0.6695228
0.66942054
0.6693178
0.66921455
0.6691108
0.66900647
0.66890174
0.6687965
0.66869074
0.6685845
0.6684778
0.6683706
0.66826284
0.66815466
0.66804594
0.66793674
0.66782707
0.66771686
0.66760623
0.667495
0.6673834
0.6672712
0.66715854
0.6670454
0.6669318
0.66681767
0.66670305
0.6665879
0.6664723
0.6663562
0.66623956
0.6661225
0.6660049
0.6658868
0.66576827
0.6656492
0.6655296
0.66540956
0.665289
0.665168
0.66504645
0.6649244
0.6648019
0.6646789
0.6645553
0.66443133
0.6643068
0.6641818
0.66405636
0.66393036
0.6638039
0.6636769
0.6635495
0.6634215
0.66329306
0.66316414
0.6630347
0.66290474
0.6627743
0.66264343
0.662512
0.6623801
0.6622477
0.6621148
0.6619814
0.66184753
0.6617132
0.6615783
0.66144294
0.6613071
0.6611707
0.66103387
0.66089654
0.66075873
0.6606204
0.6604816
0.6603423
0.66020244
0.66006213
0.65992135
0.6597801
0.6596383
0.659496
0.65935326
0.65921
0.65906626
0.658922
0.65877724
0.65863204
0.6584863
0.6583401
0.65819335
0.6580461
0.6578984
0.65775025
0.65760154
0.65745234
0.6573027
0.65715253
0.65700185
0.6568507
0.65669906
0.6565469
0.65639424
0.6562411
0.65608746
0.6559334
0.65577877
0.6556236
0.65546805
0.65531194
0.65515536
0.65499824
0.6548407
0.65468264
0.654524
0.654365
0.65420544
0.6540454
0.6538848
0.65372384
0.6535623
0.65340024
0.65323776
0.65307474
0.65291125
0.6527473
0.65258276
0.6524178
0.6522523
0.6520863
0.65191984
0.6517529
0.65158546
0.6514175
0.65124905
0.65108013
0.65091074
0.6507408
0.6505704
0.65039945
0.6502281
0.6500562
0.6498838
0.6497109
0.6495375
0.64936364
0.6491893
0.6490144
0.64883906
0.6486632
0.6484869
0.64831007
0.64813274
0.64795494
0.6477766
0.6475978
0.6474185
0.64723873
0.6470584
0.64687765
0.6466964
0.6465146
0.6463323
0.6461496
0.64596635
0.6457826
0.64559835
0.64541364
0.6452284
0.64504266
0.64485645
0.6446698
0.64448255
0.64429486
0.6441067
0.643918
0.6437288
0.64353913
0.643349
0.6431583
0.64296716
0.64277554
0.6425834
0.6423908
0.64219767
0.642004
0.64180994
0.64161533
0.6414202
0.6412246
0.6410285
0.64083195
0.6406349
0.6404373
0.64023924
0.6400407
0.6398416
0.6396421
0.6394421
0.6392415
0.6390405
0.638839
0.638637
0.63843447
0.63823146
0.63802797
0.637824
0.6376195
0.6374146
0.63720906
0.6370031
0.63679665
0.6365897
0.6363823
0.6361743
0.63596594
0.63575697
0.6355476
0.63533765
0.63512725
0.63491637
0.63470495
0.6344931
0.63428074
0.63406783
0.63385445
0.6336406
0.63342625
0.63321143
0.6329961
0.63278025
0.6325639
0.6323471
0.6321298
0.631912
0.63169366
0.63147485
0.63125557
0.6310358
0.6308155
0.63059473
0.6303735
0.63015175
0.6299295
0.62970674
0.62948346
0.62925977
0.62903553
0.6288108
0.6285856
0.62835985
0.62813365
0.627907
0.62767977
0.62745214
0.6272239
0.62699527
0.6267661
0.6265364
0.6263063
0.6260756
0.6258445
0.62561285
0.62538075
0.6251481
0.624915
0.6246814
0.6244473
0.6242127
0.6239776
0.62374204
0.62350595
0.6232694
0.62303233
0.62279475
0.62255675
0.62231815
0.62207913
0.6218396
0.62159956
0.62135905
0.62111807
0.62087655
0.62063456
0.620392
0.6201491
0.6199056
0.61966157
0.61941713
0.61917216
0.6189267
0.6186808
0.6184343
0.61818737
0.61793995
0.617692
0.6174436
0.6171947
0.61694527
0.6166954
0.616445
0.6161941
0.6159427
0.6156908
0.61543846
0.6151856
0.61493224
0.61467844
0.61442405
0.61416924
0.6139139
0.6136581
0.6134018
0.61314493
0.6128876
0.61262983
0.61237156
0.61211276
0.6118535
0.6115937
0.61133343
0.61107266
0.6108114
0.6105497
0.6102874
0.6100247
0.6097615
0.6094977
0.60923356
0.60896885
0.6087036
0.60843796
0.60817176
0.60790503
0.6076379
0.6073702
0.60710204
0.6068334
0.6065642
0.6062946
0.60602444
0.6057538
0.60548264
0.605211
0.6049389
0.6046663
0.6043932
0.6041196
0.60384554
0.60357094
0.60329586
0.6030203
0.6027442
0.60246766
0.6021906
0.60191303
0.60163504
0.6013565
0.60107744
0.60079795
0.6005179
0.6002374
0.5999564
0.59967494
0.59939295
0.5991104
0.5988275
0.598544
0.59826005
0.59797555
0.59769064
0.5974052
0.5971192
0.5968328
0.5965459
0.59625846
0.5959705
0.59568214
0.59539324
0.59510386
0.59481394
0.59452355
0.5942327
0.59394133
0.59364945
0.5933571
0.59306425
0.5927709
0.5924771
0.5921827
0.5918879
0.59159255
0.5912968
0.59100044
0.59070367
0.59040636
0.5901086
0.5898103
0.5895117
0.5892146
0.5889195
0.58862644
0.5883354
0.5880463
0.58775926
0.58747417
0.5871911
0.58691007
0.586631
0.58635396
0.5860789
0.58580583
0.58553475
0.5852657
0.58499867
0.5847336
0.58447057
0.5842095
0.58395046
0.58369344
0.5834384
0.5831853
0.5829343
0.58268523
0.58243823
0.5821932
0.5819501
0.58170915
0.5814701
0.5812331
0.58099806
0.580765
0.580534
0.580305
0.58007795
0.57985294
0.5796299
0.5794089
0.5791899
0.5789729
0.5787579
0.57854486
0.57833385
0.5781248
0.5779178
0.57771283
0.5775098
0.57730883
0.5771098
0.5769128
0.57671785
0.57652485
0.5763339
0.5761449
0.5759579
0.5757729
0.5755899
0.57540894
0.57522994
0.575053
0.574878
0.574705
0.57453406
0.5743651
0.57419807
0.57403314
0.5738701
0.5737092
0.5735502
0.5733932
0.5732383
0.5730853
0.5729344
0.57278544
0.57263845
0.5724935
0.57235056
0.5722096
0.57207066
0.5719337
0.57179874
0.5716658
0.5715349
0.57140595
0.571279
0.57115406
0.5710311
0.57091016
0.57079124
0.5706743
0.5705594
0.57044643
0.5703355
0.5702266
0.5701197
0.5700148
0.56991184
0.5698109
0.569712
0.56961507
0.5695202
0.56942725
0.56933635
0.5692474
0.5691605
0.56907564
0.56899273
0.5689118
0.56883293
0.568756
0.5686811
0.5686082
0.5685373
0.56846845
0.5684015
0.56833667
0.5682738
0.56821287
0.568154
0.5680971
0.5680422
0.56798935
0.56793845
0.5678896
0.5678427
0.56779784
0.567755
0.5677141
0.56767523
0.56763834
0.56760347
0.5675706
0.56753975
0.5675109
0.567484
0.56745917
0.56743634
0.5674155
0.56739664
0.5673798
0.56736493
0.56735206
0.5673412
0.5673324
0.56732553
0.5673207
0.56731784
0.567317
0.5673182
0.56732136
0.56732655
0.5673337
0.5673429
0.567354
0.5673672
0.5673824
0.56739956
0.56741875
0.5674399
0.5674631
0.56748825
0.56751543
0.56754464
0.5675758
0.567609
0.56764424
0.56768143
0.5677206
0.5677618
0.567805
0.5678502
0.5678974
0.5679466
0.5679978
0.568051
0.56810623
0.5681634
0.56822264
0.56828386
0.56834704
0.56841224
0.5684795
0.5685487
0.5686199
0.56869316
0.5687684
0.56884557
0.56892484
0.569006
0.5690893
0.5691745
0.5692617
0.56935096
0.5694422
0.56953543
0.5696307
0.5697279
0.56982714
0.5699284
0.57003164
0.5701369
0.57024413
0.5703534
0.5704647
0.5705779
0.57069314
0.57081044
0.5709297
0.57105094
0.5711742
0.57129943
0.57142675
0.571556
0.5716873
0.57182056
0.5719558
0.57209307
0.57223237
0.5723736
0.5725169
0.5726622
0.57280946
0.57295877
0.57311004
0.57326335
0.5734186
0.5735759
0.5737352
0.57389647
0.5740598
0.57422507
0.5743924
0.57456166
0.57473296
0.5749063
0.5750816
0.57525885
0.5754382
0.57561946
0.5758028
0.5759881
0.57617545
0.57636476
0.576556
0.5767494
0.5769447
0.577142
0.5773413
0.57754266
0.577746
0.5779513
0.5781586
0.57836795
0.5785793
0.57879263
0.579008
0.5792253
0.57944465
0.579666
0.57988936
0.58011466
0.580342
0.58057135
0.58080274
0.5810361
0.5812714
0.58150876
0.5817481
0.58198947
0.58223283
0.5824782
0.5827256
0.5829749
0.5832263
0.58347964
0.58373505
0.5839924
0.58425176
0.5845131
0.5847765
0.5850419
0.58530927
0.5855786
0.58585006
0.5861234
0.5863988
0.5866762
0.58695555
0.58723694
0.58752036
0.58780575
0.58809316
0.58838254
0.58867395
0.5889673
0.5892627
0.58956015
0.58985955
0.59016097
0.59046435
0.59076977
0.59107715
0.59138656
0.591698
0.5920114
0.5923268
0.5926442
0.59296364
0.5932851
0.5936085
0.59393394
0.59426135
0.5945908
0.5949222
0.5952556
0.59559107
0.5959285
0.59626794
0.59660935
0.5969528
0.59729826
0.5976457
0.59799516
0.5983466
0.59870005
0.59905547
0.5994129
0.5997724
0.60013384
0.6004973
0.60086274
0.6012302
0.6015997
0.60197115
0.6023446
0.6027201
0.6030975
0.603477
0.6038585
0.6042419
0.60462743
0.60501486
0.6054044
0.6057958
0.6061893
0.6065848
0.6069823
0.60738176
0.60778326
0.6081867
0.6085922
0.6089997
0.6094092
0.60982066
0.6102342
0.6106497
0.6110672
0.6114867
0.6119082
0.6123317
0.6127572
0.6131847
0.6136142
0.61404574
0.61447924
0.6149147
0.6153523
0.6157918
0.6162333
0.6166768
0.61712235
0.61756986
0.6180194
0.6184709
0.61892444
0.61937994
0.61983746
0.620297
0.62075853
0.6212221
0.62168765
0.6221552
0.6226247
0.6230962
0.6235698
0.6240453
0.62452286
0.62500244
0.625484
0.62596756
0.6264531
0.62694067
0.6274302
0.62792176
0.62841535
0.6289109
0.6294084
0.629908
0.6304096
0.63091314
0.6314187
0.6319263
0.6324356
0.6329442
0.6334512
0.63395673
0.6344606
0.63496304
0.6354639
0.63596314
0.6364609
0.63695717
0.6374518
0.63794494
0.6384365
0.63892657
0.639415
0.639902
0.6403874
0.6408712
0.64135355
0.6418343
0.64231354
0.6427913
0.6432674
0.64374197
0.64421505
0.6446865
0.6451565
0.64562494
0.6460918
0.6465571
0.6470209
0.64748317
0.64794385
0.648403
0.64886063
0.64931667
0.6497712
0.65022415
0.6506756
0.6511255
0.65157384
0.65202063
0.6524659
0.6529096
0.6533518
0.6537924
0.6542315
0.654669
0.655105
0.65553945
0.65597236
0.6564037
0.6568335
0.6572618
0.6576885
0.6581137
0.6585373
0.65895945
0.65937996
0.659799
0.66021645
0.6606324
0.66104674
0.66145957
0.66187084
0.66228056
0.6626888
0.6630954
0.66350055
0.6639041
0.6643061
0.6647066
0.6651055
0.6655029
0.66589874
0.666293
0.6666858
0.667077
0.6674667
0.6678548
0.6682414
0.6686264
0.6690099
0.6693919
0.66977227
0.6701511
0.6705284
0.6709042
0.6712784
0.6716511
0.6720222
0.67239183
0.6727599
0.6731264
0.67349136
0.67385477
0.6742166
0.67457694
0.67493576
0.67529297
0.6756487
0.6760028
0.6763554
0.6767065
0.677056
0.677404
0.6777504
0.6780953
0.67843866
0.67878044
0.6791207
0.6794594
0.6797966
0.6801322
0.6804663
0.6807988
0.6811298
0.68145925
0.68178713
0.68211347
0.6824383
0.68276155
0.6830833
0.6834035
0.68372214
0.68403924
0.6843548
0.6846688
0.6849812
0.6852921
0.6856015
0.68590933
0.68621564
0.68652034
0.68682355
0.6871252
0.6874253
0.6877239
0.6880209
0.68831635
0.68861026
0.6889027
0.6891935
0.6894828
0.6897706
0.69005674
0.6903414
0.69062454
0.6909061
0.69118613
0.69146466
0.6917416
0.69201696
0.69229084
0.6925632
0.6928339
0.69310313
0.6933708
0.69363695
0.69390154
0.6941646
0.6944261
0.69468606
0.69494444
0.69520134
0.6954567
0.6957104
0.69596267
0.69621336
0.6964625
0.6967101
0.6969562
0.6972007
0.69744366
0.6976851
0.697925
0.69816333
0.69840014
0.6986354
0.6988691
0.69910127
0.6993319
0.69956094
0.69978845
0.7000145
0.7002389
0.7004618
0.7006832
0.70090294
0.7011212
0.70133793
0.7015531
0.7017668
0.70197886
0.7021894
0.7023984
0.70260584
0.7028118
0.70301616
0.70321894
0.7034202
0.70361996
0.70381814
0.70401484
0.7042099
0.70440346
0.7045955
0.70478594
0.7049749
0.7051623
0.70534813
0.70553243
0.7057152
0.7058964
0.706076
0.7062541
0.70643073
0.70660573
0.70677924
0.7069512
0.70712155
0.7072904
0.7074577
0.7076235
0.70778775
0.7079504
0.7081115
0.70827115
0.70842916
0.7085857
0.70874065
0.708894
0.7090459
0.7091962
0.709345
0.70949227
0.70963794
0.70978206
0.7099247
0.7100657
0.71020526
0.71034324
0.7104797
0.71061456
0.7107479
0.7108797
0.7110099
0.7111386
0.7112658
0.7113914
0.7115155
0.71163803
0.711759
0.7118784
0.7119963
0.71211267
0.71222746
0.7123408
0.7124525
0.7125626
0.7126713
0.7127784
0.7128839
0.7129879
0.71309036
0.7131913
0.71329063
0.71338844
0.71348476
0.7135795
0.71367264
0.7137643
0.71385443
0.71394295
0.71402997
0.71411544
0.71419936
0.71428174
0.7143626
0.7144419
0.7145196
0.71459585
0.7146705
0.7147436
0.7148152
0.71488523
0.7149537
0.71502066
0.71508604
0.7151499
0.7152122
0.71527296
0.71533215
0.71538985
0.715446
0.7155006
0.71555364
0.71560514
0.7156551
0.7157035
0.71575034
0.71579564
0.71583945
0.71588165
0.71592236
0.7159615
0.7159991
0.7160352
0.7160697
0.71610266
0.7161341
0.71616393
0.7161923
0.71621907
0.71624434
0.716268
0.7162902
0.7163108
0.7163299
0.7163474
0.7163634
0.7163778
0.7163907
0.71640205
0.7164119
0.7164201
0.71642685
0.71643203
0.7164357
0.71643776
0.7164383
0.7164373
0.7164347
0.71643066
0.716425
0.71641785
0.7164091
0.71639884
0.71638703
0.7163737
0.7163588
0.71634233
0.7163243
0.7163048
0.71628374
0.7162611
0.71623695
0.71621126
0.71618396
0.7161552
0.71612483
0.71609294
0.7160595
0.7160246
0.71598804
0.71594995
0.7159104
0.7158692
0.7158265
0.7157823
0.7157365
0.7156892
0.7156403
0.7155899
0.7155379
0.71548444
0.71542937
0.7153728
0.7153146
0.71525496
0.71519375
0.715131
0.7150667
0.7150008
0.7149334
0.71486443
0.714794
0.7147219
0.71464837
0.7145732
0.71449655
0.71441835
0.7143386
0.7142573
0.71417445
0.71409005
0.71400416
0.71391666
0.71382767
0.7137371
0.713645
0.71355134
0.71345615
0.71335936
0.7132611
0.7131613
0.7130599
0.71295696
0.71285254
0.7127465
0.712639
0.7125299
0.7124192
0.71230704
0.71219337
0.7120789
0.7119639
0.7118483
0.7117322
0.7116155
0.71149826
0.7113805
0.7112621
0.7111432
0.7110237
0.7109037
0.7107831
0.71066195
0.71054024
0.710418
0.7102952
0.7101718
0.7100479
0.70992345
0.7097984
0.7096728
0.7095466
0.7094199
0.70929265
0.70916486
0.70903647
0.70890754
0.708778
0.70864797
0.7085174
0.70838624
0.7082545
0.7081222
0.7079894
0.707856
0.70772207
0.70758754
0.7074525
0.7073169
0.70718074
0.707044
0.7069067
0.7067689
0.70663047
0.70649153
0.706352
0.7062119
0.7060713
0.7059301
0.7057884
0.7056461
0.7055032
0.7053598
0.7052159
0.70507133
0.70492625
0.70478064
0.7046344
0.7044877
0.7043404
0.7041925
0.7040441
0.7038951
0.7037456
0.7035955
0.70344484
0.7032937
0.70314187
0.7029896
0.7028367
0.70268327
0.7025293
0.70237476
0.70221967
0.702064
0.7019078
0.701751
0.7015937
0.7014358
0.7012774
0.70111835
0.70095885
0.7007987
0.70063806
0.7004768
0.70031506
0.7001527
0.69998986
0.69982636
0.6996624
0.6994978
0.6993327
0.699167
0.6990008
0.698834
0.69866663
0.6984987
0.6983303
0.6981613
0.6979917
0.69782156
0.6976509
0.69747967
0.6973078
0.6971355
0.6969626
0.69678915
0.6966151
0.6964405
0.6962654
0.6960897
0.69591343
0.6957366
0.69555926
0.69538134
0.6952028
0.69502383
0.69484425
0.69466406
0.6944834
0.6943021
0.6941203
0.6939379
0.693755
0.6935715
0.69338745
0.69320285
0.69301766
0.692832
0.6926457
0.69245887
0.6922715
0.69208354
0.69189507
0.691706
0.6915164
0.6913262
0.69113547
0.6909442
0.6907524
0.69056
0.69036704
0.6901735
0.68997943
0.6897848
0.6895897
0.68939394
0.6891976
0.6890008
0.6888034
0.6886054
0.6884069
0.6882078
0.6880082
0.687808
0.6876072
0.68740594
0.68720406
0.6870017
0.6867987
0.6865952
0.6863911
0.68618643
0.6859813
0.6857755
0.68556917
0.68536234
0.6851549
0.6849469
0.6847384
0.6845293
0.6843196
0.6841094
0.6838986
0.6836873
0.68347543
0.683263
0.68305004
0.6828365
0.6826224
0.68240774
0.6821925
0.68197674
0.6817604
0.68154347
0.68132603
0.68110806
0.6808895
0.6806704
0.6804507
0.6802305
0.68000966
0.67978835
0.67956644
0.679344
0.67912096
0.67889744
0.67867327
0.6784486
0.6782234
0.6779976
0.6777712
0.6775443
0.67731684
0.67708886
0.6768603
0.6766311
0.67640144
0.6761712
0.6759404
0.675709
0.6754771
0.6752446
0.6750116
0.674778
0.67454386
0.67430913
0.6740739
0.6738381
0.6736017
0.67336476
0.6731273
0.67288923
0.67265064
0.6724115
0.6721718
0.6719315
0.6716907
0.6714493
0.67120737
0.6709649
0.6707218
0.6704782
0.670234
0.66998935
0.6697441
0.6694982
0.6692518
0.66900486
0.6687574
0.6685093
0.6682607
0.66801155
0.6677618
0.6675115
0.66726065
0.66700923
0.6667573
0.6665048
0.6662517
0.6659981
0.6657439
0.66548914
0.66523385
0.664978
0.6647216
0.6644646
0.6642071
0.663949
0.6636904
0.66343117
0.6631714
0.6629111
0.6626502
0.66238886
0.66212684
0.66186434
0.66160125
0.66133755
0.6610734
0.6608086
0.6605433
0.6602774
0.660011
0.659744
0.65947646
0.65920836
0.6589397
0.6586705
0.6584007
0.6581304
0.6578595
0.65758806
0.657316
0.6570435
0.6567704
0.6564967
0.6562225
0.65594774
0.6556724
0.65539646
0.65512
0.65484303
0.65456545
0.65428734
0.6540087
0.65372944
0.65344965
0.6531693
0.65288836
0.6526069
0.6523249
0.6520423
0.6517592
0.6514755
0.65119123
0.65090644
0.6506211
0.6503352
0.65004873
0.6497617
0.6494741
0.64918596
0.6488973
0.648608
0.6483182
0.64802784
0.6477369
0.64744544
0.6471534
0.6468608
0.64656764
0.6462739
0.64597964
0.64568484
0.64538944
0.6450935
0.644797
0.6445
0.6442024
0.6439042
0.64360553
0.64330626
0.6430064
0.64270604
0.6424051
0.64210355
0.6418015
0.64149886
0.6411957
0.64089197
0.6405877
0.64028287
0.63997746
0.6396715
0.639365
0.63905793
0.6387503
0.6384421
0.6381334
0.6378241
0.63751423
0.6372038
0.63689286
0.63658136
0.6362693
0.63595665
0.6356434
0.6353297
0.63501537
0.63470054
0.6343851
0.63406914
0.6337526
0.6334355
0.63311785
0.6327997
0.6324809
0.6321616
0.6318417
0.6315213
0.6312003
0.63087875
0.63055664
0.630234
0.6299108
0.62958705
0.6292627
0.62893784
0.6286124
0.6282864
0.62795985
0.62763274
0.6273051
0.62697685
0.62664807
0.62631875
0.62598884
0.6256584
0.6253274
0.6249958
0.6246637
0.62433106
0.6239978
0.623664
0.6233297
0.6229948
0.6226593
0.6223233
0.62198675
0.6216496
0.6213119
0.62097365
0.620635
0.62029785
0.6199629
0.61963016
0.61929965
0.61897135
0.6186453
0.6183214
0.6179998
0.6176804
0.6173632
0.6170482
0.61673546
0.6164249
0.61611664
0.6158105
0.61550665
0.615205
0.6149056
0.61460835
0.61431336
0.6140206
0.61373
0.6134417
0.6131556
0.6128717
0.61259
0.6123105
0.6120333
0.6117583
0.6114855
0.61121494
0.61094654
0.6106804
0.6104165
0.6101548
0.6098953
0.60963804
0.609383
0.6091302
0.60887957
0.6086312
0.608385
0.60814106
0.60789937
0.6076599
0.6074226
0.6071875
0.60695463
0.606724
0.6064956
0.6062694
0.6060455
0.6058237
0.6056042
0.60538685
0.6051718
0.6049589
0.60474825
0.6045398
0.60433364
0.6041296
0.60392785
0.6037283
0.60353094
0.60333586
0.603143
0.6029523
0.60276383
0.60257757
0.60239357
0.6022118
0.6020322
0.60185486
0.6016797
0.60150677
0.60133606
0.6011676
0.6010013
0.6008373
0.60067546
0.6005159
0.6003585
0.60020334
0.6000504
0.59989965
0.5997512
0.5996049
0.59946084
0.599319
0.5991794
0.59904194
0.59890676
0.5987738
0.59864306
0.59851456
0.5983882
0.59826416
0.59814227
0.59802264
0.5979052
0.59779
0.597677
0.59756625
0.59745765
0.5973513
0.59724724
0.5971453
0.59704566
0.5969482
0.59685296
0.59676
0.5966692
0.5965806
0.59649426
0.5964101
0.5963282
0.5962485
0.596171
0.59609574
0.5960227
0.5959519
0.5958833
0.5958169
0.5957528
0.59569085
0.5956311
0.5955736
0.59551835
0.5954653
0.59541446
0.5953658
0.5953194
0.5952752
0.59523326
0.5951935
0.595156
0.5951207
0.5950876
0.5950568
0.5950281
0.5950017
0.5949775
0.5949555
0.5949357
0.5949182
0.5949029
0.59488976
0.59487885
0.59487015
0.5948637
0.5948595
0.5948575
0.5948577
0.59486014
0.5948648
0.59487164
0.59488076
0.594892
0.59490556
0.5949213
0.5949393
0.59495944
0.59498185
0.59500647
0.59503335
0.5950624
0.59509367
0.59512717
0.5951629
0.59520084
0.595241
0.5952834
0.595328
0.5953748
0.5954239
0.59547514
0.5955286
0.5955843
0.5956422
0.59570235
0.5957647
0.5958293
0.59589607
0.5959651
0.5960363
0.5961098
0.59618545
0.59626335
0.59634346
0.59642583
0.59651035
0.59659714
0.5966861
0.5967773
0.5968708
0.59696645
0.5970643
0.5971644
0.5972667
0.5973712
0.597478
0.5975869
0.59769815
0.5978115
0.59792715
0.598045
0.5981651
0.59828734
0.59841186
0.5985386
0.59866756
0.5987987
0.5989321
0.5990677
0.59920555
0.59934556
0.59948784
0.5996323
0.599779
0.59992796
0.60007906
0.6002324
0.600388
0.6005458
0.60070586
0.6008681
0.60103256
0.6011992
0.6013681
0.60153925
0.6017126
0.6018881
0.6020659
0.60224587
0.60242814
0.60261256
0.6027992
0.60298806
0.60317916
0.60337245
0.603568
0.6037658
0.60396576
0.60416794
0.6043723
0.604579
0.6047878
0.6049989
0.60521215
0.6054277
0.6056454
0.60586536
0.6060875
0.6063119
0.60653853
0.60676736
0.6069984
0.6072317
0.6074672
0.6077049
0.6079448
0.6081869
0.6084313
0.60867786
0.60892665
0.6091777
0.6094309
0.6096864
0.6099441
0.610204
0.6104661
0.61073047
0.610997
0.6112658
0.6115368
0.61180997
0.61208546
0.6123631
0.61264294
0.61292505
0.61320937
0.61349595
0.6137847
0.61407566
0.61436886
0.61466426
0.61496186
0.61526173
0.6155638
0.6158681
0.61617464
0.61648333
0.6167943
0.61710745
0.6174229
0.61774045
0.6180603
0.61838233
0.61870664
0.6190331
0.6193618
0.61969274
0.6200259
0.62036127
0.62069887
0.6210387
0.6213807
0.6217249
0.6220714
0.6224201
0.62277097
0.6231241
0.6234794
0.623837
0.62419677
0.6245588
0.624923
0.62528944
0.6256581
0.62602895
0.6264021
0.6267774
0.62715495
0.6275347
0.6279167
0.62830085
0.62868726
0.62907594
0.6294668
0.62985986
0.63025516
0.63065267
0.6310524
0.63145435
0.6318585
0.6322649
0.63267356
0.63308436
0.6334974
0.6339127
0.6343302
0.6347499
0.63517183
0.635596
0.6360223
0.63645095
0.63688177
0.6373148
0.63775
0.63818747
0.6386272
0.6390691
0.6395132
0.6399596
0.6404081
0.6408589
0.6413119
0.64176714
0.64222455
0.6426842
0.6431461
0.64361024
0.6440765
0.6445451
0.64501584
0.64548886
0.645964
0.64644146
0.6469211
0.64740294
0.64788705
0.6483733
0.6488618
0.64935255
0.64984554
0.65034074
0.65083814
0.65133774
0.65183955
0.65234363
0.6528499
0.6533584
0.6538691
0.65438205
0.6548972
0.6554146
0.65593415
0.65645593
0.65698
0.6575062
0.65803474
0.6585654
0.6590983
0.65963346
0.6601708
0.66071033
0.66125214
0.66179615
0.66234237
0.66289085
0.6634415
0.6639944
0.66454947
0.66510665
0.6656631
0.66621774
0.6667705
0.66732144
0.6678705
0.66841775
0.66896313
0.66950667
0.67004836
0.6705882
0.6711262
0.67166233
0.6721966
0.6727291
0.6732597
0.6737884
0.6743154
0.67484045
0.67536366
0.675885
0.67640454
0.6769222
0.6774381
0.67795205
0.6784642
0.67897445
0.6794829
0.6799895
0.68049425
0.68099713
0.6814982
0.6819974
0.68249476
0.68299025
0.68348396
0.68397576
0.68446577
0.68495387
0.6854401
0.6859246
0.68640715
0.6868879
0.6873668
0.6878438
0.688319
0.68879235
0.6892639
0.6897335
0.69020134
0.6906673
0.6911314
0.6915937
0.6920541
0.6925127
0.6929694
0.6934243
0.69387734
0.6943285
0.69477785
0.6952253
0.69567096
0.6961148
0.69655675
0.6969968
0.6974351
0.6978715
0.698306
0.69873875
0.69916964
0.69959867
0.70002586
0.70045114
0.7008746
0.70129627
0.70171607
0.702134
0.7025501
0.70296437
0.7033767
0.70378727
0.704196
0.70460284
0.70500785
0.705411
0.70581234
0.7062118
0.7066094
0.7070052
0.70739913
0.7077912
0.70818144
0.7085698
0.70895636
0.70934105
0.70972395
0.71010494
0.7104841
0.7108614
0.71123683
0.71161044
0.7119822
0.71235216
0.7127202
0.7130864
0.7134508
0.7138133
0.71417403
0.71453285
0.7148898
0.715245
0.7155983
0.7159497
0.71629936
0.7166471
0.716993
0.7173371
0.71767926
0.7180196
0.71835816
0.7186948
0.71902966
0.7193626
0.7196938
0.72002304
0.72035044
0.72067606
0.7209998
0.7213217
0.7216418
0.72195995
0.72227633
0.7225908
0.7229035
0.72321427
0.72352326
0.7238304
0.72413564
0.7244391
0.7247407
0.7250404
0.7253383
0.72563434
0.7259285
0.72622085
0.72651136
0.72679996
0.7270868
0.72737175
0.7276549
0.72793615
0.7282155
0.7284931
0.7287688
0.7290427
0.72931474
0.72958493
0.7298533
0.7301197
0.73038435
0.73064715
0.7309081
0.7311672
0.73142445
0.73167986
0.7319334
0.7321851
0.732435
0.732683
0.73292917
0.7331735
0.73341596
0.7336566
0.73389536
0.73413235
0.73436743
0.73460066
0.73483205
0.7350616
0.7352893
0.7355151
0.7357392
0.7359613
0.7361816
0.73640007
0.7366167
0.7368315
0.7370444
0.73725545
0.7374647
0.7376721
0.7378776
0.7380813
0.73828316
0.73848313
0.7386813
0.7388776
0.739072
0.73926467
0.7394554
0.73964435
0.7398314
0.7400166
0.7402
0.7403815
0.7405612
0.740739
0.740915
0.7410891
0.7412614
0.7414319
0.74160045
0.7417672
0.7419321
0.7420952
0.7422564
0.7424157
0.74257326
0.7427289
0.7428827
0.7430347
0.74318486
0.7433331
0.74347955
0.74362415
0.74376684
0.74390775
0.7440468
0.744184
0.7443194
0.74445283
0.7445845
0.7447143
0.7448423
0.7449684
0.7450927
0.74521506
0.74533564
0.7454544
0.74557126
0.7456863
0.7457995
0.7459108
0.7460203
0.74612796
0.74623376
0.7463377
0.7464398
0.74654007
0.7466385
0.74673504
0.74682975
0.7469226
0.7470136
0.74710286
0.7471902
0.74727565
0.7473593
0.74744105
0.747521
0.74759907
0.74767536
0.74774975
0.7478223
0.747893
0.7479619
0.7480289
0.748094
0.7481573
0.74821883
0.74827844
0.7483362
0.74839216
0.7484462
0.74849844
0.74854887
0.7485974
0.7486441
0.74868894
0.7487319
0.7487731
0.7488124
0.74884987
0.74888545
0.74891925
0.74895114
0.74898124
0.74900943
0.74903584
0.74906033
0.74908304
0.7491039
0.74912286
0.74914
0.7491553
0.74916875
0.7491804
0.7491901
0.749198
0.7492041
0.7492083
0.74921066
0.7492112
0.7492099
0.74920666
0.74920166
0.7491948
0.7491861
0.7491755
0.7491631
0.74914885
0.74913275
0.7491148
0.749095
0.7490733
0.74904984
0.7490245
0.74899733
0.7489683
0.7489374
0.7489047
0.74887013
0.7488337
0.74879545
0.74875534
0.7487134
0.74866956
0.7486239
0.7485764
0.74852705
0.74847585
0.7484228
0.7483679
0.74831116
0.7482526
0.7481922
0.7481299
0.74806577
0.7479998
0.74793196
0.7478623
0.7477908
0.74771744
0.7476422
0.74756515
0.7474863
0.7474055
0.7473229
0.7472385
0.7471522
0.74706405
0.7469741
0.74688226
0.74678856
0.7466931
0.7465957
0.74649644
0.7463954
0.7462925
0.74618775
0.7460811
0.7459727
0.74586236
0.74575025
0.7456362
0.7455204
0.7454027
0.7452832
0.7451618
0.74503857
0.74491346
0.74478656
0.7446578
0.74452716
0.7443947
0.7442604
0.74412423
0.74398625
0.74384636
0.7437047
0.74356115
0.7434158
0.7432685
0.7431194
0.7429685
0.74281573
0.74266106
0.7425046
0.7423463
0.7421861
0.7420241
0.7418602
0.7416945
0.74152696
0.74135756
0.7411863
0.7410132
0.7408383
0.7406615
0.74048287
0.7403024
0.74012005
0.7399359
0.73974985
0.739562
0.73937374
0.7391857
0.7389978
0.7388101
0.7386226
0.73843527
0.7382481
0.73806113
0.7378744
0.73768777
0.7375013
0.7373151
0.73712903
0.7369432
0.7367575
0.73657197
0.73638666
0.7362015
0.7360166
0.7358318
0.7356472
0.7354628
0.73527855
0.7350945
0.73491067
0.73472697
0.73454344
0.73436016
0.734177
0.73399407
0.73381126
0.7336287
0.7334463
0.7332641
0.73308206
0.7329002
0.7327185
0.73253703
0.7323557
0.7321746
0.7319936
0.73181283
0.7316323
0.73145187
0.7312717
0.7310916
0.7309118
0.73073214
0.7305526
0.7303733
0.7301942
0.7300153
0.7298365
0.72965795
0.72947955
0.72930133
0.72912335
0.7289455
0.7287678
0.72859037
0.72841305
0.72823596
0.728059
0.72788227
0.7277057
0.7275293
0.7273531
0.7271771
0.72700125
0.7268256
0.7266501
0.7264748
0.72629976
0.7261248
0.72595006
0.72577554
0.72560114
0.725427
0.7252529
0.7250791
0.7249055
0.724732
0.7245587
0.7243856
0.7242127
0.72404
0.7238674
0.72369504
0.7235229
0.7233509
0.72317904
0.72300744
0.72283596
0.7226647
0.7224936
0.7223227
0.72215194
0.7219814
0.72181106
0.7216409
0.7214709
0.7213011
0.72113144
0.720962
0.7207927
0.7206237
0.72045475
0.720286
0.7201175
0.7199491
0.719781
0.71961296
0.71944517
0.71927756
0.71911013
0.7189428
0.71877575
0.71860886
0.71844214
0.71827567
0.7181093
0.71794313
0.71777713
0.7176114
0.71744573
0.7172803
0.71711504
0.71695
0.7167851
0.7166204
0.7164559
0.71629155
0.7161274
0.7159634
0.7157996
0.715636
0.7154726
0.7153093
0.71514624
0.7149834
0.7148207
0.7146582
0.71449584
0.7143337
0.71417177
0.71400994
0.71384835
0.71368694
0.7135257
0.71336466
0.7132038
0.7130431
0.7128826
0.71272224
0.7125621
0.71240216
0.71224236
0.7120828
0.71192336
0.71176416
0.7116051
0.7114462
0.71128756
0.71112907
0.71097076
0.7108126
0.7106547
0.7104969
0.7103393
0.7101819
0.71002465
0.70986766
0.7097108
0.7095541
0.7093976
0.7092413
0.70908517
0.70892924
0.7087735
0.70861787
0.7084625
0.70830727
0.70815223
0.7079974
0.7078427
0.7076883
0.70753396
0.7073798
0.70722586
0.70707214
0.70691854
0.7067652
0.706612
0.7064589
0.7063061
0.70615345
0.706001
0.7058487
0.7056966
0.70554465
0.7053929
0.7052413
0.7050899
0.7049387
0.70478773
0.7046369
0.70448625
0.70433575
0.7041855
0.70403534
0.70388544
0.7037357
0.70358616
0.7034368
0.7032876
0.7031386
0.70298976
0.7028411
0.7026926
0.70254433
0.7023963
0.70224833
0.70210063
0.70195305
0.7018057
0.7016585
0.7015115
0.7013647
0.70121807
0.7010716
0.70092535
0.70077926
0.70063335
0.7004876
0.70034206
0.7001967
0.70005155
0.6999065
0.6997617
0.6996171
0.69947267
0.69932836
0.6991843
0.6990404
0.69889665
0.6987531
0.69860977
0.6984666
0.6983236
0.6981808
0.6980382
0.69789577
0.6977535
0.69761145
0.69746953
0.69732785
0.6971863
0.69704497
0.69690377
0.6967628
0.696622
0.6964814
0.696341
0.6962007
0.69606066
0.69592077
0.69578105
0.6956415
0.6955022
0.69536304
0.69522405
0.6950853
0.69494665
0.69480824
0.69467
0.6945319
0.69439405
0.69425637
0.69411886
0.6939815
0.6938444
0.6937074
0.6935706
0.69343406
0.6932976
0.69316137
0.69302535
0.69288945
0.6927538
0.69261825
0.69248295
0.6923478
0.6922128
0.69207805
0.69194347
0.69180906
0.6916748
0.6915408
0.6914069
0.6912732
0.69113976
0.6910064
0.69087327
0.69074035
0.69060755
0.690475
0.6903426
0.69021034
0.6900783
0.6899465
0.6898148
0.6896833
0.689552
0.6894209
0.6892899
0.68915915
0.68902856
0.6888982
0.68876797
0.688638
0.6885081
0.68837845
0.68824893
0.68811965
0.68799055
0.6878616
0.6877328
0.68760425
0.68747586
0.68734765
0.6872196
0.6870918
0.68696415
0.68683666
0.6867094
0.68658227
0.68645537
0.6863286
0.68620205
0.6860756
0.68594944
0.68582344
0.6856976
0.68557197
0.6854465
0.6853212
0.6851961
0.6850712
0.6849464
0.68482184
0.6846975
0.6845733
0.6844493
0.68432546
0.68420184
0.6840784
0.6839551
0.683832
0.6837091
0.68358636
0.6834638
0.68334144
0.68321925
0.68309724
0.6829754
0.68285376
0.68273234
0.68261105
0.68249
0.68236905
0.68224835
0.6821278
0.68200743
0.68188727
0.6817673
0.6816475
0.68152785
0.6814084
0.68128914
0.68117005
0.68105114
0.6809324
0.6808139
0.68069553
0.68057734
0.6804594
0.6803416
0.68022394
0.6801065
0.6799893
0.67987216
0.6797553
0.67963856
0.67952204
0.6794057
0.6792895
0.6791736
0.6790578
0.67894214
0.67882675
0.6787115
0.6785964
0.6784815
0.6783668
0.6782519
0.6781366
0.67802095
0.67790484
0.67778844
0.6776716
0.6775544
0.6774368
0.6773189
0.6772005
0.6770818
0.6769627
0.6768432
0.67672336
0.6766031
0.67648244
0.67636144
0.67624
0.67611825
0.6759961
0.6758736
0.6757507
0.67562735
0.6755037
0.67537963
0.6752552
0.67513037
0.67500514
0.67487955
0.6747536
0.67462724
0.6745005
0.6743734
0.6742459
0.674118
0.6739898
0.67386115
0.6737321
0.6736027
0.67347294
0.67334276
0.67321223
0.6730813
0.67294997
0.6728183
0.6726862
0.6725538
0.6724209
0.6722877
0.6721541
0.67202014
0.6718858
0.6717511
0.67161596
0.6714804
0.6713446
0.67120826
0.67107165
0.6709346
0.6707972
0.6706594
0.67052126
0.6703827
0.67024374
0.67010444
0.66996473
0.66982466
0.66968423
0.6695434
0.6694022
0.66926056
0.6691186
0.6689762
0.6688335
0.6686903
0.66854686
0.66840297
0.66825867
0.668114
0.667969
0.66782355
0.66767776
0.6675316
0.66738504
0.6672381
0.6670908
0.6669431
0.666795
0.66664654
0.6664977
0.66634846
0.66619885
0.6660489
0.6658985
0.66574776
0.6655966
0.6654451
0.6652932
0.6651409
0.6649883
0.6648352
0.6646818
0.664528
0.6643738
0.66421926
0.6640643
0.663909
0.6637533
0.66359717
0.6634407
0.6632839
0.66312665
0.662969
0.66281104
0.6626527
0.6624939
0.66233474
0.66217524
0.6620153
0.66185504
0.6616944
0.66153336
0.6613719
0.6612101
0.66104794
0.66088533
0.6607224
0.66055906
0.6603953
0.66023123
0.6600668
0.6599019
0.65973663
0.65957105
0.65940505
0.65923864
0.65907186
0.65890473
0.65873724
0.65856934
0.658401
0.65823233
0.6580633
0.65789384
0.657724
0.65755385
0.65738326
0.6572123
0.65704095
0.65686923
0.65669715
0.65652466
0.6563518
0.65617853
0.6560049
0.6558309
0.6556565
0.65548176
0.6553066
0.65513104
0.65495515
0.65477884
0.65460217
0.6544251
0.6542477
0.65406984
0.6538916
0.65371305
0.6535341
0.65335476
0.653175
0.65299493
0.65281445
0.65263355
0.6524523
0.6522707
0.65208864
0.65190625
0.65172344
0.65154034
0.65135676
0.6511729
0.6509885
0.65080386
0.6506188
0.65043336
0.6502475
0.6500613
0.64987475
0.64968777
0.64950037
0.6493127
0.64912456
0.64893603
0.64874715
0.6485579
0.64836824
0.6481782
0.64798784
0.64779705
0.6476059
0.6474143
0.6472224
0.6470301
0.6468374
0.64664435
0.6464509
0.64625704
0.64606285
0.64586824
0.6456733
0.6454779
0.64528215
0.64508605
0.64488953
0.64469266
0.64449537
0.6442977
0.6440997
0.6439013
0.6437025
0.6435033
0.64330375
0.64310384
0.6429035
0.6427028
0.6425017
0.6423003
0.6420984
0.6418962
0.6416936
0.64149064
0.64128727
0.64108354
0.6408794
0.6406749
0.64046997
0.6402647
0.64005905
0.639853
0.6396466
0.6394398
0.63923264
0.63902503
0.63881713
0.6386088
0.6384001
0.638191
0.63798153
0.63777167
0.63756144
0.63735086
0.63713986
0.6369285
0.6367167
0.6365046
0.6362921
0.6360792
0.63586587
0.63565224
0.6354382
0.63522375
0.635009
0.63479376
0.6345782
0.6343623
0.6341459
0.6339292
0.6337121
0.6334947
0.6332768
0.63305855
0.6328399
0.63262093
0.6324016
0.6321818
0.63196164
0.63174117
0.6315202
0.63129896
0.6310773
0.6308552
0.6306328
0.63041
0.6301868
0.6299632
0.6297393
0.62951493
0.6292902
0.6290651
0.6288396
0.62861377
0.6283875
0.6281609
0.6279339
0.6277065
0.6274787
0.6272506
0.6270221
0.62679315
0.62656385
0.6263342
0.6261041
0.6258737
0.6256429
0.6254117
0.6251801
0.62494814
0.6247158
0.62448305
0.62424994
0.62401646
0.62378263
0.6235483
0.6233137
0.6230787
0.6228433
0.6226075
0.6223714
0.62213486
0.62189794
0.62166065
0.62142295
0.6211849
0.62094647
0.62070763
0.62046844
0.6202288
0.61998886
0.61974853
0.6195078
0.6192667
0.6190252
0.6187833
0.61854106
0.6182984
0.6180554
0.617812
0.6175682
0.61732405
0.6170795
0.6168346
0.61658925
0.61634356
0.6160975
0.61585104
0.6156042
0.61535704
0.61510944
0.6148614
0.6146131
0.6143643
0.61411524
0.61386573
0.6136159
0.6133656
0.61311495
0.6128639
0.6126125
0.6123607
0.6121085
0.611856
0.6116031
0.61134976
0.6110961
0.610842
0.61058754
0.61033267
0.6100775
0.60982186
0.6095659
0.60930955
0.6090528
0.60879564
0.60853815
0.60828024
0.608022
0.60776335
0.6075043
0.6072449
0.6069851
0.6067249
0.6064644
0.60620344
0.60594213
0.6056804
0.6054183
0.6051559
0.604893
0.6046298
0.6043662
0.6041022
0.60383785
0.6035731
0.60330796
0.6030424
0.6027765
0.6025103
0.6022436
0.6019766
0.6017091
0.6014413
0.60117316
0.60090464
0.6006373
0.6003721
0.6001089
0.59984785
0.5995889
0.5993319
0.59907705
0.59882426
0.59857357
0.59832495
0.59807837
0.5978339
0.59759146
0.59735113
0.5971129
0.5968767
0.59664255
0.5964105
0.59618056
0.5959527
0.5957269
0.59550315
0.5952815
0.5950619
0.5948444
0.59462893
0.59441555
0.5942043
0.5939951
0.5937879
0.59358287
0.59337986
0.593179
0.59298015
0.59278333
0.59258866
0.592396
0.5922055
0.59201705
0.5918307
0.5916463
0.5914641
0.5912839
0.5911058
0.5909298
0.5907559
0.590584
0.5904142
0.5902465
0.59008086
0.58991724
0.5897558
0.58959633
0.58943903
0.58928376
0.5891305
0.5889794
0.58883035
0.5886834
0.5885385
0.58839566
0.5882549
0.5881163
0.5879797
0.58784515
0.5877127
0.5875823
0.587454
0.5873278
0.5872036
0.58708155
0.58696157
0.58684367
0.5867278
0.586614
0.5865023
0.5863927
0.5862852
0.5861797
0.58607626
0.58597493
0.5858757
0.58577853
0.5856834
0.58559036
0.5854994
0.58541054
0.58532375
0.585239
0.5851564
0.5850758
0.5849973
0.5849208
0.5848465
0.5847742
0.584704
0.58463585
0.5845698
0.58450586
0.5844439
0.5843841
0.5843263
0.58427066
0.5842171
0.5841655
0.58411604
0.58406866
0.58402336
0.58398014
0.58393896
0.5838999
0.5838629
0.583828
0.5837951
0.5837643
0.5837356
0.58370894
0.5836844
0.5836619
0.5836415
0.5836232
0.5836069
0.5835927
0.5835806
0.58357054
0.5835626
0.5835567
0.5835529
0.58355117
0.5835515
0.5835539
0.5835584
0.58356494
0.5835736
0.5835843
0.58359706
0.58361197
0.5836289
0.5836479
0.58366895
0.58369213
0.58371735
0.58374465
0.58377403
0.5838055
0.58383906
0.58387464
0.5839123
0.58395207
0.5839939
0.58403784
0.5840838
0.58413184
0.584182
0.5842342
0.5842885
0.58434486
0.5844033
0.5844638
0.58452636
0.584591
0.5846577
0.5847265
0.5847974
0.58487034
0.5849454
0.5850225
0.58510166
0.5851829
0.58526623
0.58535165
0.58543915
0.5855287
0.5856203
0.585714
0.58580977
0.58590764
0.58600754
0.5861096
0.58621365
0.58631974
0.586428
0.5865383
0.58665067
0.5867651
0.58688164
0.58700025
0.5871209
0.5872437
0.5873685
0.5874954
0.5876244
0.5877554
0.58788854
0.5880237
0.588161
0.58830035
0.5884417
0.58858526
0.5887308
0.58887845
0.5890282
0.58917993
0.58933383
0.58948976
0.58964777
0.58980787
0.58997005
0.5901343
0.5903006
0.590469
0.5906395
0.590812
0.5909866
0.59116334
0.5913421
0.59152293
0.59170586
0.5918908
0.5920779
0.59226704
0.59245825
0.59265155
0.5928469
0.59304434
0.59324384
0.5934454
0.5936491
0.59385484
0.5940626
0.59427255
0.5944845
0.59469855
0.5949146
0.5951328
0.59535307
0.59557545
0.59579986
0.5960263
0.5962549
0.5964855
0.59671825
0.59695303
0.59718984
0.5974288
0.5976698
0.5979129
0.59815806
0.5984053
0.59865457
0.598906
0.5991594
0.59941494
0.59967256
0.59993225
0.600194
0.60045785
0.60072374
0.6009917
0.6012618
0.6015339
0.60180813
0.6020844
0.60236275
0.6026432
0.60292566
0.6032103
0.6034969
0.60378563
0.60407645
0.6043693
0.60466427
0.6049613
0.6052604
0.60556155
0.6058648
0.6061701
0.60647756
0.606787
0.6070986
0.60741216
0.6077279
0.60804564
0.60836554
0.60868746
0.6090114
0.6093375
0.60966563
0.6099959
0.6103282
0.6106625
0.610999
0.61133754
0.6116781
0.6120208
0.61236554
0.6127123
0.61306125
0.6134122
0.61376524
0.61412036
0.6144776
0.6148369
0.6151982
0.6155616
0.6159271
0.6162947
0.6166643
0.61703604
0.6174098
0.6177857
0.61816365
0.6185436
0.61892575
0.6193099
0.61969614
0.62008446
0.6204749
0.6208673
0.62126184
0.6216585
0.62205714
0.6224579
0.6228608
0.6232657
0.62367266
0.62408173
0.6244929
0.62490606
0.6253214
0.62573874
0.6261582
0.6265797
0.62700325
0.62742895
0.6278567
0.6282865
0.6287184
0.62915236
0.62958837
0.63002646
0.63046664
0.6309089
0.63135326
0.63179964
0.63224816
0.6326987
0.63315135
0.6336061
0.6340628
0.63452166
0.63498265
0.63544565
0.6359107
0.6363779
0.6368471
0.63731843
0.6377918
0.6382672
0.6387448
0.63922435
0.6397061
0.6401898
0.64067566
0.6411635
0.64165354
0.6421456
0.6426397
0.6431359
0.6436342
0.6441345
0.644637
0.6451415
0.64564806
0.6461567
0.6466674
0.64718026
0.6476951
0.6482121
0.6487311
0.6492522
0.6497754
0.6503006
0.65082794
0.65135735
0.6518888
0.65242237
0.652958
0.65349567
0.65403545
0.6545773
0.6551212
0.65566725
0.6562153
0.65676546
0.65731764
0.65787196
0.6584283
0.6589868
0.65954727
0.6601099
0.6606746
0.6612413
0.6618101
0.6623786
0.6629455
0.6635108
0.6640744
0.66463643
0.6651968
0.6657555
0.66631263
0.6668681
0.66742194
0.6679741
0.6685247
0.6690736
0.6696209
0.67016655
0.67071056
0.67125297
0.6717937
0.6723328
0.67287034
0.6734062
0.6739404
0.674473
0.67500395
0.67553324
0.6760609
0.676587
0.6771114
0.6776342
0.6781553
0.6786748
0.6791927
0.67970896
0.6802236
0.68073654
0.6812479
0.6817576
0.6822657
0.68277216
0.68327695
0.68378013
0.68428165
0.68478155
0.68527985
0.6857765
0.6862715
