-3.516841053202648948e-02
-3.588499620139544433e-02
-3.657274825713311556e-02
-3.723065552686671137e-02
-3.785799550548250847e-02
-3.845432043674997663e-02
-3.901943789293447346e-02
-3.955338658149694375e-02
-4.005640820377886352e-02
-4.052891626026716015e-02
-4.097146267662515884e-02
-4.138470304035285485e-02
-4.176936160297119865e-02
-4.212619666282653441e-02
-4.245596729829079902e-02
-4.275940225273530682e-02
-4.303717160115791418e-02
-4.328986181134743261e-02
-4.351795478331461908e-02
-4.372181121434622064e-02
-4.390165869852961922e-02
-4.405758460154370060e-02
-4.418953388187773362e-02
-4.429731178993400603e-02
-4.438059131195604828e-02
-4.443892504934763427e-02
-4.447176123167929929e-02
-4.447846340702448636e-02
-4.445833321349391271e-02
-4.441063583145318794e-02
-4.433462731505767584e-02
-4.422958310924807179e-02
-4.409482723530368936e-02
-4.392976133454503523e-02
-4.373389289797611351e-02
-4.350686207535582606e-02
-4.324846631170633365e-02
-4.295868235073928981e-02
-4.263768504791439623e-02
-4.228586263289913633e-02
-4.190382789233832589e-02
-4.149242510026182607e-02
-4.105273250986205685e-02
-4.058606029381446600e-02
-4.009394394134568190e-02
-3.957813315111951419e-02
-3.904057644646010544e-02
-3.848340180595764132e-02
-3.790889366671919281e-02
-3.731946655794353418e-02
-3.671763609465925060e-02
-3.610598772774601534e-02
-3.548714378417108795e-02
-3.486372951812726634e-02
-3.423833876056221748e-02
-3.361349976866530309e-02
-3.299164195404764854e-02
-3.237506409249526346e-02
-3.176590456663804657e-02
-3.116611418197164085e-02
-3.057743212745823655e-02
-3.000136544386654280e-02
-2.943917239640255964e-02
-2.889184998294879597e-02
-2.836012592598623205e-02
-2.784445524371469485e-02
-2.734502140336493928e-02
-2.686174207229405364e-02
-2.639427927454530282e-02
-2.594205395885250745e-02
-2.550426460020615085e-02
-2.507990940167068028e-02
-2.466781189232864976e-02
-2.426664936433793260e-02
-2.387498363142676397e-02
-2.349129360249841911e-02
-2.311400914023536632e-02
-2.274154555039773623e-02
-2.237233812251673490e-02
-2.200487616589733714e-02
-2.163773582838686427e-02
-2.126961131483245601e-02
-2.089934385675631945e-02
-2.052594800138810710e-02
-2.014863460205981033e-02
-1.976683039255668073e-02
-1.938019359943644535e-02
-1.898862541820951072e-02
-1.859227707467444105e-02
-1.819155242693991717e-02
-1.778710608635204748e-02
-1.737983690914630258e-02
-1.697087709311436224e-02
-1.656157704335819297e-02
-1.615348620902990265e-02
-1.574833016403826350e-02
-1.534798429928860633e-02
-1.495444456285269057e-02
-1.456979569762245109e-02
-1.419617741675681562e-02
-1.383574914704777115e-02
-1.349065379518507406e-02
-1.316298111652216760e-02
-1.285473128878076611e-02
-1.256777921785082880e-02
-1.230384022420823696e-02
-1.206443745570979706e-02
-1.185087171531155024e-02
-1.166419416310353861e-02
-1.150518221734855330e-02
-1.137431912749742660e-02
-1.127177744489691290e-02
-1.119740688233595606e-02
-1.115072659393625057e-02
-1.113092203043453132e-02
-1.113684654837032023e-02
-1.116702774485770974e-02
-1.121967841290187270e-02
-1.129271217915232828e-02
-1.138376341941083059e-02
-1.149021136897419165e-02
-1.160920806396384397e-02
-1.173770976844174148e-02
-1.187251155082796363e-02
-1.201028445754546287e-02
-1.214761492694757701e-02
-1.228104580581329194e-02
-1.240711854482855377e-02
-1.252241591190724271e-02
-1.262360477273616333e-02
-1.270747830729676911e-02
-1.277099713368009572e-02
-1.281132873600475224e-02
-1.282588483359216151e-02
-1.281235600467879598e-02
-1.276874313789549617e-02
-1.269338541955790205e-02
-1.258498439494295379e-02
-1.244262372557506692e-02
-1.226578441120708927e-02
-1.205435533255515453e-02
-1.180863884120574026e-02
-1.152935139813576586e-02
-1.121761918209084746e-02
-1.087496866713552612e-02
-1.050331241281952065e-02
-1.010493011470432571e-02
-9.682445153944214608e-03
-9.238796966839083261e-03
-8.777209517369054942e-03
-8.301156363827515497e-03
-7.814322609350506099e-03
-7.320564293908070515e-03
-6.823865778935254978e-03
-6.328295585961869578e-03
-5.837961254692325408e-03
-5.356963837702805736e-03
-4.889352504742999588e-03
-4.439079892076747830e-03
-4.009958770769971384e-03
-3.605620580321166474e-03
-3.229476282196321220e-03
-2.884680042946576994e-03
-2.574096252969334392e-03
-2.300270277841573192e-03
-2.065403200391343654e-03
-1.871330938321501920e-03
-1.719507957940700832e-03
-1.610995805332423193e-03
-1.546456476762495891e-03
-1.526150786233155393e-03
-1.549941687571274431e-03
-1.617302392533024246e-03
-1.727329230223190876e-03
-1.878758942569231120e-03
-2.069990258544330761e-03
-2.299109318998508733e-03
-2.563918638652584476e-03
-2.861969129260549111e-03
-3.190594695775290836e-03
-3.546948954149852732e-03
-3.928043582517476082e-03
-4.330787620511841567e-03
-4.752027245675167523e-03
-5.188585450763341482e-03
-5.637301025990673967e-03
-6.095066406409173354e-03
-6.558863693390345855e-03
-7.025798447910179198e-03
-7.493130822274850396e-03
-7.958303537284100795e-03
-8.418966396480147274e-03
-8.872996942588464928e-03
-9.318517131267882100e-03
-9.753905674149661656e-03
-1.017780604481431823e-02
-1.058913003691505823e-02
-1.098705687668247860e-02
-1.137102801815706964e-02
-1.174073766012583529e-02
-1.209611933703837704e-02
-1.243732879697626199e-02
-1.276472341316698712e-02
-1.307883864265226362e-02
-1.338036184143524820e-02
-1.367010398409600029e-02
-1.394896980076725662e-02
-1.421792679485976707e-02
-1.447797370586809997e-02
-1.473010894459489233e-02
-1.497529957998337130e-02
-1.521445142301701761e-02
-1.544838068896692285e-02
-1.567778770205585648e-02
-1.590323317872362890e-02
-1.612511753887219471e-02
-1.634366338785634906e-02
-1.655890165582504098e-02
-1.677066165684803004e-02
-1.697856518040793961e-02
-1.718202474737455868e-02
-1.738024605954320220e-02
-1.757223468304828021e-02
-1.775680688644272129e-02
-1.793260432113964742e-02
-1.809811243822329052e-02
-1.825168234739577011e-02
-1.839155578679002936e-02
-1.851589270484470251e-02
-1.862280104126547500e-02
-1.871036829155666228e-02
-1.877669426187876522e-02
-1.881992450272685150e-02
-1.883828383193316899e-02
-1.883010940868855981e-02
-1.879388281237327762e-02
-1.872826056866238112e-02
-1.863210258116980780e-02
-1.850449793612937710e-02
-1.834478774261679226e-02
-1.815258452705914918e-02
-1.792778780287528073e-02
-1.767059555338011678e-02
-1.738151137885404068e-02
-1.706134717316357824e-02
-1.671122114724247001e-02
-1.633255133340548448e-02
-1.592704444744433984e-02
-1.549668033782268702e-02
-1.504369216197010140e-02
-1.457054261182015933e-02
-1.407989646853186061e-02
-1.357458991825430915e-02
-1.305759694180520965e-02
-1.253199346284562289e-02
-1.200091959031175486e-02
-1.146754065252295410e-02
-1.093500747975813432e-02
-1.040641665606832460e-02
-9.884771149982023858e-03
-9.372942068341929764e-03
-8.873632080729209129e-03
-8.389340986014114446e-03
-7.922334028565092626e-03
-7.474613398826501949e-03
-7.047893320976726488e-03
-6.643579178121605290e-03
-6.262750827696017715e-03
-5.906150534774269774e-03
-5.574175639509966473e-03
-5.266876051129747334e-03
-4.983956578811455686e-03
-4.724784095050182237e-03
-4.488399463884206776e-03
-4.273533966934177190e-03
-4.078629981028775858e-03
-3.901865721919008101e-03
-3.741183529317093116e-03
-3.594321332671307316e-03
-3.458846914773849347e-03
-3.332194333535013105e-03
-3.211702003650913212e-03
-3.094651930206374513e-03
-2.978309508136113212e-03
-2.859963256942221494e-03
-2.736964012930360492e-03
-2.606762939716172379e-03
-2.466947863846567345e-03
-2.315277436834574289e-03
-2.149712646756297193e-03
-1.968445234054494192e-03
-1.769922671566812739e-03
-1.552869399206331311e-03
-1.316303989827954631e-03
-1.059552109199966407e-03
-7.822551486047429154e-04
-4.843743873723498896e-04
-1.661907750780161792e-04
1.716996613449771380e-04
5.283946554741687134e-04
9.026985493073129158e-04
1.293138940334818358e-03
1.697986828276874674e-03
2.115279930468901871e-03
2.542848773424259863e-03
2.978345151992877783e-03
3.419272469932637185e-03
3.863017557512340820e-03
4.306883464281797969e-03
4.748122762264866265e-03
5.183970827220009056e-03
5.611678740738685819e-03
6.028545278806682339e-03
6.431947608412761502e-03
6.819370256954170560e-03
7.188432073914339734e-03
7.536910784499075908e-03
7.862764903023476692e-03
8.164152769129098125e-03
8.439448546236745508e-03
8.687255053441662184e-03
8.906413330729712891e-03
9.096009002577263441e-03
9.255375258771734656e-03
9.384092809428751583e-03
9.481986746895671586e-03
9.549120523547244971e-03
9.585787232291654789e-03
9.592498456271719709e-03
9.569970948989489981e-03
9.519111377111604336e-03
9.440999522398728708e-03
9.336869984249191942e-03
9.208093196793384200e-03
9.056155962195413384e-03
8.882641293971224247e-03
8.689208373042212052e-03
8.477572745837727575e-03
8.249487125884752067e-03
8.006722942469526871e-03
7.751052974741831983e-03
7.484235188337218757e-03
7.207997922462719767e-03
6.924026621859858538e-03
6.633952171014518770e-03
6.339340917218872634e-03
6.041686369012947908e-03
5.742402570937955517e-03
5.442819220298305422e-03
5.144178317245604905e-03
4.847632367059055182e-03
4.554243973564792505e-03
4.264986725810625268e-03
3.980747184259682790e-03
3.702327886126594025e-03
3.430451141267799268e-03
3.165763444925374578e-03
2.908840395555110578e-03
2.660191915552442572e-03
2.420267586541676591e-03
2.189462006943115879e-03
1.968119973465222005e-03
1.756541427402802304e-03
1.554985985399663173e-03
1.363677023079479939e-03
1.182805257374220992e-03
1.012531749636842726e-03
8.529903142841709302e-04
7.042892767755393147e-04
5.665126483869778158e-04
4.397207743071798410e-04
3.239504392831475503e-04
2.192145490384659690e-04
1.255013732891030009e-04
4.277352087182216713e-05
-2.903329314798385518e-05
-9.001160471898117770e-05
-1.402836306028394219e-04
-1.800025955412173494e-04
-2.093539201533902360e-04
-2.285561820876232575e-04
-2.378617922957743894e-04
-2.375572825173740267e-04
-2.279632379781258115e-04
-2.094337195338016801e-04
-1.823552800171079826e-04
-1.471454763884147475e-04
-1.042509657096858021e-04
-5.414508472841162145e-05
2.674855746306189055e-06
6.569067874251157953e-05
1.343667140501459908e-04
2.081534008290709004e-04
2.864909862725639202e-04
3.688132849233978169e-04
4.545513877827719634e-04
5.431372294950981240e-04
6.340069418506888042e-04
7.266038985584886110e-04
8.203814269323087514e-04
9.148050495826369130e-04
1.009354137068147915e-03
1.103523157325154123e-03
1.196822281675198303e-03
1.288777477428004314e-03
1.378929952018629820e-03
1.466835147024512891e-03
1.552061162643554202e-03
1.634186759366231282e-03
1.712799014832471715e-03
1.787490665383432466e-03
1.857857312216159911e-03
1.923494460899564593e-03
1.983994712033121475e-03
2.038945070205075167e-03
2.087924534244586187e-03
2.130502184758630967e-03
2.166235710281808925e-03
2.194670658736527693e-03
2.215340427785822061e-03
2.227767114994264833e-03
2.231463248807855331e-03
2.225934549185453349e-03
2.210683613376432724e-03
2.185214700322749004e-03
2.149039497906599355e-03
2.101683826265099333e-03
2.042695265389163524e-03
1.971651592537673487e-03
1.888169909009520305e-03
1.791916314201873889e-03
1.682615991996676361e-03
1.560063520128053679e-03
1.424133197380543286e-03
1.274789174717609001e-03
1.112095187157630550e-03
9.362236789761089768e-04
7.474640874687923930e-04
5.462299776103233867e-04
3.330649957158950927e-04
1.086473392757549700e-04
-1.262074826044306544e-04
-3.705456692457829342e-04
-6.232760960279915214e-04
-8.831733881610883503e-04
-1.148883123511817810e-03
-1.418929153025037500e-03
-1.691723146966355763e-03
-1.965576239675958896e-03
-2.238712825395654075e-03
-2.509286233834465574e-03
-2.775396151052114246e-03
-3.035107738914100475e-03
-3.286472121458059240e-03
-3.527547898851447934e-03
-3.756423594372404213e-03
-3.971240555139426628e-03
-4.170216042427224087e-03
-4.351666212067488264e-03
-4.514028553606006314e-03
-4.655883465353567729e-03
-4.775974586006055851e-03
-4.873227547170442576e-03
-4.946766852276659847e-03
-4.995930549799601668e-03
-5.020282391938157319e-03
-5.019621273740840911e-03
-4.993987664905648848e-03
-4.943667014406124410e-03
-4.869189887239866107e-03
-4.771328790847411024e-03
-4.651091682782011912e-03
-4.509712121235295162e-03
-4.348636276265495197e-03
-4.169506853247339877e-03
-3.974144141320896592e-03
-3.764524364892776146e-03
-3.542755813901367606e-03
-3.311052800451304724e-03
-3.071707997706185807e-03
-2.827063517200377896e-03
-2.579481159090799784e-03
-2.331312274376999300e-03
-2.084867652157890421e-03
-1.842387890218708879e-03
-1.606014764395204261e-03
-1.377763970415776763e-03
-1.159499686483984058e-03
-9.529113898972599566e-04
-7.594932579752609186e-04
-5.805265054122268724e-04
-4.170648734093806574e-04
-2.699235455471473712e-04
-1.396716976473698173e-04
-2.662878169167061089e-05
6.913543047554889193e-05
1.477970100450159204e-04
2.097703277144333277e-04
2.556969194539854685e-04
2.864309216773723425e-04
3.030213270749854745e-04
3.066914420769915992e-04
2.988157674175296067e-04
2.808946803600556315e-04
2.545274565890982333e-04
2.213839840092630333e-04
1.831756887640179272e-04
1.416261234082899099e-04
9.844174657673687560e-05
5.528331221927432529e-05
1.373836954977446341e-05
-2.470464211009506446e-05
-5.868025988074994999e-05
-8.696750415311561291e-05
-1.085086159256442532e-04
-1.224247293260703675e-04
-1.280283046437204349e-04
-1.248320214051364390e-04
-1.125540665818391836e-04
-9.111974341994793602e-05
-6.065933227356496175e-05
-2.150235618604855642e-05
2.583169166063745262e-05
8.064595119987599695e-05
1.420818494274548986e-04
2.091376200558602537e-04
2.806891909322121342e-04
3.555132177884644641e-04
4.323117930755649113e-04
5.097383326390122864e-04
5.864241328850067041e-04
6.610052968561958659e-04
7.321493563936629263e-04
7.985813073335003677e-04
8.591083911425255156e-04
9.126433436186258321e-04
9.582256130841370007e-04
9.950402328401544792e-04
1.022433971349245938e-03
1.039928442442846542e-03
1.047230081819607635e-03
1.044236695629217242e-03
1.031040580404422435e-03
1.007928029845016381e-03
9.753753755498648656e-04
9.340415469895222908e-04
8.847573903259725115e-04
8.285117844736572404e-04
7.664349611415520631e-04
6.997792608102422008e-04
6.298977017351742314e-04
5.582206996666686828e-04
4.862314344136020963e-04
4.154401276439554031e-04
3.473578539873315493e-04
2.834703053851690517e-04
2.252118585802050153e-04
1.739405273595958843e-04
1.309141837380295794e-04
9.726840970848052556e-05
7.399641427291608930e-05
6.193129422859014151e-05
6.173095624582286144e-05
7.386599287399517690e-05
9.861061564868393501e-05
1.360368310224115802e-04
1.860118672171930001e-04
2.481990416326635709e-04
3.220617530186674457e-04
4.068708096539227765e-04
5.017147178427827214e-04
6.055127707604712880e-04
7.170308207401790640e-04
8.348992678378622983e-04
9.576330671934740356e-04
1.083653287952435510e-03
1.211309916341656891e-03
1.338905530338322346e-03
1.464719356459068603e-03
1.587031402607098950e-03
1.704146179139895108e-03
1.814415679749053698e-03
1.916261241226031170e-03
2.008193934570717386e-03
2.088833197928645271e-03
2.156923426672173114e-03
2.211348368220217905e-03
2.251142977194916812e-03
2.275502792279902702e-03
2.283790605806955334e-03
2.275540505706558168e-03
2.250459211133636409e-03
2.208424795393989452e-03
2.149482972715611052e-03
2.073841049808506157e-03
1.981859701074929325e-03
1.874042820025422374e-03
1.751025707045848322e-03
1.613561943662771524e-03
1.462509080804096778e-03
1.298813625242909104e-03
1.123495523145780564e-03
9.376325089834154029e-04
7.423446009655708519e-04
5.387789872680059109e-04
3.280955912321040550e-04
1.114536114939958114e-04
-1.100007757426098689e-04
-3.351454408882706794e-04
-5.628918780575491295e-04
-7.921932083404461958e-04
-1.022050511409727759e-03
-1.251517601374099340e-03
-1.479704116410684566e-03
-1.705777092706449840e-03
-1.928961086170544311e-03
-2.148536880154818755e-03
-2.363839076943675347e-03
-2.574252700238762338e-03
-2.779208984054359725e-03
-2.978180619138244556e-03
-3.170676663852727440e-03
-3.356237323946585031e-03
-3.534428939913774464e-03
-3.704839243862445130e-03
-3.867073230660468541e-03
-4.020749798156142418e-03
-4.165499280358580560e-03
-4.300962042799344118e-03
-4.426788336518081707e-03
-4.542639274432959222e-03
-4.648189152758466954e-03
-4.743129024140075797e-03
-4.827171533793197036e-03
-4.900056847615711850e-03
-4.961559650999087037e-03
-5.011496971908798066e-03
-5.049736730994285917e-03
-5.076206666912980343e-03
-5.090903565841790011e-03
-5.093902341875190462e-03
-5.085364898437362037e-03
-5.065548310219236162e-03
-5.034812154599392804e-03
-4.993624661557008286e-03
-4.942567391324825983e-03
-4.882338313694382058e-03
-4.813752970892600826e-03
-4.737743523238628629e-03
-4.655355546506682700e-03
-4.567742530614633464e-03
-4.476157893514833008e-03
-4.381944611338969495e-03
-4.286522446673254882e-03
-4.191372827248868865e-03
-4.098021564514071208e-03
-4.008019588797162754e-03
-3.922921893142435230e-03
-3.844265021985927757e-03
-3.773543414022962478e-03
-3.712184986703885581e-03
-3.661526324505938196e-03
-3.622787881927183335e-03
-3.597049633968297296e-03
-3.585227727973989541e-03
-3.588052457456041358e-03
-3.606048027480296837e-03
-3.639514617289705406e-03
-3.688513065697983113e-03
-3.752852623699574289e-03
-3.832082073241233067e-03
-3.925484440906901185e-03
-4.032075708205125168e-03
-4.150607524285604248e-03
-4.279574151852847536e-03
-4.417223655903424091e-03
-4.561573309047482240e-03
-4.710429109444581354e-03
-4.861409314328538588e-03
-5.011971646055515123e-03
-5.159443934663517257e-03
-5.301057852851362960e-03
-5.433985236013886937e-03
-5.555376554245428956e-03
-5.662400934282858268e-03
-5.752287342308845357e-03
-5.822366025606419589e-03
-5.870109886316941805e-03
-5.893174950834040998e-03
-5.889439375459723860e-03
-5.857040339786905199e-03
-5.794408175365428799e-03
-5.700297305319726102e-03
-5.573813199770800107e-03
-5.414435079365681990e-03
-5.222033796513693600e-03
-4.996884545220137315e-03
-4.739674135542405568e-03
-4.451502636462543669e-03
-4.133879160236653832e-03
-3.788711837877022266e-03
-3.418291955834081540e-03
-3.025272404143652429e-03
-2.612640653618747508e-03
-2.183686619560806525e-03
-1.741965741351731572e-03
-1.291257684416453931e-03
-8.355213422037681284e-04
-3.788466463569023111e-04
7.459617651879818338e-05
5.206091416978364094e-04
9.550201000050539350e-04
1.373736665667082621e-03
1.772799710253388904e-03
2.148435681624527843e-03
2.497106891912992486e-03
2.815559053721979153e-03
3.100865431321856228e-03
3.350466900184777708e-03
3.562207379153688441e-03
3.734363948310906890e-03
3.865671314156623236e-03
3.955340195943137481e-03
4.003069329776516583e-03
4.009050934408454371e-03
3.973969374183960665e-03
3.898993257239650925e-03
3.785760796972749073e-03
3.636358809255175583e-03
3.453295487765612078e-03
3.239467394810252414e-03
2.998121092943388955e-03
2.732809981424141280e-03
2.447346849015095624e-03
2.145752918528587728e-03
1.832204039767659689e-03
1.510974716632469727e-03
1.186380889092404634e-03
8.627221831376527322e-04
5.442244330838964892e-04
2.349833631546826185e-04
-6.108984664378059324e-05
-3.403203751396846372e-04
-5.993182237820791815e-04
-8.350225448639093506e-04
-1.044741395773827412e-03
-1.226186247465174857e-03
-1.377500796085580088e-03
-1.497283748988889867e-03
-1.584605258185996018e-03
-1.639016736227432618e-03
-1.660554005260181680e-03
-1.649733752084153434e-03
-1.607543347293807117e-03
-1.535424086199882378e-03
-1.435248297227807333e-03
-1.309290577545291819e-03
-1.160193514834836123e-03
-9.909285320624059302e-04
-8.047522628664337480e-04
-6.051591685787211568e-04
-3.958310576356159237e-04
-1.805842038246998932e-04
3.668517057118898740e-05
2.520563372651120652e-04
4.616396046815069766e-04
6.616312460470716956e-04
8.483670966376795656e-04
1.018373971627754317e-03
1.168418321339430386e-03
1.295551431782054376e-03
1.397150624026301550e-03
1.470955865301295379e-03
1.515101290366473522e-03
1.528141341592550257e-03
1.509071077791662501e-03
1.457340501636271261e-03
1.372862705628433372e-03
1.256015741453510868e-03
1.107638282426288935e-03
9.290190962484592930e-04
7.218805661174916913e-04
4.883564989595986930e-04
2.309644832625660658e-04
-4.742673221549101477e-05
-3.436344065979650918e-04
-6.542030860315243635e-04
-9.754492713487182120e-04
-1.303508997397921296e-03
-1.634387656625203595e-03
-1.964011398812296437e-03
-2.288279487221579322e-03
-2.603116815109263009e-03
-2.904526001890713437e-03
-3.188638310637486369e-03
-3.451762862454948750e-03
-3.690433430003373528e-03
-3.901452257889666785e-03
-4.081930364164932691e-03
-4.229323838003336972e-03
-4.341465717606371108e-03
-4.416592994772178260e-03
-4.453368446496384220e-03
-4.450897185021223702e-03
-4.408737546997962796e-03
-4.326906383975392435e-03
-4.205878613716289294e-03
-4.046581109396969397e-03
-3.850381066538767494e-03
-3.619068931909621110e-03
-3.354836208555479673e-03
-3.060248448293539664e-03
-2.738213730093707905e-03
-2.391947131711565436e-03
-2.024931572562663293e-03
-1.640875532666030180e-03
-1.243668183442209413e-03
-8.373326270648604169e-04
-4.259776458912999889e-04
-1.374863190465252673e-05
3.952216576662368613e-04
7.968620075456165448e-04
1.187210603740595236e-03
1.562461381931128882e-03
1.919008371816779013e-03
2.253487281312610991e-03
2.562813951209978562e-03
2.844219325307783142e-03
3.095280457100882919e-03
3.313947179113949613e-03
3.498564208262102022e-03
3.647888387060619405e-03
3.761100961252148486e-03
3.837814675316669494e-03
3.878075751226802911e-03
3.882360679635748352e-03
3.851567950603817202e-03
3.787004869672230996e-03
3.690369632375737480e-03
3.563728865052999666e-03
3.409491021251034090e-03
3.230375935597484642e-03
3.029380966462583494e-03
2.809744138630114636e-03
2.574904736972828505e-03
2.328461899709235918e-03
2.074131653196571376e-03
1.815703027828278636e-03
1.556993654306321802e-03
1.301805450958678665e-03
1.053880920750109498e-03
8.168605622042640277e-04
5.942418986500314689e-04
3.893406385139131930e-04
2.052542389415782851e-04
4.482847512017981055e-05
-8.937275383367779638e-05
-1.950939897683583071e-04
-2.704109746308295007e-04
-3.137493204742937435e-04
-3.238989925050339233e-04
-3.000244672882729354e-04
-2.416705107142601706e-04
-1.487636386743030313e-04
-2.160923209549288910e-05
1.391155191204747549e-04
3.323726638721806394e-04
5.567783439130722430e-04
8.106211663777870662e-04
1.091883812626079581e-03
1.398267639277596701e-03
1.727219789881163838e-03
2.075962466691131693e-03
2.441523948687268197e-03
2.820771082174818728e-03
3.210442611015875032e-03
3.607183069243673212e-03
4.007576860837111336e-03
4.408182020963836642e-03
4.805563279293177670e-03
5.196324215279304361e-03
5.577137991549063582e-03
5.944776485864491575e-03
6.296137507999950526e-03
6.628269925926035498e-03
6.938396369778191894e-03
7.223933558178960608e-03
7.482510005854260161e-03
7.711981096720317216e-03
7.910441437742702156e-03
8.076234576798070955e-03
8.207960128424000856e-03
8.304478284615621556e-03
8.364911948010445367e-03
8.388646589916497198e-03
8.375327933552731766e-03
8.324857722727582385e-03
8.237387667333487609e-03
8.113311884321183776e-03
7.953257953867493707e-03
7.758076850211687546e-03
7.528831891257174551e-03
7.266787010286256468e-03
6.973394342994629173e-03
6.650281455852758393e-03
6.299238262361288483e-03
5.922203816654088120e-03
5.521253043367086236e-03
5.098583496014262931e-03
4.656502189802625737e-03
4.197412492537968068e-03
3.723801169808221845e-03
3.238225410654360301e-03
2.743299974731981151e-03
2.241684267156806958e-03
1.736069349248252520e-03
1.229164770770213534e-03
7.236851027006787522e-04
2.223361551695391986e-04
-2.721992618424517335e-04
-7.572761085859425157e-04
-1.230302473911634069e-03
-1.688755518521050866e-03
-2.130198186600439341e-03
-2.552296470897991078e-03
-2.952837417866495569e-03
-3.329747705427766203e-03
-3.681112759225695606e-03
-4.005196213048481564e-03
-4.300459704585295889e-03
-4.565582703688533979e-03
-4.799482161266493095e-03
-5.001331831259150408e-03
-5.170580859447662485e-03
-5.306971398549093638e-03
-5.410554945568682092e-03
-5.481706988031696641e-03
-5.521139724766763526e-03
-5.529912485249714217e-03
-5.509439381283059468e-03
-5.461493946974900829e-03
-5.388210464607465396e-03
-5.292081640626948753e-03
-5.175952348324119705e-03
-5.043009268521992175e-03
-4.896766187705405352e-03
-4.741044893936652814e-03
-4.579951524332607354e-03
-4.417848347422737541e-03
-4.259321170161609570e-03
-4.109142368850272897e-03
-3.972229776262397975e-03
-3.853601671808812475e-03
-3.758328238083199872e-03
-3.691479897594784638e-03
-3.658073051393226881e-03
-3.663013683740645385e-03
-3.711039435990955756e-03
-3.806660886571673185e-03
-3.954102649173051390e-03
-4.157245009201655447e-03
-4.419566921577392296e-03
-4.744091135873710480e-03
-5.133332127037206274e-03
-5.589247709887433004e-03
-6.113195046819052195e-03
-6.705891736416444600e-03
-7.367382818771590902e-03
-8.097014097180369255e-03
-8.893412477269763486e-03
-9.754473765000706495e-03
-1.067735840263252765e-02
-1.165849539672660258e-02
-1.269359470438678923e-02
-1.377766807549235702e-02
-1.490505850386250435e-02
-1.606947812836130932e-02
-1.726405431005325480e-02
-1.848138359410834639e-02
-1.971359312064734776e-02
-2.095240896998447344e-02
-2.218923064468789758e-02
-2.341521107530140922e-02
-2.462134129077538786e-02
-2.579853871058520459e-02
-2.693773823229107106e-02
-2.802998500275884902e-02
-2.906652775896394550e-02
-3.003891167301715390e-02
-3.093906960226195518e-02
-3.175941048385870491e-02
-3.249290394994774900e-02
-3.313315994219650368e-02
-3.367450241781878850e-02
-3.411203606848172559e-02
-3.444170519008273035e-02
-3.466034395807956331e-02
-3.476571732706644491e-02
-3.475655199521338751e-02
-3.463255695275792301e-02
-3.439443328908795700e-02
-3.404387298505907183e-02
-3.358354655491423146e-02
-3.301707979107964402e-02
-3.234901962872125530e-02
-3.158478956782814762e-02
-3.073063499229652593e-02
-2.979355919778599315e-02
-2.878125060473673766e-02
-2.770200213863106137e-02
-2.656462371118862437e-02
-2.537834875112866470e-02
-2.415273599071845675e-02
-2.289756753083580995e-02
-2.162274456834881869e-02
-2.033818195463844847e-02
-1.905370284129495606e-02
-1.777893476632439254e-02
-1.652320831416735289e-02
-1.529545966966583924e-02
-1.410413821470286357e-02
-1.295712031566336429e-02
-1.186163026176942185e-02
-1.082416933136945772e-02
-9.850453848337190760e-03
-8.945363027221169341e-03
-8.112897034201970239e-03
-7.356145866315927546e-03
-6.677269384590931584e-03
-6.077488660531226751e-03
-5.557088684636796866e-03
-5.115432349261237605e-03
-4.750985502514613358e-03
-4.461352657971344102e-03
-4.243322846270524903e-03
-4.092924953410828105e-03
-4.005491867668468237e-03
-3.975732481049334098e-03
-3.997810616779416681e-03
-4.065429736037701018e-03
-4.171922503617937067e-03
-4.310343870841591013e-03
-4.473566423270263458e-03
-4.654376854179777256e-03
-4.845572235585358760e-03
-5.040054804517420974e-03
-5.230924109210867423e-03
-5.411565303391421486e-03
-5.575732461342802412e-03
-5.717625762665262158e-03
-5.831961619723386413e-03
-5.914034926139467505e-03
-5.959772588196662717e-03
-5.965777616109746787e-03
-5.929363343036408301e-03
-5.848577390692243083e-03
-5.722214989133712210e-03
-5.549821682617795543e-03
-5.331685396143655276e-03
-5.068817998509351358e-03
-4.762926672176872114e-03
-4.416375651638248731e-03
-4.032138875756268066e-03
-3.613744201848219460e-03
-3.165210077893520525e-03
-2.690975542815704676e-03
-2.195824691638576572e-03
-1.684806604005473088e-03
-1.163151973889455480e-03
-6.361875963707991789e-04
-1.092500201591049754e-04
4.124004159967586828e-04
9.236639615479239887e-04
1.419682864036402124e-03
1.895918731329683353e-03
2.348224688577589796e-03
2.772911239587967820e-03
3.166804827680864010e-03
3.527298371056815374e-03
3.852392835531058893e-03
4.140729283243800921e-03
4.391610902706975794e-03
4.605014699421820096e-03
4.781592643856181352e-03
4.922662179443147365e-03
5.030186302888440750e-03
5.106743447886396767e-03
5.155487608171782296e-03
5.180099285638004210e-03
5.184728010636989980e-03
5.173927274800824497e-03
5.152582883724631836e-03
5.125835756150907106e-03
5.099000466694662316e-03
5.077480687565322920e-03
5.066682896295535490e-03
5.071929689822566450e-03
5.098374124186115519e-03
5.150916342081614079e-03
5.234123941946880985e-03
5.352157317043963747e-03
5.508701237715509132e-03
5.706903789041368850e-03
5.949323704732364763e-03
6.237887078872326324e-03
6.573854111239098297e-03
6.957796551967551126e-03
7.389586351901385707e-03
7.868395735935364982e-03
8.392708812222827650e-03
8.960344638962496056e-03
9.568491476375211996e-03
1.021375176224543005e-02
1.089219708950554637e-02
1.159943251344733479e-02
1.233066912954886712e-02
1.308080376377826828e-02
1.384450465251445099e-02
1.461630164088504984e-02
1.539067946409586156e-02
1.616217265335617714e-02
1.692546037086913036e-02
1.767545972680683100e-02
1.840741592344641644e-02
1.911698769733703035e-02
1.980032665299051239e-02
2.045414898466620460e-02
2.107579838326795185e-02
2.166329895588366833e-02
2.221539710525407413e-02
2.273159168571447716e-02
2.321215177247744690e-02
2.365812153344549681e-02
2.407131210117685605e-02
2.445428034955273583e-02
2.481029496696347467e-02
2.514329018548224978e-02
2.545780789010992917e-02
2.575892892240748411e-02
2.605219475892114195e-02
2.634352077383459584e-02
2.663910250182060721e-02
2.694531651000924358e-02
2.726861744098340104e-02
2.761543310687665509e-02
2.799205935328439795e-02
2.840455655186822567e-02
2.885864951055628139e-02
2.935963263615016042e-02
2.991228195911456098e-02
3.052077568126656745e-02
3.118862465754278571e-02
3.191861405503008953e-02
3.271275741638524776e-02
3.357226394098188765e-02
3.449751961734923850e-02
3.548808262773685274e-02
3.654269320358137507e-02
3.765929783668073294e-02
3.883508744331615192e-02
4.006654884781376408e-02
4.134952870982960826e-02
4.267930884078953435e-02
4.405069150445899140e-02
4.545809314578997534e-02
4.689564492833143972e-02
4.835729816985109841e-02
4.983693277140400363e-02
5.132846654776940937e-02
5.282596349331765417e-02
5.432373882843914703e-02
5.581645885988766737e-02
5.729923371871326054e-02
5.876770118223646755e-02
6.021809987501031830e-02
6.164733034573480902e-02
6.305300290924446827e-02
6.443347114722916547e-02
6.578785032017930856e-02
6.711602025697829821e-02
6.841861256362120891e-02
6.969698238932228729e-02
7.095316505997527334e-02
7.218981845206873249e-02
7.341015222759474101e-02
7.461784504085473835e-02
7.581695148916944849e-02
7.701180045622173231e-02
7.820688706223830056e-02
7.940676021695727838e-02
8.061590800992053663e-02
8.183864333191145923e-02
8.307899212414103507e-02
8.434058656836965207e-02
8.562656543876627502e-02
8.693948383077097775e-02
8.828123428217171664e-02
8.965298106287479529e-02
9.105510914651140930e-02
9.248718919050058496e-02
9.394795952510900938e-02
9.543532573531791907e-02
9.694637816423355703e-02
9.847742726516187095e-02
1.000240563405173921e-01
1.015811909386885731e-01
1.031431837483205161e-01
1.047039134913159836e-01
1.062568960028116433e-01
1.077954054512880594e-01
1.093126034587048323e-01
1.108016735489865817e-01
1.122559582534399109e-01
1.136690962120345677e-01
1.150351564015233002e-01
1.163487667258052832e-01
1.176052343510382014e-01
1.188006551027507435e-01
1.199320096423595050e-01
1.209972442640547818e-01
1.219953344218911162e-01
1.229263294954153901e-01
1.237913777302496465e-01
1.245927305017170972e-01
1.253337257153061823e-01
1.260187503635784023e-01
1.266531829559949529e-01
1.272433167864202297e-01
1.277962654777591578e-01
1.283198527399266875e-01
1.288224886605163211e-01
1.293130349326974404e-01
1.298006620690536350e-01
1.302947016392136115e-01
1.308044968994246937e-01
1.313392550644270074e-01
1.319079047372397895e-01
1.325189617506187523e-01
1.331804067197517039e-01
1.338995772255884009e-01
1.346830774746816672e-01
1.355367077113344143e-01
1.364654154140040043e-01
1.374732696530823195e-01
1.385634596023145870e-01
1.397383175369345809e-01
1.409993660646040592e-01
1.423473887004751970e-01
1.437825222602606978e-01
1.453043688735165817e-01
1.469121249034812116e-01
1.486047233517179267e-01
1.503809858717814474e-01
1.522397800880777308e-01
1.541801773628781180e-01
1.562016059476781793e-01
1.583039942458400462e-01
1.604878987576688343e-01
1.627546111973349474e-01
1.651062395433160468e-01
1.675457578746941678e-01
1.700770203150813453e-01
1.727047347956877366e-01
1.754343928730396351e-01
1.782721526959226421e-01
1.812246729712722881e-01
1.842988966177326327e-01
1.875017837700835854e-01
1.908399949670672724e-01
1.943195262551219438e-01
1.979452992039690828e-01
2.017207100374228679e-01
2.056471429060482137e-01
2.097234537613462679e-01
2.139454320876229276e-01
2.183052489446656586e-01
2.227909004043752139e-01
2.273856564052001705e-01
2.320675256183291624e-01
2.368087475002320919e-01
2.415753226859075620e-01
2.463265934852715000e-01
2.510148858054316312e-01
2.555852237952775940e-01
2.599751278913026153e-01
2.641145064015956723e-01
2.679256498746771520e-01
2.713233363077954818e-01
2.742150543244264993e-01
2.765013496184527964e-01
2.780762986611469145e-01
2.788281118645548617e-01
2.786398665618108894e-01
2.773903682520849068e-01
2.749551363492270251e-01
2.712075091268953408e-01
2.660198599443037160e-01
2.592649151234365235e-01
2.508171618675656966e-01
2.405543327524703179e-01
2.283589513937130944e-01
2.141199225398178752e-01
1.977341483254655974e-01
1.791081511442639551e-01
1.581596826988251880e-01
1.348192982346194668e-01
1.090318742442326905e-01
8.075804797350218112e-02
4.997555723804535110e-02
1.668045950247360951e-02
-1.911179004831981693e-02
-5.736542055645371674e-02
-9.802360539171883769e-02
-1.410079160141764487e-01
-1.862179837225154400e-01
-2.335313812956475443e-01
-2.828037337994013800e-01
-3.338690652618493959e-01
-3.865403852170684607e-01
-4.406105161056553809e-01
-4.958531594355588545e-01
-5.520241955668740985e-01
-6.088632090067174207e-01
-6.660952278609187927e-01
-7.234326633298522324e-01
-7.805774321936972404e-01
-8.372232425060813776e-01
-8.930580205179545761e-01
-9.477664543278432330e-01
-1.001032628121860224e+00
-1.052542719001634763e+00
-1.101987727312614851e+00
-1.149066210401965105e+00
-1.193486989317519953e+00
-1.234971797627889778e+00
-1.273257841986473515e+00
-1.308100244708289006e+00
-1.339274339645931455e+00
-1.366577794178745808e+00
-1.389832531866582732e+00
-1.408886432564254498e+00
-1.423614789400743152e+00
-1.433921504558038462e+00
-1.439740008961712947e+00
-1.441033894356248402e+00
-1.437797249585710757e+00
-1.430054696357007105e+00
-1.417861123482876184e+00
-1.401301122326133353e+00
-1.380488129642122752e+00
-1.355563287680064954e+00
-1.326694034894983165e+00
-1.294072443659019633e+00
-1.257913324692280010e+00
-1.218452120565455710e+00
-1.175942613141479853e+00
-1.130654471968880914e+00
-1.082870672526433431e+00
-1.032884814563424625e+00
-9.809983718184899226e-01
-9.275179051306544631e-01
-8.727522708855331990e-01
-8.170098566514102378e-01
-7.605958752941114343e-01
-7.038097476370352990e-01
-6.469426022783689723e-01
-5.902749194781450326e-01
-5.340743437952126804e-01
-4.785936877653271804e-01
-4.240691459745072334e-01
-3.707187361350636756e-01
-3.187409805794454432e-01
-2.683138382298910218e-01
-2.195938937807532798e-01
-1.727158074214096006e-01
-1.277920249835270139e-01
-8.491274508477199279e-02
-4.414613649153001362e-02
-5.538795946612377029e-03
3.088356634508627324e-02
6.511522892330401380e-02
9.716936689806923710e-02
1.270767853286725313e-01
1.548845000608504163e-01
1.806541892469350208e-01
2.044605398944429886e-01
2.263895146930673397e-01
2.465365646680108824e-01
2.650048131044815403e-01
2.819032358975182007e-01
2.973448630025441464e-01
3.114450242784409517e-01
3.243196618140398724e-01
3.360837292501883122e-01
3.468496965679007116e-01
3.567261768810242040e-01
3.658166893351806337e-01
3.742185698261714100e-01
3.820220386932531298e-01
3.893094318481181149e-01
3.961545993721872772e-01
4.026224727023504091e-01
4.087687991528818343e-01
4.146400400117177809e-01
4.202734261034761776e-01
4.256971624358156236e-01
4.309307717490066802e-01
4.359855648639777148e-01
4.408652242684712452e-01
4.455664861245856034e-01
4.500799047810863374e-01
4.543906832938036100e-01
4.584795530312562040e-01
4.623236852056349933e-01
4.658976173839127766e-01
4.691741783619928774e-01
4.721253955129394719e-01
4.747233696151984539e-01
4.769411033149664192e-01
4.787532705381425946e-01
4.801369157972845692e-01
4.810720739238316113e-01
4.815423023828246940e-01
4.815351202158570376e-01
4.810423494182710091e-01
4.800603563936668983e-01
4.785901930827944351e-01
4.766376391026303505e-01
4.742131476806909496e-01
4.713317000571970450e-01
4.680125743840751751e-01
4.642790364435873118e-01
4.601579606639009112e-01
4.556793908293073625e-01
4.508760507893944669e-01
4.457828157853004902e-01
4.404361555984261933e-01
4.348735607527488001e-01
4.291329629198792350e-01
4.232521605283248167e-01
4.172682601343755127e-01
4.112171433746107385e-01
4.051329686319604106e-01
3.990477156300413220e-01
3.929907801626522645e-01
3.869886249656818156e-01
3.810644915919504938e-01
3.752381768775122084e-01
3.695258762628151894e-01
3.639400950155471381e-01
3.584896270679824859e-01
3.531795998927618752e-01
3.480115828544662615e-01
3.429837551960687736e-01
3.380911288734411158e-01
3.333258206778511590e-01
3.286773672188328943e-01
3.241330757802126095e-01
3.196784035357266296e-01
3.152973574487370478e-01
3.109729067773498445e-01
3.066874003004169680e-01
3.024229803758375357e-01
2.981619862876191962e-01
2.938873397453130587e-01
2.895829057927585826e-01
2.852338232257621287e-01
2.808267991464379887e-01
2.763503632825197176e-01
2.717950783426656414e-01
2.671537038843037615e-01
2.624213117449307187e-01
2.575953523183849847e-01
2.526756718991942652e-01
2.476644820337288999e-01
2.425662827170337876e-01
2.373877423901295802e-01
2.321375380356183182e-01
2.268261595202498981e-01
2.214656828868915572e-01
2.160695178417659512e-01
2.106521348020280182e-01
2.052287774181200120e-01
1.998151662644779281e-01
1.944271997661264628e-01
1.890806580891452038e-01
1.837909156910021435e-01
1.785726676995716689e-01
1.734396751249934754e-01
1.684045333300707714e-01
1.634784677123489460e-01
1.586711597496414661e-01
1.539906060479698524e-01
1.494430124943659510e-01
1.450327245705026746e-01
1.407621943513858720e-01
1.366319840734259439e-01
1.326408053404030118e-01
1.287855924131616758e-01
1.250616074334334193e-01
1.214625748528878890e-01
1.179808418651243224e-01
1.146075612330051813e-01
1.113328924298471606e-01
1.081462170767717029e-01
1.050363640210404681e-01
1.019918397328722914e-01
9.900105939429602875e-02
9.605257437028022482e-02
9.313529174874640715e-02
9.023868193276700367e-02
8.735297064633598674e-02
8.446931195182812158e-02
8.157993953363520956e-02
7.867829367086416614e-02
7.575912213354489555e-02
7.281855353920313467e-02
6.985414236646873831e-02
6.686488546091604035e-02
6.385121023771041238e-02
6.081493543354785786e-02
5.775920570349991900e-02
5.468840189972692944e-02
5.160802915962996174e-02
4.852458548208773981e-02
4.544541365231221514e-02
4.237853971170650602e-02
3.933250122567413104e-02
3.631616899314173141e-02
3.333856553478212192e-02
3.040868406032667601e-02
2.753531116709805396e-02
2.472685670915710995e-02
2.199119391295995332e-02
1.933551250106730138e-02
1.676618738533065811e-02
1.428866516313492645e-02
1.190737021877963375e-02
9.625631770028869605e-03
7.445633004708337131e-03
5.368382644438490087e-03
3.393709132460851711e-03
1.520277173437949332e-03
-2.543740882177505155e-04
-1.933772471144426042e-03
-3.522435172321561943e-03
-5.025773991334131843e-03
-6.449985453047639428e-03
-7.801928186110370679e-03
-9.088990161068741594e-03
-1.031894829119111602e-02
-1.149982327703607220e-02
-1.263973249194176238e-02
-1.374674366643287814e-02
-1.482873209856829487e-02
-1.589324390557137964e-02
-1.694736782360276722e-02
-1.799761776046555906e-02
-1.904982806829799702e-02
-2.010906317433739515e-02
-2.117954307703759712e-02
-2.226458575815040350e-02
-2.336656718845969011e-02
-2.448689933515648190e-02
-2.562602635185772318e-02
-2.678343850468004397e-02
-2.795770330845552543e-02
-2.914651304665647966e-02
-3.034674729442032523e-02
-3.155454918260573727e-02
-3.276541359516781104e-02
-3.397428560111633716e-02
-3.517566693316612203e-02
-3.636372849283203701e-02
-3.753242671929481189e-02
-3.867562163646164064e-02
-3.978719427176127810e-02
-4.086116139785482548e-02
-4.189178559732267826e-02
-4.287367866545235828e-02
-4.380189662605824680e-02
-4.467202473763452752e-02
-4.548025134735851627e-02
-4.622342928431832920e-02
-4.689912398102877300e-02
-4.750564783609590586e-02
-4.804208039185139251e-02
-4.850827424619426342e-02
-4.890484700140764612e-02
-4.923315962206569613e-02
-4.949528189460107586e-02
-4.969394597446275680e-02
-4.983248902089758292e-02
-4.991478627517215161e-02
-4.994517595178826069e-02
-4.992837757255959991e-02
-4.986940530776713676e-02
-4.977347798785250466e-02
-4.964592758274232603e-02
-4.949210774222311676e-02
-4.931730405004580708e-02
-4.912664764442190718e-02
-4.892503364969227192e-02
-4.871704583654623555e-02
-4.850688858637376699e-02
-4.829832734493501312e-02
-4.809463835883913407e-02
-4.789856847473690504e-02
-4.771230533335595742e-02
-4.753745840522001498e-02
-4.737505084869816224e-02
-4.722552208815692515e-02
-4.708874081598273670e-02
-4.696402790571516106e-02
-4.685018861852140865e-02
-4.674555323063010054e-02
-4.664802519495448579e-02
-4.655513572500322161e-02
-4.646410369807114915e-02
-4.637189960513310449e-02
-4.627531237741648595e-02
-4.617101776337039637e-02
-4.605564692487801315e-02
-4.592585412899688468e-02
-4.577838231553188475e-02
-4.561012533655130208e-02
-4.541818580314532783e-02
-4.519992785358574461e-02
-4.495302379759527622e-02
-4.467549400846445445e-02
-4.436573958228692133e-02
-4.402256736811744481e-02
-4.364520708462585330e-02
-4.323332045633378196e-02
-4.278700246724442130e-02
-4.230677485970840701e-02
-4.179357229371119531e-02
-4.124872152863178626e-02
-4.067391428770237433e-02
-4.007117446938107674e-02
-3.944282043096633550e-02
-3.879142312389904923e-02
-3.811976106549384152e-02
-3.743077304242917180e-02
-3.672750935773098913e-02
-3.601308267879222563e-02
-3.529061938880508065e-02
-3.456321219773257625e-02
-3.383387487939450849e-02
-3.310549989453621944e-02
-3.238081968440438552e-02
-3.166237212579459809e-02
-3.095247062646458436e-02
-3.025317928477300883e-02
-2.956629344739207521e-02
-2.889332581483117571e-02
-2.823549816937397094e-02
-2.759373872310374315e-02
-2.696868485121807144e-02
-2.636069105812516994e-02
-2.576984183922511815e-02
-2.519596910729014413e-02
-2.463867354869708065e-02
-2.409734935528399721e-02
-2.357121195989990425e-02
-2.305932798221423108e-02
-2.256064672130741328e-02
-2.207403255114899834e-02
-2.159829756076178664e-02
-2.113223386680154053e-02
-2.067464484847513287e-02
-2.022437475342432969e-02
-1.978033614643729884e-02
-1.934153475213681167e-02
-1.890709125326993714e-02
-1.847625962010402204e-02
-1.804844176987143584e-02
-1.762319832477549780e-02
-1.720025535105349640e-02
-1.677950708948698286e-02
-1.636101469043352991e-02
-1.594500100313043719e-02
-1.553184171636786542e-02
-1.512205306313548631e-02
-1.471627640575187169e-02
-1.431526004546932428e-02
-1.391983877815082885e-02
-1.353091156076484565e-02
-1.314941778220733021e-02
-1.277631270646626370e-02
-1.241254255636533091e-02
-1.205901972335528607e-02
-1.171659864731403738e-02
-1.138605280533052343e-02
-1.106805336920218055e-02
-1.076314981983292687e-02
-1.047175294112043763e-02
-1.019412050863582886e-02
-9.930346042285828970e-03
-9.680350651222087432e-03
-9.443878254600827568e-03
-9.220494203321287843e-03
-9.009587381523511893e-03
-8.810375738923381314e-03
-8.621915060313473794e-03
-8.443110937490814344e-03
-8.272733620111437022e-03
-8.109435492650319752e-03
-7.951770943799145105e-03
-7.798218199492303743e-03
-7.647202711821195383e-03
-7.497121752755043882e-03
-7.346369768467475581e-03
-7.193364010392829661e-03
-7.036569951287480543e-03
-6.874526203670760539e-03
-6.705868426906329109e-03
-6.529351720811480027e-03
-6.343871257994408014e-03
-6.148480730790528356e-03
-5.942408313619683760e-03
-5.725069921719892416e-03
-5.496079456528421905e-03
-5.255255896352215884e-03
-5.002627187673705511e-03
-4.738430710573756158e-03
-4.463110533221122805e-03
-4.177311350738698893e-03
-3.881869189531827330e-03
-3.577799149649922225e-03
-3.266280282322600939e-03
-2.948637945689814698e-03
-2.626323880809070064e-03
-2.300894328242513408e-03
-1.973986510538480038e-03
-1.647293931083404364e-03
-1.322540895043773559e-03
-1.001456635611675233e-03
-6.857494982605933037e-04
-3.770814969432105166e-04
-7.704382133236429013e-05
2.128664457482476165e-04
4.912679331338307143e-04
7.569145737401177226e-04
1.008712937262575210e-03
1.245736924395702888e-03
1.467239610302135174e-03
1.672662101825790311e-03
1.861639142838922333e-03
2.034001480401980040e-03
2.189774881008863753e-03
2.329175809228469559e-03
2.452603829847290525e-03
2.560630891989648748e-03
2.653987503825590202e-03
2.733546190528505625e-03
2.800302406705601228e-03
2.855353184536053249e-03
2.899873887350177138e-03
2.935093302813639778e-03
2.962267643823621351e-03
2.982653765068422717e-03
2.997482077616912127e-03
3.007929470561766534e-03
3.015092791999801278e-03
3.019963319631407354e-03
3.023402548602933167e-03
3.026119792431315302e-03
3.028651928709982441e-03
3.031345650308141931e-03
3.034342537581486473e-03
3.037567232253593659e-03
3.040718976421349137e-03
3.043266682841364382e-03
3.044447597363420920e-03
3.043269788041910728e-03
3.038518424277183300e-03
3.028765781125348534e-03
3.012384943234430127e-03
2.987567034610479847e-03
2.952341900555991577e-03
2.904601908115126210e-03
2.842128500706830787e-03
2.762621431171908767e-03
2.663730093552885494e-03
2.543086556611757511e-03
2.398340041480550005e-03
2.227192200552555700e-03
2.027432871092214872e-03
1.796975653923640632e-03
1.533892932918543440e-03
1.236449884207484716e-03
9.031369361086733459e-04
5.327001982346924337e-04
1.241694429878126477e-04
-3.231167559568105243e-04
-8.094891311590288836e-04
-1.334929485138833076e-03
-1.899056278292752652e-03
-2.501114354978315000e-03
-3.139969034711668702e-03
-3.814104670748824991e-03
-4.521627805249242571e-03
-5.260274890239713223e-03
-6.027424601315640486e-03
-6.820114570177586953e-03
-7.635062465872448877e-03
-8.468691213351897326e-03
-9.317158034088755120e-03
-1.017638704373332280e-02
-1.104210498308935695e-02
-1.190987977508027769e-02
-1.277516137402372534e-02
-1.363332449141775593e-02
-1.447971267374081189e-02
-1.530968321630212306e-02
-1.611865236093668399e-02
-1.690214028557550027e-02
-1.765581530502330007e-02
-1.837553678385372286e-02
-1.905739623904524269e-02
-1.969775613542767631e-02
-2.029328584747212491e-02
-2.084099448849854874e-02
-2.133826012411100051e-02
-2.178285501875441843e-02
-2.217296665618033111e-02
-2.250721429117964745e-02
-2.278466079671398817e-02
-2.300481968148182510e-02
-2.316765723142915831e-02
-2.327358979511260847e-02
-2.332347616292079068e-02
-2.331860519354559541e-02
-2.326067889813164188e-02
-2.315179117845145296e-02
-2.299440243734011957e-02
-2.279131043806612023e-02
-2.254561770684639782e-02
-2.226069597628083790e-02
-2.194014803678503295e-02
-2.158776747274042049e-02
-2.120749680647750560e-02
-2.080338448751938712e-02
-2.037954129850370194e-02
-1.994009663710650387e-02
-1.948915522205388329e-02
-1.903075471729155990e-02
-1.856882472661976202e-02
-1.810714766376739573e-02
-1.764932189455132791e-02
-1.719872753664078088e-02
-1.675849534998598289e-02
-1.633147895317276985e-02
-1.592023069439724159e-02
-1.552698140909836155e-02
-1.515362418858428976e-02
-1.480170233659838103e-02
-1.447240160527340884e-02
-1.416654664534022778e-02
-1.388460172597783850e-02
-1.362667559124342703e-02
-1.339253039427274784e-02
-1.318159448599602948e-02
-1.299297880369260777e-02
-1.282549671711080003e-02
-1.267768687984163582e-02
-1.254783893063001789e-02
-1.243402155724699157e-02
-1.233411264728491441e-02
-1.224583104488782652e-02
-1.216676954390492719e-02
-1.209442879800359284e-02
-1.202625157948877463e-02
-1.195965708914499374e-02
-1.189207484643295398e-02
-1.182097784288247723e-02
-1.174391450569590815e-02
-1.165853918358893473e-02
-1.156264076026600023e-02
-1.145416924846815940e-02
-1.133125984056257418e-02
-1.119225445650937414e-02
-1.103572035511484438e-02
-1.086046581443523770e-02
-1.066555266065779065e-02
-1.045030559289224052e-02
-1.021431825047541819e-02
-9.957455978338870459e-03
-9.679855383054570064e-03
-9.381920683471755076e-03
-9.064316979145461972e-03
-8.727960579041489989e-03
-8.374006495190104010e-03
-8.003833376299269650e-03
-7.619025932888001847e-03
-7.221355333442413052e-03
-6.812757642554283233e-03
-6.395310573380631573e-03
-5.971208931937651600e-03
-5.542739016592557709e-03
-5.112252204855383814e-03
-4.682138093929350160e-03
-4.254797506441850528e-03
-3.832615652966918970e-03
-3.417935672153810459e-03
-3.013032930453239319e-03
-2.620090301292496426e-03
-2.241174710294709625e-03
-1.878215131364716550e-03
-1.532982317974939356e-03
-1.207070444105489120e-03
-9.018808490110699757e-04
-6.186080377566360172e-04
-3.582280225816747974e-04
-1.214892127972007065e-04
9.109416533050169551e-05
2.792460328392967956e-04
4.429297935524273292e-04
5.823469916394560667e-04
6.979334007348341785e-04
7.903525131378297784e-04
8.604865737904761119e-04
9.094253015019364283e-04
9.384523011734516220e-04
9.490294593386857909e-04
9.427794305600520558e-04
9.214663655850207150e-04
8.869751829348585838e-04
8.412895519736341733e-04
7.864688801040357847e-04
7.246244681724797266e-04
6.578951736884834384e-04
5.884228027035410180e-04
5.183275807877579062e-04
4.496838730109197781e-04
3.844965048746441121e-04
3.246778464354476606e-04
2.720260433142855628e-04
2.282045559243818045e-04
1.947232541066480757e-04
1.729212848008600126e-04
1.639519768799182825e-04
1.687698862371475074e-04
1.881201058151444694e-04
2.225301027127921279e-04
2.723041100469468837e-04
3.375201478464573066e-04
4.180297260536277476e-04
5.134602480706228341e-04
6.232200983303362368e-04
7.465064116587147910e-04
8.823154070445310545e-04
1.029455143410296742e-03
1.186560657690532592e-03
1.352111271070809270e-03
1.524449829439111781e-03
1.701803724697847735e-03
1.882307419775275468e-03
2.064026166372636209e-03
2.244980710114882413e-03
2.423172690440569214e-03
2.596610333637528259e-03
2.763334156013023783e-03
2.921442389775459961e-03
3.069115818775312171e-03
3.204641610275303209e-03
3.326435927520964963e-03
3.433064969186266826e-03
3.523264223184172875e-03
3.595955600738250449e-03
3.650262239128008231e-03
3.685520771902204337e-03
3.701290855284198808e-03
3.697361847375313718e-03
3.673756576608982159e-03
3.630732003986737819e-03
3.568776873253754530e-03
3.488606279683121279e-03
3.391153267714541123e-03
3.277557501956892237e-03
3.149151188320699520e-03
3.007442414679773520e-03
2.854096118636242733e-03
2.690912878689269080e-03
2.519805892122577162e-03
2.342776408136315516e-03
2.161887946524871859e-03
1.979239619601108526e-03
1.796938979431818729e-03
1.617074785093112295e-03
1.441689903704037289e-03
1.272754909314795409e-03
1.112142749001524423e-03
9.616047012913474940e-04
8.227481049761995987e-04
6.970160823460522410e-04
5.856696168334464417e-04
4.897722119927728091e-04
4.101773636053984620e-04
3.475190616890345952e-04
3.022054003771042978e-04
2.744154643512385799e-04
2.640994937887928477e-04
2.709823476644949189e-04
2.945702003504264825e-04
3.341604166087942416e-04
3.888544259933210769e-04
4.575733752352538031e-04
5.390764058723910212e-04
6.319811527312453950e-04
7.347863213933369334e-04
8.458958793759607667e-04
9.636445100206547697e-04
1.086323941091209668e-03
1.212209764802142306e-03
1.339588317372006994e-03
1.466783168026735470e-03
1.592180883513904513e-03
1.714255578469644830e-03
1.831591861670724608e-03
1.942905899580192868e-03
2.047064157561458587e-03
2.143099564559378285e-03
2.230224856926335715e-03
2.307842853857556328e-03
2.375553481232808677e-03
2.433157484844686129e-03
2.480656652973587447e-03
2.518250631254994980e-03
2.546330394692057977e-03
2.565468383305565241e-03
2.576405457098865630e-03
2.580034979564656099e-03
2.577384217700573552e-03
2.569593317507337920e-03
2.557892250239847919e-03
2.543576097013896999e-03
2.527979024512698805e-03
2.512447486609943863e-03
2.498313005884274240e-03
2.486865023969794027e-03
2.479324244864566321e-03
2.476816990504831974e-03
2.480350924522159006e-03
2.490792622910333043e-03
2.508847423162843555e-03
2.535041823863131392e-03
2.569708788636969072e-03
2.612976237924163371e-03
2.664758950774243334e-03
2.724754035971492516e-03
2.792440122217359263e-03
2.867080281362367582e-03
2.947728717065526468e-03
3.033241085549162695e-03
3.122288447176044431e-03
3.213374544423746714e-03
3.304856178567774829e-03
3.394966430626543668e-03
3.481840335038406675e-03
3.563542669323454572e-03
3.638097401282642824e-03
3.703518328760256259e-03
3.757840464198792391e-03
3.799151578050604088e-03
3.825623537879309019e-03
3.835542826876999108e-03
3.827339804417934956e-03
3.799616191473657693e-03
3.751170380990184999e-03
3.681020012658017555e-03
3.588421590431575218e-03
3.472886780360872391e-03
3.334194928544181608e-03
3.172401793966279481e-03
2.987844230617769156e-03
2.781140644641648309e-03
2.553187272451945718e-03
2.305150273771326957e-03
2.038453759180465855e-03
1.754763835563921768e-03
1.455968946688373936e-03
1.144156766720901951e-03
8.215880303267549369e-04
4.906676171511662951e-04
1.539133516809047635e-04
-1.860770234932602487e-04
-5.266601609942626015e-04
-8.651822210646706226e-04
-1.199014282912509157e-03
-1.525587486385356593e-03
-1.842427325456882795e-03
-2.147186548606480269e-03
-2.437676280428967539e-03
-2.711894773654862680e-03
-2.968053370766293112e-03
-3.204599331300711507e-03
-3.420235162355382379e-03
-3.613934069006509344e-03
-3.784951396319978078e-03
-3.932831834898815361e-03
-4.057412305054883088e-03
-4.158820518656456897e-03
-4.237469199855162585e-03
-4.294046156319849573e-03
-4.329500209792578290e-03
-4.345023407088388981e-03
-4.342029693806976134e-03
-4.322130435197559829e-03
-4.287107206796775087e-03
-4.238882238862599211e-03
-4.179487045925486463e-03
-4.111029702031490651e-03
-4.035661365972559832e-03
-3.955542536990099348e-03
-3.872809582487190920e-03
-3.789542029244874228e-03
-3.707731230380801810e-03
-3.629250816965555633e-03
-3.555829435204174282e-03
-3.489026194259919455e-03
-3.430209130069948337e-03
-3.380537112960104677e-03
-3.340945367789157749e-03
-3.312134801513191753e-03
-3.294565366807410134e-03
-3.288453492725999967e-03
-3.293773495477338685e-03
-3.310263037864357404e-03
-3.337432418513322941e-03
-3.374577529299870558e-03
-3.420796143597429340e-03
-3.475007339741362656e-03
-3.535973676933527876e-03
-3.602325634126231531e-03
-3.672587960634791926e-03
-3.745207388042713376e-03
-3.818581322360577179e-03
-3.891086874745150644e-03
-3.961109876031037626e-03
-4.027073272199127758e-03
-4.087464391106501206e-03
-4.140860707071529478e-03
-4.185953664219446875e-03
-4.221570107102379926e-03
-4.246690911844964132e-03
-4.260466702710925986e-03
-4.262230258575040384e-03
-4.251505491732687596e-03
-4.228012796344786731e-03
-4.191670831354898756e-03
-4.142594644598813006e-03
-4.081090237514967654e-03
-4.007645697866902938e-03
-3.922919152388727043e-03
-3.827723729435335374e-03
-3.723009822406109139e-03
-3.609845036138558706e-03
-3.489392219643032509e-03
-3.362886056943791956e-03
-3.231608524492104225e-03
-3.096863786516627481e-03
-2.959953017643892834e-03
-2.822149604051190069e-03
-2.684675157626998775e-03
-2.548676833566632105e-03
-2.415206429745860896e-03
-2.285201515091021211e-03
-2.159469068598107895e-03
-2.038671926560724993e-03
-1.923318304008750715e-03
-1.813754484569256786e-03
-1.710160994814583424e-03
-1.612552206674640895e-03
-1.520779413914738736e-03
-1.434537357695745037e-03
-1.353374099028522215e-03
-1.276703985361646787e-03
-1.203823529427225933e-03
-1.133929922259638550e-03
-1.066141826802902235e-03
-9.995220696764313753e-04
-9.331017504682958879e-04
-8.659053699624965489e-04
-7.969765026362101270e-04
-7.254035109251338051e-04
-6.503447598488935151e-04
-5.710529204852751945e-04
-4.868978178684460066e-04
-3.973873803629135513e-04
-3.021862804793377499e-04
-2.011318213202292575e-04
-9.424678564460065087e-05
1.825108770653887191e-05
1.359432057766597594e-04
2.582080540353672233e-04
3.842229940877298121e-04
5.129700295274001271e-04
6.432455206048625761e-04
7.736737025145890402e-04
9.027238286745672491e-04
1.028730839274503896e-03
1.149919144590704108e-03
1.264429245378973507e-03
1.370346689822952166e-03
1.465733030500744388e-03
1.548658203185723304e-03
1.617233897507361221e-03
1.669647264225485690e-03
1.704194475256733945e-03
1.719313527526211390e-03
1.713615745553706592e-03
1.685915428658953889e-03
1.635257137085831172e-03
1.560940073132063800e-03
1.462539120697489443e-03
1.339922174976585422e-03
1.193263335190246181e-03
1.023051704229544553e-03
8.300955453694518421e-04
6.155216919309903188e-04
3.807701339687251667e-04
1.275836747239029849e-04
-1.420071497410015646e-04
-4.257037693785663225e-04
-7.209637585579936831e-04
-1.025029171463887360e-03
-1.334958506602454669e-03
-1.647662089649621102e-03
-1.959940316827939177e-03
-2.268524185022562003e-03
-2.570117557592236941e-03
-2.861440576098611341e-03
-3.139273595112974675e-03
-3.400500949813289962e-03
-3.642153943182249286e-03
-3.861452425443034995e-03
-4.055844318761252926e-03
-4.223042457338583439e-03
-4.361058222402077779e-03
-4.468231436871992167e-03
-4.543256050102253800e-03
-4.585201181626072375e-03
-4.593527185480730628e-03
-4.568096528405806746e-03
-4.509179164577040676e-03
-4.417452321684111304e-03
-4.293994746643579191e-03
-4.140275435489454078e-03
-3.958136908748318035e-03
-3.749773263070582327e-03
-3.517703281047398524e-03
-3.264738957306148083e-03
-2.993949949706570853e-03
-2.708624337255713995e-03
-2.412226251846916105e-03
-2.108350981796805901e-03
-1.800678179231642549e-03
-1.492923868663598467e-03
-1.188791874064072879e-03
-8.919253711116338374e-04
-6.058592246979534277e-04
-3.339737938572371039e-04
-7.945097527694318232e-05
1.547671425613996875e-04
3.660162947519292310e-04
5.519441005167654429e-04
7.105398143355265775e-04
8.401593011981877464e-04
9.395449793581728487e-04
1.007840398746694599e-03
1.044599214223487478e-03
1.049788486349213356e-03
1.023786278696597104e-03
9.673736726439280745e-04
8.817212004255109556e-04
7.683699857835422269e-04
6.292078899804809215e-04
4.664410230317433980e-04
2.825609776859838804e-04
8.030833524376027380e-05
-1.373670509482172175e-04
-3.673483294229304831e-04
-6.063960069879640669e-04
-8.511936507875470957e-04
-1.098394295152807076e-03
-1.344666900754661401e-03
-1.586742196305889006e-03
-1.821457270016626096e-03
-2.045798227652021080e-03
-2.256940375794174673e-03
-2.452285307566645992e-03
-2.629494502898426476e-03
-2.786518886068502406e-03
-2.921623927163521667e-03
-3.033409993451698875e-03
-3.120827721895324397e-03
-3.183188218939233052e-03
-3.220167862231719091e-03
-3.231807879663307209e-03
-3.218508603243987881e-03
-3.181018597593831924e-03
-3.120418778897986710e-03
-3.038101812088943917e-03
-2.935747228504184594e-03
-2.815292562255300533e-03
-2.678900967787410225e-03
-2.528925849571339503e-03
-2.367873018845021837e-03
-2.198360912950770435e-03
-2.023079591544672297e-03
-1.844748985658420338e-03
-1.666077089067316422e-03
-1.489718711343014776e-03
-1.318235422884493115e-03
-1.154057153216790817e-03
-9.994461004343400696e-04
-8.564634650051879084e-04
-7.269394691677469843e-04
-6.124470841283182572e-04
-5.142798019865690330e-04
-4.334337620004921057e-04
-3.705944828217961305e-04
-3.261284580857021480e-04
-3.000794843623588943e-04
-2.921700372057878920e-04
-3.018073879378454409e-04
-3.280944975068791924e-04
-3.698455405326391498e-04
-4.256056752811834170e-04
-4.936747798261409892e-04
-5.721348637514636582e-04
-6.588806553807729062e-04
-7.516529667718113749e-04
-8.480743598075527693e-04
-9.456864372688767589e-04
-1.041988326673502470e-03
-1.134475801179123935e-03
-1.220680358737159148e-03
-1.298207834140457017e-03
-1.364775818235416417e-03
-1.418249477849855287e-03
-1.456675179326008844e-03
-1.478311477377787855e-03
-1.481656984490881427e-03
-1.465474762947126079e-03
-1.428812840999610888e-03
-1.371020648040783716e-03
-1.291761044180118109e-03
-1.191017878511658329e-03
-1.069098887977164552e-03
-9.266339631680282473e-04
-7.645687753943350862e-04
-5.841538708858888106e-04
-3.869294083476486042e-04
-1.747057619208662311e-04
5.045969237765673309e-05
2.862893434681887958e-04
5.303152556660732262e-04
7.799118096477035845e-04
1.032330550998279044e-03
1.284736846333081172e-03
1.534247744704613382e-03
1.777970613317252048e-03
2.013041929872278705e-03
2.236665700761788968e-03
2.446151077214753829e-03
2.638948550828146018e-03
2.812684236243184494e-03
2.965191856977420718e-03
3.094541947568564978e-03
3.199067926375861320e-03
3.277388674658905567e-03
3.328427322639172445e-03
3.351426037292952811e-03
3.345956653737340927e-03
3.311926968748514759e-03
3.249582683593181618e-03
3.159504958760326818e-03
3.042603716200861265e-03
2.900106717783444612e-03
2.733544629484473739e-03
2.544732405403071426e-03
2.335747028411683593e-03
2.108902186362725337e-03
1.866720070529891704e-03
1.611900780811027474e-03
1.347289742986198169e-03
1.075843560931221765e-03
8.005948395974869791e-04
5.246163210579572311e-04
2.509849464476513110e-04
-1.725376030833656885e-05
-2.771205418917877927e-04
-5.257359958228506602e-04
-7.603525252636311477e-04
-9.783842640899819820e-04
-1.177434541549969788e-03
-1.355320644141416123e-03
-1.510095618653482753e-03
-1.640066820197735604e-03
-1.743811090387491171e-03
-1.820186326817339363e-03
-1.868339466063115512e-03
-1.887710757652156851e-03
-1.878034462181187416e-03
-1.839335924044670743e-03
-1.771925175191291311e-03
-1.676387278740581067e-03
-1.553569511345194790e-03
-1.404565698331396162e-03
-1.230697964129132647e-03
-1.033496153254632359e-03
-8.146753158358760634e-04
-5.761115382638321882e-04
-3.198165040013419653e-04
-4.791116788238358206e-05
2.374011496180404362e-04
5.338617811404718083e-04
8.391835821664411039e-04
1.151077246613417104e-03
1.467276803188393829e-03
1.785563881453941515e-03
2.103790546064039386e-03
2.419900438718258339e-03
2.731948011262509690e-03
3.038115636292656237e-03
3.336728455686983116e-03
3.626266829537390986e-03
3.905376335994487341e-03
4.172875279559469693e-03
4.427759703212530602e-03
4.669205919919869503e-03
4.896570630096803989e-03
5.109388733570139826e-03
5.307368985907118773e-03
5.490387585613462455e-03
5.658479918641708822e-03
5.811830574991802036e-03
5.950761946584573470e-03
6.075721581800374443e-03
6.187268473700333407e-03
6.286058596836521795e-03
6.372829868912844448e-03
6.448386740749365020e-03
6.513584729065688243e-03
6.569315014579195540e-03
6.616489281023863606e-03
6.656025078624056360e-03
6.688831816067272902e-03
6.715797532380322898e-03
6.737776554006134379e-03
6.755578202729388762e-03
6.769956583122027811e-03
6.781601522299586342e-03
6.791130754004138029e-03
6.799083311603953614e-03
6.805914171735771151e-03
6.811990116122562493e-03
6.817586798228005875e-03
6.822886976874489515e-03
6.827979836893744055e-03
6.832861384330187436e-03
6.837435812679443919e-03
6.841517748602652174e-03
6.844835433147028296e-03
6.847034501931564127e-03
6.847682551335035686e-03
6.846274281376264585e-03
6.842237177056959517e-03
6.834937652219906686e-03
6.823687575219752194e-03
6.807751234433231415e-03
6.786352537756639401e-03
6.758682532068309781e-03
6.723907150813369059e-03
6.681175168352875178e-03
6.629626374841317282e-03
6.568399921535935174e-03
6.496642783060795415e-03
6.413518423817586057e-03
6.318215535270305799e-03
6.209956975416255562e-03
6.088008686032085962e-03
5.951688723955485087e-03
5.800376341811969670e-03
5.633521011140431300e-03
5.450651397931940804e-03
5.251384163570553369e-03
5.035432576939035884e-03
4.802614849117568113e-03
4.552862058029993539e-03
4.286225624085910832e-03
4.002884066540083295e-03
3.703149121887418325e-03
3.387470913229467806e-03
3.056442161309058485e-03
2.710801221687080247e-03
2.351433786055660662e-03
1.979373204142897448e-03
1.595799233254905367e-03
1.202035129829699678e-03
7.995429219868772355e-04
3.899167770552255290e-04
-2.512553071811149418e-05
-4.437531977763893598e-04
-8.640350387233348452e-04
-1.283954113530523002e-03
-1.701424308612642378e-03
-2.114308931382969953e-03
-2.520441057636772526e-03
-2.917645619595690687e-03
-3.303762979438975688e-03
-3.676673801688482620e-03
-4.034325007990276907e-03
-4.374756503321787504e-03
-4.696128382578312714e-03
-4.996748286015087991e-03
-5.275098545403181585e-03
-5.529862760966250054e-03
-5.759951370963023454e-03
-5.964525829503507584e-03
-6.143021039174613451e-03
-6.295165564981941575e-03
-6.420999263282730837e-03
-6.520888020416788777e-03
-6.595535135050446980e-03
-6.645989033192546518e-03
-6.673647091486329362e-03
-6.680255273560844510e-03
-6.667903423258584629e-03
-6.639015970939596799e-03
-6.596338066185065442e-03
-6.542917030659989829e-03
-6.482079251365096238e-03
-6.417402490001887158e-03
-6.352683944628845225e-03
-6.291904109996365388e-03
-6.239186908265826996e-03
-6.198756367357914632e-03
-6.174890247201252243e-03
-6.171871207616054338e-03
-6.193935988958206365e-03
-6.245223218009355627e-03
-6.329720419518505489e-03
-6.451210949728121424e-03
-6.613221530354258630e-03
-6.818971091280974159e-03
-7.071321585013857873e-03
-7.372731466075361888e-03
-7.725212553340166620e-03
-8.130290953361297979e-03
-8.588972589711850805e-03
-9.101713944493914493e-03
-9.668398545847582334e-03
-1.028831967923595457e-02
-1.096016964215585331e-02
-1.168203590528873667e-02
-1.245140437650387247e-02
-1.326516984183681407e-02
-1.411965370525615493e-02
-1.501062894268423084e-02
-1.593335205615516517e-02
-1.688260184973978603e-02
-1.785272462075453842e-02
-1.883768531496774271e-02
-1.983112416770820008e-02
-2.082641813867973715e-02
-2.181674655101907209e-02
-2.279516008287378950e-02
-2.375465238222845832e-02
-2.468823338610776769e-02
-2.558900347042836892e-02
-2.645022749213791352e-02
-2.726540786241726452e-02
-2.802835573322752169e-02
-2.873325928213648142e-02
-2.937474830093532441e-02
-2.994795422529489271e-02
-3.044856480359518780e-02
-3.087287273476879354e-02
-3.121781754936542308e-02
-3.148102021323827271e-02
-3.166080997424507854e-02
-3.175624305427723199e-02
-3.176711291628463163e-02
-3.169395195519123659e-02
-3.153802457164774087e-02
-3.130131166591137992e-02
-3.098648672543831417e-02
-3.059688379794035101e-02
-3.013645768253477020e-02
-2.960973692582493516e-02
-2.902177018290279589e-02
-2.837806660794191943e-02
-2.768453097982418246e-02
-2.694739442042683175e-02
-2.617314160040477150e-02
-2.536843536114519529e-02
-2.454003968228438831e-02
-2.369474190785229861e-02
-2.283927539849250204e-02
-2.198024337207584930e-02
-2.112404499968063842e-02
-2.027680470359043141e-02
-1.944430546130080512e-02
-1.863192698618137966e-02
-1.784458953440912904e-02
-1.708670398370663521e-02
-1.636212886321250157e-02
-1.567413466377751488e-02
-1.502537606801531908e-02
-1.441787219495853020e-02
-1.385299515381613854e-02
-1.333146695689699929e-02
-1.285336478268488299e-02
-1.241813447430563377e-02
-1.202461193955402415e-02
-1.167105225011177971e-02
-1.135516592911690707e-02
-1.107416183624549202e-02
-1.082479619369815238e-02
-1.060342695418687968e-02
-1.040607281948636477e-02
-1.022847607566494156e-02
-1.006616844293499805e-02
-9.914538975755705918e-03
-9.768903281714850020e-03
-9.624572993328228340e-03
-9.476924647329186199e-03
-9.321467110084082422e-03
-9.153906679142712402e-03
-8.970208931393280558e-03
-8.766656680721381448e-03
-8.539903267349976956e-03
-8.287020462298219647e-03
-8.005540438421544086e-03
-7.693491279128889491e-03
-7.349425534784421316e-03
-6.972441604709515330e-03
-6.562197582383767595e-03
-6.118917489682811420e-03
-5.643389746545701517e-03
-5.136957963469319238e-03
-4.601504148668537734e-03
-4.039424595313853561e-03
-3.453598748728584772e-03
-2.847351429221230742e-03
-2.224408873726308952e-03
-1.588849196224917425e-03
-9.450478351815986503e-04
-2.976187582104583757e-04
3.486479782105392070e-04
9.888513759302142679e-04
1.618046587338659199e-03
2.231313237322749953e-03
2.823823851623462333e-03
3.390911709377981628e-03
3.928137250571288493e-03
4.431352113513680607e-03
4.896759971135887513e-03
5.320973410968871456e-03
5.701066031978679546e-03
6.034619192092614132e-03
6.319762572856973265e-03
6.555208130919130440e-03
6.740276853788294310e-03
6.874917947358688379e-03
6.959720099038438010e-03
6.995914528236561042e-03
6.985369771804571595e-03
6.930578183810801388e-03
6.834634108828145302e-03
6.701203939043919207e-03
6.534488410477032327e-03
6.339177403409105259e-03
6.120397779179207777e-03
5.883654870280378459e-03
5.634768181385575898e-03
5.379802174037693480e-03
5.124992884394546401e-03
4.876671341368429141e-03
4.641184682220496696e-03
4.424815989705127225e-03
4.233703923154400264e-03
4.073763188150683612e-03
3.950606916658856195e-03
3.869472009080314728e-03
3.835148552655431864e-03
3.851914312548754792e-03
3.923475255859479489e-03
4.052913090331375194e-03
4.242640568969736556e-03
4.494365326288518939e-03
4.809062933065676171e-03
5.186959666087617021e-03
5.627525426895967769e-03
6.129477115535828663e-03
6.690792518952841730e-03
7.308734753525399086e-03
7.979887067245347923e-03
8.700197715804288898e-03
9.465034439569157756e-03
1.026924794831127544e-02
1.110724363324939491e-02
1.197306060306322500e-02
1.286045704506719872e-02
1.376300075931045398e-02
1.467416365629735549e-02
1.558741886006665203e-02
1.649633904395407177e-02
1.739469457689859361e-02
1.827655000864848028e-02
1.913635741178635122e-02
1.996904510338379235e-02
2.077010041889942524e-02
2.153564507956501339e-02
2.226250191172757936e-02
2.294825186460136557e-02
2.359128009936672585e-02
2.419081042102995752e-02
2.474692729619305115e-02
2.526058486009093162e-02
2.573360258075326271e-02
2.616864749233181395e-02
2.656920292731705310e-02
2.693952415681176091e-02
2.728458136919886465e-02
2.760999067689452399e-02
2.792193405646870366e-02
2.822706935162255446e-02
2.853243153500616483e-02
2.884532670865115264e-02
2.917322045291491361e-02
2.952362220810111210e-02
2.990396745671167547e-02
3.032149965867962996e-02
3.078315369197669182e-02
3.129544282771054564e-02
3.186435102925024021e-02
3.249523249324163393e-02
3.319272014918125263e-02
3.396064464881551337e-02
3.480196539710220943e-02
3.571871487462956879e-02
3.671195740044554817e-02
3.778176302200248610e-02
3.892719739328760753e-02
4.014632786579015039e-02
4.143624590525768481e-02
4.279310565697058005e-02
4.421217820918131591e-02
4.568792079576531467e-02
4.721405998519657282e-02
4.878368756068001549e-02
5.038936771909997836e-02
5.202325371742824722e-02
5.367721218154693219e-02
5.534295304484855571e-02
5.701216289783499896e-02
5.867663960043478788e-02
6.032842573881678355e-02
6.195993864936260448e-02
6.356409477646485229e-02
6.513442614252068497e-02
6.666518678651262020e-02
6.815144727125277413e-02
6.958917549481632991e-02
7.097530225881605592e-02
7.230777032308127739e-02
7.358556595447758586e-02
7.480873230733553481e-02
7.597836416848963159e-02
7.709658413943015765e-02
7.816650036792997802e-02
7.919214661627239915e-02
8.017840554284311194e-02
8.113091643529844743e-02
8.205596894689622112e-02
8.296038470480160409e-02
8.385138884622264643e-02
8.473647377139971459e-02
8.562325746337381971e-02
8.651933904349511095e-02
8.743215410901158946e-02
8.836883257119403090e-02
8.933606161092833009e-02
9.033995634235421346e-02
9.138594064138334805e-02
9.247864040214073822e-02
9.362179132597640840e-02
9.481816303480410102e-02
9.606950103531351759e-02
9.737648785304893473e-02
9.873872402740326015e-02
1.001547296461149650e-01
1.016219663732430833e-01
1.031368797935416776e-01
1.046949613475603030e-01
1.062908288586051075e-01
1.079183242612364313e-01
1.095706267536199624e-01
1.112403793176160727e-01
1.129198263288614945e-01
1.146009596892173105e-01
1.162756708199210592e-01
1.179359055515597499e-01
1.195738190493569053e-01
1.211819278024389435e-01
1.227532558232779930e-01
1.242814722082483253e-01
1.257610174976334094e-01
1.271872163079861007e-01
1.285563741258237691e-01
1.298658563783813003e-01
1.311141483117716777e-01
1.323008945609281395e-01
1.334269176386410349e-01
1.344942151166388378e-01
1.355059356945134685e-01
1.364663346290290458e-01
1.373807096497320634e-01
1.382553186950667423e-01
1.390972813858819546e-01
1.399144663597851335e-01
1.407153668669634539e-01
1.415089675037554950e-01
1.423046048927184559e-01
1.431118253380766203e-01
1.439402425734868374e-01
1.447993987252759185e-01
1.456986315417263256e-01
1.466469506768137976e-01
1.476529256914247967e-01
1.487245881709764184e-01
1.498693499067429991e-01
1.510939387033218839e-01
1.524043530257846724e-01
1.538058360376539924e-01
1.553028691084729074e-01
1.568991844119365375e-01
1.585977954837111403e-01
1.604010442214722776e-01
1.623106621887506484e-01
1.643278436193505720e-01
1.664533269799157722e-01
1.686874815717914200e-01
1.710303952945336214e-01
1.734819594991848235e-01
1.760419465206645717e-01
1.787100755071996394e-01
1.814860621439141342e-01
1.843696478548132178e-01
1.873606044803506898e-01
1.904587106688735987e-01
1.936636965733607163e-01
1.969751541163027031e-01
2.003924106381944625e-01
2.039143644707887837e-01
2.075392817944960167e-01
2.112645550180640153e-01
2.150864237945454005e-01
2.189996608575157933e-01
2.229972256560550370e-01
2.270698899698647133e-01
2.312058404492120245e-01
2.353902640782565558e-01
2.396049234747010537e-01
2.438277296305738917e-01
2.480323204274261506e-01
2.521876539158364183e-01
2.562576257063846064e-01
2.602007203506732091e-01
2.639697065458395109e-01
2.675113860801755505e-01
2.707664062628272750e-01
2.736691452702234018e-01
2.761476791795319241e-01
2.781238388542105477e-01
2.795133638186926284e-01
2.802261593825500774e-01
2.801666618303677025e-01
2.792343151536262891e-01
2.773241612870934181e-01
2.743275442555038746e-01
2.701329267973259229e-01
2.646268161989411283e-01
2.576947944110775102e-01
2.492226454331188945e-01
2.390975713068849984e-01
2.272094861571747337e-01
2.134523760460702302e-01
1.977257106321955726e-01
1.799358915528807834e-01
1.599977206572740784e-01
1.378358703450248413e-01
1.133863373068020736e-01
8.659786037212098553e-02
5.743328260293723703e-02
2.587083764757630577e-02
-8.094659355795820466e-03
-4.445073581537063723e-02
-8.316631921619836720e-02
-1.241909459951569678e-01
-1.674541380560099491e-01
-2.128649617238193015e-01
-2.603117821969983536e-01
-3.096622244647517230e-01
-3.607633493077596065e-01
-4.134420505997745132e-01
-4.675056775838268841e-01
-5.227428827425536495e-01
-5.789246934458449623e-01
-6.358058023538900594e-01
-6.931260687570826029e-01
-7.506122202260763210e-01
-8.079797410574666161e-01
-8.649349313090807234e-01
-9.211771178181095143e-01
-9.764009960901745000e-01
-1.030299079944974938e+00
-1.082564233988122293e+00
-1.132892262354733059e+00
-1.180984526011767732e+00
-1.226550559857805478e+00
-1.269310660706948202e+00
-1.308998416684683086e+00
-1.345363149104512379e+00
-1.378172238378798875e+00
-1.407213306492856031e+00
-1.432296230064657117e+00
-1.453254959785118983e+00
-1.469949123860663232e+00
-1.482265395706241273e+00
-1.490118608651228138e+00
-1.493452603423361280e+00
-1.492240797380277817e+00
-1.486486467521565213e+00
-1.476222742860446413e+00
-1.461512305336302830e+00
-1.442446801800410183e+00
-1.419145973185405696e+00
-1.391756510425690152e+00
-1.360450650012834828e+00
-1.325424525174357049e+00
-1.286896291847120066e+00
-1.245104050941424401e+00
-1.200303591276106863e+00
-1.152765979303055133e+00
-1.102775023702419643e+00
-1.050624644282884601e+00
-9.966161756765788970e-01
-9.410556368264576532e-01
-8.842509974731423972e-01
-8.265094727539806785e-01
-7.681348762410108444e-01
-7.094250608050580720e-01
-6.506694752152955008e-01
-5.921468627767277892e-01
-5.341231260659752289e-01
-4.768493794160112431e-01
-4.205602082392996821e-01
-3.654721513602696703e-01
-3.117824193739468508e-01
-2.596678589374843416e-01
-2.092841695069985741e-01
-1.607653757658046856e-01
-1.142235556304207200e-01
-6.974882036162824428e-02
-2.740954008303770478e-02
1.274719484706368644e-02
5.069488924996227303e-02
8.642675051096805616e-02
1.199546055323823385e-01
1.513076469935663027e-01
1.805310304397925725e-01
2.076843450248226086e-01
2.328399821090498811e-01
2.560814264745726043e-01
2.775014953275635188e-01
2.972005502627300122e-01
3.152847070347222780e-01
3.318640673073183223e-01
3.470509953963720751e-01
3.609584619770981884e-01
3.736984746690875658e-01
3.853806139800506902e-01
3.961106906359883606e-01
4.059895382736846692e-01
4.151119529667672836e-01
4.235657884435084508e-01
4.314312134848500291e-01
4.387801350328368044e-01
4.456757882110730651e-01
4.521724918362596823e-01
4.583155653593133372e-01
4.641414011584283905e-01
4.696776837508834235e-01
4.749437454790533253e-01
4.799510464855755720e-01
4.847037655221796415e-01
4.891994865388401004e-01
4.934299652615732890e-01
4.973819591342633073e-01
5.010381036413379396e-01
5.043778178933013834e-01
5.073782225561956905e-01
5.100150535636334137e-01
5.122635557142313223e-01
5.140993412761637460e-01
5.154991997333125964e-01
5.164418462344937399e-01
5.169085977474661142e-01
5.168839675005757472e-01
5.163561702358493433e-01
5.153175323041515599e-01
5.137648027752175217e-01
5.116993634404065627e-01
5.091273373427002147e-01
5.060595976073589686e-01
5.025116796457458346e-01
4.985036016811981163e-01
4.940595998544893286e-01
4.892077855926762475e-01
4.839797340924231750e-01
4.784100135509497531e-01
4.725356656941160360e-01
4.663956486667344969e-01
4.600302537257901503e-01
4.534805072360774680e-01
4.467875694173459866e-01
4.399921410099811303e-01
4.331338885740789180e-01
4.262508985736960243e-01
4.193791693846106727e-01
4.125521496347331341e-01
4.058003300599479224e-01
3.991508949892937363e-01
3.926274382261673024e-01
3.862497469971790109e-01
3.800336559743551224e-01
3.739909723122690766e-01
3.681294712827117843e-01
3.624529607691821531e-01
3.569614116132305282e-01
3.516511499388487172e-01
3.465151061926216025e-01
3.415431150531795801e-01
3.367222595255004447e-01
3.320372516951786146e-01
3.274708424203525148e-01
3.230042518269647944e-01
3.186176121886896695e-01
3.142904149899697908e-01
3.100019538828462928e-01
3.057317556863796137e-01
3.014599919462031541e-01
2.971678641503662233e-01
2.928379563174173250e-01
2.884545495336236498e-01
2.840038937206450509e-01
2.794744329271425243e-01
2.748569813705258325e-01
2.701448484082133450e-01
2.653339116202713122e-01
2.604226381903154142e-01
2.554120556367944217e-01
2.503056740452899720e-01
2.451093625714924062e-01
2.398311838267291607e-01
2.344811906039805938e-01
2.290711897367975203e-01
2.236144786034786336e-01
2.181255599057196071e-01
2.126198408736997003e-01
2.071133229953524280e-01
2.016222884284197270e-01
1.961629892167107425e-01
1.907513450852826031e-01
1.854026554529244197e-01
1.801313307738897918e-01
1.749506477842890650e-01
1.698725327826784981e-01
1.649073762866103965e-01
1.600638819317052597e-01
1.553489515335645388e-01
1.507676075750526423e-01
1.463229537446340267e-01
1.420161732346208183e-01
1.378465639752900762e-01
1.338116090738373509e-01
1.299070802501339772e-01
1.261271715059248122e-01
1.224646596249848313e-01
1.189110878466634880e-01
1.154569684199615032e-01
1.120919997938978757e-01
1.088052938560050975e-01
1.055856085095468050e-01
1.024215810185239300e-01
9.930195754339647685e-02
9.621581450003480196e-02
9.315276757696951127e-02
9.010316476096834337e-02
8.705825998403787791e-02
8.401036435416074644e-02
8.095297265114795304e-02
7.788086320586759537e-02
7.479016976693662888e-02
7.167842462973353368e-02
6.854457292404630975e-02
6.538895836865221689e-02
6.221328153683551576e-02
5.902053196330860757e-02
5.581489608074523961e-02
5.260164340677625505e-02
4.938699365963365034e-02
4.617796788589913909e-02
4.298222688361907906e-02
3.980790037976003615e-02
3.666341067621631256e-02
3.355729422998634387e-02
3.049802484949513601e-02
2.749384199421129119e-02
2.455258740442868223e-02
2.168155329031080936e-02
1.888734481274161048e-02
1.617575922684807641e-02
1.355168384672890067e-02
1.101901449040045347e-02
8.580595662857157940e-03
6.238183257728658303e-03
3.992429993614078632e-03
1.842893572305147462e-03
-2.119331108406013239e-04
-2.174570629945898198e-03
-4.048482095123578234e-03
-5.837984267887891612e-03
-7.548142941105125993e-03
-9.184654829869512080e-03
-1.075371867668743070e-02
-1.226189841011687473e-02
-1.371598105221711987e-02
-1.512283250415134318e-02
-1.648925403111842561e-02
-1.782184241080404796e-02
-1.912685647320427895e-02
-2.041009265658069033e-02
-2.167677187930800581e-02
-2.293144001881075589e-02
-2.417788373285208875e-02
-2.541906309896082780e-02
-2.665706227906559575e-02
-2.789305896487142417e-02
-2.912731303548624084e-02
-3.035917445675488657e-02
-3.158710996814053512e-02
-3.280874798448701890e-02
-3.402094054528011918e-02
-3.521984092147997791e-02
-3.640099528913087745e-02
-3.755944644898346479e-02
-3.868984746986502132e-02
-3.978658296863149535e-02
-4.084389551337159335e-02
-4.185601471296551690e-02
-4.281728645579275377e-02
-4.372229969317693865e-02
-4.456600840078740744e-02
-4.534384629765217389e-02
-4.605183224773216899e-02
-4.668666426516486501e-02
-4.724580046797204752e-02
-4.772752546855023315e-02
-4.813100098987080355e-02
-4.845629980183119995e-02
-4.870442243520983067e-02
-4.887729647042825254e-02
-4.897775843444659299e-02
-4.900951875762453447e-02
-4.897711054254495072e-02
-4.888582300666457353e-02
-4.874162109572013901e-02
-4.855105270788547672e-02
-4.832114523691925095e-02
-4.805929344634833622e-02
-4.777314075939240179e-02
-4.747045602617444571e-02
-4.715900809027674667e-02
-4.684644039505514446e-02
-4.654014792130374556e-02
-4.624715854777237956e-02
-4.597402095196129884e-02
-4.572670097454723664e-02
-4.551048824072229104e-02
-4.532991455915703211e-02
-4.518868550645861043e-02
-4.508962624743800135e-02
-4.503464245153761258e-02
-4.502469680312607553e-02
-4.505980143372551039e-02
-4.513902633159424388e-02
-4.526052322977795056e-02
-4.542156469828547566e-02
-4.561859743015860696e-02
-4.584730869506668111e-02
-4.610270473237383648e-02
-4.637919963600248274e-02
-4.667071305852793506e-02
-4.697077500959288832e-02
-4.727263586370285958e-02
-4.756937972116406788e-02
-4.785403906776416333e-02
-4.811970889022008230e-02
-4.835965827747467499e-02
-4.856743767407629281e-02
-4.873698007206331978e-02
-4.886269446526892574e-02
-4.893955023789582637e-02
-4.896315111238278700e-02
-4.892979758618328651e-02
-4.883653708772404262e-02
-4.868120111284331142e-02
-4.846242897081950995e-02
-4.817967796667609742e-02
-4.783322014379286224e-02
-4.742412576912848760e-02
-4.695423421237452516e-02
-4.642611274145827527e-02
-4.584300434877651431e-02
-4.520876558146246643e-02
-4.452779562089596160e-02
-4.380495790648807758e-02
-4.304549589992294478e-02
-4.225494442509897253e-02
-4.143903811474559246e-02
-4.060361865379388813e-02
-3.975454230123935673e-02
-3.889758927456662269e-02
-3.803837655589597383e-02
-3.718227534915179155e-02
-3.633433463482026171e-02
-3.549921183996478102e-02
-3.468111169593192378e-02
-3.388373413665746875e-02
-3.311023189917387116e-02
-3.236317830670362716e-02
-3.164454561676224853e-02
-3.095569395385740566e-02
-3.029737086970395871e-02
-2.966972121859094008e-02
-2.907230703075004349e-02
-2.850413670195507676e-02
-2.796370293661360265e-02
-2.744902843662173908e-02
-2.695771848264525913e-02
-2.648701942973684040e-02
-2.603388176874284546e-02
-2.559502670407018399e-02
-2.516701511331927849e-02
-2.474631753163634290e-02
-2.432938396563340960e-02
-2.391271238513743153e-02
-2.349291471269050399e-02
-2.306677936527832748e-02
-2.263132915067852732e-02
-2.218387377718970821e-02
-2.172205616027566080e-02
-2.124389198307511176e-02
-2.074780177954233321e-02
-2.023263526273908625e-02
-1.969768766068081406e-02
-1.914270799282274949e-02
-1.856789920992875723e-02
-1.797391041575140819e-02
-1.736182147150044236e-02
-1.673312043680857258e-02
-1.608967428124312427e-02
-1.543369359168935556e-02
-1.476769188551305470e-02
-1.409444040236387981e-02
-1.341691918988023764e-02
-1.273826542347201128e-02
-1.206171974155447087e-02
-1.139057163007820180e-02
-1.072810479137746575e-02
-1.007754333945305898e-02
-9.441999715459701431e-03
-8.824425081043221070e-03
-8.227563051853792331e-03
-7.653907460680551590e-03
-7.105664610191053318e-03
-6.584720786246174573e-03
-6.092615232576929947e-03
-5.630519036059032992e-03
-5.199220110009124263e-03
-4.799114425072180737e-03
-4.430203460190282327e-03
-4.092097906598340072e-03
-3.784027295396181177e-03
-3.504855442921855739e-03
-3.253101219631150502e-03
-3.026964316362961479e-03
-2.824355535551707330e-03
-2.642930955981578987e-03
-2.480129422492461343e-03
-2.333212706643580762e-03
-2.199307757795614191e-03
-2.075450213105386587e-03
-1.958628610638397504e-03
-1.845828571184485005e-03
-1.734076272169053981e-03
-1.620480634014892767e-03
-1.502273608872968687e-03
-1.376847946731306468e-03
-1.241791959155620281e-03
-1.094920897502966572e-03
-9.343045235029867873e-04
-7.582904940694878016e-04
-5.655234112669838605e-04
-3.549592031305702673e-04
-1.258749095258768626e-04
1.221262470163863927e-04
3.891144550452815408e-04
6.748375809988720227e-04
9.787297381897660555e-04
1.299924118122578820e-03
1.637269691336617518e-03
1.989351501752249004e-03
2.354514143884007399e-03
2.730888005361246495e-03
3.116417891650154984e-03
3.508893565693250831e-03
3.905981683189233694e-03
4.305258639527213479e-03
4.704243886632137814e-03
5.100433188092304455e-03
5.491331333058869016e-03
5.874483909525688927e-03
6.247507731917838203e-03
6.608119492654183913e-03
6.954162235198822067e-03
7.283629317252375210e-03
7.594685665619076674e-03
7.885686052922656966e-03
8.155190203897879145e-03
8.401974508273483619e-03
8.625040383717450659e-03
8.823619153649530159e-03
8.997173441134249591e-03
9.145395120365645142e-03
9.268199952278441400e-03
9.365719055842320132e-03
9.438287351951468035e-03
9.486429187864684962e-03
9.510841438873384596e-03
9.512374263234937843e-03
9.492009964393132229e-03
9.450840189817479725e-03
9.390041792102803500e-03
9.310851803099803869e-03
9.214541801839351565e-03
9.102392028355693609e-03
8.975665751654362742e-03
8.835584134407803089e-03
8.683301962303031571e-03
8.519884639132996665e-03
8.346286655879263730e-03
8.163332039656098424e-03
7.971696866103156545e-03
7.771894202511013712e-03
7.564261671423711843e-03
7.348951808644640232e-03
7.125925397462422317e-03
6.894947858755023050e-03
6.655588870586910330e-03
6.407225135212096627e-03
6.149046379471438672e-03
5.880064540025656088e-03
5.599126022065931824e-03
5.304926922169184503e-03
4.996031103798196336e-03
4.670890821778632580e-03
4.327869834483400596e-03
3.965268557154726092e-03
3.581351106053057808e-03
3.174373830371243852e-03
2.742615090905633178e-03
2.284405764442850803e-03
1.798160197878908607e-03
1.282407221745000781e-03
7.358207836075848383e-04
1.572498644858569077e-04
-4.542527943837052873e-04
-1.099403595656630889e-03
-1.778662849472366012e-03
-2.492211913537701034e-03
-3.239932987970679714e-03
-4.021391907885180257e-03
-4.835824201580620103e-03
-5.682124740748374300e-03
-6.558841148962252406e-03
-7.464171143789915218e-03
-8.395963973938755376e-03
-9.351726009298925654e-03
-1.032863059028244108e-02
-1.132353208615040525e-02
-1.233298410680418525e-02
-1.335326169335346314e-02
-1.438038742270466262e-02
-1.541016115716687881e-02
-1.643819308754440947e-02
-1.745993997387996349e-02
-1.847074397473370128e-02
-1.946587383250911879e-02
-2.044056788447745632e-02
-2.139007846150896286e-02
-2.230971720771931371e-02
-2.319490069642310415e-02
-2.404119592779122710e-02
-2.484436513869112476e-02
-2.560040931781706192e-02
-2.630560996479991073e-02
-2.695656848144231676e-02
-2.755024273547646008e-02
-2.808398035565393136e-02
-2.855554819411313186e-02
-2.896315768076280356e-02
-2.930548562463560630e-02
-2.958169020310864525e-02
-2.979142174770134724e-02
-2.993482823887674144e-02
-3.001255549745027174e-02
-3.002574174835099738e-02
-2.997600672945949576e-02
-2.986543537784497326e-02
-2.969655621679274590e-02
-2.947231468983067121e-02
-2.919604167950443085e-02
-2.887141761561770950e-02
-2.850243252173438255e-02
-2.809334249117460824e-02
-2.764862305863865360e-02
-2.717292008315757429e-02
-2.667099868518274519e-02
-2.614769091267851384e-02
-2.560784273824158810e-02
-2.505626104368515600e-02
-2.449766125711697051e-02
-2.393661637638142339e-02
-2.337750788793984888e-02
-2.282447933299754095e-02
-2.228139306772543987e-02
-2.175179070531108039e-02
-2.123885785789631289e-02
-2.074539352441777396e-02
-2.027378456144687119e-02
-1.982598560972546886e-02
-1.940350466582934155e-02
-1.900739448723471128e-02
-1.863824990587195987e-02
-1.829621113096844762e-02
-1.798097289172781443e-02
-1.769179938001385483e-02
-1.742754466583075479e-02
-1.718667832647022622e-02
-1.696731597948234610e-02
-1.676725419353581464e-02
-1.658400932224415869e-02
-1.641485971115384107e-02
-1.625689066439038946e-02
-1.610704156455213323e-02
-1.596215442305453508e-02
-1.581902326310635071e-02
-1.567444358232384510e-02
-1.552526122364320665e-02
-1.536841996198767997e-02
-1.520100722393800084e-02
-1.502029715654024968e-02
-1.482379062539074775e-02
-1.460925145332649631e-02
-1.437473853124697325e-02
-1.411863331762004160e-02
-1.383966238673149142e-02
-1.353691472249349270e-02
-1.320985358458588721e-02
-1.285832282374618600e-02
-1.248254758690683919e-02
-1.208312947392280873e-02
-1.166103619388904680e-02
-1.121758603774793833e-02
-1.075442741890999913e-02
-1.027351378896398243e-02
-9.777074285615125482e-03
-9.267580752991224149e-03
-8.747711522948996635e-03
-8.220312567653740438e-03
-7.688356617824651171e-03
-7.154900926726618683e-03
-6.623044266984935702e-03
-6.095883799783489293e-03
-5.576472490584146076e-03
-5.067777681173140335e-03
-4.572641516455333045e-03
-4.093743620482165162e-03
-3.633566707435573629e-03
-3.194365546387061255e-03
-2.778139684422370990e-03
-2.386610328181621148e-03
-2.021201685679667372e-03
-1.683026939504705380e-03
-1.372879001323270079e-03
-1.091226196728854172e-03
-8.382127674244697468e-04
-6.136641221241785930e-04
-4.170967788132204498e-04
-2.477326321405152998e-04
-1.045173745162034253e-04
1.385735656819251331e-05
1.089285137740979298e-04
1.824333076878287946e-04
2.362784543225597740e-04
2.725076391306283704e-04
2.932676356247477102e-04
3.007737399261658584e-04
2.972749899642182264e-04
2.850197617749837130e-04
2.662223634482658273e-04
2.430310562032971140e-04
2.174980628155604486e-04
1.915519312892078696e-04
1.669727235482541751e-04
1.453703959621089118e-04
1.281666081613541815e-04
1.165801971314536561e-04
1.116164923892720657e-04
1.140605749321943978e-04
1.244744981443140076e-04
1.431984232661690285e-04
1.703555852817183181e-04
2.058609068899796277e-04
2.494330729794382701e-04
3.006096383531667348e-04
3.587650303703460880e-04
4.231309378706738867e-04
4.928186698036229494e-04
5.668431910142568550e-04
6.441481114212629358e-04
7.236314280841343004e-04
8.041713411945644726e-04
8.846517576000768272e-04
9.639869700884944612e-04
1.041145157311479863e-03
1.115170194011895054e-03
1.185201407517763985e-03
1.250490977283335355e-03
1.310418727710032467e-03
1.364503946486041218e-03
1.412414152260493567e-03
1.453970636516699983e-03
1.489150775627204023e-03
1.518087039746484528e-03
1.541062758897254227e-03
1.558504809880996737e-03
1.570973350363726560e-03
1.579148862660130232e-03
1.583816695802544097e-03
1.585849527359046909e-03
1.586187997421950558e-03
1.585819976220084184e-03
1.585758749080416231e-03
1.587020624643233156e-03
1.590602426738393959e-03
1.597459192032081718e-03
1.608482538447702278e-03
1.624480131748095701e-03
1.646156594751862524e-03
1.674096235235975798e-03
1.708747877880178534e-03
1.750412105328253299e-03
1.799231149961832326e-03
1.855181602661755587e-03
1.918070049827118794e-03
1.987531796337435944e-03
2.063032654014517690e-03
2.143873694643742400e-03
2.229199011853922208e-03
2.318006290709107020e-03
2.409160039681817328e-03
2.501407239740015363e-03
2.593395072507596356e-03
2.683690604601739194e-03
2.770801887278045994e-03
2.853200260896017210e-03
2.929343458015121540e-03
2.997699043328784941e-03
3.056767981478961636e-03
3.105107776493721498e-03
3.141354810709959949e-03
3.164245607967344862e-03
3.172636733507360699e-03
3.165522865850143794e-03
3.142052889324902561e-03
3.101543718962429964e-03
3.043491644650301621e-03
2.967581110819387472e-03
2.873690728485378282e-03
2.761896603191202511e-03
2.632472749056403560e-03
2.485888858791600233e-03
2.322805339836985644e-03
2.144065802175060004e-03
1.950687108446828117e-03
1.743847316539390378e-03
1.524871595215621925e-03
1.295216410909745758e-03
1.056452312372073129e-03
8.102455458401333112e-04
5.583388287977430206e-04
3.025316431646470094e-04
4.466025064480210979e-05
-2.134221579814429544e-04
-4.698650125339048239e-04
-7.228392070437352065e-04
-9.705550368663467880e-04
-1.211279056106992968e-03
-1.443349559598215226e-03
-1.665190592191619946e-03
-1.875324300872686185e-03
-2.072381612688181315e-03
-2.255111126196302287e-03
-2.422386184500874978e-03
-2.573210137150968354e-03
-2.706719785373607086e-03
-2.822187261710997364e-03
-2.919020244854000391e-03
-2.996760746996883409e-03
-3.055082581006863477e-03
-3.093787689802615388e-03
-3.112801487191854243e-03
-3.112167519220662877e-03
-3.092041435029265883e-03
-3.052684588398949742e-03
-2.994457404116248993e-03
-2.917812738526167834e-03
-2.823289323663837579e-03
-2.711505496143635195e-03
-2.583153271004400703e-03
-2.438992887948178163e-03
-2.279847938181553488e-03
-2.106600992794428837e-03
-1.920189826788644373e-03
-1.721604284644124953e-03
-1.511883644573660829e-03
-1.292114498993247786e-03
-1.063429001510921013e-03
-8.270034138239812501e-04
-5.840567632562127963e-04
-3.358495818223412714e-04
-8.368245123264773943e-05
1.711056982470324141e-04
4.271397105394762598e-04
6.830109464739711998e-04
9.372807659280053437e-04
1.188484874182664259e-03
1.435138617007997944e-03
1.675743398550300989e-03
1.908794190002699237e-03
2.132788261258013098e-03
2.346235013676097481e-03
2.547667076023285310e-03
2.735652429383017732e-03
2.908807607582917804e-03
3.065811703555145883e-03
3.205421174892155844e-03
3.326485175782357105e-03
3.427961154511620281e-03
3.508930597661251601e-03
3.568614566597230840e-03
3.606388782688240910e-03
3.621797943239093119e-03
3.614568946406269186e-03
3.584622844550224442e-03
3.532085101000508650e-03
3.457293937807563115e-03
3.360806462674729295e-03
3.243402403398001899e-03
3.106085207520468440e-03
2.950080284158623604e-03
2.776830363877992071e-03
2.587987721397015835e-03
2.385403379117912327e-03
2.171113210482907702e-03
1.947321023836514047e-03
1.716378679634028267e-03
1.480763468244853005e-03
1.243052946203719675e-03
1.005897453352913324e-03
7.719906061688551957e-04
5.440382433200785474e-04
3.247260811876246647e-04
1.166865157968995364e-04
-7.753491232874628865e-05
-2.555129498662000206e-04
-4.149754826604294634e-04
-5.538354209727830262e-04
-6.702209388668564551e-04
-7.625037366607185238e-04
-8.293248218633079765e-04
-8.696173354172172677e-04
-8.826261586520593337e-04
-8.679237624342875162e-04
-8.254221731316505354e-04
-7.553806922339325507e-04
-6.584091816509644434e-04
-5.354667813488563424e-04
-3.878560500310169351e-04
-2.172124561755248921e-04
-2.548933322223339535e-05
1.850616364101818055e-04
4.119141090124909155e-04
6.522947120563716422e-04
9.032143261432103686e-04
1.161502574498962529e-03
1.423845122481840614e-03
1.686823313474857672e-03
1.946955510126477298e-03
2.200739687559631359e-03
2.444696750084752231e-03
2.675413877301421363e-03
2.889587361121830674e-03
3.084064294397518158e-03
3.255882575491909642e-03
3.402308691885799676e-03
3.520872715271712063e-03
3.609400062318911338e-03
3.666039554412279383e-03
3.689287440953537434e-03
3.678006997041667267e-03
3.631443502825897496e-03
3.549234293188716430e-03
3.431413847675014294e-03
3.278413956849142007e-03
3.091058771024685330e-03
2.870555001958999698e-03
2.618477357470987404e-03
2.336749437596784273e-03
2.027620353392453698e-03
1.693637556634556163e-03
1.337616099743888301e-03
9.626049323508367684e-04
5.718506454409420618e-04
1.687591289933932390e-04
-2.431442236382824415e-04
-6.602553066615992174e-04
-1.078932472391088597e-03
-1.495537503288731779e-03
-1.906475963347432348e-03
-2.308236294462144306e-03
-2.697427222980659615e-03
-3.070813019785042456e-03
-3.425346201521830593e-03
-3.758197294237575290e-03
-4.066781361485019217e-03
-4.348781020998053470e-03
-4.602165753409805105e-03
-4.825207378151267004e-03
-5.016491570534489970e-03
-5.174925427456907902e-03
-5.299741142411397085e-03
-5.390495857740434590e-03
-5.447067842356534233e-03
-5.469649146044198475e-03
-5.458735081221043929e-03
-5.415110618587057334e-03
-5.339834200866058929e-03
-5.234219202915899385e-03
-5.099813415430651600e-03
-4.938376876731676371e-03
-4.751858481258423167e-03
-4.542371678715124809e-03
-4.312169664627573708e-03
-4.063620423414446292e-03
-3.799181900466518623e-03
-3.521377616742118327e-03
-3.232773037265462401e-03
-2.935952883918144327e-03
-2.633499614274184986e-03
-2.327973315743790163e-03
-2.021893062985894579e-03
-1.717719837742102398e-03
-1.417841088655773891e-03
-1.124556904203281773e-03
-8.400678843687069608e-04
-5.664645941244681859e-04
-3.057185051105360961e-04
-5.967437141109859769e-05
1.699560851827342357e-04
3.815993283491843119e-04
5.738241379640995768e-04
7.453448934978695482e-04
8.950241034864182344e-04
1.021874375090671286e-03
1.125059938327401974e-03
1.203897903688259854e-03
1.257859282951299387e-03
1.286569905602900389e-03
1.289811246434336995e-03
1.267521309583860252e-03
1.219795454651431384e-03
1.146887251483938788e-03
1.049209240367265103e-03
9.273335848006470554e-04
7.819925043530400344e-04
6.140783940486119891e-04
4.246435088143871552e-04
2.148990072590176094e-04
-1.378671790194813236e-05
-2.598906879405125871e-04
-5.217390526858215393e-04
-7.975120109422887456e-04
-1.085250186596879067e-03
-1.382862495513575377e-03
-1.688135639965950788e-03
-1.998745411176157047e-03
-2.312269789746535138e-03
-2.626203868734047504e-03
-2.937976638970480822e-03
-3.244969556680273818e-03
-3.544536896497450535e-03
-3.834027651921728241e-03
-4.110808902830508788e-03
-4.372290424129187530e-03
-4.615950329817944398e-03
-4.839361411846171239e-03
-5.040217875004206725e-03
-5.216362195513365475e-03
-5.365811640696669174e-03
-5.486784162275667488e-03
-5.577723263858468637e-03
-5.637321322159909685e-03
-5.664541086199860985e-03
-5.658634875076009978e-03
-5.619161173433757060e-03
-5.545998248083316810e-03
-5.439354437571176752e-03
-5.299774829838264228e-03
-5.128144134983412747e-03
-4.925685475300715412e-03
-4.693955051144864908e-03
-4.434832484292280420e-03
-4.150506940190710863e-03
-3.843459003417355833e-03
-3.516438404552954707e-03
-3.172437800322920089e-03
-2.814662899007168081e-03
-2.446499132236633952e-03
-2.071475260474201375e-03
-1.693224420405113834e-03
-1.315443036948050863e-03
-9.418480403843057210e-04
-5.761330067229840889e-04
-2.219238646955916145e-04
1.172653593332512336e-04
4.380760403685799776e-04
7.373471771506178102e-04
1.012155582894798660e-03
1.259853600298280933e-03
1.478103654127067542e-03
1.664909294739829338e-03
1.818642021256569943e-03
1.938063577211892501e-03
2.022343310929770443e-03
2.071070347431688830e-03
2.084260272107591773e-03
2.062356201252937490e-03
2.006224169085629640e-03
1.917142851945328021e-03
1.796787644477319812e-03
1.647209386996643021e-03
1.470807903814883586e-03
1.270300703800888911e-03
1.048687275842517851e-03
8.092095246921127529e-04
5.553086833043253566e-04
2.905794482248266232e-04
1.872198416111329753e-05
-2.565075639572530239e-04
-5.313473825361399649e-04
-8.020804254687259431e-04
-1.065084231839350448e-03
-1.316879314852949668e-03
-1.554175634743322661e-03
-1.773916281566976496e-03
-1.973317912802495088e-03
-2.149907260209433808e-03
-2.301553243717365319e-03
-2.426494186712766735e-03
-2.523359827274930176e-03
-2.591187717405943683e-03
-2.629433886136222590e-03
-2.637977569455450793e-03
-2.617119977306504603e-03
-2.567577126118494261e-03
-2.490466826889174961e-03
-2.387290124729192064e-03
-2.259907440092156095e-03
-2.110509776659985886e-03
-1.941585434786101665e-03
-1.755882777694667187e-03
-1.556369554162904739e-03
-1.346189409640508603e-03
-1.128616253571905264e-03
-9.070071449999148917e-04
-6.847543288192425425e-04
-4.652372383273575417e-04
-2.517751023088561375e-04
-4.758079084096802485e-05
1.442834193523984153e-04
3.209474879973351702e-04
4.797721701077311239e-04
6.183838392910783865e-04
7.347052923479995348e-04
8.269820003872481538e-04
8.938035781541803270e-04
9.341200666710180794e-04
9.472530576594153338e-04
9.329014380402468479e-04
8.911417759449452580e-04
8.224234671683407650e-04
7.275587056058436131e-04
6.077076161530773181e-04
4.643587204761241293e-04
2.993051704547757094e-04
1.146171386322322305e-04
-8.738915621975031089e-05
-3.041853194935734725e-04
-5.330669229772762134e-04
-7.711914335498088564e-04
-1.015617274813119001e-03
-1.263343579845339817e-03
-1.511349878446073417e-03
-1.756635221234232203e-03
-1.996256159494617672e-03
-2.227363107135610278e-03
-2.447234585652201169e-03
-2.653308941906917101e-03
-2.843213035099293080e-03
-3.014787672052980649e-03
-3.166109483321886270e-03
-3.295509048820085413e-03
-3.401585030559738272e-03
-3.483214325139383834e-03
-3.539558221795935725e-03
-3.570064530515118344e-03
-3.574465857603460663e-03
-3.552774160494502100e-03
-3.505271746110577308e-03
-3.432499107458820801e-03
-3.335239773294643422e-03
-3.214502586002783782e-03
-3.071501749584989050e-03
-2.907635085736793960e-03
-2.724460769016652604e-03
-2.523673172350290872e-03
-2.307078084222403524e-03
-2.076567743670064414e-03
-1.834096094108611432e-03
-1.581654576346108688e-03
-1.321248960947321843e-03
-1.054877359421903119e-03
-7.845098339598871161e-04
-5.120697533899792875e-04
-2.394171546053673421e-04
3.166579767424043110e-05
2.994871016228058472e-04
5.624549076500150353e-04
8.190851954362295866e-04
1.068007159864578981e-03
1.307966417394896674e-03
1.537826103189397732e-03
1.756566087132126154e-03
1.963280362842381114e-03
2.157172951206295756e-03
2.337552457844776100e-03
2.503825638513177548e-03
2.655490120006628266e-03
2.792126624288389890e-03
2.913390877854281965e-03
3.019005607945335085e-03
3.108752777888114816e-03
3.182466279511174737e-03
3.240025333814892938e-03
3.281348774497304735e-03
3.306390360880990219e-03
3.315135297540183767e-03
3.307598002452614202e-03
3.283821173923783497e-03
3.243876213939079264e-03
3.187864958278478593e-03
3.115922650437485258e-03
3.028222180760264948e-03
2.924979294839985186e-03
2.806458713979670047e-03
2.672980982439647577e-03
2.524929828052831574e-03
2.362759853373048741e-03
2.187004252072230481e-03
1.998282419626717151e-03
1.797307073418122217e-03
1.584890755398045805e-03
1.361951430400586398e-03
1.129516847930138760e-03
8.887276865948783543e-04
6.408390658966848456e-04
3.872204196879608937e-04
1.293534851243338180e-04
-1.311716180161865070e-04
-3.926623641709909456e-04
-6.533318818487854514e-04
-9.113090175000801733e-04
-1.164650421272215176e-03
-1.411354541928830451e-03
-1.649377455726281630e-03
-1.876650330925292917e-03
-2.091098380353421937e-03
-2.290661054907390960e-03
-2.473313184132496997e-03
-2.637086897113441551e-03
-2.780093922011154031e-03
-2.900547978495996316e-03
-2.996787039600288215e-03
-3.067295013486388486e-03
-3.110722447196185257e-03
-3.125906214696768954e-03
-3.111887564165114178e-03
-3.067928386922910526e-03
-2.993525457682665990e-03
-2.888422218044267402e-03
-2.752618122446918135e-03
-2.586375113961876093e-03
-2.390221249895430403e-03
-2.164951271350253059e-03
-1.911624066997044853e-03
-1.631557003333217008e-03
-1.326317103544098460e-03
-9.977092061250838508e-04
-6.477610841465634766e-04
-2.787058283770398374e-04
1.070384696367058814e-04
5.068914936409527495e-04
9.181355855929562238e-04
1.337942515244194266e-03
1.763401788758391228e-03
2.191550193072861093e-03
2.619402198593131365e-03
3.043980762701625330e-03
3.462348264820144187e-03
3.871637161049451808e-03
4.269079919429126860e-03
4.652037865956951471e-03
5.018028608912187931e-03
5.364751669781103044e-03
5.690111956087585271e-03
5.992240886906131242e-03
6.269514761709653154e-03
6.520570163850833781e-03
6.744316325674414719e-03
6.939944172321902381e-03
7.106931951192185272e-03
7.245047370648255262e-03
7.354346267259004311e-03
7.435167799283722012e-03
7.488126188632852724e-03
7.514099189994947504e-03
7.514213382020753194e-03
7.489826543250260524e-03
7.442507258885075819e-03
7.374012091397088783e-03
7.286260575022924374e-03
7.181308409375431953e-03
7.061319094241588420e-03
6.928534537094391613e-03
6.785244864582221092e-03
6.633757897468505436e-03
6.476368718766992681e-03
6.315329639148138663e-03
6.152821013803292001e-03
5.990923283366762775e-03
5.831590559196212983e-03
5.676626115171979313e-03
5.527660107267910045e-03
5.386129849414688676e-03
5.253262778842454801e-03
5.130062391473287284e-03
5.017297363361595576e-03
4.915493946307051762e-03
4.824931717598624804e-03
4.745642787342483314e-03
4.677414407781893720e-03
4.619794984005088333e-03
4.572103342517935126e-03
4.533441176990488271e-03
4.502708488913054370e-03
4.478621816743003428e-03
4.459734956326495345e-03
4.444461945743809032e-03
4.431101985762705628e-03
4.417865924104865533e-03
4.402903915613941115e-03
4.384333997288274339e-03
4.360271043573688693e-03
4.328855804653506528e-03
4.288283539313640993e-03
4.236831907973740395e-03
4.172887637964384569e-03
4.094971690976316296e-03
4.001762477764468466e-03
3.892116892230415136e-03
3.765088708738914547e-03
3.619944157867000228e-03
3.456174385724724522e-03
3.273504708356735678e-03
3.071900290597675935e-03
2.851568353952410855e-03
2.612956744546838291e-03
2.356748802210467415e-03
2.083854700440563625e-03
1.795399182213618583e-03
1.492705967545387329e-03
1.177278910596936531e-03
8.507802402023536496e-04
5.150059995192137266e-04
1.718591771381022099e-04
-1.766791728664587576e-04
-5.285804606005425812e-04
-8.818003398291563181e-04
-1.234311220660771645e-03
-1.584135084219587004e-03
-1.929376119509855795e-03
-2.268252780063536450e-03
-2.599128686795348919e-03
-2.920541963177444942e-03
-3.231232437860365268e-03
-3.530166450060054709e-03
-3.816558750869951996e-03
-4.089891084627825593e-03
-4.349927225369471309e-03
-4.596724037038527576e-03
-4.830638434214763917e-03
-5.052329998304496729e-03
-5.262759130222334318e-03
-5.463180601560786200e-03
-5.655132632652080243e-03
-5.840421379569253786e-03
-6.021101065499476560e-03
-6.199449927827763510e-03
-6.377942175295654020e-03
-6.559216247731847714e-03
-6.746039832032734926e-03
-6.941271893683088196e-03
-7.147822364449307395e-03
-7.368609859729978104e-03
-7.606518000434256410e-03
-7.864350912719282952e-03
-8.144788537004645640e-03
-8.450342332317466523e-03
-8.783311942413054088e-03
-9.145743487176052552e-03
-9.539390066105539467e-03
-9.965675105575005563e-03
-1.042565901720261985e-02
-1.092000971219049717e-02
-1.144897757185466859e-02
-1.201237516487669438e-02
-1.260956207139472297e-02
-1.323943523216179752e-02
-1.390042501800145200e-02
-1.459049716262544524e-02
-1.530716061636955630e-02
-1.604748142678003031e-02
-1.680810252871562868e-02
-1.758526931748618030e-02
-1.837486069325566795e-02
-1.917242542084729093e-02
-1.997322334039618175e-02
-2.077227093373947356e-02
-2.156439082528088108e-02
-2.234426462390361537e-02
-2.310648848302633909e-02
-2.384563073515572756e-02
-2.455629076961188956e-02
-2.523315865970990335e-02
-2.587107458930590007e-02
-2.646508742413646378e-02
-2.701051174323176873e-02
-2.750298246917851422e-02
-2.793850645353201240e-02
-2.831351036435612520e-02
-2.862488419610777907e-02
-2.887001982573528594e-02
-2.904684415523089633e-02
-2.915384630592116749e-02
-2.919009852152694082e-02
-2.915527044619420707e-02
-2.904963660547400447e-02
-2.887407692140543658e-02
-2.863007014726065905e-02
-2.831968044645096633e-02
-2.794553698880920811e-02
-2.751080705509103760e-02
-2.701916268850675443e-02
-2.647474147155113103e-02
-2.588210175511257774e-02
-2.524617302043576442e-02
-2.457220180923746014e-02
-2.386569392257137726e-02
-2.313235360451441208e-02
-2.237802048511811429e-02
-2.160860495260594205e-02
-2.083002275971612346e-02
-2.004812974164727965e-02
-1.926865733802498801e-02
-1.849714972092999024e-02
-1.773890335975104524e-02
-1.699890964405114877e-02
-1.628180134185668385e-02
-1.559180352440199188e-02
-1.493268949220011646e-02
-1.430774227933659729e-02
-1.371972219266568392e-02
-1.317084070954416264e-02
-1.266274109386761326e-02
-1.219648591911519885e-02
-1.177255174196006719e-02
-1.139083075909839114e-02
-1.105063958385010120e-02
-1.075073495536159676e-02
-1.048933624615416144e-02
-1.026415435399492815e-02
-1.007242673019038449e-02
-9.910958016779863183e-03
-9.776165915517581739e-03
-9.664131570352176362e-03
-9.570653983222786321e-03
-9.491307743604925073e-03
-9.421503337696909841e-03
-9.356549319239487739e-03
-9.291715676747830388e-03
-9.222297519568626797e-03
-9.143678344280219486e-03
-9.051392193534599923e-03
-8.941183924445258308e-03
-8.809066773333588951e-03
-8.651376583734167458e-03
-8.464822070029688963e-03
-8.246530454024448425e-03
-7.994087941249099910e-03
-7.705574562014970777e-03
-7.379592828540539919e-03
-7.015290038382970828e-03
-6.612373749946913112e-03
-6.171120242046729439e-03
-5.692375895410932418e-03
-5.177551423988979197e-03
-4.628608981357191891e-03
-4.048042172324344858e-03
-3.438849294483260592e-03
-2.804500007353011998e-03
-2.148895819700395293e-03
-1.476324720793062602e-03
-7.914106225030134245e-04
-9.905807584103013767e-05
5.956070614527450785e-04
1.287300469509879445e-03
1.970644755334727185e-03
2.640236786263228802e-03
3.290716202467516664e-03
3.916834108319538349e-03
4.513521235612868131e-03
5.075954758004198181e-03
5.599622807678764427e-03
6.080386010355534263e-03
6.514535141071558198e-03
6.898844171486093885e-03
7.230618018140675882e-03
7.507734314646096786e-03
7.728678630388782951e-03
7.892572539777438501e-03
7.999194207814808166e-03
8.048991030484816192e-03
8.043084140957133810e-03
7.983264549372467989e-03
7.871980918646982045e-03
7.712318963208375164e-03
7.507972682137940661e-03
7.263207576777097260e-03
6.982816380405507638e-03
6.672067604521582374e-03
6.336647624763564607e-03
5.982596813744113506e-03
5.616240626552308074e-03
5.244116401196144070e-03
4.872896813265819096e-03
4.509310946256219962e-03
4.160063931382410735e-03
3.831756387515634996e-03
3.530804580622872498e-03
3.263362456789540775e-03
3.035246601262229799e-03
2.851865150620285210e-03
2.718151868078310003e-03
2.638506010739438950e-03
2.616739193900196551e-03
2.656029868414105672e-03
2.758886232004644553e-03
2.927118105539147554e-03
3.161818308415028159e-03
3.463353833714830424e-03
3.831367104098351486e-03
4.264787236834710615e-03
4.761851453210032108e-03
5.320136139973057066e-03
5.936597342392407016e-03
6.607620131504260419e-03
7.329076151085182900e-03
8.096388524746211263e-03
8.904603215584077150e-03
9.748465785805201719e-03
1.062250234027617597e-02
1.152110353422499192e-02
1.243861032464468885e-02
1.336940009749492189e-02
1.430797185742543540e-02
1.524902913683030305e-02
1.618755925501252566e-02
1.711890766407836439e-02
1.803884614717068263e-02
1.894363371849439731e-02
1.983006925345463106e-02
2.069553487198912828e-02
2.153802944396407057e-02
2.235619153515655197e-02
2.314931128180550135e-02
2.391733115989793171e-02
2.466083544195921129e-02
2.538102850900572291e-02
2.607970244947755561e-02
2.675919440994714571e-02
2.742233435444874079e-02
2.807238419435475335e-02
2.871296933662990242e-02
2.934800381438120928e-02
2.998161038390538893e-02
3.061803697474116404e-02
3.126157106003790015e-02
3.191645345415466267e-02
3.258679316763445771e-02
3.327648493439810951e-02
3.398913100730729941e-02
3.472796866280149913e-02
3.549580489289053120e-02
3.629495960631416718e-02
3.712721845131503051e-02
3.799379633621183944e-02
3.889531241693748587e-02
3.983177709561583346e-02
4.080259161358734676e-02
4.180656018257949275e-02
4.284191467890689081e-02
4.390635156433495695e-02
4.499708046877363282e-02
4.611088365627533103e-02
4.724418523774837064e-02
4.839312908797292756e-02
4.955366381823431143e-02
5.072163341769310441e-02
5.189287171572368185e-02
5.306329889763754942e-02
5.422901806072971675e-02
5.538640995533284511e-02
5.653222390687491494e-02
5.766366306159327604e-02
5.877846200746702360e-02
5.987495511731331238e-02
6.095213396166340031e-02
6.200969233369958006e-02
6.304805779418254374e-02
6.406840865587172529e-02
6.507267576577283053e-02
6.606352860952537098e-02
6.704434560109781560e-02
6.801916881113842517e-02
6.899264343410869971e-02
6.996994296414041359e-02
7.095668107081372356e-02
7.195881153178992906e-02
7.298251790673042361e-02
7.403409475862442191e-02
7.511982252983419317e-02
7.624583832112526161e-02
7.741800487709378509e-02
7.864178039305330659e-02
7.992209158621342568e-02
8.126321247202356046e-02
8.266865143180665565e-02
8.414104885552375901e-02
8.568208758927053914e-02
8.729241831819624375e-02
8.897160149344132685e-02
9.071806749465252673e-02
9.252909612143690732e-02
9.440081641917874578e-02
9.632822725884512827e-02
9.830523882906846977e-02
1.003247347744645329e-01
1.023786543060473536e-01
1.044580933703646852e-01
1.065534233483171750e-01
1.086544256072916048e-01
1.107504397723880485e-01
1.128305232893378335e-01
1.148836197602834952e-01
1.168987330910229994e-01
1.188651044626816145e-01
1.207723891151609025e-01
1.226108296848869850e-01
1.243714230126786446e-01
1.260460773178665728e-01
1.276277569144480262e-01
1.291106116444420415e-01
1.304900886111332869e-01
1.317630240407831888e-01
1.329277134242827507e-01
1.339839585730640825e-01
1.349330905437310657e-01
1.357779679115567739e-01
1.365229503352526907e-01
1.371738477734575912e-01
1.377378462986363072e-01
1.382234117850502930e-01
1.386401733422346350e-01
1.389987885969675707e-01
1.393107934746126708e-01
1.395884394051873922e-01
1.398445210547028528e-01
1.400921979798266659e-01
1.403448137485361902e-01
1.406157161426459523e-01
1.409180819441294141e-01
1.412647498361405130e-01
1.416680646137712662e-01
1.421397359554245898e-01
1.426907144022966090e-01
1.433310868619541434e-01
1.440699935845168589e-01
1.449155680751266495e-01
1.458749007149040544e-01
1.469540263850207806e-01
1.481579357805158370e-01
1.494906093914598888e-01
1.509550726314273228e-01
1.525534698771544573e-01
1.542871547336205351e-01
1.561567930954103345e-01
1.581624753588481980e-01
1.603038334961115474e-01
1.625801585671257377e-01
1.649905137643267738e-01
1.675338381965893464e-01
1.702090363863796030e-01
1.730150485399064020e-01
1.759508969793489030e-01
1.790157042645169616e-01
1.822086790046239801e-01
1.855290658797728309e-01
1.889760570222613623e-01
1.925486626526751455e-01
1.962455396721806411e-01
2.000647778396719700e-01
2.040036439525602097e-01
2.080582857315845524e-01
2.122233979404997972e-01
2.164918544137308387e-01
2.208543105034238563e-01
2.252987819295547978e-01
2.298102064178971504e-01
2.343699957844285475e-01
2.389555866850750221e-01
2.435399992192111285e-01
2.480914128831936682e-01
2.525727699601210130e-01
2.569414165256563853e-01
2.611487915657773051e-01
2.651401744119981641e-01
2.688545006765176715e-01
2.722242561374926817e-01
2.751754575864107100e-01
2.776277286789075593e-01
2.794944778976645727e-01
2.806831845164338146e-01
2.810957971122126642e-01
2.806292475950861731e-01
2.791760821684242666e-01
2.766252088988294111e-01
2.728627597605588484e-01
2.677730630777349075e-01
2.612397205262277922e-01
2.531467807799011593e-01
2.433800001849171224e-01
2.318281789442900032e-01
2.183845595776678916e-01
2.029482728847024631e-01
1.854258152276486160e-01
1.657325396811452356e-01
1.437941424378384736e-01
1.195481251901024805e-01
9.294521370760214229e-02
6.395071223476569977e-02
3.254577367204917332e-02
-1.271434471220792744e-03
-3.748468770460846450e-02
-7.605880415904332781e-02
-1.169389036296279855e-01
-1.600498418390278732e-01
-2.052958341337589587e-01
-2.525602807904322455e-01
-3.017058040409515418e-01
-3.525745043395389078e-01
-4.049884409282207276e-01
-4.587503391469490155e-01
-5.136445238538561719e-01
-5.694380756545170952e-01
-6.258822036168704139e-01
-6.827138253184894534e-01
-7.396573420965648626e-01
-7.964265947197417539e-01
-8.527269820854481708e-01
-9.082577230950903413e-01
-9.627142395432104482e-01
-1.015790636060391439e+00
-1.067182251199210175e+00
-1.116588252732289233e+00
-1.163714248868414680e+00
-1.208274886521330860e+00
-1.249996407453306757e+00
-1.288619133197692834e+00
-1.323899850009049084e+00
-1.355614066055510269e+00
-1.383558114126764771e+00
-1.407551074818873316e+00
-1.427436496909359365e+00
-1.443083894106014231e+00
-1.454389999644857268e+00
-1.461279763072639737e+00
-1.463707076666225015e+00
-1.461655221939659910e+00
-1.455137030299558543e+00
-1.444194755095281391e+00
-1.428899655834857674e+00
-1.409351299037600924e+00
-1.385676583354536362e+00
-1.358028500141040373e+00
-1.326584643789728624e+00
-1.291545489282253767e+00
-1.253132456863754518e+00
-1.211585786735970949e+00
-1.167162248658920154e+00
-1.120132713237540933e+00
-1.070779613255623541e+00
-1.019394324624364856e+00
-9.662744972334977867e-01
-9.117213663848171556e-01
-8.560370754912136615e-01
-7.995220402348857114e-01
-7.424723835757317536e-01
-6.851774697247620116e-01
-6.279175637584151204e-01
-5.709616414899708614e-01
-5.145653720784408858e-01
-4.589692933549201492e-01
-4.043971970005619254e-01
-3.510547379788242495e-01
-2.991282793389028472e-01
-2.487839803812135486e-01
-2.001671330114688785e-01
-1.534017477555128517e-01
-1.085903875884067088e-01
-6.581424469343902239e-02
-2.513345216269017787e-02
1.341238015318781639e-02
4.980341924821837102e-02
8.403866798709980213e-02
1.161348476819792225e-01
1.461251241981510185e-01
1.740576992825817182e-01
1.999942897858540958e-01
2.240085185168687043e-01
2.461842409144168742e-01
2.666138319022759995e-01
2.853964570894930164e-01
3.026363519843128236e-01
3.184411318937541147e-01
3.329201543032274113e-01
3.461829538426910435e-01
3.583377682613315129e-01
3.694901719984232114e-01
3.797418318197640086e-01
3.891893966129060245e-01
3.979235311172367728e-01
4.060281008784610846e-01
4.135795132761242443e-01
4.206462167816851783e-01
4.272883584377755173e-01
4.335575968687576665e-01
4.394970660001358831e-01
4.451414825162480216e-01
4.505173881559743632e-01
4.556435161121650812e-01
4.605312694303457799e-01
4.651852977905948094e-01
4.696041582172083562e-01
4.737810443555937057e-01
4.777045685472273706e-01
4.813595807405681715e-01
4.847280081441322497e-01
4.877897000427200980e-01
4.905232626510709348e-01
4.929068695177451498e-01
4.949190343494369038e-01
4.965393338736043827e-01
4.977490700109789001e-01
4.985318620632190889e-01
4.988741610132678694e-01
4.987656799062379909e-01
4.981997361033467797e-01
4.971735025024737742e-01
4.956881669563709125e-01
4.937490007360487154e-01
4.913653382095585775e-01
4.885504718452560735e-01
4.853214676700106089e-01
4.816989078871430352e-01
4.777065681300776134e-01
4.733710380231762049e-01
4.687212944273928539e-01
4.637882371560673733e-01
4.586041975043547159e-01
4.532024298741881285e-01
4.476165970680132111e-01
4.418802591803399626e-01
4.360263759683924434e-01
4.300868318733792051e-01
4.240919922639916351e-01
4.180702984796456634e-01
4.120479082712310004e-01
4.060483873624819440e-01
4.000924566368411206e-01
3.941977981050574509e-01
3.883789218798057163e-01
3.826470949971603197e-01
3.770103317741312354e-01
3.714734441323261915e-01
3.660381494752567022e-01
3.607032324098839449e-01
3.554647556924038221e-01
3.503163152572147943e-01
3.452493332376186941e-01
3.402533822094309102e-01
3.353165337962764059e-01
3.304257242520531879e-01
3.255671296186768426e-01
3.207265429495912423e-01
3.158897463348083745e-01
3.110428707166801865e-01
3.061727368519633341e-01
3.012671713508935922e-01
2.963152923088255286e-01
2.913077597592380608e-01
2.862369870413596362e-01
2.810973098396813419e-01
2.758851107376478762e-01
2.705988979745233558e-01
2.652393377790975282e-01
2.598092409613774745e-01
2.543135050060141289e-01
2.487590136777291794e-01
2.431544972827013040e-01
2.375103570431821853e-01
2.318384578729520973e-01
2.261518941966735863e-01
2.204647340300021074e-01
2.147917467622045273e-01
2.091481202039144616e-01
2.035491727870045175e-01
1.980100665298148710e-01
1.925455263300694109e-01
1.871695709683766640e-01
1.818952609083856475e-01
1.767344673329045435e-01
1.716976666472949942e-01
1.667937639405090156e-01
1.620299483407969532e-01
1.574115824953749854e-01
1.529421277381826927e-01
1.486231058150675188e-01
