1.189002884275382373e-02
1.473516629440176084e-02
6.358059277142469670e-03
-1.465605664568215942e-02
-2.021367034172152216e-02
-2.233396618358654898e-02
-2.987022960935708030e-02
-3.851460497153295914e-02
-4.845354419992386336e-02
-4.970889012576810290e-02
-3.131757759599902019e-02
4.419923312481876393e-03
2.964821688461712068e-02
3.464084804533174716e-02
2.861061109143614792e-02
2.846482319018266496e-02
2.865789016201191960e-02
2.874553007247277261e-02
2.266876759380170511e-02
1.431292517330276515e-02
7.461553681315031411e-03
5.236793876562746870e-03
2.235565413798381099e-03
-5.772940347955852342e-03
-1.443495427936169334e-02
-2.354382562065539600e-02
-3.208548744952310211e-02
-3.955946890892486634e-02
-5.053222645031803933e-02
-4.809302130045994134e-02
-2.227339446925671873e-02
1.065813494091458896e-02
3.435279073749903517e-02
4.127976465714892906e-02
3.643833805227165989e-02
2.200934484606701172e-02
7.349547098885262503e-03
9.862768684020487009e-03
1.973388069528871427e-02
2.618438616617033837e-02
2.376996968188862733e-02
1.671714349828257520e-02
1.618060674363873712e-03
-1.812570140764193163e-02
-2.029167139001016029e-02
-1.988341431872355999e-02
-2.692302938938186466e-02
-3.478250920455857459e-02
-4.562267469822494509e-02
-5.084671395899598850e-02
-3.326506455010132951e-02
1.418342728039839523e-03
2.757893540995656409e-02
3.878421048162069423e-02
3.532955969740863428e-02
2.642850832922214940e-02
2.173666259381749552e-02
2.198381812981818964e-02
2.031462867542311451e-02
1.678118136489650455e-02
1.241625817738968920e-02
6.536080939009585034e-03
1.691864830950503889e-03
-5.861796142941218604e-03
-1.555159895536666059e-02
-2.316646546415346633e-02
-2.963688431172727469e-02
-3.915400890638338210e-02
-4.968601866364393688e-02
-4.779735073761463143e-02
-2.211581632125998384e-02
8.065522294069562420e-03
2.977614745234877583e-02
3.855253177210581778e-02
3.772751255631246609e-02
2.292011533094255246e-02
1.126139670390031641e-02
1.616650253777942789e-02
2.260348451572823450e-02
2.005680075556937059e-02
1.737646198410254528e-02
2.056719925807224889e-02
9.838833327166566362e-03
-1.405246638987016350e-02
-2.343584128695878552e-02
-2.617629509189510484e-02
-3.185684985058036267e-02
-4.117304316974853412e-02
-4.879319175415736815e-02
-4.944541915461041215e-02
-2.833935150320429641e-02
6.585538446543925256e-03
2.853353643376967813e-02
3.493499826909419320e-02
3.421169283516561910e-02
3.209501341711110123e-02
2.971046808064001579e-02
2.458526468628238412e-02
1.763671909388679973e-02
1.286686206099478536e-02
7.014587509852088579e-03
2.426387526580688243e-03
5.670377909564349502e-04
-4.610504396900513835e-03
-1.238724477879860411e-02
-2.038335188215574523e-02
-2.876105560225604083e-02
-4.200701077771033798e-02
-5.243067014103228174e-02
-4.963327544966521232e-02
-2.299130718963021680e-02
1.233480523429004647e-02
3.376877553597020659e-02
3.990205949659617751e-02
3.497792923452316266e-02
2.131776979038615613e-02
1.160841161145622843e-02
1.710724580298032468e-02
2.443153292464613976e-02
2.166225022232597802e-02
1.685706257573666225e-02
1.782345347870979355e-02
6.579147398255383999e-03
-1.583202023156286484e-02
-2.251182749766613561e-02
-2.270012127916162456e-02
-3.039970966161204338e-02
-4.095151291552136252e-02
-4.945847749283501654e-02
-4.970758864098597657e-02
-2.977136003027000197e-02
3.669688798617020548e-03
2.874425097678964119e-02
3.712826662407105183e-02
3.499656704651139122e-02
3.025492163353594652e-02
2.756927921326409250e-02
2.387788205720995163e-02
1.842865723946640263e-02
1.262443968942747116e-02
9.897279406863057280e-03
7.979615931666180634e-03
5.233998461673834701e-03
-1.701748445950536587e-03
-1.202371558839147175e-02
-2.280950869564160252e-02
-3.351945368252928770e-02
-4.746744544229628687e-02
-5.943409470465115668e-02
-5.292666238866982481e-02
-2.219232299043998047e-02
1.260271060918042793e-02
3.747257055267469439e-02
4.419482629753165165e-02
3.539213713747151741e-02
2.121989959687153524e-02
1.685428511059664999e-02
2.245346451783868102e-02
2.358955829614391153e-02
1.721374847832361429e-02
1.092977289648383588e-02
1.376479535631087298e-02
7.880643850274756529e-03
-1.088016968211068594e-02
-1.746788174302779661e-02
-2.221157580842368640e-02
-3.409856280384384458e-02
-4.452685911138236363e-02
-5.136702732508453828e-02
-5.132587058121051982e-02
-2.745650985759656021e-02
8.050102931610850915e-03
2.964854348255434313e-02
3.449552532608370775e-02
3.257032389370079911e-02
3.283864374818726284e-02
2.988969143098831396e-02
2.462596798337845713e-02
1.766961743629802059e-02
1.302289646772252993e-02
1.016186228084769647e-02
8.210105750059117774e-03
3.265691959525503577e-03
-5.713799679234927292e-03
-1.804150471487362198e-02
-2.862112684862275561e-02
-3.413067398353072240e-02
-3.861745950467829203e-02
-4.767733807796312173e-02
-4.542325977246827046e-02
-2.077330333494542547e-02
7.911466475862168057e-03
2.935321596567102079e-02
3.925204911309704281e-02
3.453371568265133085e-02
2.378172730558446649e-02
1.923084377813004051e-02
2.634103612768819505e-02
2.470861720913019102e-02
1.218226065634258476e-02
7.808537973389907683e-03
1.390893311604896911e-02
5.189807857094084348e-03
-1.377790707206464835e-02
-1.653279938945776198e-02
-1.855024252702993162e-02
-2.999528369599872152e-02
-4.146703874817846830e-02
-5.126133693023852272e-02
-5.133025112492476533e-02
-2.883173127131389429e-02
6.643202303723332036e-03
2.649890197148551188e-02
3.322404721278245793e-02
3.556636208314360725e-02
3.606725579430390682e-02
3.128149752943208683e-02
2.224465755947569942e-02
1.474740570693733668e-02
1.277387069747083076e-02
1.044377355687789097e-02
6.867635766553342909e-03
1.338032347083859116e-03
-6.736722329857097041e-03
-1.240240011639898512e-02
-2.246767796823127133e-02
-3.132346492141579314e-02
-4.240626086305229053e-02
-5.490082854722707489e-02
-5.108354759092161024e-02
-2.215308641352596586e-02
1.155647080026477383e-02
3.374110735547326823e-02
4.041747300679845306e-02
3.644972178335444124e-02
2.508190621894910641e-02
1.610188497081273609e-02
2.106243679083578957e-02
2.534514174531164038e-02
1.884583710712729732e-02
1.357108214082553520e-02
1.594418326809448824e-02
3.250156926684373906e-03
-1.796476432548132010e-02
-2.200086103421149478e-02
-2.325191635347163485e-02
-3.292643751027261867e-02
-4.219722737821741954e-02
-5.053708541428309636e-02
-5.351683468430172563e-02
-2.741757909043493133e-02
1.545572261684537152e-02
3.721877884482013149e-02
3.593977424907641299e-02
3.240841688347072258e-02
3.188657313277243333e-02
2.982507819170534050e-02
2.248870737266435785e-02
1.410224081933827631e-02
9.072828157095307045e-03
6.682459435599648334e-03
5.417264927653384424e-03
1.363907286808546454e-03
-4.075733980356058272e-03
-1.157296127098548372e-02
-2.272089022355191362e-02
-3.294705749179969306e-02
-4.123058349704131903e-02
-5.282938358807125895e-02
-4.846943333739952425e-02
-2.100968572191504180e-02
1.136138502143124729e-02
3.295220565953473763e-02
4.144877809148402731e-02
3.468250354858584683e-02
2.075840686248503833e-02
1.462716566039547542e-02
2.353916256093846124e-02
2.811008469567115656e-02
1.896218802564226050e-02
1.050583938053733374e-02
1.492153110254216750e-02
3.808122608026105749e-03
-1.358061838950259601e-02
-1.493754210226666546e-02
-2.094192280697976943e-02
-3.748364541749494433e-02
-4.902749748628056764e-02
-5.443082500616195502e-02
-5.137241021799186791e-02
-2.494516747520138938e-02
1.398406030813513154e-02
3.248665287178237326e-02
3.222413211039890785e-02
3.148137816458847216e-02
3.362319477202531381e-02
3.020996275910784942e-02
2.443337496076513835e-02
2.086135978459003129e-02
1.735145499196174418e-02
1.149088963435757234e-02
2.791355122122507557e-03
-3.265331304257481845e-03
-7.342059382269602863e-03
-1.248906296258428875e-02
-2.084832810951307500e-02
-3.144148290770464732e-02
-4.515106425978620414e-02
-5.630306069763005294e-02
-5.008150047287369261e-02
-2.500187498810420642e-02
8.692902660950362764e-03
3.335712112551093844e-02
4.428176166491523680e-02
3.980979476673988243e-02
2.535900713067164650e-02
1.578320247498141496e-02
2.113552077583418648e-02
2.833462007475029409e-02
2.224328426571841114e-02
1.364005485281576460e-02
1.396638832792035725e-02
4.841147323257838971e-04
-2.166122855216936691e-02
-2.588392059119539595e-02
-2.569049573338416312e-02
-3.216806141110101908e-02
-3.697261243893132376e-02
-4.204556817177773631e-02
-4.313037787606307377e-02
-2.461570216910029946e-02
3.626910639398208541e-03
2.400856476426529301e-02
3.263024003608584744e-02
3.322222403993303763e-02
3.032792753839736247e-02
2.830232654153666885e-02
2.499437783626310902e-02
2.056580670949523584e-02
1.260609205294759352e-02
7.909858415771475054e-03
5.592514632833327226e-03
2.657313325049650080e-03
-3.478135097638328233e-03
-1.046540774159984005e-02
-1.734773513138079468e-02
-2.952042451515888080e-02
-4.769175698336422520e-02
-6.419458121571465503e-02
-5.643228846038293028e-02
-2.048957987430904612e-02
1.491006267371017963e-02
3.591222010106639301e-02
4.495127440719491607e-02
3.805171807845880022e-02
2.396106323494246945e-02
1.323207260183470110e-02
1.680954388432220198e-02
2.250903802302725576e-02
1.945124494468356696e-02
1.809530069200299476e-02
2.224061352949986345e-02
5.014405878957770707e-03
-2.067296468137891710e-02
-2.016757036612447374e-02
-1.920156289259082952e-02
-3.116226678761536972e-02
-4.633875955183496681e-02
-5.826996831127612131e-02
-5.596072877837820342e-02
-2.802922533275728836e-02
1.036681507185652565e-02
3.254115388835998601e-02
3.816341571201383592e-02
3.681051079464680437e-02
3.549947967506252716e-02
3.005292274952389361e-02
2.349904774462992577e-02
1.688615529021310693e-02
1.264153466047647847e-02
1.185787450713207507e-02
1.038552199980362356e-02
2.117276871382134384e-03
-9.322280867422932590e-03
-1.627832308994637753e-02
-2.345336756417137555e-02
-3.440312972340028169e-02
-4.782127727168306724e-02
-6.011067079396826413e-02
-5.257847730512254375e-02
-2.078047076889447814e-02
1.502273428934582447e-02
3.646388145458983460e-02
4.465455698942847468e-02
4.038328078428311818e-02
2.645630689103790553e-02
1.875947253211785251e-02
2.133473943483042701e-02
2.301583466835192479e-02
1.789220818076551686e-02
1.329751168301966310e-02
1.554928818339513033e-02
-1.686862160117264193e-03
-2.113825251330749694e-02
-1.979858760872580531e-02
-1.641799773275404509e-02
-2.685404866667651450e-02
-4.140363534760019976e-02
-5.483078238734560156e-02
-5.521190853821941052e-02
-3.053601525679012010e-02
6.059547470576381878e-03
2.869760114168075707e-02
3.481719820107968821e-02
3.467280670903345047e-02
3.443945965698630429e-02
3.016611420386594924e-02
2.662885720619840094e-02
2.173041178930785675e-02
1.611034541897878730e-02
1.149539491726039170e-02
9.231858754347900889e-03
3.651669430005178782e-03
-3.794533421594383643e-03
-1.252351185929083399e-02
-2.379134358845725467e-02
-3.847325554783904283e-02
-5.303714005193668063e-02
-6.592282294005574750e-02
-5.450952927059158487e-02
-2.307267148985980496e-02
1.544646480855266582e-02
4.009656087586294798e-02
4.621452941680504606e-02
3.965600417271591266e-02
2.463342369576139099e-02
1.660791805920204187e-02
2.163123477175067991e-02
2.824650961409963523e-02
2.367976138442770204e-02
1.647349457275577508e-02
1.749814903058002219e-02
1.605719374714570163e-03
-2.159968591486853551e-02
-2.350448581199692313e-02
-2.426254348555230075e-02
-3.318751713768113010e-02
-4.408899506402758073e-02
-5.507125862066237360e-02
-5.723098539370532339e-02
-2.981514882338308706e-02
1.042687395659819966e-02
2.988957580606404693e-02
3.704250022134807779e-02
3.851510634806148969e-02
3.668927245173836393e-02
3.357051594598071953e-02
2.644779027962823256e-02
1.777686866045688138e-02
1.624903153243826073e-02
1.256324230915986662e-02
6.343606174424083581e-03
2.104831300606001612e-03
-3.313893127844011466e-03
-1.408405030423191470e-02
-2.613261707342837484e-02
-3.850307058470726213e-02
-5.131163668831167229e-02
-6.388873851147751359e-02
-5.739370328787703895e-02
-2.415934701660593306e-02
1.452426750956707646e-02
4.110859447019412499e-02
4.837440825735859345e-02
4.037763353790419646e-02
2.501758402883125579e-02
1.654168709264886364e-02
2.359321044742085718e-02
3.011788622324550538e-02
2.285192153694917336e-02
1.426360710010586390e-02
1.715600491870509364e-02
1.747627552078368776e-03
-1.661632125177477104e-02
-1.929464355880041587e-02
-2.481002636276256543e-02
-3.930895394110294622e-02
-5.128129124763253915e-02
-6.021149168406366575e-02
-5.810215282705682993e-02
-2.814274974552932740e-02
1.264771230435044955e-02
3.558814693437718085e-02
3.988325085376220186e-02
3.876338231176146981e-02
3.555920139844438721e-02
3.199483134969846598e-02
2.415205943233260030e-02
1.937224207049747030e-02
1.764184799529243397e-02
1.483191942513897334e-02
1.237630039359945318e-02
6.373512675476257841e-03
-4.832726419088405334e-03
-1.978169233352379194e-02
-3.119831973363160205e-02
-4.360526766192463627e-02
-5.830926848716593003e-02
-6.818563076678246793e-02
-5.479319475301597936e-02
-1.741978878723044952e-02
1.935121434626077205e-02
4.168733398985584315e-02
5.004073999466877171e-02
4.162253958036769147e-02
2.448216312545119580e-02
1.909946013046543226e-02
2.659588989360777908e-02
3.177254787987921630e-02
2.235603265666059533e-02
1.317491933826315381e-02
1.557730927966860870e-02
-3.344652358226439873e-03
-2.113544676328040633e-02
-1.828174607741532912e-02
-2.264029870174413470e-02
-4.020569658423666509e-02
-5.151975667248362423e-02
-6.228826682087554995e-02
-6.279080145110435551e-02
-3.372389109944525648e-02
1.221807477706707626e-02
4.228142537579774457e-02
5.097605602842519845e-02
4.972059938002462015e-02
4.093240873739134589e-02
3.044236120681584681e-02
2.010613099695652065e-02
1.220085868275265148e-02
7.754247301607862519e-03
9.179785771446539663e-03
9.054051018415779778e-03
4.701913033512380644e-03
-2.006107972673917134e-03
-1.110964264921893846e-02
-2.537451995450845307e-02
-4.090069503498237197e-02
-5.469375570995357178e-02
-6.860723295086039453e-02
-5.944874472548033334e-02
-2.358871897435855722e-02
1.486143661041842978e-02
4.040570829977773587e-02
4.907639830532518899e-02
4.511065941457624573e-02
3.243480816696025365e-02
2.251249781792376628e-02
2.315865697431966283e-02
2.539421100830088068e-02
1.766817046365574614e-02
1.658718610253740941e-02
2.504867364878751723e-02
6.878753850262903091e-03
-1.934371197259789066e-02
-2.592169828103286361e-02
-3.221291374484643033e-02
-4.393270405806226631e-02
-5.460391412054155930e-02
-6.472889098945364128e-02
-6.195666098823245788e-02
-2.341651387606037346e-02
2.026118459735314070e-02
3.991717683435454939e-02
4.052546985851337297e-02
3.710282405091191310e-02
3.581072724685652880e-02
3.095153532889671419e-02
2.778454511474262242e-02
2.555321325578071776e-02
2.252401932865946699e-02
1.663711426224964360e-02
9.546123208506441388e-03
2.901788891911170551e-03
-6.570083151453298687e-03
-2.054031713172318335e-02
-3.331797742897474324e-02
-4.503095007192068483e-02
-5.881351914291570865e-02
-7.330177424738087977e-02
-6.357544994114888715e-02
-2.470454708767826427e-02
1.914816923905279453e-02
4.908864171586593828e-02
5.683355052505090904e-02
4.671652109099010824e-02
3.036641681722071842e-02
2.066914820643737591e-02
2.652009626477312351e-02
3.037808704572958485e-02
1.942171492563698684e-02
1.582894372352987994e-02
1.828115577518633558e-02
-6.548307618271592082e-04
-1.595339691795114034e-02
-1.559428260660111407e-02
-2.742788344453940888e-02
-4.749251293974644794e-02
-5.975824987871607846e-02
-7.040642142711341089e-02
-6.678684115846364455e-02
-3.011725523222862425e-02
1.482779918527501670e-02
4.003295606188711497e-02
4.583691926220653107e-02
4.552107090452912203e-02
4.152253784272914860e-02
3.661173051083885938e-02
2.954219796903503545e-02
2.309916432127195537e-02
1.860997832756249026e-02
1.827589719301793772e-02
1.273721849701015332e-02
4.217614008135367118e-03
-7.545657763169035664e-03
-2.166592556803924666e-02
-3.385150056269174007e-02
-4.759737551515293846e-02
-6.801198019173972098e-02
-8.240975678204198740e-02
-6.475345061202109065e-02
-1.813715634007411273e-02
2.327810989275283168e-02
4.829471050345029298e-02
5.739035419517436037e-02
5.005404848112314509e-02
3.320592611248465026e-02
2.155166512302703410e-02
2.760701603589087519e-02
3.025260083690220134e-02
2.511611755482901290e-02
2.052524730796514985e-02
2.495283181635979744e-02
4.614988861226310742e-04
-2.773557548404947254e-02
-3.032030758629059367e-02
-3.353162566353926760e-02
-4.625596668012968427e-02
-5.825433925253606371e-02
-6.834062228645264303e-02
-6.485746874381756455e-02
-2.892357956305582553e-02
1.617831473745887441e-02
3.919952501240044768e-02
4.563871429604639263e-02
4.614626830945895569e-02
4.341094658367838227e-02
3.677023522690826135e-02
3.052014072810612863e-02
2.410774994279370545e-02
1.976338814051092907e-02
1.628792816928577650e-02
1.111629509280116952e-02
9.886872159828360290e-03
1.238691258266637124e-03
-1.879256183727845766e-02
-3.962644370015074718e-02
-5.143852564940076810e-02
-6.400212070468005998e-02
-8.086222928653016839e-02
-7.432157799198696457e-02
-3.463416734834995347e-02
1.417187839865581903e-02
4.925008652591416486e-02
6.158832354918356011e-02
5.493632173450829770e-02
3.406207705570744176e-02
2.600101822738720356e-02
3.787122381939724697e-02
4.418730551567156412e-02
3.021940819766423883e-02
1.831013299332543559e-02
1.718019524282990082e-02
-8.904789314685458007e-03
-2.918949885991559828e-02
-2.697837795867131724e-02
-3.075345125951188183e-02
-4.659954145524911051e-02
-6.160810896198851833e-02
-7.663498619744549267e-02
-7.364330690672449276e-02
-3.330171149886899246e-02
1.760687256694257879e-02
4.541970845088805220e-02
5.383596877846310441e-02
5.292650095924393561e-02
4.754107590890772200e-02
3.749011244186885999e-02
2.799035687044892570e-02
2.581080937035016773e-02
2.279976488212383939e-02
1.790708929261364615e-02
1.009825041971293934e-02
1.368211277666307518e-03
-1.106208016959393109e-02
-2.270737922449907534e-02
-3.404981193271214290e-02
-5.104305267878314623e-02
-7.298598433592201618e-02
-8.730541789558811383e-02
-6.988165313306862747e-02
-2.128220100084328784e-02
2.808647595512937453e-02
5.888213190932973379e-02
6.525463554907900976e-02
4.935026335561409905e-02
2.773431958837589348e-02
2.121614860128078969e-02
3.358117981601054652e-02
3.723511383118999901e-02
2.649129055158191623e-02
1.993673854631423589e-02
2.301626014232852069e-02
-4.169904444008078886e-03
-2.829278605225240759e-02
-2.792196386165974806e-02
-3.425831507541491489e-02
-5.211800129391545855e-02
-6.501642991486153433e-02
-7.617170016087554396e-02
-7.127527230977180606e-02
-2.908148149922529582e-02
2.233747102771824200e-02
4.801376859944446462e-02
5.154856848477731152e-02
5.128966147000036530e-02
4.615368726763253299e-02
3.900209809456364057e-02
2.954013542433594694e-02
2.236659807683982412e-02
2.087998700530767707e-02
1.939650765160763971e-02
1.727848460910011430e-02
5.930682175578795914e-03
-1.046360805525721471e-02
-2.685466618616284135e-02
-4.039782269441094531e-02
-5.247848084385988571e-02
-7.214582322505053158e-02
-9.029656432766475227e-02
-7.542333748623170075e-02
-2.572218697799584855e-02
2.666586258489960989e-02
5.959824877007489918e-02
6.915243703985816948e-02
5.709905141299184694e-02
3.410919928325081146e-02
2.392344001802325024e-02
3.414077841666113278e-02
3.667505640242231524e-02
2.532009124451902946e-02
2.270114837814004097e-02
2.714548487364594129e-02
-2.723980098567821417e-03
-3.016919022659165714e-02
-3.567818388403968394e-02
-4.380989720480281402e-02
-5.789846122102271925e-02
-6.774232675372662826e-02
-8.144550896395978679e-02
-7.965779263887146078e-02
-3.151261220982316119e-02
2.743721856370265680e-02
5.808150131425649648e-02
6.518708537778590550e-02
6.350523554503754997e-02
6.007639178704492905e-02
5.335788993827900867e-02
4.277541214121333840e-02
3.100308783591853787e-02
1.927537946012600548e-02
6.862773969407726798e-03
-4.993613771007321400e-03
-1.584296812584919459e-02
-3.122336788254938961e-02
-4.635884331162719307e-02
-6.543927310655181517e-02
-8.676466249013736753e-02
-1.053392425397594867e-01
-1.162897833608283193e-01
-8.492759099871431683e-02
-1.238179486454052750e-02
7.212821588155601815e-02
1.296964248238967332e-01
1.623528971566736145e-01
1.898952174976409057e-01
2.216124586076427538e-01
2.233850322394436150e-01
-4.055230215981617953e-02
-1.789699251771335320e-01
-2.079072565948787421e-01
-1.919565525656202476e-01
-1.640601048502673964e-01
-1.196938456481320689e-01
-4.243031509254614059e-02
2.920788406534051071e-02
6.375000826467967785e-02
7.414162316289284183e-02
7.620084220950917864e-02
6.949236170344878782e-02
5.469044722321057123e-02
3.709091510259553831e-02
2.162342809757273818e-02
8.522654721356211910e-03
7.958380668429650747e-04
-3.374109457078758659e-03
-3.848405223157569735e-03
-5.460964645709043969e-03
-8.604567586536847335e-03
-1.156110783948156515e-02
-1.497280631425576200e-02
-2.205258699795921082e-02
-3.133840929821876675e-02
-3.847668578893518460e-02
-4.520896425949374325e-02
-4.565668097538165549e-02
-2.515073096917857381e-02
1.130842904824010120e-02
4.215418629621823371e-02
5.386779563338299492e-02
4.697255689844261062e-02
2.755438668778961361e-02
9.332329203912390764e-03
3.246205199225454113e-03
1.424686575420201946e-02
1.721257004659111634e-02
8.269528697609065948e-03
5.627334573824601879e-03
7.248930660173638629e-03
-1.362956015507218663e-02
-2.676478470217189681e-02
-2.187099457857644494e-02
-2.456518407801193057e-02
-3.527577083162911770e-02
-3.730536423722682904e-02
-3.971146306188733793e-02
-2.866258933590343574e-02
6.252533735445986451e-03
3.547047352423908506e-02
3.910603538205067314e-02
3.050376219429551047e-02
2.777024765434655748e-02
2.364450664179651093e-02
1.551163535592052847e-02
9.197196628326360923e-03
3.255552479226021811e-03
1.053529970461333570e-03
2.889166496582993345e-04
-2.217375076374119430e-03
-4.499867036403978199e-03
-7.463828621038219591e-03
-1.115326259543897650e-02
-1.484414034165379079e-02
-2.111806468744036741e-02
-2.652823106751124940e-02
-3.151177826996495041e-02
-3.369479953583036369e-02
-1.710008174738271089e-02
8.729777402545116360e-03
2.788245804654240073e-02
3.523636440342201720e-02
3.150020480465864220e-02
2.024387408236643163e-02
5.863240227281307088e-03
2.403058431846703813e-03
9.744613688930937531e-03
1.392684597000909755e-02
1.220620642557910737e-02
1.158423254717608729e-02
7.969569279151926533e-03
-1.420382295492336397e-02
-2.299890056468532548e-02
-1.656776644109917915e-02
-1.576279821520130617e-02
-2.441539056700921251e-02
-3.022378476424691235e-02
-3.328374431997108140e-02
-2.276085528836600466e-02
6.348581238348036029e-04
2.169259559236618243e-02
2.817433938271829766e-02
2.371265138946447928e-02
2.270612234475824845e-02
1.821906266583564124e-02
1.490178747951716870e-02
1.325416282789598429e-02
7.490217314353838501e-03
6.647408032545152386e-04
4.362254947984980100e-04
6.520564936333143793e-04
-4.253426344307639079e-03
-9.894030805210266358e-03
-1.271213503779410406e-02
-1.802106121732022226e-02
-2.318911246428270040e-02
-2.815379114548740777e-02
-3.146005342263093196e-02
-2.112966795133594186e-02
8.799176956605524094e-04
2.182306664994175180e-02
3.122138330745609022e-02
2.934367198825124298e-02
2.119506888258487418e-02
8.230613100616391425e-03
3.823190189283507453e-04
3.537594157339020093e-03
8.256179769161259632e-03
6.886271768031023560e-03
1.054413829317103410e-02
1.559781274402826171e-02
4.187862521771626434e-03
-6.114013459829622035e-03
-1.762803119299123297e-02
-3.114412351214592908e-02
-3.442958165064386594e-02
-2.783720851202568097e-02
-2.505617287619691519e-02
-2.093725318406733024e-02
-5.566049499823335495e-03
1.615128369469260097e-02
2.625228310567699272e-02
3.042280323301709000e-02
3.168835476266942952e-02
2.502180212541836243e-02
1.272021746685820034e-02
5.754570316654804892e-04
-5.630834560625200269e-03
-1.478781823785151181e-03
2.849878346241334348e-03
2.452725199741484854e-03
-1.633435379886591940e-03
-5.891833734117449956e-03
-1.236598315636670310e-02
-1.656678277759024778e-02
-1.858398695231827311e-02
-2.261646369470116449e-02
-2.995904696142588641e-02
-2.239279977381715761e-02
8.482657303265376191e-05
1.905520921514876689e-02
2.783082619174405067e-02
2.391424318273861760e-02
1.459205386893316220e-02
6.360292369574110927e-03
9.321296184226682269e-03
1.306397458782571595e-02
1.093293161823388412e-02
4.324132223148523593e-03
4.860513683867151609e-03
6.519229112334145107e-03
-6.069992148978433505e-03
-1.254898936332913585e-02
-1.078658465555116380e-02
-1.407870550013525304e-02
-2.135076340954387628e-02
-2.445598295097479655e-02
-2.586602839474184609e-02
-1.899846778557292420e-02
-1.519770337733808300e-03
1.331828553802106435e-02
1.920843773197136728e-02
1.779729450989221695e-02
1.603526545843111245e-02
1.499039247908029449e-02
1.408532605857618081e-02
1.016125505270378329e-02
8.918688258127782306e-03
7.838843180399866772e-03
3.992034218801840569e-03
4.832329805930905570e-04
-2.658657600845056902e-03
-8.738589851646123147e-03
-1.443170402162864858e-02
-1.752656088006688748e-02
-2.071246007891546295e-02
-2.729456310097449698e-02
-2.731291165247013222e-02
-1.480707886074688825e-02
1.006013727916461311e-03
1.444978891055543127e-02
2.485598494367011538e-02
2.735238098667483811e-02
1.830494902302870486e-02
9.775214833664960801e-03
1.118699089857494097e-02
1.666020889416905751e-02
1.173753355875985574e-02
5.764590881817634530e-03
4.621585651019224743e-03
-1.429453892427996970e-03
-2.105380171670781508e-02
-3.065929121150976280e-02
-2.698884739430421759e-02
-1.899702012048743241e-02
-1.241767075213059610e-02
-7.930109274126444924e-03
-5.598640214361254655e-03
-3.833172700537158372e-03
1.064225423653634636e-02
1.666339796353485947e-02
1.870079154988578407e-02
1.889634331343111040e-02
1.672856071013070767e-02
1.616736262146098446e-02
1.148073635175423865e-02
4.641399834536085248e-03
-2.951458763393486565e-04
-4.482160491114667820e-03
-6.157263834443120996e-03
-1.327037962487908826e-02
-2.376847528614966371e-02
-3.015150778293462439e-02
-2.953504619308821785e-02
-1.801305027987021301e-02
1.690192078297423966e-03
1.590943825353664451e-02
2.089725024957163335e-02
1.651728599587467747e-02
8.485601400688533302e-03
-2.143164873803576290e-04
2.691680431236477197e-03
1.372778605452110341e-02
1.702246625732610139e-02
1.270129247124830718e-02
1.233657390880548398e-02
1.350453376676009030e-02
-1.689316525281951567e-03
-1.268908599554347677e-02
-1.307166093356618326e-02
-1.277915034583258780e-02
-2.189783340224204719e-02
-2.926256619022666108e-02
-3.143355080321306311e-02
-2.262939821492182188e-02
-3.967927250353479266e-04
1.451285078446013649e-02
1.822119546180685917e-02
1.939300952119958621e-02
1.812202264016348971e-02
1.503629689608981107e-02
1.126045404926795390e-02
8.391939147758056827e-03
6.509510815935787287e-03
3.417793780794157327e-03
3.366079692375623968e-03
5.179193296958903119e-03
5.045087409522443916e-03
-2.523952576082837997e-03
-1.060727069833065223e-02
-1.783839817730387828e-02
-2.242107644847869327e-02
-2.470100542454583756e-02
-2.548223993253677724e-02
-1.673087102094530584e-02
-1.133816203875556575e-03
1.090990963782761253e-02
1.634346514341157228e-02
1.894083148397262412e-02
1.887344546586391600e-02
1.282137223804004703e-02
3.089270773708824303e-03
2.932323533399162213e-03
8.317900129562558198e-03
7.091942688151066029e-03
3.111222058885168302e-03
6.513267370926051694e-03
1.056776501939822588e-02
2.738080643256873056e-04
-6.691240942726706803e-03
-1.011849043970666426e-02
-1.714768292362037552e-02
-2.406971415201414333e-02
-2.515141278423038348e-02
-2.635906958429535749e-02
-1.714014535709272244e-02
4.069784840063869064e-03
1.958209156797612732e-02
2.261826109287117317e-02
1.954570477781498311e-02
1.365322138697602772e-02
6.023400530861852675e-03
2.297979658339476591e-04
-1.193234867732373633e-03
-5.753550375846279517e-04
3.437176829915677967e-03
8.110508167214699332e-03
9.543823776960938185e-03
8.660906323513567397e-04
-7.282813857409269412e-03
-5.999729331225003241e-04
5.044855602067620584e-03
-6.485965165947146869e-04
-1.169791308360081973e-02
-1.527404320397063309e-02
-1.411764744234871895e-02
-1.829756763567782010e-02
-2.264004984477444027e-02
-1.438490414502299405e-02
2.667314325704163783e-03
1.359924147667770401e-02
2.039951526070571050e-02
1.810474016218118279e-02
8.790342957503690519e-03
2.296166112233054973e-03
6.434482421686727252e-03
1.126464958921374881e-02
1.335973282216932831e-02
1.216526756846633348e-02
1.400158842806903045e-02
8.764343984254342051e-03
-1.002974564355965659e-02
-1.680229254207371917e-02
-1.473519029190793056e-02
-1.511927865476596702e-02
-1.991722901731081755e-02
-2.219545968581499232e-02
-2.518950659647514398e-02
-2.003755085454763871e-02
-1.677772738619283258e-03
1.737514347819310925e-02
2.208398188823815916e-02
1.695765773504084167e-02
1.455443069925938665e-02
1.590625304256554698e-02
1.414882622933662237e-02
1.067864036861570012e-02
5.538574536537128196e-03
3.294157550599323327e-04
-2.069684718220611043e-03
-2.044421095688427059e-03
-3.815367690525350505e-03
-4.104524480886665577e-03
-5.828487312226739506e-03
-9.824778695247161214e-03
-1.619981102598848019e-02
-2.401176541968429168e-02
-2.669317888706276495e-02
-1.298286124301322418e-02
4.052499065634084310e-03
1.383264064161501480e-02
1.645381301580779027e-02
1.440006576368702343e-02
9.136873629255609641e-03
1.377327223690906965e-03
4.176224231327270789e-03
1.453212217101429796e-02
1.582757224652663053e-02
7.595276974988343296e-03
6.461178266398627697e-03
7.883166582029442482e-03
1.763928875931033763e-03
-5.063689575250971547e-03
-7.548032298838136187e-03
-1.304589824092714477e-02
-2.113483027504730813e-02
-2.357968118417911804e-02
-2.643948130570643665e-02
-2.611220319325606790e-02
-1.011673350752348953e-02
6.097024178985943621e-03
1.404178096056490042e-02
1.762963100930801594e-02
1.983952852614125767e-02
2.144559282278150208e-02
1.945048358647939041e-02
1.499511588451288985e-02
1.060335871334345398e-02
4.087151384324576309e-03
-1.664170381978615160e-03
-4.293892775460004044e-03
-2.544668129538553425e-03
-4.451564918567645426e-03
-8.833683489164169400e-03
-1.502075655857079348e-02
-2.053568493214844373e-02
-2.779300115558198947e-02
-3.067301861811087479e-02
-2.003284541264487364e-02
4.356829478558879587e-03
2.308405976256549738e-02
2.725170281487313342e-02
2.285220056945046208e-02
1.316281902902823736e-02
4.360565867453414929e-03
4.730285267508488323e-03
8.482859028600943374e-03
6.595203789311361066e-03
5.598758625441273111e-03
8.844205960657273297e-03
7.846478244028181823e-03
-6.984995756616450835e-03
-1.394543077953641456e-02
-1.278116713170614899e-02
-1.548980679713171660e-02
-2.233181717238353833e-02
-2.349006840755274092e-02
-2.409099447614643577e-02
-1.537845539094666140e-02
5.727695857570521201e-03
2.164026839705461558e-02
2.717461417980160041e-02
2.859115950937701767e-02
2.464185182060292870e-02
1.753419885822526600e-02
9.109260655653605293e-03
-5.250738856046879236e-04
-1.068717910480024118e-02
-1.872271765546255906e-02
-7.616388142338939224e-03
-7.457996372916664285e-03
-1.348235294527974464e-02
-2.023740342031242131e-02
-2.280495828511844292e-02
-1.513404285770690583e-02
-1.203461956155957866e-03
1.288072043442220309e-02
2.128750120317957073e-02
1.995154453141226997e-02
1.095655154524401848e-02
3.586946455494410130e-03
7.591736834669083819e-03
1.639992235826907147e-02
1.308017106879783356e-02
-6.476572062394001742e-04
-8.655458882453824845e-03
-8.754393916912822649e-03
-1.799783303201500304e-02
-2.366666141880137755e-02
-1.726673753129914432e-02
-6.256504864533860705e-03
5.039553527666620902e-03
1.421612675484176802e-02
2.139731471682411804e-02
2.007837654800612506e-02
7.955813250806435463e-03
-5.904395379272588812e-03
-1.678673705347884237e-02
-2.524649589525860410e-02
-2.185981958489966251e-02
-6.463677040758602360e-03
5.720085635795763013e-03
9.237310432745494265e-03
8.983636141216399390e-03
7.819199430603341813e-03
9.139746272571636077e-03
8.316309666489867664e-03
8.099605280108506875e-03
6.567757628419242447e-03
5.226452532565562317e-03
4.452096929947849634e-03
5.962236549197561658e-03
3.236648709606938269e-03
-2.576798744271069190e-03
-6.746081601888115863e-03
-1.313018024640484269e-02
-2.286443086208898509e-02
-2.671909663202179722e-02
-2.386987413225999041e-02
-1.443950781756575194e-02
1.642421857835534623e-04
1.064219229952892073e-02
1.790871876056846987e-02
2.021926822374394903e-02
1.403498995964611723e-02
4.813851984213527585e-03
4.690691404380126911e-03
1.140708295723431506e-02
1.380382768334308119e-02
1.060604353785645458e-02
1.152242013287833010e-02
1.028189756213858039e-02
-3.868285051316783241e-03
-1.161803356115933411e-02
-1.281989840695269521e-02
-1.681964925827468885e-02
-2.257558159212483609e-02
-2.686661788984674379e-02
-2.748473992418601700e-02
-2.064771913926398417e-02
-1.177578278499401146e-03
1.579068374861382004e-02
1.871233977760860742e-02
1.803982177357988520e-02
1.671777041890978865e-02
1.685089817676624011e-02
1.493898096996542843e-02
1.055529443199413817e-02
6.801502825282813511e-03
6.810460864084642331e-03
3.701976539740387852e-03
-2.138496892308235260e-03
-5.610281825144897670e-03
-8.906565788387908744e-03
-1.185855893770929384e-02
-1.586713587908188811e-02
-2.021625513099952268e-02
-2.404689632172512040e-02
-2.666889656091238694e-02
-1.476637780794182002e-02
5.367291903218640234e-03
1.617212233062027826e-02
2.157170689577057529e-02
2.158745807645886389e-02
1.427349467131404370e-02
9.258815204051973335e-03
1.307574957422225938e-02
1.252253634456304207e-02
4.276102562415994360e-03
4.122813091831112071e-04
5.863258566298969188e-03
7.786914525549313085e-03
-7.285659548196833299e-03
-1.036187904778736353e-02
-7.903560248051291759e-03
-1.156580767249727748e-02
-1.847630047862415872e-02
-2.433748020189476294e-02
-2.937560131199374799e-02
-2.874500309846184445e-02
-1.271881973596386724e-02
8.232591713686624596e-03
1.863425741052204820e-02
1.990827221789766635e-02
1.931963820301138904e-02
2.030618997532658218e-02
2.320134419191209954e-02
2.216395810323119539e-02
2.166457906981138562e-02
1.973154401369682162e-02
1.639810702755957125e-02
9.504623395998156379e-03
1.652704946558349345e-03
-9.618945392515818732e-03
-2.533505417543544316e-02
-4.866831315906350319e-02
-7.160951476170301921e-02
-6.578876450586521041e-02
-2.918093561195060984e-02
6.064153361346188292e-03
1.686542673765167519e-02
1.642312821753335803e-02
2.174267014639196319e-02
2.757074690127481534e-02
2.398184808467464582e-02
2.146404497962540667e-02
3.162879241581598860e-02
4.733610318004879275e-02
3.904487211807208119e-02
1.618825090894825125e-02
3.139712799546475266e-03
-6.311956568222342953e-03
-2.717844129934818970e-02
-4.119500669664058479e-02
-4.491896005444635798e-02
-4.247049068237964548e-02
-3.325357977399108489e-02
-2.260530297001360836e-02
-1.889499185534077724e-02
-8.377962426469612311e-03
1.377370443286368533e-02
2.950728375552956820e-02
3.122784334249429847e-02
2.781268106068017151e-02
2.364043529455548201e-02
1.868168449512685667e-02
1.106085871722263178e-02
4.362875002511965028e-03
