-1.450368590721778624e-03
-1.206866426460136534e-03
-9.649972359072452261e-04
-7.275952395066698566e-04
-4.975157881505813890e-04
-2.775994710393002939e-04
-7.063520999458987684e-05
1.206773617172289065e-04
2.937656032201901922e-04
4.462212199774076094e-04
5.758367047248526185e-04
6.806404280281118033e-04
7.589297162735739654e-04
8.093014591586852576e-04
8.306797099111258359e-04
8.223398587625512521e-04
7.839288671714201000e-04
7.154811712495623985e-04
6.174298557145357566e-04
4.906129525050107083e-04
3.362744268459737272e-04
1.560597675770612964e-04
-4.799394237598209213e-05
-2.734734758759254595e-04
-5.176103861054363051e-04
-7.773073227011978795e-04
-1.049169466719600003e-03
-1.329540831009337013e-03
-1.614545071888010084e-03
-1.900130224194851577e-03
-2.182117030030446356e-03
-2.456250182850839171e-03
-2.718251820732138588e-03
-2.963876650536303916e-03
-3.188967889687940958e-03
-3.389513369921860753e-03
-3.561700933929128152e-03
-3.701972333366054801e-03
-3.807074845361796325e-03
-3.874109816319638768e-03
-3.900577504912276176e-03
-3.884417386707130545e-03
-3.824043297047331671e-03
-3.718372752117880733e-03
-3.566850089370014742e-03
-3.369462785717750562e-03
-3.126750853808143299e-03
-2.839808771664707483e-03
-2.510280041102185607e-03
-2.140344111285346577e-03
-1.732695951245749946e-03
-1.290518345524044970e-03
-8.174472534950863673e-04
-3.175305039051921538e-04
2.048194241987885006e-04
7.448781862912137166e-04
1.297667050944170935e-03
1.858014385288695759e-03
2.420620211878485306e-03
2.980123054343582906e-03
3.531168007334460623e-03
4.068475105343235219e-03
4.586906939046423055e-03
5.081534587441297393e-03
5.547700895917368098e-03
5.981080076570693092e-03
6.377732765555865768e-03
6.734155687928141017e-03
7.047325198683261800e-03
7.314734030058628149e-03
7.534420681169281576e-03
7.704990872315601799e-03
7.825630907330733202e-03
7.896112622136113729e-03
7.916789919531597164e-03
7.888586922514801911e-03
7.812977860281282438e-03
7.691959147050546168e-03
7.528014005236611898e-03
7.324070257355688209e-03
7.083452053058859020e-03
6.809826069825291109e-03
6.507143406867533543e-03
6.179577921437529042e-03
5.831462046604737361e-03
5.467221203163164650e-03
5.091307884619946517e-03
4.708136460038465573e-03
4.322019733635707600e-03
3.937108409324346046e-03
3.557334370692545340e-03
3.186358753305593497e-03
2.827525595790110827e-03
2.483821807624972747e-03
2.157844113638461396e-03
1.851773439240881215e-03
1.567357107210940988e-03
1.305899040633785521e-03
1.068258047939452419e-03
8.548541339034327734e-04
6.656825852203218695e-04
5.003354386374195446e-04
3.580298818567699505e-04
2.376428636994117809e-04
1.377512221735055346e-04
5.667647154818956505e-05
-7.466752018185699728e-06
-5.671955871453828840e-05
-9.322604510091439534e-05
-1.191801164420646433e-04
-1.367728271415251243e-04
-1.481414553029691177e-04
-1.553212288872035825e-04
-1.602008962506921421e-04
-1.644829276661996910e-04
-1.696491235415969708e-04
-1.769326006552564962e-04
-1.872964356308762246e-04
-2.014195892796463098e-04
-2.196902993469580616e-04
-2.422071152019064253e-04
-2.687876142473205826e-04
-2.989844458307423553e-04
-3.321084684870384009e-04
-3.672583926126078160e-04
-4.033562698465628519e-04
-4.391880281353562109e-04
-4.734480934656666953e-04
-5.047870930202945144e-04
-5.318615388067889083e-04
-5.533842629155674361e-04
-5.681743969175021870e-04
-5.752057106214220235e-04
-5.736519927059019648e-04
-5.629284011952271878e-04
-5.427275421242726749e-04
-5.130493949825426720e-04
-4.742240673035610313e-04
-4.269266043201997828e-04
-3.721832656445505706e-04
-3.113688807111328382e-04
-2.461948749923807233e-04
-1.786880028959608225e-04
-1.111598998282631410e-04
-4.616776412281635894e-05
1.353327296397025502e-05
6.504529680455956551e-05
1.053893759097095865e-04
1.315728904467678003e-04
1.406611297954854631e-04
1.298517455456875782e-04
9.655060191681733505e-05
3.844732295575816464e-05
-4.641092662373978619e-05
-1.595491681001066290e-04
-3.019994530164564939e-04
-4.742424516082461780e-04
-6.761573415786311953e-04
-9.069812003742695403e-04
-1.165279362831513283e-03
-1.448927596630161969e-03
-1.755107170851900877e-03
-2.080313308133486909e-03
-2.420377443195586599e-03
-2.770503405756532655e-03
-3.125317324756332355e-03
-3.478930930578315664e-03
-3.825017483909818033e-03
-4.156899333786246396e-03
-4.467645898762885419e-03
-4.750180506049865754e-03
-4.997394419737387697e-03
-5.202266096824255739e-03
-5.357983660591819283e-03
-5.458068363689683351e-03
-5.496496671012763603e-03
-5.467818648237783054e-03
-5.367270289735358475e-03
-5.190877549067107743e-03
-4.935549725871510481e-03
-4.599160189671427576e-03
-4.180612433895599354e-03
-3.679889851383392162e-03
-3.098087775115137242e-03
-2.437426624016799086e-03
-1.701245332093675794e-03
-8.939745532667999579e-04
-2.108963663808974037e-05
9.109564153051243670e-04
1.894819364585377357e-03
2.922368482697894516e-03
3.984808099759124846e-03
5.072814310225560661e-03
6.176684593472102185e-03
7.286498057640737429e-03
8.392283497861863228e-03
9.484192482881105557e-03
1.055267428068203985e-02
1.158864950058398867e-02
1.258367918266889256e-02
1.353012607029732001e-02
1.442130482347912628e-02
1.525161828550800243e-02
1.601667668447339515e-02
1.671339727316141152e-02
1.734008201168298416e-02
1.789647136043689621e-02
1.838377255007667480e-02
1.880466127030758217e-02
1.916325599366236476e-02
1.946506480768073546e-02
1.971690521407028912e-02
1.992679757458252349e-02
2.010383375809840847e-02
2.025802275365317165e-02
2.040011564339187095e-02
2.054141282174338709e-02
2.069355664007000578e-02
2.086831304924924996e-02
2.107734611319884988e-02
2.133198950243013828e-02
2.164301920290760337e-02
2.202043185217892468e-02
2.247323300693533990e-02
2.300923959044654660e-02
2.363490058239060831e-02
2.435513987515162265e-02
2.517322475318337777e-02
2.609066311734536958e-02
2.710713212133501748e-02
2.822044036402080944e-02
2.942652506305788035e-02
3.071948520492786411e-02
3.209165080386716662e-02
3.353368791737936644e-02
3.503473822833812895e-02
3.658259135544217333e-02
3.816388739341863845e-02
3.976434650664359416e-02
4.136902190682576613e-02
4.296257185677604395e-02
4.452954599803342350e-02
4.605468088495076606e-02
4.752319917511212827e-02
4.892110689186662809e-02
5.023548297510551514e-02
5.145475537585777331e-02
5.256895797078679766e-02
5.356996292240557428e-02
5.445168336917869528e-02
5.521024180633683776e-02
5.584409987201131853e-02
5.635414625998935029e-02
5.674373981281343599e-02
5.701870590094851310e-02
5.718728481162402982e-02
5.726003195857223838e-02
5.724967058906680478e-02
5.717089850444643379e-02
5.704015133503565621e-02
5.687532581534347764e-02
5.669546730826017372e-02
5.652042667938915466e-02
5.637049236994779583e-02
5.626600416038873842e-02
5.622695559681612637e-02
5.627259254075344524e-02
5.642101562486924460e-02
5.668879443905602833e-02
5.709060138989869443e-02
5.763887306453345516e-02
5.834350651212379807e-02
5.921159753929969988e-02
6.024722742696596994e-02
6.145130390316737995e-02
6.282146128160265297e-02
6.435202358153614688e-02
6.603403361765342039e-02
6.785534968216845597e-02
6.980081023054234002e-02
7.185246599378447563e-02
7.398987712792950977e-02
7.619047210967788697e-02
7.842996369695034997e-02
8.068281592386887524e-02
8.292275511159810653e-02
8.512331663430379447e-02
8.725841825765602577e-02
8.930295009912837811e-02
9.123337045188743832e-02
9.302829637046243494e-02
9.466907740937409443e-02
9.614034096773910187e-02
9.743049753937844948e-02
9.853219470207690012e-02
9.944270890769994764e-02
1.001642651140083745e-01
1.007042749728686848e-01
1.010754854991333801e-01
1.012960313179467331e-01
1.013893851953086567e-01
1.013842029473187578e-01
1.013140606232196261e-01
1.012170836251347489e-01
1.011354692625752172e-01
1.011149061628886514e-01
1.012038957356902330e-01
1.014529829896505808e-01
1.019139054951253565e-01
1.026386713225145020e-01
1.036785781410348717e-01
1.050831872282285973e-01
1.068992673276246280e-01
1.091697243753897706e-01
1.119325339437316214e-01
1.152196938044767888e-01
1.190562144062349698e-01
1.234591648776512673e-01
1.284367922467263279e-01
1.339877306389865574e-01
1.401003167707723374e-01
1.467520266059777756e-01
1.539090468996864858e-01
1.615259936336203295e-01
1.695457873985216635e-01
1.778996940560087503e-01
1.865075360807516291e-01
1.952780783286501842e-01
2.041095889992153578e-01
2.128905740570760929e-01
2.215006807420270840e-01
2.298117632717693870e-01
2.376891010951744376e-01
2.449927574655012263e-01
2.515790640615880869e-01
2.573022148235223905e-01
2.620159503972868120e-01
2.655753124292876688e-01
2.678384460048251481e-01
2.686684267498832268e-01
2.679350885375030855e-01
2.655168271519766088e-01
2.613023548575202915e-01
2.551923812762253441e-01
2.471011962181205168e-01
2.369581312814093843e-01
2.247088779342269471e-01
2.103166416960234042e-01
1.937631136996892378e-01
1.750492432982923841e-01
1.541957978121419881e-01
1.312436981140424619e-01
1.062541217741495292e-01
7.930836850823050344e-02
5.050748586374272792e-02
1.997165635293293717e-02
-1.216064966029351165e-02
-4.573374751762313700e-02
-8.057602746736858279e-02
-1.165014456892874695e-01
-1.533112003885210850e-01
-1.907955735607288761e-01
-2.287359167306314001e-01
-2.669067568180512606e-01
-3.050779963612672563e-01
-3.430171810721907022e-01
-3.804918067202061049e-01
-4.172716363994523614e-01
-4.531309992079317062e-01
-4.878510415218039742e-01
-5.212219024831199476e-01
-5.530447863700063138e-01
-5.831339058104505479e-01
-6.113182717260874366e-01
-6.374433075606452670e-01
-6.613722681551588156e-01
-6.829874460284823812e-01
-7.021911508250371359e-01
-7.189064507313815966e-01
-7.330776679372167370e-01
-7.446706235915039329e-01
-7.536726310801152851e-01
-7.600922398396818824e-01
-7.639587353745656007e-01
-7.653214043040376113e-01
-7.642485764893132139e-01
-7.608264590949601613e-01
-7.551577802297884112e-01
-7.473602624021805640e-01
-7.375649477498531503e-01
-7.259143991603331791e-01
-7.125608026535346085e-01
-6.976639975824199258e-01
-6.813894617872684467e-01
-6.639062790256465840e-01
-6.453851160450212454e-01
-6.259962360903500445e-01
-6.059075745612753083e-01
-5.852829015166257642e-01
-5.642800939557651718e-01
-5.430495388660265821e-01
-5.217326859294365571e-01
-5.004607661878824887e-01
-4.793536903990012754e-01
-4.585191378974059484e-01
-4.380518439278020537e-01
-4.180330904376254875e-01
-3.985304019880541171e-01
-3.795974457484838083e-01
-3.612741314342744481e-01
-3.435869041533197721e-01
-3.265492206280755094e-01
-3.101621964122926456e-01
-2.944154098084126869e-01
-2.792878459802909941e-01
-2.647489630665779137e-01
-2.507598606654302675e-01
-2.372745300304974492e-01
-2.242411644879069577e-01
-2.116035082296960634e-01
-1.993022215438713662e-01
-1.872762407531399775e-01
-1.754641119094134394e-01
-1.638052781054006590e-01
-1.522413013619196565e-01
-1.407170017903020820e-01
-1.291814983237802861e-01
-1.175891371766745602e-01
-1.059002964283923820e-01
-9.408205728083181285e-02
-8.210873507936077009e-02
-6.996226539086715379e-02
-5.763244289469054288e-02
-4.511701345008484881e-02
-3.242162178869471834e-02
-1.955961983485692349e-02
-6.551742621324117312e-03
6.574339345880717521e-03
1.978458031848582752e-02
3.303921993188001921e-02
4.629353048790318947e-02
5.949863611238859901e-02
7.260238828750061046e-02
8.555028148082828576e-02
9.828639272724935816e-02
1.107543284917931747e-01
1.228981629394561848e-01
1.346633519217200481e-01
1.459976078631484986e-01
1.568517218825785098e-01
1.671803205239001389e-01
1.769425458378229843e-01
1.861026493585300756e-01
1.946304919696577318e-01
2.025019433379901534e-01
2.096991767952482433e-01
2.162108569997744090e-01
2.220322197959343491e-01
2.271650454101933336e-01
2.316175280169216477e-01
2.354040462114582177e-01
2.385448405423890028e-01
2.410656058442428307e-01
2.429970069569087343e-01
2.443741278661166194e-01
2.452358651143387025e-01
2.456242767169403152e-01
2.455838987220490266e-01
2.451610413679041478e-01
2.444030771408557123e-01
2.433577327568750281e-01
2.420723967475608140e-01
2.405934535725385848e-01
2.389656547586806734e-01
2.372315364434892382e-01
2.354308917964562375e-01
2.336003054167125892e-01
2.317727558545722155e-01
2.299772908534316040e-01
2.282387786659452189e-01
2.265777372607362394e-01
2.250102420694967131e-01
2.235479112925820022e-01
2.221979666668877362e-01
2.209633662752000238e-01
2.198430049514571993e-01
2.188319765301222908e-01
2.179218914888366165e-01
2.171012427104396236e-01
2.163558114362111040e-01
2.156691049526806847e-01
2.150228174632958511e-01
2.143973051092914472e-01
2.137720663367302099e-01
2.131262190007503776e-01
2.124389656366400536e-01
2.116900391428921946e-01
2.108601215326886824e-01
2.099312289704049206e-01
2.088870573849101187e-01
2.077132835841396241e-01
2.063978179175607885e-01
2.049310053695966582e-01
2.033057731592016470e-01
2.015177237359909723e-01
1.995651734150769019e-01
1.974491373914089576e-01
1.951732633181961774e-01
1.927437161297002877e-01
1.901690178947969823e-01
1.874598470163310326e-01
1.846288017293863937e-01
1.816901334474727847e-01
1.786594558723827997e-01
1.755534359871854799e-01
1.723894733574933280e-01
1.691853740373208681e-01
1.659590254916736562e-01
1.627280784262800928e-01
1.595096415626031383e-01
1.563199946809511742e-01
1.531743247783753370e-01
1.500864897655434793e-01
1.470688134087189403e-01
1.441319144731676161e-01
1.412845724999350627e-01
1.385336316441261317e-01
1.358839434237702759e-01
1.333383485411182567e-01
1.308976968392144280e-01
1.285609043157697473e-01
1.263250447924884057e-01
1.241854739119231249e-01
1.221359820818473108e-01
1.201689728038086713e-01
1.182756622800500146e-01
1.164462959638625089e-01
1.146703776210424991e-01
1.129369060136401204e-01
1.112346147078787512e-01
1.095522102265556047e-01
1.078786041468291212e-01
1.062031347639360440e-01
1.045157744998807953e-01
1.028073193046508266e-01
1.010695570063149945e-01
9.929541181612341894e-02
9.747906281693652364e-02
9.561603495454991386e-02
9.370326119128594144e-02
9.173911558334617300e-02
8.972341717293733088e-02
8.765740541033384403e-02
8.554368818806203090e-02
8.338616416926505903e-02
8.118992150915435579e-02
7.896111538063538271e-02
7.670682730818623174e-02
7.443490919563927610e-02
7.215381559446355786e-02
6.987242753821371055e-02
6.759987164444400398e-02
6.534533803058291401e-02
6.311790046521821573e-02
6.092634228261725043e-02
5.877899128725500022e-02
5.668356649341470266e-02
5.464703944113461637e-02
5.267551262263169692e-02
5.077411673171756262e-02
4.894692846893351768e-02
4.719690997741318034e-02
4.552587080533551656e-02
4.393445242677034707e-02
4.242213536123214807e-02
4.098726826673725065e-02
3.962711796397082320e-02
3.833793911739478977e-02
3.711506186858452155e-02
3.595299535298442095e-02
3.484554492934592573e-02
3.378594061074897958e-02
3.276697404451556217e-02
3.178114128090063495e-02
3.082078868016917272e-02
2.987825894745408523e-02
2.894603467024865415e-02
2.801687675746535391e-02
2.708395520567872389e-02
2.614096985226846762e-02
2.518225919441150276e-02
2.420289530333982753e-02
2.319876335946540261e-02
2.216662468691567300e-02
2.110416241406283880e-02
2.001000904555567950e-02
1.888375598265777666e-02
1.772594512779469833e-02
1.653804281954881703e-02
1.532239714141506171e-02
1.408217964021054452e-02
1.282131273149711946e-02
1.154438445351020637e-02
1.025655227354607679e-02
8.963438029606619895e-03
7.671016024242362577e-03
6.385496331433367784e-03
5.113205773258102521e-03
3.860468527386065087e-03
2.633488637051865922e-03
1.438236564180453078e-03
2.803417104360006961e-04
-8.350072582628030940e-04
-1.903152684109364612e-03
-2.920047204483370608e-03
-3.882320900416125209e-03
-4.787335401296867465e-03
-5.633224127771014299e-03
-6.418918183878749052e-03
-7.144157725644043923e-03
-7.809489038759380442e-03
-8.416247419323697257e-03
-8.966526491051951542e-03
-9.463134821495522431e-03
-9.909540839563866013e-03
-1.030980717307529611e-02
-1.066851579938404848e-02
-1.099068552897459333e-02
-1.128168339608250949e-02
-1.154713153196232009e-02
-1.179281147075633002e-02
-1.202456730057911878e-02
-1.224820957699852310e-02
-1.246942156136900993e-02
-1.269366932784701807e-02
-1.292611729043800090e-02
-1.317155039389174970e-02
-1.343430417868699683e-02
-1.371820379995399193e-02
-1.402651281308570780e-02
-1.436189239725679627e-02
-1.472637135663983771e-02
-1.512132732474575497e-02
-1.554747913484381613e-02
-1.600489036221435651e-02
-1.649298346580651761e-02
-1.701056424851601565e-02
-1.755585585603510260e-02
-1.812654163949180275e-02
-1.871981579923925540e-02
-1.933244082037201966e-02
-1.996081060685658826e-02
-2.060101807731190907e-02
-2.124892590653035956e-02
-2.190023928203455733e-02
-2.255057934611923165e-02
-2.319555610177212110e-02
-2.383083950244010638e-02
-2.445222774522518364e-02
-2.505571160111257772e-02
-2.563753381762258476e-02
-2.619424283814752313e-02
-2.672274011265330512e-02
-2.722032027172360466e-02
-2.768470386439750297e-02
-2.811406225543460966e-02
-2.850703455617282361e-02
-2.886273650535649965e-02
-2.918076141212865710e-02
-2.946117337767337890e-02
-2.970449322083823507e-02
-2.991167750280414664e-02
-3.008409116597230912e-02
-3.022347453439036893e-02
-3.033190527247674878e-02
-3.041175624828771837e-02
-3.046565000602248149e-02
-3.049641071516151838e-02
-3.050701442901227606e-02
-3.050053853283476654e-02
-3.048011130589522999e-02
-3.044886231858746212e-02
-3.040987434685924959e-02
-3.036613772682785276e-02
-3.032050762891587772e-02
-3.027566494391220261e-02
-3.023408114061309354e-02
-3.019798769734739069e-02
-3.016935026329970251e-02
-3.014984775891831059e-02
-3.014085672511152003e-02
-3.014344086452272128e-02
-3.015834576312175982e-02
-3.018599862511712681e-02
-3.022651288584769086e-02
-3.027969744232739471e-02
-3.034507014488459914e-02
-3.042187514555270630e-02
-3.050910368426354088e-02
-3.060551786264731344e-02
-3.070967690616195969e-02
-3.081996536443410567e-02
-3.093462279464857453e-02
-3.105177430518268542e-02
-3.116946152209481430e-02
-3.128567345279020806e-02
-3.139837678686163702e-02
-3.150554511207547675e-02
-3.160518674521235749e-02
-3.169537075315052160e-02
-3.177425082877313040e-02
-3.184008677151268368e-02
-3.189126334600893287e-02
-3.192630642077080166e-02
-3.194389616299053020e-02
-3.194287720465913138e-02
-3.192226596781364695e-02
-3.188125486743260961e-02
-3.181921377338021301e-02
-3.173568864067334572e-02
-3.163039763469575882e-02
-3.150322483335333407e-02
-3.135421166502406348e-02
-3.118354646837399186e-02
-3.099155237194280502e-02
-3.077867376174992300e-02
-3.054546161810707539e-02
-3.029255798640066027e-02
-3.002067996096035446e-02
-2.973060334224669060e-02
-2.942314627614761244e-02
-2.909915314122162727e-02
-2.875947897202611042e-02
-2.840497450442471331e-02
-2.803647217633683381e-02
-2.765477313123354541e-02
-2.726063551126382128e-02
-2.685476405158822300e-02
-2.643780109440833220e-02
-2.601031914048693161e-02
-2.557281491975107665e-02
-2.512570497904628025e-02
-2.466932288577065868e-02
-2.420391785027707979e-02
-2.372965490561042626e-02
-2.324661645444122543e-02
-2.275480517038006717e-02
-2.225414803683469986e-02
-2.174450146475291265e-02
-2.122565739581859859e-02
-2.069735023277739436e-02
-2.015926445326375258e-02
-1.961104272581982652e-02
-1.905229439167477334e-02
-1.848260423962418478e-02
-1.790154140602248645e-02
-1.730866819234342865e-02
-1.670354871500044983e-02
-1.608575721645140455e-02
-1.545488601990205324e-02
-1.481055293302136616e-02
-1.415240807035825568e-02
-1.348013989857939875e-02
-1.279348054105300045e-02
-1.209221026200030767e-02
-1.137616108011066732e-02
-1.064521951741711527e-02
-9.899328354307953409e-03
-9.138487491525617776e-03
-8.362753867096029206e-03
-7.572240482100702288e-03
-6.767114599626096461e-03
-5.947595113824409932e-03
-5.113949182567430370e-03
-4.266488129119346863e-03
-3.405562726046454294e-03
-2.531557968783062704e-03
-1.644887380356943249e-03
-7.459869958346327691e-04
1.646909175754664514e-04
1.086684331197243546e-03
2.019527974560399956e-03
2.962759724229639940e-03
3.915926865324101565e-03
4.878592157771828759e-03
5.850339541269062964e-03
6.830779334218136170e-03
7.819552908415119616e-03
8.816336874388265923e-03
9.820846559449362967e-03
1.083283873125719110e-02
1.185211357066459116e-02
1.287851587382416764e-02
1.391193543379901087e-02
1.495230660326767221e-02
1.599960698198100301e-02
1.705385535814288311e-02
1.811510881192978165e-02
1.918345917227030559e-02
2.025902876023646937e-02
2.134196545317904384e-02
2.243243722873239365e-02
2.353062636467761690e-02
2.463672309774790625e-02
2.575091912757275156e-02
2.687340091482804533e-02
2.800434294830631346e-02
2.914390108434518692e-02
3.029220600429339411e-02
3.144935692033192648e-02
3.261541574619705730e-02
3.379040169486770273e-02
3.497428642515493930e-02
3.616698983675151885e-02
3.736837657035681909e-02
3.857825335961514307e-02
3.979636720598211247e-02
4.102240436651574673e-02
4.225599024266685905e-02
4.349669018722329694e-02
4.474401114493956749e-02
4.599740424726019711e-02
4.725626817626554094e-02
4.851995325327846525e-02
4.978776624378945109e-02
5.105897577234071866e-02
5.233281829624233245e-02
5.360850444821659705e-02
5.488522570627937108e-02
5.616216122070750993e-02
5.743848473160141632e-02
5.871337133724165158e-02
5.998600419025957448e-02
6.125558073100732803e-02
6.252131863567662873e-02
6.378246108605584164e-02
6.503828145054552090e-02
6.628808713832934352e-02
6.753122261360391954e-02
6.876707159433469163e-02
6.999505817333265267e-02
7.121464700059502995e-02
7.242534241842073228e-02
7.362668653578782751e-02
7.481825632711902596e-02
7.599965974994869755e-02
7.717053093390625895e-02
7.833052448642967291e-02
7.947930905893318965e-02
8.061656023905063029e-02
8.174195286695330742e-02
8.285515289935808936e-02
8.395580910239285044e-02
8.504354445212669589e-02
8.611794765891694903e-02
8.717856469667427388e-02
8.822489078222724157e-02
8.925636275445703038e-02
9.027235199162060575e-02
9.127215812982181209e-02
9.225500364053716706e-02
9.322002937791393218e-02
9.416629118690844624e-02
9.509275770652723947e-02
9.599830939570691557e-02
9.688173879906435138e-02
9.774175213155840425e-02
9.857697219480276996e-02
9.938594254180006804e-02
1.001671329646362241e-01
1.009189461702571095e-01
1.016397255258746773e-01
1.023277638769090753e-01
1.029813132851587765e-01
1.035985956084966714e-01
1.041778136464751731e-01
1.047171628257034387e-01
1.052148432683023827e-01
1.056690719847470927e-01
1.060780950544607804e-01
1.064401997570327552e-01
1.067537261630627510e-01
1.070170784171668582e-01
1.072287353009014899e-01
1.073872599644298681e-01
1.074913087719497062e-01
1.075396390377521133e-01
1.075311156642966698e-01
1.074647165137512239e-01
1.073395364697403292e-01
1.071547901812061193e-01
1.069098134575854758e-01
1.066040632737664667e-01
1.062371164291022185e-01
1.058086669386104767e-01
1.053185221523661175e-01
1.047665978593408653e-01
1.041529122618562314e-01
1.034775790349244246e-01
1.027407996158627435e-01
1.019428549100880876e-01
1.010840964963844735e-01
1.001649375320483176e-01
9.918584354924957214e-02
9.814732322210402427e-02
9.704991942351354206e-02
9.589420058029150817e-02
9.468075258674282790e-02
9.341017139759257015e-02
9.208305644376658938e-02
9.070000496966716674e-02
8.926160744362623967e-02
8.776844401046104971e-02
8.622108220411053847e-02
8.462007586701172923e-02
8.296596539675195336e-02
8.125927917136677170e-02
7.950053625571684712e-02
7.769025033981744044e-02
7.582893471321867918e-02
7.391710837665277367e-02
7.195530306376100860e-02
6.994407109190547978e-02
6.788399388165257398e-02
6.577569102041318228e-02
6.361982974683025316e-02
6.141713447346937305e-02
5.916839655858996405e-02
5.687448376141935463e-02
5.453634940025491734e-02
5.215504103635882488e-02
4.973170849702053531e-02
4.726761099240191222e-02
4.476412319025965814e-02
4.222274037004438568e-02
3.964508219779985798e-02
3.703289515886459826e-02
3.438805351603677063e-02
3.171255891993025183e-02
2.900853835705831385e-02
2.627824059247815119e-02
2.352403107777087041e-02
2.074838531487530058e-02
1.795388081542502456e-02
1.514318761308189494e-02
1.231905753980459817e-02
9.484312232396712936e-03
6.641830223561861340e-03
3.794533059917404912e-03
9.453707293210646513e-04
-1.902693476524916971e-03
-4.746698494564470690e-03
-7.583701146894535582e-03
-1.041079179910449001e-02
-1.322510982107659265e-02
-1.602385865824056121e-02
-1.880432030342047561e-02
-2.156386900045559676e-02
-2.429998396428821594e-02
-2.701026105868857899e-02
-2.969242324219231732e-02
-3.234432965224681017e-02
-3.496398323254197582e-02
-3.754953679177127496e-02
-4.009929741277266924e-02
-4.261172927739158983e-02
-4.508545483907789447e-02
-4.751925420567836705e-02
-4.991206297712099532e-02
-5.226296851320858666e-02
-5.457120457103110944e-02
-5.683614462902423364e-02
-5.905729384109874996e-02
-6.123427982937734021e-02
-6.336684235902544093e-02
-6.545482222228743430e-02
-6.749814935496270540e-02
-6.949683041002781281e-02
-7.145093596688030513e-02
-7.336058759509089811e-02
-7.522594484387826186e-02
-7.704719253015508695e-02
-7.882452831522271386e-02
-8.055815088276098435e-02
-8.224824878082148683e-02
-8.389499012974376002e-02
-8.549851326112797856e-02
-8.705891857926145727e-02
-8.857626157848792758e-02
-9.005054709990524542e-02
-9.148172501059542716e-02
-9.286968724674832254e-02
-9.421426635400563521e-02
-9.551523538803975699e-02
-9.677230920871233988e-02
-9.798514715254028062e-02
-9.915335701382714528e-02
-1.002765001898913155e-01
-1.013540979848542994e-01
-1.023856389175017007e-01
-1.033705869332048888e-01
-1.043083902961665782e-01
-1.051984910976262733e-01
-1.060403352155072365e-01
-1.068333825099914564e-01
-1.075771171978948254e-01
-1.082710581464518262e-01
-1.089147688767903577e-01
-1.095078672849043450e-01
-1.100500347942251628e-01
-1.105410249131490302e-01
-1.109806709925617585e-01
-1.113688929643506381e-01
-1.117057031761068409e-01
-1.119912111369100044e-01
-1.122256270232504793e-01
-1.124092640443238172e-01
-1.125425395194147166e-01
-1.126259747138741579e-01
-1.126601934292637414e-01
-1.126459193821128385e-01
-1.125839723380768487e-01
-1.124752631999720864e-01
-1.123207880112443713e-01
-1.121216209489547949e-01
-1.118789066142357042e-01
-1.115938514722158714e-01
-1.112677147393357213e-01
-1.109017988055519821e-01
-1.104974392874913947e-01
-1.100559949919625441e-01
-1.095788377781763689e-01
-1.090673425190394619e-01
-1.085228773709116523e-01
-1.079467943699123078e-01
-1.073404206831422569e-01
-1.067050503775316267e-01
-1.060419369544437079e-01
-1.053522868226139247e-01
-1.046372536096706607e-01
-1.038979335502445561e-01
-1.031353618866747979e-01
-1.023505103481696099e-01
-1.015442857938586296e-01
-1.007175299170018773e-01
-9.987102007228003397e-02
-9.900547114796118264e-02
-9.812153847726196032e-02
-9.721982168255065282e-02
-9.630086938030649191e-02
-9.536518467417175182e-02
-9.441323135281906587e-02
-9.344544056561075729e-02
-9.246221800342646624e-02
-9.146395141336324808e-02
-9.045101824303689031e-02
-8.942379339469956612e-02
-8.838265690607825797e-02
-8.732800138348661978e-02
-8.626023911961652746e-02
-8.517980876372710508e-02
-8.408718140442855704e-02
-8.298286597849603707e-02
-8.186741403760708358e-02
-8.074142356344293781e-02
-7.960554185606817656e-02
-7.846046759174915564e-02
-7.730695179729948907e-02
-7.614579790071623888e-02
-7.497786065800751687e-02
-7.380404412415876580e-02
-7.262529866033301529e-02
-7.144261704402865565e-02
-7.025702957403560933e-02
-6.906959844495727530e-02
-6.788141136009936960e-02
-6.669357452910877615e-02
-6.550720504105764230e-02
-6.432342280165716242e-02
-6.314334221821633897e-02
-6.196806362909794419e-02
-6.079866459366013720e-02
-5.963619125227362372e-02
-5.848164978880027176e-02
-5.733599818067793702e-02
-5.620013827440101251e-02
-5.507490839358209628e-02
-5.396107648961759318e-02
-5.285933394731544971e-02
-5.177029011193151620e-02
-5.069446767950226002e-02
-4.963229887406639396e-02
-4.858412263042485857e-02
-4.755018269360501010e-02
-4.653062660646806875e-02
-4.552550582415574448e-02
-4.453477659588644250e-02
-4.355830192569201675e-02
-4.259585448256193035e-02
-4.164712028668549754e-02
-4.071170326355623426e-02
-3.978913065220417156e-02
-3.887885901504796460e-02
-3.798028089549928404e-02
-3.709273210381405089e-02
-3.621549931279952061e-02
-3.534782819574099760e-02
-3.448893173906781434e-02
-3.363799882195034341e-02
-3.279420284544841413e-02
-3.195671041754451214e-02
-3.112468996413698952e-02
-3.029732014289246780e-02
-2.947379808674085999e-02
-2.865334728414357240e-02
-2.783522514163097247e-02
-2.701873011976424141e-02
-2.620320832045204898e-02
-2.538805963903466301e-02
-2.457274323867517790e-02
-2.375678250132937097e-02
-2.293976929485019162e-02
-2.212136763343661855e-02
-2.130131664672740149e-02
-2.047943290580438169e-02
-1.965561208424462109e-02
-1.882982994834838178e-02
-1.800214271887875736e-02
-1.717268670395058483e-02
-1.634167751441817362e-02
-1.550940846974916201e-02
-1.467624861045784337e-02
-1.384264001974490864e-02
-1.300909473755332973e-02
-1.217619116474657863e-02
-1.134456999459698689e-02
-1.051492976967392280e-02
-9.688021968398907724e-03
-8.864645880782427018e-03
-8.045643033464970270e-03
-7.231891421869287608e-03
-6.424299446665189713e-03
-5.623799612176762913e-03
-4.831342120892706191e-03
-4.047888318474203093e-03
-3.274403975619945024e-03
-2.511852572437120457e-03
-1.761188555662859812e-03
-1.023350533497964033e-03
-2.992546453243704295e-04
4.102120472500574589e-04
1.104197988053736606e-03
1.781893369856138009e-03
2.442536123859684154e-03
3.085417660032915930e-03
3.709888214076858832e-03
4.315361868178150227e-03
4.901321096247425110e-03
5.467320795385941477e-03
6.012991875350174806e-03
6.538044212272119821e-03
7.042269017457728278e-03
7.525540521337829511e-03
7.987817008860547199e-03
8.429141113454803949e-03
8.849639408726147835e-03
9.249521162643326022e-03
9.629076419690262012e-03
9.988673309213453450e-03
1.032875448593688003e-02
1.064983293151920349e-02
1.095248699207725628e-02
1.123735476131058376e-02
1.150512776912183087e-02
1.175654410698730515e-02
1.199238105750085465e-02
1.221344719286706834e-02
1.242057411840666488e-02
1.261460798048130542e-02
1.279640070180869914e-02
1.296680115879481933e-02
1.312664637596412144e-02
1.327675279251053740e-02
1.341790774800824711e-02
1.355086137724290617e-02
1.367631886325442608e-02
1.379493324989268001e-02
1.390729898255831272e-02
1.401394608344023497e-02
1.411533524617262711e-02
1.421185383163480094e-02
1.430381277952550920e-02
1.439144464002842412e-02
1.447490267366296178e-02
1.455426106212309723e-02
1.462951617586501739e-02
1.470058910135813891e-02
1.476732924186162366e-02
1.482951889501862332e-02
1.488687900910940290e-02
1.493907587486920270e-02
1.498572864826705139e-02
1.502641771570236914e-02
1.506069374344961437e-02
1.508808734338966742e-02
1.510811911234908461e-02
1.512031002030683226e-02
1.512419200519740138e-02
1.511931847381953534e-02
1.510527477654253006e-02
1.508168836476285989e-02
1.504823848969000059e-02
1.500466531302179982e-02
1.495077829142772013e-02
1.488646376429694253e-02
1.481169149174466071e-02
1.472652010165337831e-02
1.463110142332153807e-02
1.452568355258694772e-02
1.441061250924896044e-02
1.428633254267642171e-02
1.415338512665197980e-02
1.401240650816659543e-02
1.386412381136310594e-02
1.370934988186306436e-02
1.354897679085028880e-02
1.338396808725945616e-02
1.321534991081353867e-02
1.304420112994627429e-02
1.287164252478713300e-02
1.269882515604811753e-02
1.252691819120955834e-02
1.235709616464007385e-02
1.219052599252597353e-02
1.202835385846581437e-02
1.187169206402031128e-02
1.172160608758992736e-02
1.157910205643500334e-02
1.144511472001180988e-02
1.132049612433179073e-02
1.120600513506223375e-02
1.110229790989679735e-02
1.100991944089301823e-02
1.092929639027416001e-02
1.086073114956849842e-02
1.080439734172741403e-02
1.076033666859852952e-02
1.072845725856339839e-02
1.070853355076289634e-02
1.070020764758516929e-02
1.070299214497879604e-02
1.071627428783753638e-02
1.073932165313657393e-02
1.077128908091469495e-02
1.081122677865145945e-02
1.085808957693082909e-02
1.091074719208869753e-02
1.096799536965619402e-02
1.102856775253372758e-02
1.109114836175146765e-02
1.115438457507336549e-02
1.121690028984670233e-02
1.127730941870612284e-02
1.133422935888333052e-02
1.138629428032596723e-02
1.143216821144047227e-02
1.147055773209070852e-02
1.150022410319730473e-02
1.151999483494624971e-02
1.152877449018089445e-02
1.152555466992268192e-02
1.150942307270776815e-02
1.147957167503995887e-02
1.143530379486916958e-02
1.137604012141525504e-02
1.130132360890640647e-02
1.121082329042859087e-02
1.110433694295812589e-02
1.098179271794224449e-02
1.084324954793039128e-02
1.068889651323373310e-02
1.051905119078984027e-02
1.033415694540473252e-02
1.013477927277344967e-02
9.921601216804439363e-03
9.695417912748607175e-03
9.457130398251101591e-03
9.207738588765362886e-03
8.948333654984883326e-03
8.680089736139326786e-03
8.404255076290440343e-03
8.122142705710527072e-03
7.835120726425120682e-03
7.544602200940745025e-03
7.252034722896893472e-03
6.958889764424957582e-03
6.666651849095510049e-03
6.376807619298385105e-03
6.090834820275251200e-03
5.810191265771519516e-03
5.536303897348483945e-03
5.270557934050166572e-03
5.014286182999427854e-03
4.768758705921332351e-03
4.535172645230027902e-03
4.314642514026150247e-03
4.108190882528075204e-03
3.916739599606613303e-03
3.741101536016683445e-03
3.581973013695169145e-03
3.439926978265965031e-03
3.315406939196618823e-03
3.208721735658450706e-03
3.120041278817600999e-03
3.049393264513132820e-03
2.996660998342747829e-03
2.961582249421410105e-03
2.943749375898763350e-03
2.942610585952993175e-03
2.957472554851237924e-03
2.987504238713283283e-03
3.031742054077298659e-03
3.089096363577616740e-03
3.158359170715088239e-03
3.238213148072440796e-03
3.327241954870891003e-03
3.423941668401606856e-03
3.526733324812016904e-03
3.633976463942597580e-03
3.743983663928337861e-03
3.855035827731490266e-03
3.965398103185184542e-03
4.073336330483047496e-03
4.177133888349624305e-03
4.275108688631346944e-03
4.365630161745705055e-03
4.447135993464293099e-03
4.518148497447170737e-03
4.577290466509087788e-03
4.623300154725866126e-03
4.655045320870417058e-03
4.671536042024726151e-03
4.671936202516642142e-03
4.655573458730181968e-03
4.621947467352688181e-03
4.570736327612249551e-03
4.501801127091172375e-03
4.415188458137943826e-03
4.311130775349194394e-03
4.190044603647802290e-03
4.052526599039515780e-03
3.899347470354292029e-03
3.731443771233582726e-03
3.549907639204388787e-03
3.355974584738887802e-03
3.151009509668342007e-03
2.936491085127458742e-03
2.713994605592030904e-03
2.485173583517348832e-03
2.251740317798099373e-03
2.015445652041876912e-03
1.778058233748951297e-03
1.541343512970848664e-03
1.307042685417383237e-03
1.076852014881497181e-03
8.524027189888439817e-04
6.352417122772680219e-04
4.268134965416840797e-04
2.284434275401656187e-04
4.132260442154768514e-05
-1.335054079190213321e-04
-2.951558437931976015e-04
-4.429117874601313782e-04
-5.762308820215678203e-04
-6.947496270871757369e-04
-7.982852516174846922e-04
