2.250810986750157068e-03
1.791653068524421419e-03
1.298728890701397265e-03
7.768667657269825522e-04
2.311163706098284581e-04
-3.333032674340078989e-04
-9.110570522472250486e-04
-1.496747658144377633e-03
-2.084969425590495889e-03
-2.670361731976701476e-03
-3.247661297363620483e-03
-3.811752843208982087e-03
-4.357717605803588384e-03
-4.880879392594382644e-03
-5.376847408163570353e-03
-5.841555714055353052e-03
-6.271298836456431700e-03
-6.662763277101180041e-03
-7.013054643011925292e-03
-7.319720117088709434e-03
-7.580766104777755983e-03
-7.794671032096335550e-03
-7.960393161687258703e-03
-8.077373472452478720e-03
-8.145533585270160401e-03
-8.165268853315183969e-03
-8.137436832854240062e-03
-8.063341233725932616e-03
-7.944711602076572760e-03
-7.783679086332703084e-03
-7.582748539629603421e-03
-7.344767313782719735e-03
-7.072891071308168992e-03
-6.770547175793179516e-03
-6.441395886400590014e-03
-6.089289932421669722e-03
-5.718232795138242751e-03
-5.332336312232225338e-03
-4.935777895521227185e-03
-4.532757890927952178e-03
-4.127457537469272388e-03
-3.723997887803206543e-03
-3.326400077028557768e-03
-2.938547427006488449e-03
-2.564149669399330613e-03
-2.206709665196143234e-03
-1.869492849250933191e-03
-1.555499737489909754e-03
-1.267441689376276343e-03
-1.007720141924493785e-03
-7.784093765686762867e-04
-5.812430702488206001e-04
-4.176045290839507725e-04
-2.885208009866866547e-04
-1.946605631756991733e-04
-1.363356412319969863e-04
-1.135062740457414834e-04
-1.257898210286434394e-04
-1.724727873568903910e-04
-2.525259732945613457e-04
-3.646224709870132721e-04
-5.071583406384707303e-04
-6.782756206321665293e-04
-8.758873328018520468e-04
-1.097704181185648860e-03
-1.341262693029038420e-03
-1.603954325573987358e-03
-1.883055239329700170e-03
-2.175756439752117143e-03
-2.479193841536942323e-03
-2.790478008440516397e-03
-3.106723133902647253e-03
-3.425075060326174693e-03
-3.742737935328747934e-03
-4.056999294833153920e-03
-4.365253375691450534e-03
-4.665022265681099956e-03
-4.953974829371875742e-03
-5.229943274207356392e-03
-5.490937168631926553e-03
-5.735154796428266338e-03
-5.960991886090588610e-03
-6.167047650558095395e-03
-6.352128096997513608e-03
-6.515246746250749274e-03
-6.655622889364457007e-03
-6.772677428575729977e-03
-6.866026465277684336e-03
-6.935472825007837905e-03
-6.980995743370414959e-03
-7.002738915487008789e-03
-7.000997214709532394e-03
-6.976202343506055122e-03
-6.928907617511313559e-03
-6.859772232030510349e-03
-6.769545282781604632e-03
-6.659049839187396874e-03
-6.529167306620837011e-03
-6.380822403614881504e-03
-6.214968951899838001e-03
-6.032576755891120093e-03
-5.834619750701676259e-03
-5.622065588430454411e-03
-5.395866856670455958e-03
-5.156953993997842080e-03
-4.906230120675010922e-03
-4.644567619447637769e-03
-4.372806646345196897e-03
-4.091755521286719391e-03
-3.802192898994781207e-03
-3.504871584515444841e-03
-3.200524011031977145e-03
-2.889869041303099167e-03
-2.573620012565235732e-03
-2.252493722347986057e-03
-1.927220141487549429e-03
-1.598552586872871092e-03
-1.267278101476450227e-03
-9.342276996529241774e-04
-6.002861779979247817e-04
-2.664012083761537744e-04
6.640854010947807565e-05
3.970465941333644884e-04
7.243334122883303937e-04
1.047002867786998729e-03
1.363700774670929860e-03
1.672985595784393055e-03
1.973331456722664506e-03
2.263133628838498706e-03
2.540716435832722497e-03
2.804343732703953006e-03
3.052231879153986891e-03
3.282565072699849922e-03
3.493512964946138017e-03
3.683250374891743409e-03
3.849978890486120599e-03
3.991950043406518149e-03
4.107489870633332547e-03
4.195024351624487662e-03
4.253105491657018129e-03
4.280437586054604802e-03
4.275903206314237565e-03
4.238588554397793896e-03
4.167807683789489376e-03
4.063125150775542989e-03
3.924376655089174999e-03
3.751687305892034870e-03
3.545486947512168589e-03
3.306522372844696630e-03
3.035865950167714478e-03
2.734920399651049293e-03
2.405419491906853578e-03
2.049424493687630917e-03
1.669316187889309262e-03
1.267782382481733635e-03
8.478009453810981741e-04
4.126184248576457675e-04
-3.427560453927677877e-05
-4.891783365702119654e-04
-9.482073039514716953e-04
-1.407337505067195356e-03
-1.862441567482736636e-03
-2.309332535405791195e-03
-2.743808839231821114e-03
-3.161700821277951823e-03
-3.558918273958004610e-03
-3.931498388235928933e-03
-4.275653419837463325e-03
-4.587817464678889227e-03
-4.864691645837057425e-03
-5.103287137917106309e-03
-5.300965317793331945e-03
-5.455474540608355044e-03
-5.564982882594570780e-03
-5.628106397023722833e-03
-5.643932356724506647e-03
-5.612037126367852222e-03
-5.532498303948281751e-03
-5.405900902688933092e-03
-5.233337388430866696e-03
-5.016401426661360949e-03
-4.757175400951533899e-03
-4.458211736726720546e-03
-4.122508252438536643e-03
-3.753477665882140515e-03
-3.354911694417206814e-03
-2.930940179981523976e-03
-2.485985706898062673e-03
-2.024714240134384106e-03
-1.551982343475523125e-03
-1.072781846643293532e-03
-5.921824830810188886e-04
-1.152732865674382419e-04
3.528963989683408988e-04
8.073756708845511876e-04
1.243369679682918049e-03
1.656295398405210418e-03
2.041834771373539012e-03
2.395984564316436336e-03
2.715102300875714154e-03
2.995947690864656388e-03
3.235718811063319211e-03
3.432082882907268057e-03
3.583201005273829384e-03
3.687746608789570398e-03
3.744917524905253328e-03
3.754441395207263905e-03
3.716574471825369406e-03
3.632093819882546270e-03
3.502283161307127943e-03
3.328912505076764543e-03
3.114211990558258657e-03
2.860840256607289581e-03
2.571847861071755934e-03
2.250636335780804506e-03
1.900913447069346555e-03
1.526645357307857432e-03
1.132006237542935263e-03
7.213262545606464321e-04
2.990384939986863639e-04
-1.303743223347052552e-04
-5.624326468374762390e-04
-9.927118111167829682e-04
-1.416891859577237714e-03
-1.830804837401154607e-03
-2.230479033762964268e-03
-2.612179545804220893e-03
-2.972444733064479212e-03
-3.308118208748815191e-03
-3.616375951235420525e-03
-3.894748375647025598e-03
-4.141137093175440050e-03
-4.353826436425602998e-03
-4.531489523553992350e-03
-4.673189219985086906e-03
-4.778373880833326239e-03
-4.846868299595523573e-03
-4.878860072608944519e-03
-4.874881739745932224e-03
-4.835789170536744508e-03
-4.762736633200206730e-03
-4.657149052451903248e-03
-4.520691933568095518e-03
-4.355239626527483005e-03
-4.162842342889249911e-03
-3.945692547432569537e-03
-3.706091301546155133e-03
-3.446414996849173594e-03
-3.169083097217144113e-03
-2.876527286072291540e-03
-2.571162396297220400e-03
-2.255359630693795116e-03
-1.931422272653491711e-03
-1.601564154073183447e-03
-1.267891129521689321e-03
-9.323857008393954000e-04
-5.968948264025446433e-04
-2.631209886418685545e-04
6.738363990850838588e-05
3.932199278179393845e-04
7.131416785323849367e-04
1.026052704695959959e-03
1.331001556921226642e-03
1.627174056645038815e-03
1.913884020296759310e-03
2.190562455361402296e-03
2.456745624892515099e-03
2.712062337305992058e-03
2.956220902706327945e-03
3.188995873231407346e-03
3.410215145003409748e-03
3.619747592377283059e-03
3.817491651004548559e-03
4.003364997495378538e-03
4.177295576359524483e-03
4.339214105571848230e-03
4.489048244574596509e-03
4.626718517380236026e-03
4.752135967294525074e-03
4.865201529115205197e-03
4.965807149790657342e-03
5.053838384248331671e-03
5.129178508003463810e-03
5.191713897204652296e-03
5.241340418431598112e-03
5.277970627090939823e-03
5.301541533910224084e-03
5.312022638726083754e-03
5.309424023401339114e-03
5.293804141386923047e-03
5.265277053319692042e-03
5.224018891363112205e-03
5.170273290992810113e-03
5.104355576465120087e-03
5.026655513684908511e-03
4.937638514191239336e-03
4.837845155054519043e-03
4.727888908293906636e-03
4.608452224377307394e-03
4.480280800789959196e-03
4.344176179691799575e-03
4.200986738570089939e-03
4.051597394253864462e-03
3.896917963942789914e-03
3.737870630342703723e-03
3.575376634748426898e-03
3.410342592748778680e-03
3.243646595778133194e-03
3.076124566519685723e-03
2.908557075604595917e-03
2.741656989737615950e-03
2.576058281896395109e-03
2.412306296474722722e-03
2.250849749320191478e-03
2.092034698052203275e-03
1.936100649950861854e-03
1.783179112350894834e-03
1.633294572608222969e-03
1.486368070292661513e-03
1.342223377172977340e-03
1.200595742831136927e-03
1.061143072520044292e-03
9.234595039295593862e-04
7.870911703651266994e-04
6.515538063083237390e-04
5.163520185585971289e-04
3.809998319330432635e-04
2.450421441427586043e-04
1.080766519765242550e-04
-3.022416504682801862e-05
-1.700913669796157309e-04
-3.116388413151035077e-04
-4.548438331422178355e-04
-5.995292879113331332e-04
-7.453483483750823150e-04
-8.917715327084453593e-04
-1.038076906825440449e-03
-1.183343569494840937e-03
-1.326448852266329812e-03
-1.466069357934308027e-03
-1.600686057805129426e-03
-1.728593531728916813e-03
-1.847913446189448092e-03
-1.956612125465654727e-03
-2.052522225723461824e-03
-2.133368267380092529e-03
-2.196795730054281002e-03
-2.240403476656662677e-03
-2.261779055758093241e-03
-2.258536396925407263e-03
-2.228355381621309212e-03
-2.169022763817377020e-03
-2.078473801679016093e-03
-1.954833975359948628e-03
-1.796460069382787867e-03
-1.601980021965082341e-03
-1.370330763474632806e-03
-1.100793473911378106e-03
-7.930255467496965605e-04
-4.470886538264400912e-04
-6.347231441035364641e-05
3.568875746362117833e-04
8.125956434009706797e-04
1.301789818459284966e-03
1.822140334538586374e-03
2.370855186966754850e-03
2.944692087611167075e-03
3.539977077728808773e-03
4.152629775984386686e-03
4.778194898536424449e-03
5.411880059487528608e-03
6.048599359594896384e-03
6.683022389590167686e-03
7.309628109449141896e-03
7.922762954912903818e-03
8.516702499710770286e-03
9.085715900017832247e-03
9.624132354977995435e-03
1.012640867708327133e-02
1.058719711937453414e-02
1.100141251557710913e-02
1.136429778265673693e-02
1.167148684129117216e-02
1.191906414782876490e-02
1.210361986480125093e-02
1.222229987439070985e-02
1.227284985730085071e-02
1.225365266868550483e-02
1.216375845953556606e-02
1.200290700958446359e-02
1.177154170775187268e-02
1.147081498276959072e-02
1.110258491769882533e-02
1.066940294153262067e-02
1.017449261892607731e-02
9.621719666659993633e-03
9.015553522423643343e-03
8.361020775069435973e-03
7.663650988913904907e-03
6.929415604694109422e-03
6.164660538393609834e-03
5.376033388290917328e-03
4.570406136328116278e-03
3.754794257010703185e-03
2.936273317826451450e-03
2.121894244150177109e-03
1.318598245449234107e-03
5.331326009059553835e-04
-2.280315455383129957e-04
-9.587782364670443787e-04
-1.653421570926850472e-03
-2.306775314689659372e-03
-2.914216209762305037e-03
-3.471740153553871510e-03
-3.976010318768620315e-03
-4.424396636546899970e-03
-4.815005988299335404e-03
-5.146702605373691675e-03
-5.419118329563077895e-03
-5.632652566664806369e-03
-5.788461928401032221e-03
-5.888439552106567582e-03
-5.935184426447710944e-03
-5.931961123283714318e-03
-5.882650397841891060e-03
-5.791691347963986471e-03
-5.664015952972393381e-03
-5.504976922575201097e-03
-5.320269864876759486e-03
-5.115850842252734482e-03
-4.897850526195629203e-03
-4.672486250134944008e-03
-4.445973206451637669e-03
-4.224436133107312315e-03
-4.013822741497244037e-03
-3.819820215041086313e-03
-3.647776079077092240e-03
-3.502624654481285762e-03
-3.388820085110929442e-03
-3.310277091727053828e-03
-3.270320386479801025e-03
-3.271643484597846520e-03
-3.316277620223737239e-03
-3.405571146644146511e-03
-3.540179899527862856e-03
-3.720068614418043772e-03
-3.944523374118293763e-03
-4.212174939006544348e-03
-4.521032570982897597e-03
-4.868527762736577121e-03
-5.251567327438515925e-03
-5.666594802941344981e-03
-6.109659290425045047e-03
-6.576490483320970859e-03
-7.062578687754622261e-03
-7.563258494652592111e-03
-8.073794725133502312e-03
-8.589469071139943512e-03
-9.105665967649423029e-03
-9.617956218678754346e-03
-1.012217689528665220e-02
-1.061450602770202395e-02
-1.109153083555264319e-02
-1.155030808735671780e-02
-1.198841553898276693e-02
-1.240399343986554881e-02
-1.279577522495724089e-02
-1.316310677938680243e-02
-1.350595377612957837e-02
-1.382489681380253722e-02
-1.412111433574588827e-02
-1.439635345760326146e-02
-1.465288915713029716e-02
-1.489347225006955669e-02
-1.512126719552005921e-02
-1.533978048373699395e-02
-1.555278103039781784e-02
-1.576421377516929942e-02
-1.597810801245429582e-02
-1.619848210182409098e-02
-1.642924629087848601e-02
-1.667410540716007111e-02
-1.693646322804979315e-02
-1.721933039619083158e-02
-1.752523770411340900e-02
-1.785615644956143819e-02
-1.821342747472565193e-02
-1.859770049497827191e-02
-1.900888506399455238e-02
-1.944611433112378163e-02
-1.990772265778735853e-02
-2.039123775354427168e-02
-2.089338794775034980e-02
-2.141012478836971586e-02
-2.193666099012476361e-02
-2.246752335309278037e-02
-2.299662011690486313e-02
-2.351732191868030619e-02
-2.402255530408520245e-02
-2.450490731992296597e-02
-2.495673966026053237e-02
-2.537031048178714152e-02
-2.573790206063381047e-02
-2.605195200269974296e-02
-2.630518592661895347e-02
-2.649074917955080918e-02
-2.660233525657663620e-02
-2.663430860526260630e-02
-2.658181957588595656e-02
-2.644090920877343806e-02
-2.620860185042194965e-02
-2.588298370567250831e-02
-2.546326559766593986e-02
-2.494982848615980714e-02
-2.434425059742445843e-02
-2.364931535619841166e-02
-2.286899949285033790e-02
-2.200844115686424393e-02
-2.107388822420238131e-02
-2.007262719234945841e-02
-1.901289368629320228e-02
-1.790376564840746171e-02
-1.675504076713289769e-02
-1.557710005141438141e-02
-1.438075961699121844e-02
-1.317711301248467200e-02
-1.197736677730812903e-02
-1.079267193381922528e-02
-9.633954185785147811e-03
-8.511745897907745800e-03
-7.436022757167925178e-03
-6.416047938682670031e-03
-5.460226733801207613e-03
-4.575974331579506921e-03
-3.769599124652702436e-03
-3.046203882037199721e-03
-2.409606728342094436e-03
-1.862283470185316847e-03
-1.405332692993067683e-03
-1.038464416720355716e-03
-7.600127702718544520e-04
-5.669726283211107493e-04
-4.550599301759597568e-04
-4.187946695762307802e-04
-4.516053473027359919e-04
-5.459532130014671135e-04
-6.934741650882381321e-04
-8.851357601862418645e-04
-1.111406697926857262e-03
-1.362435743026116928e-03
-1.628236699857444920e-03
-1.898876097363706369e-03
-2.164660103937717048e-03
-2.416317081562673139e-03
-2.645172297512177109e-03
-2.843311335252876517e-03
-3.003729028934723228e-03
-3.120460752237412365e-03
-3.188693546166701965e-03
-3.204854573682856464e-03
-3.166674983193234257e-03
-3.073227662920357487e-03
-2.924937810085960835e-03
-2.723565725322846329e-03
-2.472161956909526073e-03
-2.174995260333837267e-03
-1.837454448467974212e-03
-1.465925718333481540e-03
-1.067647592171873296e-03
-6.505460791942737535e-04
-2.230529770489700825e-04
2.060892340097757885e-04
6.280321318651030859e-04
1.034031853775844003e-03
1.415661108903858503e-03
1.765018522193197246e-03
2.074930863859107081e-03
2.339144013199549992e-03
2.552498609986846891e-03
2.711086358256133665e-03
2.812383563223217961e-03
2.855358534972493936e-03
2.840550259328136935e-03
2.770115979971256998e-03
2.647846057636943536e-03
2.479144968259499020e-03
2.270978141826551690e-03
2.031784804954032703e-03
1.771357732234569299e-03
1.500691473441986314e-03
1.231801352004301174e-03
9.775160882731577690e-04
7.512475045341910360e-04
5.667412554735533911e-04
4.378130722847757171e-04
3.780753552945661350e-04
4.006592589044411673e-04
5.179375989395738249e-04
7.412540145550689571e-04
1.080664007910702535e-03
1.544693111795803929e-03
2.140117379784219672e-03
2.871771123445453471e-03
3.742386316764519886e-03
4.752467641528175003e-03
5.900206611420518235e-03
7.181437386199892962e-03
8.589636342478605691e-03
1.011596649241787785e-02
1.174936717326728088e-02
1.347668848321284009e-02
1.528286908846829620e-02
1.715115516235237933e-02
1.906335736827510091e-02
2.100014213842156877e-02
2.294135244815780766e-02
2.486635294090833864e-02
2.675439350307402472e-02
2.858498491346855158e-02
3.033827991261166951e-02
3.199545261246661276e-02
3.353906906774378749e-02
3.495344208724652374e-02
3.622496313926735351e-02
3.734240468704335542e-02
3.829718661475899066e-02
3.908360102204383457e-02
3.969899026278990439e-02
4.014387382582405850e-02
4.042202061728595447e-02
4.054046413619614292e-02
4.050945905452051771e-02
4.034237869300440898e-02
4.005555412351812644e-02
3.966805676365307148e-02
3.920142720972968897e-02
3.867935451614516740e-02
3.812731075887772908e-02
3.757214704565468161e-02
3.704165766198035808e-02
3.656412006611026166e-02
3.616781897660319156e-02
3.588056327313635108e-02
3.572920475812695756e-02
3.573916801497321882e-02
3.593400068903086775e-02
3.633495317435329192e-02
3.696059641375915028e-02
3.782648610349857721e-02
3.894488072868862449e-02
4.032452012488105947e-02
4.197047014633269874e-02
4.388403803163933026e-02
4.606276166857786042e-02
4.850047474920252122e-02
5.118744837414079818e-02
5.411060800013212102e-02
5.725382353175024336e-02
6.059826855731240136e-02
6.412284337259101241e-02
6.780465519028072707e-02
7.161954740772545625e-02
7.554266893253305803e-02
7.954907326540201773e-02
8.361433619787522753e-02
8.771518037646036658e-02
9.183009453969537272e-02
9.593993477761525446e-02
1.000284951367813591e-01
1.040830352259130842e-01
1.080947526562557603e-01
1.120591889150638898e-01
1.159765580449057948e-01
1.198519886936497553e-01
1.236956712098571248e-01
1.275229031288287185e-01
1.313540278766034408e-01
1.352142631875783152e-01
1.391334178709011937e-01
1.431454973631239302e-01
1.472882004863175776e-01
1.516023119333954894e-01
1.561309969439762801e-01
1.609190067159953497e-01
1.660118046697727501e-01
1.714546257706023313e-01
1.772914824804920353e-01
1.835641323107094491e-01
1.903110231816651232e-01
1.975662336886163384e-01
2.053584260239428028e-01
2.137098297003653113e-01
2.226352744196710143e-01
2.321412900392687273e-01
2.422252911439408407e-01
2.528748629534641745e-01
2.640671641521687429e-01
2.757684608503621626e-01
2.879338040658978026e-01
3.005068614680652672e-01
3.134199117175248128e-01
3.265940075633305684e-01
3.399393113913392606e-01
3.533556042257855467e-01
3.667329665777823156e-01
3.799526268113522232e-01
3.928879700415141007e-01
4.054056978126990285e-01
4.173671264430980909e-01
4.286296093201890645e-01
4.390480663352929191e-01
4.484766015142154783e-01
4.567701883797752327e-01
4.637864007406121702e-01
4.693871657967116362e-01
4.734405154859175346e-01
4.758223114327908565e-01
4.764179190672690467e-01
4.751238064750177847e-01
4.718490443343674734e-01
4.665166842364739108e-01
4.590649942261861294e-01
4.494485320991217780e-01
4.376390389223248079e-01
4.236261376368116172e-01
4.074178243407509670e-01
3.890407424423451554e-01
3.685402330959804962e-01
3.459801582860241864e-01
3.214424962117321538e-01
2.950267119565320728e-01
2.668489095076981288e-01
2.370407744424055663e-01
2.057483197604756398e-01
1.731304499832996835e-01
1.393573616357922651e-01
1.046088004732164539e-01
6.907219803782065071e-02
3.294071182860885266e-02
-3.588804851040550224e-03
-4.031787661197670791e-02
-7.704849549292046296e-02
-1.135851983176967422e-01
-1.497371041437335903e-01
-1.853198844793350897e-01
-2.201576399362248360e-01
-2.540846583185387697e-01
-2.869470309201912483e-01
-3.186041056923715198e-01
-3.489297586059527112e-01
-3.778134668507936444e-01
-4.051611706630247056e-01
-4.308959135609267688e-01
-4.549582540152910526e-01
-4.773064448709016250e-01
-4.979163802247199011e-01
-5.167813128829013003e-01
-5.339113487868757391e-01
-5.493327279720273681e-01
-5.630869046471193018e-01
-5.752294418735970361e-01
-5.858287388671173934e-01
-5.949646112518811591e-01
-6.027267465364823940e-01
-6.092130587277568843e-01
-6.145279672539780691e-01
-6.187806261376206374e-01
-6.220831299858764485e-01
-6.245487232329602900e-01
-6.262900387774485989e-01
-6.274173915247720501e-01
-6.280371509461391000e-01
-6.282502155282544409e-01
-6.281506100602671783e-01
-6.278242245053635706e-01
-6.273477109237260985e-01
-6.267875522334642735e-01
-6.261993138073781440e-01
-6.256270859062118550e-01
-6.251031220226183072e-01
-6.246476749879475987e-01
-6.242690298062192333e-01
-6.239637290357505917e-01
-6.237169837230179814e-01
-6.235032600044938533e-01
-6.232870291519779782e-01
-6.230236663381191198e-01
-6.226604812847041925e-01
-6.221378622984298223e-01
-6.213905136846856747e-01
-6.203487655683823654e-01
-6.189399339788554943e-01
-6.170897090366544990e-01
-6.147235489019161614e-01
-6.117680573419926882e-01
-6.081523235733664601e-01
-6.038092038684647056e-01
-5.986765257902484372e-01
-5.926981975216936149e-01
-5.858252064300160100e-01
-5.780164932544655798e-01
-5.692396903726537616e-01
-5.594717149230388209e-01
-5.486992103824852585e-01
-5.369188322012595771e-01
-5.241373761271039822e-01
-5.103717502466704747e-01
-4.956487939989442926e-01
-4.800049501236204885e-01
-4.634857975415453413e-01
-4.461454553690999414e-01
-4.280458697879236940e-01
-4.092559976008277589e-01
-3.898509011912592581e-01
-3.699107709779662079e-01
-3.495198922105929862e-01
-3.287655733997776331e-01
-3.077370539448425202e-01
-2.865244083928752961e-01
-2.652174645991653423e-01
-2.439047520260361757e-01
-2.226724959806866411e-01
-2.016036721603705895e-01
-1.807771345635520444e-01
-1.602668284535045118e-01
-1.401410982400398131e-01
-1.204620983519859162e-01
-1.012853133007226292e-01
-8.265919118600788262e-02
-6.462489277032326673e-02
-4.721615658028537055e-02
-3.045927818147904295e-02
-1.437320033306555174e-02
1.030291389933544891e-03
1.574627424471205378e-02
2.977630367564264996e-02
4.312794776630177185e-02
5.581425152610881846e-02
6.785314252078487873e-02
7.926678993753102920e-02
9.008092967599395928e-02
1.003241681631922982e-01
1.100272775526335151e-01
1.192224948360190301e-01
1.279428367525309584e-01
1.362214416983372756e-01
1.440909491755789917e-01
1.515829261542844808e-01
1.587273486394868427e-01
1.655521454329237918e-01
1.720828097054898087e-01
1.783420826618720423e-01
1.843497121379598924e-01
1.901222873922598366e-01
1.956731499540931840e-01
2.010123790710882929e-01
2.061468489168911122e-01
2.110803534797162095e-01
2.158137939182961651e-01
2.203454221730230811e-01
2.246711337182558110e-01
2.287848017213577612e-01
2.326786443248973213e-01
2.363436163045211647e-01
2.397698162452471526e-01
2.429469003424864493e-01
2.458644940442243354e-01
2.485125930668797556e-01
2.508819458232176003e-01
2.529644096507748796e-01
2.547532744984076780e-01
2.562435479234311253e-01
2.574321965664587153e-01
2.583183400139714148e-01
2.589033942969071744e-01
2.591911630924169652e-01
2.591878758884993972e-01
2.589021733276719583e-01
2.583450410715674161e-01
2.575296946125205655e-01
2.564714181371712254e-01
2.551873614912500421e-01
2.536963001858424382e-01
2.520183637551319800e-01
2.501747383616378384e-01
2.481873501004324134e-01
2.460785355186061174e-01
2.438707059526244447e-01
2.415860124865820691e-01
2.392460180167237105e-01
2.368713826800814548e-01
2.344815686113234654e-01
2.320945693872605298e-01
2.297266690248925824e-01
2.273922347244780595e-01
2.251035467596028683e-01
2.228706682579231491e-01
2.207013566551343509e-01
2.186010180020584448e-01
2.165727040805405512e-01
2.146171518926623667e-01
2.127328640278287886e-01
2.109162277911975636e-01
2.091616700618701141e-01
2.074618445349358520e-01
2.058078471923374120e-01
2.041894555104769582e-01
2.025953865116790209e-01
2.010135685200940825e-01
1.994314212758723504e-01
1.978361390942731945e-01
1.962149716551735146e-01
1.945554972664052806e-01
1.928458836511708074e-01
1.910751315914423487e-01
1.892332972693319404e-01
1.873116896554370137e-01
1.853030395083585524e-01
1.832016375906427019e-01
1.810034401439035434e-01
1.787061401973749075e-01
1.763092041070786486e-01
1.738138734230949556e-01
1.712231326673284426e-01
1.685416443194227287e-01
1.657756530434202902e-01
1.629328613844083784e-01
1.600222800106284593e-01
1.570540557753701827e-01
1.540392813080610213e-01
1.509897901396942410e-01
1.479179414171285789e-01
1.448363985465482007e-01
1.417579060275146186e-01
1.386950687388239511e-01
1.356601377418911458e-01
1.326648065397858511e-01
1.297200213862052531e-01
1.268358089043860881e-01
1.240211239532870713e-01
1.212837201267662340e-01
1.186300448233911231e-01
1.160651604524315372e-01
1.135926926338233778e-01
1.112148057246452881e-01
1.089322057369655761e-01
1.067441698709165332e-01
1.046486015309378848e-01
1.026421093849372440e-01
1.007201083684899634e-01
9.887694024314011565e-02
9.710601106417002248e-02
9.539994262448292517e-02
9.375073471537717640e-02
9.214993494129759821e-02
9.058881262488688302e-02
8.905853363689955615e-02
8.755033270801754197e-02
8.605568008505333488e-02
8.456643954588453915e-02
8.307501497378472211e-02
8.157448305944556277e-02
8.005870985580974819e-02
7.852244948977527006e-02
7.696142350326438952e-02
7.537237980410986526e-02
7.375313060576992041e-02
7.210256913500419362e-02
7.042066530229129651e-02
6.870844086552245489e-02
6.696792517700224379e-02
6.520209267851587165e-02
6.341478381860357616e-02
6.161061129311810880e-02
5.979485375042362799e-02
5.797333925422919199e-02
5.615232096290692643e-02
5.433834760719911255e-02
5.253813134395389495e-02
5.075841555746998801e-02
4.900584506728136724e-02
4.728684120977272309e-02
4.560748403737179685e-02
4.397340376289929353e-02
4.238968318718250999e-02
4.086077273827521533e-02
3.939041939384999025e-02
3.798161057116010431e-02
3.663653366277717233e-02
3.535655153644601256e-02
3.414219405692361931e-02
3.299316551234072331e-02
3.190836728316830823e-02
3.088593498981968485e-02
2.992328898587855515e-02
2.901719690838495264e-02
2.816384688010227164e-02
2.735892948754354084e-02
2.659772694425237283e-02
2.587520738598099446e-02
2.518612243996157588e-02
2.452510611783476763e-02
2.388677300200721040e-02
2.326581396282741132e-02
2.265708763845862908e-02
2.205570598267220933e-02
2.145711237207530153e-02
2.085715105999788252e-02
2.025212683114779866e-02
1.963885400091452960e-02
1.901469406676327759e-02
1.837758166627524031e-02
1.772603867052360144e-02
1.705917649627687258e-02
1.637668692304396212e-02
1.567882187159820584e-02
1.496636302085149230e-02
1.424058209229954464e-02
1.350319287884571735e-02
1.275629624311884827e-02
1.200231934209019385e-02
1.124395060390814133e-02
1.048407176684002309e-02
9.725688540788835282e-03
8.971861308589353101e-03
8.225637306616011279e-03
7.489985600375451830e-03
6.767736136131031685e-03
6.061523979638606431e-03
5.373739864829074446e-03
4.706487780161113313e-03
4.061550238590034591e-03
3.440361944862229543e-03
2.843991994618737772e-03
2.273134864989362694e-03
1.728110052193083772e-03
1.208870180989209207e-03
7.150172714308353564e-04
2.458264863806804016e-04
-1.997233319101480054e-04
-6.229131142077604403e-04
-1.025241922835043278e-03
-1.408381340931521295e-03
-1.774126842416808621e-03
-2.124347411200868448e-03
-2.460934485807838960e-03
-2.785751364685747685e-03
-3.100584240076849005e-03
-3.407095864039316399e-03
-3.706782837686214277e-03
-4.000937510881412244e-03
-4.290615094073480136e-03
-4.576606809756244253e-03
-4.859419547489869651e-03
-5.139262478287288591e-03
-5.416040733566040814e-03
-5.689356316640607411e-03
-5.958516168849011668e-03
-6.222547144628277384e-03
-6.480217595786835587e-03
-6.730064976740417725e-03
-6.970428968206297121e-03
-7.199489297844472932e-03
-7.415307446224666914e-03
-7.615871423572851892e-03
-7.799142611971066931e-03
-7.963103655141115858e-03
-8.105806474289907818e-03
-8.225419387410039251e-03
-8.320272264083059324e-03
-8.388898891848553876e-03
-8.430075630055346853e-03
-8.442855572546649826e-03
-8.426597430249491497e-03
-8.380988701224990206e-03
-8.306062440988946222e-03
-8.202207475158184921e-03
-8.070171624508818906e-03
-7.911057976527588811e-03
-7.726314243562607334e-03
-7.517715309150146789e-03
-7.287339304385946452e-03
-7.037537641244707466e-03
-6.770899596581305552e-03
-6.490212017674114320e-03
-6.198414886319692299e-03
-5.898553610310832210e-03
-5.593728960666977459e-03
-5.287045403111687025e-03
-4.981558977462625243e-03
-4.680225559645001011e-03
-4.385850510657959660e-03
-4.101040597758691744e-03
-3.828159081605676459e-03
-3.569284836020235503e-03
-3.326176209571387286e-03
-3.100240334119850477e-03
-2.892508421241991173e-03
-2.703617529151172705e-03
-2.533799156672600014e-03
-2.382874796228551511e-03
-2.250258626749584729e-03
-2.134967413308009113e-03
-2.035637304848156998e-03
-1.950547296176382856e-03
-1.877648983085817387e-03
-1.814602119564957773e-03
-1.758815443038723274e-03
-1.707491974164660614e-03
-1.657678027605537750e-03
-1.606315213903976649e-03
-1.550294451634829599e-03
-1.486511122270589959e-03
-1.411920452315347605e-03
-1.323592148144980178e-03
-1.218763452624849804e-03
-1.094889665771085763e-03
-9.496912855743621295e-04
-7.811970447148854080e-04
-5.877820467369061384e-04
-3.682004827217664816e-04
-1.216122429870264692e-04
1.523968762236169476e-04
4.538017420118733731e-04
7.821315202274052450e-04
1.136470367794573978e-03
1.515465207546482949e-03
1.917340511920217387e-03
2.339919794540369895e-03
2.780653474800089987e-03
3.236652613684438354e-03
3.704728135919717769e-03
4.181434683850966672e-03
4.663118526187485895e-03
5.145968838173135829e-03
5.626071344420472894e-03
6.099463663243493393e-03
6.562191364050195576e-03
7.010363859590794736e-03
7.440209356286566801e-03
7.848127950635247485e-03
8.230742071846311111e-03
8.584943450531025075e-03
8.907935989341581387e-03
9.197273799186601179e-03
9.450893905603323375e-03
9.667143130434187326e-03
9.844798780776218075e-03
9.983082768252072095e-03
1.008166913008220339e-02
1.014068472983861019e-02
1.016070322674531533e-02
1.014273244480127373e-02
1.008819535974315833e-02
9.998905008833261152e-03
9.877033804239080186e-03
9.725077659405273814e-03
9.545815613356663232e-03
9.342265470652102999e-03
9.117636208101059098e-03
8.875277899374025767e-03
8.618629887950101515e-03
8.351168057361619754e-03
8.076351944588904333e-03
7.797572491279632437e-03
7.518101226002983813e-03
7.241041606402195963e-03
6.969283273225505317e-03
6.705459842471427241e-03
6.451910793156616711e-03
6.210648077058573968e-03
5.983327866626165017e-03
5.771227785401184494e-03
5.575229932990303193e-03
5.395809975516339257e-03
5.233032323360727392e-03
5.086551422799859279e-03
4.955619123768946997e-03
4.839097982888532386e-03
4.735480193562320063e-03
4.642911894894651004e-03
4.559222315462712304e-03
4.481957460826553087e-03
4.408417687254135957e-03
4.335698611253252684e-03
4.260734737246960925e-03
4.180345097200260235e-03
4.091280311551558080e-03
3.990270263265562750e-03
3.874071725623489445e-03
3.739515328887605197e-03
3.583551108351270588e-03
3.403291999876810817e-03
3.196054689407356979e-03
2.959397292442740492e-03
2.691153288665660767e-03
2.389461319483030151e-03
2.052790464639222146e-03
1.679960654854514672e-03
1.270158078306644553e-03
8.229452854170025890e-04
3.382659882188503121e-04
-1.835553852542575728e-04
-7.418193950098023268e-04
-1.335462362854724933e-03
-1.963071980203126392e-03
-2.622907474573440718e-03
-3.312923973739798165e-03
-4.030800707150230047e-03
-4.773972495174987410e-03
-5.539664066150648894e-03
-6.324926713959593515e-03
-7.126676667077516680e-03
-7.941734645578311935e-03
-8.766866051628897233e-03
-9.598821133221488097e-03
-1.043437458328144024e-02
-1.127036408636796980e-02
-1.210372723131794039e-02
-1.293153628287300669e-02
-1.375103046924654356e-02
-1.455964526802642871e-02
-1.535503835444330945e-02
-1.613511200945679305e-02
-1.689803167346987101e-02
-1.764224048169763318e-02
-1.836646967414544765e-02
-1.906974484876898523e-02
-1.975138807167801241e-02
-2.041101588940213984e-02
-2.104853338921930037e-02
-2.166412451182602589e-02
-2.225823885730136842e-02
-2.283157522489637214e-02
-2.338506225540783190e-02
-2.391983654263361847e-02
-2.443721850015565661e-02
-2.493868651210779872e-02
-2.542584971917877593e-02
-2.590041994949227738e-02
-2.636418306400595615e-02
-2.681897027161979710e-02
-2.726662977764758924e-02
-2.770899918405991813e-02
-2.814787894746559674e-02
-2.858500726390384231e-02
-2.902203671170625748e-02
-2.946051285418646928e-02
-2.990185505585114117e-02
-3.034733966268018945e-02
-3.079808575840976489e-02
-3.125504357141130340e-02
-3.171898549917578913e-02
-3.219049983729119213e-02
-3.266998713739628635e-02
-3.315765910721600596e-02
-3.365354002289166341e-02
-3.415747039909838162e-02
-3.466911279221076420e-02
-3.518795958551548114e-02
-3.571334244665731045e-02
-3.624444331087242621e-02
-3.678030654777181968e-02
-3.731985221489709376e-02
-3.786189006094493881e-02
-3.840513397257906691e-02
-3.894821670487181448e-02
-3.948970470319037446e-02
-4.002811278963081670e-02
-4.056191848481474627e-02
-4.108957584689296172e-02
-4.160952872602888264e-02
-4.212022320648160095e-02
-4.262011919128269599e-02
-4.310770117328385775e-02
-4.358148800401294432e-02
-4.404004175658831483e-02
-4.448197567636578975e-02
-4.490596120125691509e-02
-4.531073411294562342e-02
-4.569509995296337779e-02
-4.605793868810361541e-02
-4.639820877659143333e-02
-4.671495065154662035e-02
-4.700728989728099327e-02
-4.727443995175176217e-02
-4.751570458629283261e-02
-4.773048018711285867e-02
-4.791825792713980819e-02
-4.807862589655017421e-02
-4.821127120821947637e-02
-4.831598202841860812e-02
-4.839264959944569733e-02
-4.844127032189840532e-02
-4.846194767129334557e-02
-4.845489395186376030e-02
-4.842043192526167272e-02
-4.835899605871524926e-02
-4.827113345486817170e-02
-4.815750416364213832e-02
-4.801888096876662237e-02
-4.785614831021715865e-02
-4.767030032677884582e-02
-4.746243786613015686e-02
-4.723376437510572873e-02
-4.698558051131181829e-02
-4.671927745572769519e-02
-4.643632879280332887e-02
-4.613828094378984168e-02
-4.582674216169869280e-02
-4.550336999050132170e-02
-4.516985732193000425e-02
-4.482791709165657307e-02
-4.447926576115069502e-02
-4.412560563689969795e-02
-4.376860622830751335e-02
-4.340988492114988134e-02
-4.305098706357989025e-02
-4.269336588730427567e-02
-4.233836243683870154e-02
-4.198718581339935807e-02
-4.164089403060423217e-02
-4.130037589542007864e-02
-4.096633424586858946e-02
-4.063927079800139230e-02
-4.031947296532820829e-02
-4.000700298314453784e-02
-3.970168952413870994e-02
-3.940312226824581321e-02
-3.911064944042912106e-02
-3.882337865044210162e-02
-3.854018114388185062e-02
-3.825969954598699985e-02
-3.798035913067423358e-02
-3.770038273337721763e-02
-3.741780902454885926e-02
-3.713051418864785763e-02
-3.683623683648404312e-02
-3.653260583755888607e-02
-3.621717075969829724e-02
-3.588743472009943425e-02
-3.554088903161169849e-02
-3.517504936308228636e-02
-3.478749289440168785e-02
-3.437589590269923834e-02
-3.393807131699662361e-02
-3.347200565673232736e-02
-3.297589478599489976e-02
-3.244817787145121146e-02
-3.188756911720417447e-02
-3.129308658503509449e-02
-3.066407773011103205e-02
-3.000024111569035007e-02
-2.930164382494280378e-02
-2.856873434887412244e-02
-2.780235046673418600e-02
-2.700372203138706045e-02
-2.617446835611579245e-02
-2.531659015344682809e-02
-2.443245608176243880e-02
-2.352478387011935554e-02
-2.259661619578317432e-02
-2.165129152746907842e-02
-2.069241031603825248e-02
-1.972379688058690725e-02
-1.874945739884656751e-02
-1.777353460343853581e-02
-1.680025977931743492e-02
-1.583390262183708569e-02
-1.487871969205041729e-02
-1.393890222629817766e-02
-1.301852392705042313e-02
-1.212148958111175685e-02
-1.125148521428446374e-02
-1.041193047473858331e-02
-9.605934062475980986e-03
-8.836252779491347506e-03
-8.105254854387552998e-03
-7.414888143105274713e-03
-6.766653726046206740e-03
-6.161585239179761739e-03
-5.600234412762015480e-03
-5.082663036940202050e-03
-4.608441472228373172e-03
-4.176653778359526795e-03
-3.785909559955486121e-03
-3.434362253065534071e-03
-3.119733674885515930e-03
-2.839344554325599467e-03
-2.590150617245188819e-03
-2.368783755117283545e-03
-2.171597565642964262e-03
-1.994716803592318233e-03
-1.834089931360311258e-03
-1.685544042481708230e-03
-1.544841332049543166e-03
-1.407736380991967936e-03
-1.270033313006988657e-03
-1.127642065505179069e-03
-9.766328900547933869e-04
-8.132883963757920080e-04
-6.341522506999386962e-04
-4.360739401546098000e-04
-2.162489101990075751e-04
2.774658483726873684e-05
2.979262325041778640e-04
5.958705625399429847e-04
9.227103215363104691e-04
1.279116392828842435e-03
1.665296469639754307e-03
2.080998468806969943e-03
2.525520650890991127e-03
2.997728058869800379e-03
3.496075170239048516e-03
4.018634290268762246e-03
4.563129129107065286e-03
5.126973141400237820e-03
5.707311863876092690e-03
6.301068607080685148e-03
6.904992791067125421e-03
7.515710112781449209e-03
8.129773702314444309e-03
8.743715497160391842e-03
9.354097042775949902e-03
9.957558811768352225e-03
1.055086742404984929e-02
1.113095991660353022e-02
1.169498447931331848e-02
1.224033698635855656e-02
1.276469279031936660e-02
1.326603331860198159e-02
1.374266717909216305e-02
1.419324538067126898e-02
1.461677060861576831e-02
1.501260042400111815e-02
1.538044445801436434e-02
1.572035568760553684e-02
1.603271601191091911e-02
1.631821655869961779e-02
1.657783301686154356e-02
1.681279655452374081e-02
1.702456081978713509e-02
1.721476577588397852e-02
1.738519899218205975e-02
1.753775498435343819e-02
1.767439353557466106e-02
1.779709769712656611e-02
1.790783220122494843e-02
1.800850305208206992e-02
1.810091894492995429e-02
1.818675535458256359e-02
1.826752186673093539e-02
1.834453329235617020e-02
1.841888507092264565e-02
1.849143341787207878e-02
1.856278059331466224e-02
1.863326549722083697e-02
1.870295981076797870e-02
1.877166963513547324e-02
1.883894270034282628e-02
1.890408091723591588e-02
1.896615812596499223e-02
1.902404265097801250e-02
1.907642424963815198e-02
1.912184499979041261e-02
1.915873359513406080e-02
1.918544228536443047e-02
1.920028591988170302e-02
1.920158232897358624e-02
1.918769324799580664e-02
1.915706522632294392e-02
1.910826950933425250e-02
1.904004030235197445e-02
1.895131063873609772e-02
1.884124525294838398e-02
1.870926971966722918e-02
1.855509531673496179e-02
1.837873915146420040e-02
1.818053905314385293e-02
1.796116298690017543e-02
1.772161260904045466e-02
1.746322094882886075e-02
1.718764409742485483e-02
1.689684701377488357e-02
1.659308345691689821e-02
1.627887050122087814e-02
1.595695780851517920e-02
1.563029214190122043e-02
1.530197774687886390e-02
1.497523304834705478e-02
1.465334440088387861e-02
1.433961762888372182e-02
1.403732804168054439e-02
1.374966979435822585e-02
1.347970536087935746e-02
1.323031594478399353e-02
1.300415369603631459e-02
1.280359645728021238e-02
1.263070584091413595e-02
1.248718927450417383e-02
1.237436679514628511e-02
1.229314309381964766e-02
1.224398534584036739e-02
1.222690722802326907e-02
1.224145949874596434e-02
1.228672735842581583e-02
1.236133470933599258e-02
1.246345537833417304e-02
1.259083117719639149e-02
1.274079664455037703e-02
1.291031014896126296e-02
1.309599098206713774e-02
1.329416197149227430e-02
1.350089708277588119e-02
1.371207325390389788e-02
1.392342586002677692e-02
1.413060698969820055e-02
1.432924560533062157e-02
1.451500897977171800e-02
1.468366432783425359e-02
1.483113978794261753e-02
1.495358391904415447e-02
1.504742283945064221e-02
1.510941416427974762e-02
1.513669690323056483e-02
1.512683668770205443e-02
1.507786555040019523e-02
1.498831575582971164e-02
1.485724711064376029e-02
1.468426732532018310e-02
1.446954519168414631e-02
1.421381625483545894e-02
1.391838087556612064e-02
1.358509478215874124e-02
1.321635208228874765e-02
1.281506104016849092e-02
1.238461283565633550e-02
1.192884376520093360e-02
1.145199136531768053e-02
1.095864502858366965e-02
1.045369182196061869e-02
9.942258137210859686e-03
9.429648064995752380e-03
8.921279170582600837e-03
8.422616590705485351e-03
7.939106419239852497e-03
7.476109117278676233e-03
7.038833934399293599e-03
6.632275168219483458e-03
6.261151008821972189e-03
5.929845887015859629e-03
5.642357046547310032e-03
5.402245964759670553e-03
5.212595257168934140e-03
5.075971635512465871e-03
4.994395272840700117e-03
4.969316107067945319e-03
5.001597119629656862e-03
5.091504949042554781e-03
5.238707810097015076e-03
5.442280730485755079e-03
5.700717971293770350e-03
6.011952344811640273e-03
6.373381184815121552e-03
6.781898569140366526e-03
7.233933301950028032e-03
7.725492066217596980e-03
8.252207212181644769e-03
8.809388477641566517e-03
9.392077892854663879e-03
9.995107167836572368e-03
1.061315676591853552e-02
1.124081592595015285e-02
1.187264285219243216e-02
1.250322420247453568e-02
1.312723322797516683e-02
1.373948578131949962e-02
1.433499354523687201e-02
1.490901385489563566e-02
1.545709545542090467e-02
1.597511973765814927e-02
1.645933702031694354e-02
1.690639749278122217e-02
1.731337650941894291e-02
1.767779400670990014e-02
1.799762794646621311e-02
1.827132170821730434e-02
1.849778553886350166e-02
1.867639209467275921e-02
1.880696630130294228e-02
1.888976985139964940e-02
1.892548063805755618e-02
1.891516749139563261e-02
1.886026071888571506e-02
1.876251893981325733e-02
1.862399281411354635e-02
1.844698621898698335e-02
1.823401541635565407e-02
1.798776693233844828e-02
1.771105466148705995e-02
1.740677698202975146e-02
1.707787433070660776e-02
1.672728790505357069e-02
1.635792009977896089e-02
1.597259707951106250e-02
1.557403405375870284e-02
1.516480371276139431e-02
1.474730814476884859e-02
1.432375453978312722e-02
1.389613503269696709e-02
1.346621076251465834e-02
1.303550038967620124e-02
1.260527303474174611e-02
1.217654564790780942e-02
1.175008473323411844e-02
1.132641231553600455e-02
1.090581596989903188e-02
1.048836256493708777e-02
1.007391545560884505e-02
9.662154831567827673e-03
9.252600672518372302e-03
8.844638054122047274e-03
8.437544203705047569e-03
8.030516874914397571e-03
7.622703581341291716e-03
7.213231133761004513e-03
6.801235011749638681e-03
6.385888078938795759e-03
5.966428182369559741e-03
5.542184193863971230e-03
5.112600022330503896e-03
4.677256216624983871e-03
4.235888963973196558e-03
3.788405994077122165e-03
3.334899280600905035e-03
2.875654269993029293e-03
2.411155559125806314e-03
1.942088915446217113e-03
1.469339533819201578e-03
9.939867353961147518e-04
5.172950932114108932e-04
4.070216706564226271e-05
-4.341970504280902418e-04
-9.056685201705050748e-04
-1.371860355926833282e-03
-1.830826335505370689e-03
-2.280551355444184955e-03
-2.718978489783055192e-03
-3.144037207756973651e-03
-3.553672385213914493e-03
-3.945873595981411706e-03
-4.318704203615741921e-03
-4.670329912940068134e-03
-4.999046331061689392e-03
-5.303304998806367479e-03
-5.581737600397581288e-03
-5.833178034864055714e-03
-6.056681923830954835e-03
-6.251543269577244238e-03
-6.417307967963475565e-03
-6.553784103127779752e-03
-6.661048780186383522e-03
-6.739451309898689645e-03
-6.789612771350304367e-03
-6.812422006880595321e-03
-6.809027941527113700e-03
-6.780828398369803320e-03
-6.729455603558129329e-03
-6.656758496998016993e-03
-6.564782065170401970e-03
-6.455744079539425632e-03
-6.332009476568535057e-03
-6.196062737255579080e-03
-6.050478665957670713e-03
-5.897891938703258077e-03
-5.740965827741721303e-03
-5.582360538527559972e-03
-5.424701573225945532e-03
-5.270548551259498019e-03
-5.122364898277209470e-03
-4.982488814042420472e-03
-4.853105884915015315e-03
-4.736223715758713926e-03
-4.633648933482993788e-03
-4.546966787586158125e-03
-4.477523666376193555e-03
-4.426412774748549397e-03
-4.394463016401437862e-03
-4.382231333646497903e-03
-4.389998577902094225e-03
-4.417768883308855615e-03
-4.465272584634298603e-03
-4.531972561088122575e-03
-4.617073998265748894e-03
-4.719537306257721651e-03
-4.838094079900980178e-03
-4.971265796912298189e-03
-5.117385065512758749e-03
-5.274619127454539466e-03
-5.440995166839307680e-03
-5.614427157781841371e-03
-5.792743976178012927e-03
-5.973718281435579959e-03
-6.155095772721030575e-03
-6.334624488749531802e-03
-6.510083793558566791e-03
-6.679312615304710578e-03
-6.840236599438644961e-03
-6.990893785453976793e-03
-7.129458583072282273e-03
-7.254263669711366602e-03
-7.363819578264481185e-03
-7.456831821297248662e-03
-7.532215187638387557e-03
-7.589105201612766048e-03
-7.626866613035018089e-03
-7.645098772713119530e-03
-7.643637874377577288e-03
-7.622556125585625182e-03
-7.582157864371077277e-03
-7.522972733730969377e-03
-7.445745994409652853e-03
-7.351426223034301412e-03
-7.241150476021742007e-03
-7.116227241261472748e-03
-6.978117396889979909e-03
-6.828413433089685833e-03
-6.668817273851697890e-03
-6.501116990369352859e-03
-6.327162687579620734e-03
-6.148841969649536388e-03
-5.968055274262860574e-03
-5.786691384700397463e-03
-5.606603452374714879e-03
-5.429585824376078479e-03
-5.257352077079217000e-03
-5.091514338236318403e-03
-4.933564327622611857e-03
-4.784856288666127118e-03
-4.646591955928037511e-03
-4.519807805782623603e-03
-4.405364696500497189e-03
-4.303940032317551435e-03
-4.216022486876697638e-03
-4.141909368605194153e-03
-4.081706594198016361e-03
-4.035331265645890342e-03
-4.002516758126776868e-03
-3.982820328786079722e-03
-3.975632977350485910e-03
-3.980191494054052120e-03
-3.995592433731406760e-03
-4.020807918554293765e-03
-4.054702959336601784e-03
-4.096054124237100656e-03
-4.143569178579386246e-03
-4.195907563909820337e-03
-4.251701345885551195e-03
-4.309576391480570041e-03
-4.368173516847984918e-03
-4.426169210356573937e-03
-4.482295756350574041e-03
-4.535360500563701165e-03
-4.584263976384640553e-03
-4.628016656694871646e-03
-4.665754139136062302e-03
-4.696750526149346718e-03
-4.720429852611683456e-03
-4.736375438955739946e-03
-4.744337030823365942e-03
-4.744235595009121259e-03
-4.736165728121131610e-03
-4.720395706620877756e-03
-4.697365112917032716e-03
-4.667680048766604910e-03
-4.632106111538073466e-03
-4.591559051676562600e-03
-4.547093340010595515e-03
-4.499888726181244109e-03
-4.451234995497611521e-03
-4.402515067666997947e-03
-4.355186694106127215e-03
-4.310762871827503520e-03
-4.270791328203610467e-03
-4.236833330699266327e-03
-4.210441950153055723e-03
-4.193140167368771334e-03
-4.186398960570541540e-03
-4.191615807135532987e-03
-4.210093725766968914e-03
-4.243021164008208522e-03
-4.291452997536563188e-03
-4.356292833649389427e-03
-4.438276840195852675e-03
-4.537959359920077512e-03
-4.655700430598848708e-03
-4.791655387665101108e-03
-4.945766674572393481e-03
-5.117758037607853493e-03
-5.307131085950140756e-03
-5.513164365726548957e-03
-5.734914912543108596e-03
-5.971222333205027794e-03
-6.220715339320044210e-03
-6.481820751126656649e-03
-6.752774808224421867e-03
-7.031636751998377594e-03
-7.316304516893410055e-03
-7.604532343523704926e-03
-7.893950132409599182e-03
-8.182084429608469517e-03
-8.466380731499606460e-03
-8.744226970545986369e-03
-9.012977854071487285e-03
-9.269979834687283940e-03
-9.512596432436414701e-03
-9.738233698156649465e-03
-9.944365564715241732e-03
-1.012855873124313480e-02
-1.028849687495748434e-02
-1.042200397767522116e-02
-1.052706644194813072e-02
-1.060185387639905365e-02
-1.064473822372839426e-02
-1.065431116392533996e-02
-1.062939949772826083e-02
-1.056907841854413770e-02
-1.047268252227009054e-02
-1.033981448218424665e-02
-1.017035122092252615e-02
-9.964447599478584369e-03
-9.722537589381305759e-03
-9.445332880068140619e-03
-9.133818966076486315e-03
-8.789248744861248575e-03
-8.413133680876993398e-03
-8.007232668121311292e-03
-7.573538673487695619e-03
-7.114263338328337578e-03
-6.631819661598789377e-03
-6.128802843103205340e-03
-5.607969680871895297e-03
-5.072216587358634003e-03
-4.524556414676980144e-03
-3.968094372464516829e-03
-3.406003276699150466e-03
-2.841498290692045983e-03
-2.277811420671659644e-03
-1.718166020633145503e-03
-1.165751519192852800e-03
-6.236986573034401966e-04
-9.505530743020090215e-05
4.172368480550989384e-04
9.103645090845771063e-04
1.381663735110518453e-03
1.828639476870322486e-03
2.248983503767736265e-03
2.640590678021529063e-03
3.001573338266887159e-03
3.330273747661259640e-03
3.625274541207134174e-03
3.885407069270509477e-03
4.109757587896146168e-03
4.297671277374019889e-03
4.448754138132266119e-03
4.562872711395393049e-03
4.640151639975950183e-03
4.680969144053668402e-03
4.685950503440348795e-03
4.655959614809190850e-03
4.592088682672138683e-03
4.495646183244650200e-03
4.368143305336853570e-03
4.211278829541010259e-03
4.026922662695679202e-03
3.817098294544885549e-03
3.583964240382946868e-03
3.329794575687719787e-03
3.056958864409268801e-03
2.767901620449008272e-03
2.465121377523427689e-03
2.151149693248965381e-03
1.828530192574953682e-03
1.499797815711735984e-03
1.167458427120804778e-03
8.339690706329113551e-04
5.017188802825582822e-04
1.730108608756564584e-04
-1.499553203527986334e-04
-4.650993980797128160e-04
-7.704752831843931019e-04
-1.064284442515597059e-03
-1.344887876775031606e-03
-1.610816494182489575e-03
-1.860779803507019940e-03
-2.093673010320098830e-03
-2.308582410234270594e-03
-2.504788924059765318e-03
-2.681769969278360779e-03
-2.839199524250836468e-03
-2.976946517675311751e-03
-3.095071471570339221e-03
-3.193821547873556752e-03
-3.273623970185194580e-03
-3.335078051933690422e-03
-3.378945770506288065e-03
-3.406141103426911249e-03
-3.417718124409556586e-03
-3.414858081548989999e-03
-3.398855603507084256e-03
-3.371104081861532511e-03
-3.333080506781963600e-03
-3.286329807702173100e-03
-3.232448901258861990e-03
-3.173070569024697644e-03
-3.109847340850839092e-03
-3.044435555117915460e-03
-2.978479707365152586e-03
-2.913597307218570003e-03
-2.851364189975012179e-03
-2.793300651274976953e-03
-2.740858391656215368e-03
-2.695408389931141027e-03
-2.658229839670869094e-03
-2.630500107591211140e-03
-2.613285943631356995e-03
-2.607535872930786917e-03
-2.614073851075531842e-03
-2.633594266815968143e-03
-2.666658132878287936e-03
-2.713690645546171145e-03
-2.774979926210947682e-03
-2.850677038779449082e-03
-2.940797168122821856e-03
-3.045221936907544901e-03
-3.163702692506307947e-03
-3.295864851953861970e-03
-3.441213110454087541e-03
-3.599137395887413212e-03
-3.768919563330318072e-03
-3.949740680275074314e-03
-4.140688732647403690e-03
-4.340766858822231455e-03
-4.548901828188052152e-03
-4.763952711932556427e-03
-4.984719711908768350e-03
-5.209952966999776593e-03
-5.438361356636589247e-03
-5.668621202300225606e-03
-5.899384882139870404e-03
-6.129289123236475283e-03
-6.356963091052551112e-03
-6.581036240117335047e-03
-6.800145811269255394e-03
-7.012944112464118002e-03
-7.218105348788083318e-03
-7.414332290116459542e-03
-7.600362570957006764e-03
-7.774974728741962209e-03
-7.936994009076334469e-03
-8.085297857879663111e-03
-8.218821264097514109e-03
-8.336561923556889964e-03
-8.437585206337815807e-03
-8.521028962225254272e-03
-8.586108199162140187e-03
-8.632119645267284647e-03
-8.658446153498519648e-03
-8.664560983783046316e-03
-8.650031938488386696e-03
-8.614525291103401414e-03
-8.557809543371451555e-03
-8.479758904781002291e-03
-8.380356501885087572e-03
-8.259697190992502935e-03
-8.117989982589921688e-03
-7.955559948344801194e-03
-7.772849583302484516e-03
-7.570419523294205817e-03
-7.348948545073207168e-03
-7.109232742810841534e-03
-6.852183853081839950e-03
-6.578826639104037345e-03
-6.290295230609073071e-03
-5.987828491177183722e-03
-5.672764249773675112e-03
-5.346532380311081432e-03
-5.010646813598142527e-03
-4.666696373496340318e-03
-4.316334528585989011e-03
-3.961268043522286897e-03
-3.603244642435459236e-03
-3.244039784408904361e-03
-2.885442586551264371e-03
-2.529241074893261079e-03
-2.177206840591978942e-03
-1.831079285433538130e-03
-1.492549633253957651e-03
-1.163244964406580330e-03
-8.447123245489938665e-04
-5.384032388910550649e-04
-2.456587416318384049e-04
3.230476897401646946e-05
2.944087494656143699e-04
5.397245183875532589e-04
7.674838386086391389e-04
9.770879744010435401e-04
1.168114974833148927e-03
1.340325085501524981e-03
1.493664128373607333e-03
1.628264806503151732e-03
1.744445768991749251e-03
1.842708449223363996e-03
1.923731684591841037e-03
1.988364155999390766e-03
2.037614568102941084e-03
2.072639821017613956e-03
2.094731161940482575e-03
2.105298634346765459e-03
2.105853842522094604e-03
2.097991285263748826e-03
2.083368606737475304e-03
2.063685881213099885e-03
2.040664307232298389e-03
2.016024567797295667e-03
1.991465171864078513e-03
1.968641009365405727e-03
1.949142598202833468e-03
1.934476137475029268e-03
1.926044771434650554e-03
1.925131320624111310e-03
1.932882743388845406e-03
1.950296504873396146e-03
1.978209124924839440e-03
2.017287069821890010e-03
2.068020105695387613e-03
2.130717166697855460e-03
2.205504862023434896e-03
2.292328667792200604e-03
2.390956674963470169e-03
2.500985896246490058e-03
2.621850998405770173e-03
2.752835383107652724e-03
2.893084260687379429e-03
3.041619635989478276e-03
3.197356943830375990e-03
3.359123007755676626e-03
3.525675041548454163e-03
3.695720351921930828e-03
3.867936434340923674e-03
4.040991199633182235e-03
4.213562853134204464e-03
4.384359129052106674e-03
4.552135639358558840e-03
4.715712992899191193e-03
4.873992370763170767e-03
5.025969362004791517e-03
5.170745808559244761e-03
5.307539455027149647e-03
5.435691340882566405e-03
5.554670736936557184e-03
5.664077600280807701e-03
5.763642544828041434e-03
5.853224360705641324e-03
5.932805166729973774e-03
6.002483282390943392e-03
6.062463957130355581e-03
6.113048243695858898e-03
6.154620166245066727e-03
6.187632488587216026e-03
6.212591359505300476e-03
6.230040119880310596e-03
6.240542604651114732e-03
6.244666291021831912e-03
6.242965619247958092e-03
6.235965759536544334e-03
6.224147223611735218e-03
6.207931593464730349e-03
6.187668558373636725e-03
6.163624731330863415e-03
6.135974228896315733e-03
6.104791356840687244e-03
6.070045478085912480e-03
6.031598202076595035e-03
5.989202919818770524e-03
5.942506798037957075e-03
5.891055085793121815e-03
5.834297771781250461e-03
5.771598416494239450e-03
5.702244986549472733e-03
5.625462602914847732e-03
5.540427885687019063e-03
5.446284641281542646e-03
5.342160708440253820e-03
5.227185544669606804e-03
5.100508323530414390e-03
4.961316196459226828e-03
4.808852357151744555e-03
4.642433605684740706e-03
4.461467157757454879e-03
4.265466338932401985e-03
4.054064903647958129e-03
3.827029725022799197e-03
3.584271621945374093e-03
3.325854136191247999e-03
3.052000117051565081e-03
2.763095947200402882e-03
2.459693395768735701e-03
2.142508990818021812e-03
1.812420998921325565e-03
1.470463949013583842e-03
1.117820860937649569e-03
7.558132835048442027e-04
3.858892767144787416e-04
9.609487729025734473e-06
-3.713684076770822095e-04
-7.553066877990752574e-04
-1.140405737308916546e-03
-1.524823100355829353e-03
-1.906693202346260510e-03
-2.284147353817420935e-03
-2.655333920336074016e-03
-3.018438229158967433e-03
-3.371702023936230027e-03
-3.713442245811785381e-03
-4.042068779348877323e-03
-4.356101083236674741e-03
-4.654183514289066299e-03
-4.935099024045336118e-03
-5.197781262413902516e-03
-5.441324829064749999e-03
-5.664993750795444157e-03
-5.868228022362867273e-03
-6.050648129921161987e-03
-6.212057672986815576e-03
-6.352444031432269607e-03
-6.471977156043072846e-03
-6.571006474618960348e-03
-6.650056084914697345e-03
-6.709818278588841438e-03
-6.751145461644206432e-03
-6.775040740773913099e-03
-6.782647107211762193e-03
-6.775235467318657841e-03
-6.754191621638133865e-03
-6.721002269612833153e-03
-6.677240285091019453e-03
-6.624549298624641050e-03
-6.564627789524109247e-03
-6.499212730039784572e-03
-6.430062894173301652e-03
-6.358942048859382926e-03
-6.287602088217284814e-03
-6.217766184436728481e-03
-6.151112108556223285e-03
-6.089255858595025821e-03
-6.033735588295747326e-03
-5.985996089275880463e-03
-5.947373844542823418e-03
-5.919082843214247547e-03
-5.902201220199155933e-03
-5.897658893243460168e-03
-5.906226365237244626e-03
-5.928504728909100852e-03
-5.964917062708083653e-03
-6.015701471679575640e-03
-6.080905799671414320e-03
-6.160384168837368217e-03
-6.253795548891704151e-03
-6.360604481908884063e-03
-6.480084018075111391e-03
-6.611321091897015036e-03
-6.753224285312407760e-03
-6.904534219700607031e-03
-7.063836480760601888e-03
-7.229577103055483470e-03
-7.400080683671758815e-03
-7.573570919617257299e-03
-7.748193540608833314e-03
-7.922041493384752650e-03
-8.093182095972461729e-03
-8.259685939657996495e-03
-8.419657285815248735e-03
-8.571265523059173885e-03
-8.712777332744838302e-03
-8.842589123724377623e-03
-8.959259216495863570e-03
-9.061539271093311393e-03
-9.148404421422602281e-03
-9.219081599612466080e-03
-9.273075420249266357e-03
-9.310191118815872718e-03
-9.330553920975270116e-03
-9.334624350224791575e-03
-9.323208904708836856e-03
-9.297465732522722584e-03
-9.258904913838180567e-03
-9.209382923586780303e-03
-9.151091101160385710e-03
-9.086537918079822668e-03
-9.018524991371755506e-03
-8.950116890245458229e-03
-8.884604877756691055e-03
-8.825464829219925242e-03
-8.776309751744192436e-03
-8.740837329472421133e-03
-8.722773184390117396e-03
-8.725810527906607827e-03
-8.753546988680461355e-03
-8.809419590819463422e-03
-8.896638896458641810e-03
-9.018123289268291029e-03
-9.176434622905724203e-03
-9.373716302700495565e-03
-9.611634967000742477e-03
-9.891327020258203206e-03
-1.021335105669904202e-02
-1.057764734430284570e-02
-1.098350530796201457e-02
-1.142954002357893240e-02
-1.191367850916678559e-02
-1.243315644282050499e-02
-1.298452595935094267e-02
-1.356367475462271800e-02
-1.416585673673144939e-02
-1.478573430496765012e-02
-1.541743192170624138e-02
-1.605460060790536020e-02
-1.669049275501029161e-02
-1.731804644031846585e-02
-1.792997820122475480e-02
-1.851888304308746402e-02
-1.907734030956197840e-02
-1.959802392219677641e-02
-2.007381525479944376e-02
-2.049791688169126658e-02
-2.086396535593474516e-02
-2.116614108286487411e-02
-2.139927337253531153e-02
-2.155893869179814279e-02
-2.164155035613426689e-02
-2.164443779852452676e-02
-2.156591378017637395e-02
-2.140532799153704174e-02
-2.116310580829488738e-02
-2.084077096016183350e-02
-2.044095135145836822e-02
-1.996736740692116319e-02
-1.942480258089883394e-02
-1.881905608631613894e-02
-1.815687802018097971e-02
-1.744588755966386406e-02
-1.669447515670774429e-02
-1.591168994696180033e-02
-1.510711377652544825e-02
-1.429072383801405222e-02
-1.347274574733814574e-02
-1.266349935750133229e-02
-1.187323981463008458e-02
-1.111199637921163851e-02
-1.038941184022311795e-02
-9.714584987574860497e-03
-9.095919124584314272e-03
-8.540979332149603587e-03
-8.056361075555110510e-03
-7.647572535029728037e-03
-7.318933175736428570e-03
-7.073490541502208510e-03
-6.912957012140914966e-03
-6.837668029150410255e-03
-6.846563052147524968e-03
-6.937189871700459066e-03
-7.105732664811615501e-03
-7.347063726737931150e-03
-7.654818361592288962e-03
-8.021492128419765999e-03
-8.438558978414468018e-03
-8.896608651608921628e-03
-9.385501118499004966e-03
-9.894535683227833125e-03
-1.041263190791930429e-02
-1.092851928248420382e-02
-1.143093247043927736e-02
-1.190880861459083818e-02
-1.235148313917844472e-02
-1.274888054235693950e-02
-1.309169657106785435e-02
-1.337156829408948922e-02
-1.358122894421900234e-02
-1.371464419855233062e-02
-1.376712727582692433e-02
-1.373543028449145283e-02
-1.361780984806828555e-02
-1.341406529601829080e-02
-1.312554838220824326e-02
-1.275514385508697522e-02
-1.230722076658046817e-02
-1.178755500895411860e-02
-1.120322403747556379e-02
-1.056247532432018875e-02
-9.874570697791240637e-03
-9.149609052539092388e-03
-8.398330390473890059e-03
-7.631904730202678823e-03
-6.861709584027526551e-03
-6.099100072800700025e-03
-5.355176014456506858e-03
-4.640550328759030646e-03
-3.965123313897277180e-03
-3.337867177656624225e-03
-2.766625192789846574e-03
-2.257929667578398476e-03
-1.816842503530059164e-03
-1.446821864958999435e-03
-1.149618176112809052e-03
-9.252018699279717338e-04
-7.717249693231052884e-04
-6.855178889994828235e-04
-6.611222848163317506e-04
-6.913599929707372159e-04
-7.674374392713789739e-04
-8.790842149445962216e-04
-1.014723886706184316e-03
-1.161674357364153587e-03
-1.306374502930005054e-03
-1.434633267682873308e-03
-1.531896835208328752e-03
-1.583529081762999119e-03
-1.575100162703676121e-03
-1.492677789283985588e-03
-1.323115674780508521e-03
-1.054333384206862035e-03
-6.755819709607814713e-04
-1.776901012034118495e-04
4.467147364660926652e-04
1.203014683722701365e-03
2.094444095198341824e-03
3.121969963365532359e-03
4.284213409268550730e-03
5.577414768029123095e-03
6.995443819659144871e-03
8.529856139414895150e-03
1.016999545813546124e-02
1.190314124271347335e-02
1.371469959292393598e-02
1.558843486931903340e-02
1.750673855888505367e-02
1.945093107253753270e-02
2.140159139068359764e-02
2.333890909808484723e-02
2.524305237927799983e-02
2.709454541490252319e-02
2.887464810890703892e-02
3.056573107659254704e-02
3.215163851732436018e-02
3.361803187910464286e-02
3.495270712308048977e-02
3.614587923976050193e-02
3.719042766005578593e-02
3.808209701561291599e-02
3.881964847245115285e-02
3.940495760425197919e-02
3.984305580343936587e-02
4.014211319766915198e-02
4.031336212267000452e-02
4.037096125786236028e-02
4.033180183255544865e-02
4.021525829270219954e-02
4.004288707583613521e-02
3.983807813681303212e-02
3.962566499410657972e-02
3.943149990007992212e-02
3.928200156180353814e-02
3.920368376927307885e-02
3.922267362408377034e-02
3.936422857562322380e-02
3.965226178825334569e-02
4.010888529808955688e-02
4.075398053935172515e-02
4.160480534185077850e-02
4.267564615632829517e-02
4.397752359085698587e-02
4.551795854821626131e-02
4.730080526772193622e-02
4.932615645130334486e-02
5.159032454239428911e-02
5.408590159821584364e-02
5.680189905067297568e-02
5.972396685641161163e-02
6.283469030180374726e-02
6.611396094279220481e-02
6.953941675949186496e-02
7.308694494928255625e-02
7.673123960052020964e-02
8.044640491567112139e-02
8.420659388331418194e-02
8.798667082896301228e-02
9.176288556694882359e-02
9.551354631251549043e-02
9.921967814669503671e-02
1.028656533837705583e-01
1.064397804220437865e-01
1.099348378374869761e-01
1.133485410871968996e-01
1.166839298020371923e-01
1.199496648787742592e-01
1.231602256094705555e-01
1.263359986263465073e-01
1.295032520383817276e-01
1.326939898647121474e-01
1.359456839910345993e-01
1.393008827931754845e-01
1.428066975785929615e-01
1.465141704954240065e-01
1.504775293591695262e-01
1.547533372264740525e-01
1.593995465617991658e-01
1.644744697557171120e-01
1.700356797558300603e-01
1.761388560104852896e-01
1.828365924850102187e-01
1.901771857452042025e-01
1.982034220393201207e-01
2.069513830005963173e-01
2.164492897915218095e-01
2.267164058829315709e-01
2.377620180431506691e-01
2.495845147586243651e-01
2.621705802462288570e-01
2.754945211334060007e-01
2.895177410875059976e-01
3.041883771071831610e-01
3.194411089899860667e-01
3.351971511245588342e-01
3.513644333163153388e-01
3.678379746732393651e-01
3.845004516888410051e-01
4.012229589575786459e-01
4.178659576797970066e-01
4.342804046192609846e-01
4.503090510989668505e-01
4.657878987353068490e-01
4.805477962826671390e-01
4.944161593990788472e-01
5.072187927812504826e-01
5.187817925233125793e-01
5.289335046720755606e-01
5.375065147609418004e-01
5.443396421622131998e-01
5.492799125371783386e-01
5.521844814825398462e-01
5.529224827489618299e-01
5.513767749016669217e-01
5.474455615526864216e-01
5.410438614112903499e-01
5.321048064992162097e-01
5.205807486874185486e-01
5.064441573780902317e-01
4.896882936846037038e-01
4.703276495728012652e-01
4.483981434217291229e-01
4.239570669429094663e-01
3.970827816647157782e-01
3.678741667085371758e-01
3.364498230310064564e-01
3.029470426643764980e-01
2.675205549278616424e-01
2.303410646449639831e-01
1.915936002529027848e-01
1.514756925644433483e-01
1.101954072343008240e-01
6.796925617520836738e-02
2.502001466804239932e-02
-1.842552751374684078e-02
-6.213885182797852791e-02
-1.058920038397834218e-01
-1.494598636405371217e-01
-1.926223644072980190e-01
-2.351666303931333191e-01
-2.768890071497111527e-01
-3.175969582178344575e-01
-3.571108042780024583e-01
-3.952652834635093648e-01
-4.319109139426258737e-01
-4.669151426810265737e-01
-5.001632676202830696e-01
-5.315591236246938189e-01
-5.610255260032478430e-01
-5.885044689097891357e-01
-6.139570794057119807e-01
-6.373633314001359018e-01
-6.587215271125879124e-01
-6.780475568853731039e-01
-6.953739511865862921e-01
-7.107487416733928587e-01
-7.242341504451215162e-01
-7.359051289834210863e-01
-7.458477701879081545e-01
-7.541576184541972649e-01
-7.609379037799878231e-01
-7.662977266309853874e-01
-7.703502207487796793e-01
-7.732107208204423987e-01
-7.749949615769587963e-01
-7.758173339508671607e-01
-7.757892224945830417e-01
-7.750174469055628457e-01
-7.736028283460283372e-01
-7.716388992341114417e-01
-7.692107724360014442e-01
-7.663941831861329490e-01
-7.632547143058671102e-01
-7.598472121667049217e-01
-7.562153978636494411e-01
-7.523916749080771238e-01
-7.483971318582707255e-01
-7.442417351628873856e-01
-7.399247046802929217e-01
-7.354350617120963829e-01
-7.307523367367437794e-01
-7.258474221901034529e-01
-7.206835529561561593e-01
-7.152173962681452890e-01
-7.094002309817906138e-01
-7.031791951869487134e-01
-6.964985806435942672e-01
-6.893011519624654415e-01
-6.815294687325413880e-01
-6.731271890376507860e-01
-6.640403335389900574e-01
-6.542184904181025384e-01
-6.436159427237613251e-01
-6.321927014292059166e-01
-6.199154291204073131e-01
-6.067582414816133918e-01
-5.927033759097938281e-01
-5.777417189251373708e-01
-5.618731864784151098e-01
-5.451069537433751444e-01
-5.274615334812777778e-01
-5.089647045783068924e-01
-4.896532945973642303e-01
-4.695728226437959618e-01
-4.487770106881497356e-01
-4.273271737776933588e-01
-4.052915010580739885e-01
-3.827442411150477897e-01
-3.597648064118703082e-01
-3.364368124811467076e-01
-3.128470683764903448e-01
-2.890845351188588985e-01
-2.652392693223498688e-01
-2.414013686934252390e-01
-2.176599358242349014e-01
-1.941020760790835298e-01
-1.708119443077597832e-01
-1.478698541462158400e-01
-1.253514620651859091e-01
-1.033270370739538396e-01
-8.186082516102037576e-02
-6.101051582013530122e-02
-4.082681618572243237e-02
-2.135313630008964236e-02
-2.625387203077457487e-03
1.532810822940586758e-02
3.248659392928881368e-02
4.883675250065316886e-02
6.437247576280637207e-02
7.909454092397374958e-02
9.301020083708327890e-02
1.061326977503232877e-01
1.184807110040546757e-01
1.300777501449397189e-01
1.409515051637368899e-01
1.511331661320991782e-01
1.606567244830011398e-01
1.695582682622438220e-01
1.778752832928472694e-01
1.856459717347445360e-01
1.929085987240793110e-01
1.997008771389964521e-01
2.060593993487769005e-01
2.120191238084389862e-01
2.176129230697177452e-01
2.228711985234273218e-01
2.278215657997999521e-01
2.324886132310957920e-01
2.368937346204558481e-01
2.410550360946993320e-01
2.449873153440712825e-01
2.487021104711358566e-01
2.522078144562182600e-01
2.555098500983580823e-01
2.586108994601494793e-01
2.615111809256682740e-01
2.642087664405409209e-01
2.666999308752731057e-01
2.689795251685232480e-01
2.710413648435341938e-01
2.728786253517323512e-01
2.744842357393670884e-01
2.758512627313572385e-01
2.769732774528030905e-01
2.778446978313508509e-01
2.784611002389474343e-01
2.788194947741147733e-01
2.789185595429006792e-01
2.787588300902847371e-01
2.783428412012995401e-01
2.776752193195882734e-01
2.767627248177639832e-01
2.756142443088605565e-01
2.742407343879493808e-01
2.726551187909748708e-01
2.708721420675513913e-01
2.689081835352722938e-01
2.667810361850264655e-01
2.645096555034257002e-01
2.621138838393071713e-01
2.596141561939643294e-01
2.570311938249151829e-01
2.543856918506865461e-01
2.516980070996977514e-01
2.489878525570783929e-01
2.462740042452387645e-01
2.435740261166953746e-01
2.409040182210610281e-01
2.382783927047225636e-01
2.357096815495469955e-01
2.332083794819782008e-01
2.307828245693056002e-01
2.284391183687325688e-01
2.261810866105832540e-01
2.240102807730609269e-01
2.219260199173144210e-01
2.199254715254743697e-01
2.180037693503626139e-01
2.161541656610430906e-01
2.143682145483968293e-01
2.126359825279363069e-01
2.109462821937263532e-01
2.092869243527564760e-01
2.076449836727931042e-01
2.060070728514479810e-01
2.043596202270094864e-01
2.026891456615543263e-01
2.009825297579431180e-01
1.992272715321120602e-01
1.974117301546793601e-01
1.955253465799058343e-01
1.935588414351549769e-01
1.915043859107600777e-01
1.893557429738872144e-01
1.871083770497770637e-01
1.847595305115099229e-01
1.823082662192976877e-01
1.797554760726413625e-01
1.771038558292654941e-01
1.743578472899161569e-01
1.715235495655464959e-01
1.686086014520707665e-01
1.656220376027786323e-01
1.625741215884372592e-01
1.594761591885681118e-01
1.563402956967127611e-01
1.531793011563741536e-01
1.500063475906482369e-01
1.468347823779453387e-01
1.436779019182759520e-01
1.405487296935935548e-01
1.374598024516001937e-01
1.344229683623568705e-01
1.314492004218972276e-01
1.285484282198505745e-01
1.257293906739713196e-01
1.229995119637704998e-01
1.203648025059386589e-01
1.178297860998398505e-01
1.153974541659799069e-01
1.130692473666609910e-01
1.108450642845044271e-01
1.087232965922644984e-01
1.067008895422985743e-01
1.047734261556741431e-01
1.029352332521118463e-01
1.011795068896085142e-01
9.949845474340379692e-02
9.788345249791137459e-02
9.632521124015955283e-02
9.481395272665260610e-02
9.333958930700111956e-02
9.189190514900208440e-02
9.046073568238492679e-02
8.903614221194211531e-02
8.760857864701514230e-02
8.616904774354938734e-02
8.470924428545173468e-02
8.322168309943155096e-02
8.169980997809740686e-02
8.013809404579155804e-02
7.853210033791556410e-02
7.687854189806525573e-02
7.517531087873777218e-02
7.342148868257207528e-02
7.161733553049044743e-02
6.976426007397494577e-02
6.786477012194890024e-02
6.592240583321955227e-02
6.394165686760405753e-02
6.192786550406357421e-02
5.988711761416010831e-02
5.782612382616549029e-02
5.575209310719853040e-02
5.367260115976456303e-02
5.159545606046260502e-02
4.952856352215919550e-02
4.747979411034419089e-02
4.545685466354240645e-02
4.346716592520948746e-02
4.151774846749261422e-02
3.961511850417141073e-02
3.776519511604971985e-02
3.597322024936041446e-02
3.424369230036964501e-02
3.258031417829197751e-02
3.098595626639663592e-02
2.946263440212183726e-02
2.801150281591021154e-02
2.663286177849910619e-02
2.532617912309863967e-02
2.409012508214167583e-02
2.292261926673378955e-02
2.182088863123862396e-02
2.078153507417003498e-02
1.980061113833426339e-02
1.887370229941514807e-02
1.799601413784228388e-02
1.716246279858455598e-02
1.636776697078871565e-02
1.560653986459206721e-02
1.487337952105466723e-02
1.416295593264284974e-02
1.347009372650482227e-02
1.278984901301476011e-02
1.211757930339165540e-02
1.144900566237313545e-02
1.078026618650988755e-02
1.010796031778887771e-02
9.429183511361361944e-03
8.741552144331964438e-03
8.043218531886098949e-03
7.332876219881161346e-03
6.609755927431162394e-03
5.873612553543751912e-03
5.124703884813626431e-03
4.363761727325974477e-03
3.591956382571096645e-03
2.810855248761636848e-03
2.022376696291086195e-03
1.228740232855233660e-03
4.324139367211203566e-04
-3.639396220571851403e-04
-1.157518073753229394e-03
-1.945433363167165062e-03
-2.724764470331472732e-03
-3.492607804299800375e-03
-4.246124352148042923e-03
-4.982582975593135080e-03
-5.699399262785867677e-03
-6.394169381695998487e-03
-7.064698556550638373e-03
-7.709023994378558405e-03
-8.325431998066594105e-03
-8.912469423089307632e-03
-9.468949412542188721e-03
-9.993951736860457249e-03
-1.048681798782366385e-02
-1.094714201821021457e-02
-1.137475617620001614e-02
-1.176971382497402421e-02
-1.213226874060499214e-02
-1.246285203936706165e-02
-1.276204732154539133e-02
-1.303056456726704379e-02
-1.326921360993139551e-02
-1.347887772747608653e-02
-1.366048795199171877e-02
-1.381499875047839665e-02
-1.394336551726928740e-02
-1.404652435648880149e-02
-1.412537452680744446e-02
-1.418076383379809555e-02
-1.421347724278135966e-02
-1.422422882075984919e-02
-1.421365706677516459e-02
-1.418232367375206124e-02
-1.413071554731485172e-02
-1.405924988205390670e-02
-1.396828216992880567e-02
-1.385811674020117484e-02
-1.372901948134579511e-02
-1.358123237857014956e-02
-1.341498944449616253e-02
-1.323053347343868674e-02
-1.302813329127062124e-02
-1.280810085501368420e-02
-1.257080785355470590e-02
-1.231670124732612767e-02
-1.204631742717653109e-02
-1.176029455043939818e-02
-1.145938261760010360e-02
-1.114445104061470050e-02
-1.081649354440588663e-02
-1.047663005167985030e-02
-1.012610556627337177e-02
-9.766285906851133666e-03
-9.398650312295806983e-03
-9.024781093657757713e-03
-8.646350340508252366e-03
-8.265104014871153468e-03
-7.882843576602722654e-03
-7.501405556196681645e-03
-7.122639380282648307e-03
-6.748383823325036779e-03
-6.380442661826825172e-03
-6.020559876916513342e-03
-5.670394863166538721e-03
-5.331498105742156837e-03
-5.005287922240789569e-03
-4.693028621324273411e-03
-4.395810521779908338e-03
-4.114532236214676029e-03
-3.849885664240743077e-03
-3.602343929097039793e-03
-3.372152533758454324e-03
-3.159324033207001198e-03
-2.963636296861608174e-03
-2.784634492522308769e-03
-2.621636797034588608e-03
-2.473743815203505430e-03
-2.339851628760005863e-03
-2.218668190196039502e-03
-2.108732995791291320e-03
-2.008439630604131731e-03
-1.916060868190269705e-03
-1.829776000789159942e-03
-1.747699903329406413e-03
-1.667913321546532273e-03
-1.588494016226169687e-03
-1.507548226088502351e-03
-1.423241837459359891e-03
-1.333830882369118134e-03
-1.237690781790978583e-03
-1.133343842362231164e-03
-1.019484549066298693e-03
-8.950022944940964204e-04
-7.590009828880788867e-04
-6.108153555328529535e-04
-4.500236698624542129e-04
-2.764564827917301076e-04
-9.020142443118900550e-05
1.083962578100357407e-04
3.187372789143273245e-04
5.399760220903325556e-04
7.710323377461171523e-04
1.010607254548425912e-03
1.257202250756332164e-03
1.509141917455011786e-03
1.764599682403461588e-03
2.021626068642313947e-03
2.278179082582598280e-03
2.532156372346923943e-03
2.781428510431928781e-03
3.023872906822910097e-03
3.257407790209691876e-03
3.480025723071082048e-03
3.689826113645381517e-03
3.885046139901682325e-03
4.064089663524630969e-03
4.225553549491231978e-03
4.368251011278145163e-03
4.491231584274352900e-03
4.593797345416245244e-03
4.675515134213604519e-03
4.736224516696314890e-03
4.776041356434842546e-03
4.795356914945882697e-03
4.794832403453736305e-03
4.775389084266735626e-03
4.738194126436168219e-03
4.684642281266968196e-03
4.616333729119349340e-03
4.535048376245323816e-03
4.442717039738460459e-03
4.341389890698269666e-03
4.233202748306525397e-03
4.120341629016270948e-03
4.005006238901151656e-03
3.889372812062804469e-03
3.775557063650306945e-03
3.665577734808552271e-03
3.561321348687264930e-03
3.464508779990495193e-03
3.376664143801872461e-03
3.299086498815709777e-03
3.232824899085461490e-03
3.178657142054339309e-03
3.137072653634618950e-03
3.108259736107074102e-03
3.092097510716507094e-03
3.088152596252422694e-03
3.095680719926939203e-03
3.113633227039362336e-03
3.140668359948546335e-03
3.175167297921638321e-03
3.215254673793689535e-03
3.258823251759083300e-03
3.303562432671528718e-03
3.346990158169466448e-03
3.386487790825643777e-03
3.419337361595394843e-03
3.442760750963054766e-03
3.453960021084538038e-03
3.450158455168654981e-03
3.428641642887579177e-03
3.386797864788635651e-03
3.322157272524025543e-03
3.232429224837797890e-03
3.115537144670833727e-03
2.969650421343050187e-03
2.793212822823450212e-03
2.584966975653277526e-03
2.343974513492794697e-03
2.069631564405009436e-03
1.761679378383197757e-03
1.420209828558568511e-03
1.045665765251190199e-03
6.388361725780888033e-04
2.008461685748551598e-04
-2.668579340317626426e-04
-7.625283635982668933e-04
-1.284140071244602469e-03
-1.829419034687137808e-03
-2.395874201385053692e-03
-2.980832727292000162e-03
-3.581477758171431464e-03
-4.194888314274712073e-03
-4.818080682654715501e-03
-5.448050630725157287e-03
-6.081815769207773829e-03
-6.716457520040498841e-03
-7.349161930064795033e-03
-7.977258889415222987e-03
-8.598258880712621871e-03
-9.209886968768496440e-03
-9.810113352237992759e-03
-1.039718014268927251e-02
-1.096962377612650807e-02
-1.152629304472347835e-02
-1.206636229769513478e-02
-1.258933955672105441e-02
-1.309506952740681525e-02
-1.358373151119659193e-02
-1.405583223533383649e-02
-1.451219372886433309e-02
-1.495393651929000957e-02
-1.538245828045655544e-02
-1.579940846621256598e-02
-1.620665923652492985e-02
-1.660627314862674758e-02
-1.700046812598140708e-02
-1.739158030283712367e-02
-1.778202527769057878e-02
-1.817425833427714632e-02
-1.857073438747123759e-02
-1.897386810114097891e-02
-1.938599487991545314e-02
-1.980933330669053596e-02
-2.024594954734788843e-02
-2.069772427826887390e-02
-2.116632260531850843e-02
-2.165316737718176940e-02
-2.215941628237120403e-02
-2.268594302163514861e-02
-2.323332283072794546e-02
-2.380182245573846112e-02
-2.439139475055801878e-02
-2.500167782521029586e-02
-2.563199880747123530e-02
-2.628138198665629435e-02
-2.694856123650257035e-02
-2.763199642094771660e-02
-2.832989354711146560e-02
-2.904022814038176650e-02
-2.976077161749437344e-02
-3.048911997365657406e-02
-3.122272468948156937e-02
-3.195892510750825144e-02
-3.269498165001334666e-02
-3.342810949458482200e-02
-3.415551221234743723e-02
-3.487441481568916146e-02
-3.558209572876675636e-02
-3.627591723782287725e-02
-3.695335401432119776e-02
-3.761201922613118670e-02
-3.824968799822110049e-02
-3.886431790439296569e-02
-3.945406622605363706e-02
-4.001730385219006564e-02
-4.055262558429020836e-02
-4.105885694383942103e-02
-4.153505742100426640e-02
-4.198052014525058273e-02
-4.239476821793718847e-02
-4.277754778667013091e-02
-4.312881815309466821e-02
-4.344873907178330857e-02
-4.373765561633940341e-02
-4.399608093754318189e-02
-4.422467726732248056e-02
-4.442423553904311512e-02
-4.459565395438533364e-02
-4.473991601562311154e-02
-4.485806837216703424e-02
-4.495119878268277053e-02
-4.502041466446016910e-02
-4.506682255222501515e-02
-4.509150876550674369e-02
-4.509552155587968902e-02
-4.507985510818469238e-02
-4.504543550094127630e-02
-4.499310882500971720e-02
-4.492363159076580292e-02
-4.483766350614576401e-02
-4.473576268201075179e-02
-4.461838328087563282e-02
-4.448587551825880504e-02
-4.433848801777754561e-02
-4.417637219941486504e-02
-4.399958870652739135e-02
-4.380811568775230813e-02
-4.360185856585718084e-02
-4.338066114915798549e-02
-4.314431787753605918e-02
-4.289258679847252065e-02
-4.262520310299428017e-02
-4.234189287494666276e-02
-4.204238679526901834e-02
-4.172643358761980031e-02
-4.139381289739645781e-02
-4.104434735665906525e-02
-4.067791366758338745e-02
-4.029445247548708170e-02
-3.989397699186146562e-02
-3.947657997541386549e-02
-3.904243930291710629e-02
-3.859182180959908753e-02
-3.812508549978421007e-02
-3.764268010374136747e-02
-3.714514594835810479e-02
-3.663311125593975148e-02
-3.610728800186507881e-02
-3.556846639965855622e-02
-3.501750811893470511e-02
-3.445533844265456086e-02
-3.388293746839670523e-02
-3.330133063394549731e-02
-3.271157872246815979e-02
-3.211476744155587759e-02
-3.151199688761930490e-02
-3.090437102124032193e-02
-3.029298740182853611e-02
-2.967892720163110148e-02
-2.906324582864922360e-02
-2.844696418072271277e-02
-2.783106070574378407e-02
-2.721646435819592355e-02
-2.660404851992183642e-02
-2.599462599490552292e-02
-2.538894506287582911e-02
-2.478768651532713835e-02
-2.419146187946699667e-02
-2.360081270379218998e-02
-2.301621076585512807e-02
-2.243805925909795468e-02
-2.186669481384793945e-02
-2.130239032611727298e-02
-2.074535844992739242e-02
-2.019575564440282897e-02
-1.965368667029813651e-02
-1.911920939451727114e-02
-1.859233982714103908e-02
-1.807305726621073749e-02
-1.756130950324419696e-02
-1.705701782825774782e-02
-1.656008189605517877e-02
-1.607038433206569097e-02
-1.558779498864580962e-02
-1.511217481130164471e-02
-1.464337926028360173e-02
-1.418126134692134638e-02
-1.372567412407327617e-02
-1.327647275787053813e-02
-1.283351613761377769e-02
-1.239666800326853086e-02
-1.196579771770731916e-02
-1.154078071310779031e-02
-1.112149861080827425e-02
-1.070783905312691631e-02
-1.029969536252309942e-02
-9.896966073899298236e-03
-9.499554388770616725e-03
-9.107367594259747207e-03
-8.720316449081992605e-03
-8.338314750080580429e-03
-7.961278903165615664e-03
-7.589127634751873658e-03
-7.221781907744995524e-03
-6.859164929938837800e-03
-6.501202389587988802e-03
-6.147822703866548215e-03
-5.798957571256269268e-03
-5.454542513136526917e-03
-5.114517512732715508e-03
-4.778827652919176439e-03
-4.447423748566819469e-03
-4.120262947266504355e-03
-3.797309131188114639e-03
-3.478533117677316475e-03
-3.163912681856541342e-03
-2.853432281810458146e-03
-2.547082493104463937e-03
-2.244859037267166440e-03
-1.946761495749302481e-03
-1.652791565114146693e-03
-1.362950930519335989e-03
-1.077238812842014511e-03
-7.956490639922131651e-04
-5.181669574771290750e-04
-2.447657753719977600e-04
2.459691637382020564e-05
2.899831011629779021e-04
5.514782196439540606e-04
8.091950047899992013e-04
1.063277233384051293e-03
1.313903223905821347e-03
1.561288976072057683e-03
1.805690857126487176e-03
2.047407699737817388e-03
2.286782288549128392e-03
2.524201989548992449e-03
2.760098569251564615e-03
2.994947061394103750e-03
3.229263631632862779e-03
3.463602397618833345e-03
3.698551156552681417e-03
3.934726050133536580e-03
4.172765147562028723e-03
4.413321010504647063e-03
4.657052254156680143e-03
4.904614271756656957e-03
5.156649126694625405e-03
5.413774804173742024e-03
5.676573853846986900e-03
5.945581815463200567e-03
6.221275372707524634e-03
6.504060548045068404e-03
6.794261099269290061e-03
7.092107396498376938e-03
7.397725834336574616e-03
7.711129128496744221e-03
8.032207721304581577e-03
8.360722385559302486e-03
8.696298259317445864e-03
9.038420449293311024e-03
9.386431487545811650e-03
9.739530618340560761e-03
1.009677507284700848e-02
1.045708332380304063e-02
1.081924054017126616e-02
1.118190609135687359e-02
1.154362314150757067e-02
1.190283023014499474e-02
1.225787482975044217e-02
1.260702860563524264e-02
1.294850436580919847e-02
1.328047445317363448e-02
1.360109033429617378e-02
1.390850315247181036e-02
1.420088494828921667e-02
1.447645033999900646e-02
1.473347822502679878e-02
1.497033335430719009e-02
1.518548732555480979e-02
1.537753876580485839e-02
1.554523229643995849e-02
1.568747609408968277e-02
1.580335771732835348e-02
1.589215791216415721e-02
1.595336210706024133e-02
1.598666954306766225e-02
1.599199969025110260e-02
1.596949598140370852e-02
1.591952661286895679e-02
1.584268244729356359e-02
1.573977196946961532e-02
1.561181333003988474e-02
1.546002353496050453e-02
1.528580498650127829e-02
1.509072939698918002e-02
1.487651943239887142e-02
1.464502821308989386e-02
1.439821696752404713e-02
1.413813118062661953e-02
1.386687559816145859e-02
1.358658839145349476e-02
1.329941480322280670e-02
1.300748076005148711e-02
1.271286680218666580e-02
1.241758269714950819e-02
1.212354311701803120e-02
1.183254474075053422e-02
1.154624519618707365e-02
1.126614402687206237e-02
1.099356608045361054e-02
1.072964756638146791e-02
1.047532493811502083e-02
1.023132681573036239e-02
9.998169068515444513e-03
9.776153159737109924e-03
9.565367793858978521e-03
9.365693818609275439e-03
9.176812300819611745e-03
8.998215676954532741e-03
8.829221817304909459e-03
8.668990810055980309e-03
8.516544207733789396e-03
8.370786430504798328e-03
8.230528022647013581e-03
8.094510416307111253e-03
7.961431781980030792e-03
7.829973606472501180e-03
7.698827619274995968e-03
7.566722610551658394e-03
7.432450756348595901e-03
7.294893018900234019e-03
7.153043244161756339e-03
7.006030641559021083e-03
6.853140173756682406e-03
6.693830687187081116e-03
6.527750353949318338e-03
6.354749245394945498e-03
6.174888908120561293e-03
5.988448637822034286e-03
5.795928427713560420e-03
5.598048604716692953e-03
5.395745929080636612e-03
5.190166380564903773e-03
4.982654733435880161e-03
4.774740888460428032e-03
4.568123276511413047e-03
4.364649545525360087e-03
4.166294775409755576e-03
3.975137569482391046e-03
3.793334301142779752e-03
3.623091867373894222e-03
3.466639361950279302e-03
3.326199051395115763e-03
3.203957093230225955e-03
3.102034264301781891e-03
3.022457366453799258e-03
2.967131454330061008e-03
2.937813370535443096e-03
2.936086935068080769e-03
2.963340133393996007e-03
3.020744627225029413e-03
3.109237781736945948e-03
3.229507607573540908e-03
3.381980637414379234e-03
3.566812964483562828e-03
3.783884555195691016e-03
4.032796907259591189e-03
4.312874015576945511e-03
4.623166710983461075e-03
4.962460207438028695e-03
5.329284807354757805e-03
5.721929512959982381e-03
6.138458451468973599e-03
6.576729791564767634e-03
7.034416935490829699e-03
7.509031643837562470e-03
7.997948890565508007e-03
8.498433030675081948e-03
9.007664876326327771e-03
9.522769409156006323e-03
1.004084373653407573e-02
1.055898501751412200e-02
1.107431785534169870e-02
1.158402092617022948e-02
1.208535251942330531e-02
1.257567465419487732e-02
1.305247546794754791e-02
1.351338969498031700e-02
1.395621706699577864e-02
1.437893829309366475e-02
1.477972859489207723e-02
1.515696861017863835e-02
1.550925264638148421e-02
1.583539433257652104e-02
1.613442946458304092e-02
1.640561625594308057e-02
1.664843298449411590e-02
1.686257321511955287e-02
1.704793868547944263e-02
1.720463004270051874e-02
1.733293561520067236e-02
1.743331849150427798e-02
1.750640206808143015e-02
1.755295440388500092e-02
1.757387154784730357e-02
1.757016018799139462e-02
1.754291987337655914e-02
1.749332500454271050e-02
1.742260703738999703e-02
1.733203699659808736e-02
1.722290853562324919e-02
1.709652184056737259e-02
1.695416857714266562e-02
1.679711800170054573e-02
1.662660452031464869e-02
1.644381668434685001e-02
1.624988777378557139e-02
1.604588807158564834e-02
1.583281884476200191e-02
1.561160809546847245e-02
1.538310793607186241e-02
1.514809374587356219e-02
1.490726481707312437e-02
1.466124657106936298e-02
1.441059412001214311e-02
1.415579710292735015e-02
1.389728563023635496e-02
1.363543709222700927e-02
1.337058370223152305e-02
1.310302061343043660e-02
1.283301429610919815e-02
1.256081112607508425e-02
1.228664585970346348e-02
1.201074989940968153e-02
1.173335901759324680e-02
1.145472049178208537e-02
1.117509952006514283e-02
1.089478464324263214e-02
1.061409215799353177e-02
1.033336936363787005e-02
1.005299659888957142e-02
9.773387934595248114e-03
9.494990686349411360e-03
9.218283487309781796e-03
8.943773059741070078e-03
8.671989874448263538e-03
8.403482476186614758e-03
8.138810897911505360e-03
7.878538998556063391e-03
7.623226029910360087e-03
7.373417582740305828e-03
7.129635951600506345e-03
6.892370222805097382e-03
6.662066286893624650e-03
6.439116890299480776e-03
6.223851982553864522e-03
6.016529542734453360e-03
5.817327075842509965e-03
5.626333977151959896e-03
5.443544943548727678e-03
5.268854552431331481e-03
5.102053190213343831e-03
4.942824440859958958e-03
4.790744069139403830e-03
4.645280641770324279e-03
4.505797835329027057e-03
4.371558504014996620e-03
4.241730491815669767e-03
4.115394057562896807e-03
3.991551000314621893e-03
3.869135312418852182e-03
3.747025256580121047e-03
3.624056780526433048e-03
3.499038057729020237e-03
3.370764930553367053e-03
3.238037183127457242e-03
3.099675267940235623e-03
2.954537380048280308e-03
2.801536522346727374e-03
2.639657452632155395e-03
2.467973130928084822e-03
2.285660515890192666e-03
2.092015384655275534e-03
1.886465962989796775e-03
1.668585203416428657e-03
1.438101416827696063e-03
1.194907132605246705e-03
9.390660589644855404e-04
6.708178732196652888e-04
3.905809158824203784e-04
9.895245023482267450e-05
-2.032932771992504851e-04
-5.152094334702221525e-04
-8.356831993706208576e-04
-1.163444704241381163e-03
-1.497078156668506721e-03
-1.835035118558965214e-03
-2.175649609020229632e-03
-2.517155026796741996e-03
-2.857702562807613172e-03
-3.195381051361197156e-03
-3.528237867504602481e-03
-3.854300604520763049e-03
-4.171599333612907058e-03
-4.478189066909442004e-03
-4.772172237488950253e-03
-5.051720834542013615e-03
-5.315097938493669461e-03
-5.560678320715372117e-03
-5.786967848575706730e-03
-5.992621435649674380e-03
-6.176459279735793152e-03
-6.337481335171997639e-03
-6.474879569105204159e-03
-6.588047998227951341e-03
-6.676590305391281316e-03
-6.740324993031916907e-03
-6.779287976589280090e-03
-6.793732565098611377e-03
-6.784126907462622105e-03
-6.751148821819446047e-03
-6.695678218017894583e-03
-6.618787129382468389e-03
-6.521727539562916648e-03
-6.405917181794859236e-03
-6.272923410684409784e-03
-6.124445563309848482e-03
-5.962295847485086717e-03
-5.788379180027165664e-03
-5.604672158219066967e-03
-5.413201421228716267e-03
-5.216021810285811910e-03
-5.015194560039131118e-03
-4.812765742340995197e-03
-4.610745355719594700e-03
-4.411087242440832334e-03
-4.215670118874484396e-03
-4.026279960940339249e-03
-3.844593970131147172e-03
-3.672166228566081138e-03
-3.510415255375994893e-03
-3.360613676330670430e-03
-3.223879926139499967e-03
-3.101172162073076444e-03
-2.993284395053151352e-03
-2.900844807393000626e-03
-2.824316286099750554e-03
-2.763999084020437799e-03
-2.720035416982717006e-03
-2.692415985907261732e-03
-2.680988260704559537e-03
-2.685466249924497398e-03
-2.705441645542499933e-03
-2.740396139850912512e-03
-2.789714617898047828e-03
-2.852699021181654727e-03
-2.928582684908230278e-03
-3.016544846840970087e-03
-3.115725074916150718e-03
-3.225237468482274397e-03
-3.344184329089047291e-03
-3.471669063793221283e-03
-3.606808220217274947e-03
-3.748742399176923073e-03
-3.896645934365352247e-03
-4.049735143812661052e-03
-4.207275185498967653e-03
-4.368585330846679396e-03
-4.533042628343445998e-03
-4.700083921827911612e-03
-4.869206323207339419e-03
-5.039966135101684938e-03
-5.211976195466503335e-03
-5.384901868692288339e-03
-5.558455760048590377e-03
-5.732391262430806995e-03
-5.906495126000213189e-03
-6.080579229718379754e-03
-6.254471705226242149e-03
-6.428007672484910111e-03
-6.601019725898939552e-03
-6.773328385879284590e-03
-6.944732806188892889e-03
-7.115001769738772859e-03
-7.283865386706674973e-03
-7.451007533479340507e-03
-7.616059179897048323e-03
-7.778592894857205668e-03
-7.938118572821060634e-03
-8.094080439759520490e-03
-8.245855549857978445e-03
-8.392753761497853682e-03
-8.534019258598510987e-03
-8.668833621578572388e-03
-8.796320477405361604e-03
-8.915551559994953912e-03
-9.025554293784781093e-03
-9.125320674975687454e-03
-9.213817364742265051e-03
-9.289996982630511699e-03
-9.352810276348027391e-03
-9.401219091627015592e-03
-9.434209891809932150e-03
-9.450807714881907448e-03
-9.450090348512789340e-03
-9.431202418113061176e-03
-9.393369354760464432e-03
-9.335910853763661546e-03
-9.258253718787280706e-03
-9.159943942284047916e-03
-9.040657663569267796e-03
-8.900210976619055137e-03
-8.738568436842357803e-03
-8.555850006319584006e-03
-8.352336420990797913e-03
-8.128472859274694234e-03
-7.884870784335877916e-03
-7.622307986790951943e-03
-7.341726719613626308e-03
-7.044229979974986518e-03
-6.731075889126703245e-03
-6.403670300052816122e-03
-6.063557679195447081e-03
-5.712410272784683961e-03
-5.352015770753193805e-03
-4.984263549037872519e-03
-4.611129601272027229e-03
-4.234660430593282718e-03
-3.856955964571117008e-03
-3.480151670551250281e-03
-3.106400206656433332e-03
-2.737852696051285874e-03
-2.376639815174926094e-03
-2.024852967941784612e-03
-1.684525737838207284e-03
-1.357615791734025730e-03
-1.045987422004344839e-03
-7.513948309985653794e-04
-4.754665813074569411e-04
-2.196910851162176437e-04
1.459649410193225846e-05
2.262259900217295915e-04
4.142023615361343798e-04
5.777142089122446053e-04
7.161406073060548215e-04
8.290560870992285444e-04
9.162338207681500809e-04
9.776469708569345430e-04
1.013468229424298577e-03
1.024067476261670542e-03
1.010007698719061391e-03
9.720391413899066814e-04
9.110918371985946788e-04
8.282665852021298385e-04
7.248244197293254041e-04
6.021747475749547650e-04
4.618622480796098100e-04
3.055526629768643841e-04
1.350176287858155413e-04
-4.788125569339169623e-05
-2.412090649475572750e-04
-4.429746345380872804e-04
-6.511479758976026697e-04
-8.636778644613712788e-04
-1.078509472225699147e-03
-1.293601775705429269e-03
-1.506944707696933469e-03
-1.716575864204725275e-03
-1.920596600050762225e-03
-2.117187346452198936e-03
-2.304622097297399832e-03
-2.481281900797559486e-03
-2.645667299120755059e-03
-2.796409544728263499e-03
-2.932280534406929949e-03
-3.052201367144749978e-03
-3.155249551735470406e-03
-3.240664673074569475e-03
-3.307852627444721628e-03
-3.356388299342509627e-03
-3.386016699815686676e-03
-3.396652563665124996e-03
-3.388378429426760260e-03
-3.361441254565382397e-03
-3.316247587186622273e-03
-3.253357372430991986e-03
-3.173476408391105383e-03
-3.077447593541781778e-03
-2.966240991866610308e-03
-2.840942830910760282e-03
-2.702743592075162408e-03
-2.552925280889586489e-03
-2.392848000775760035e-03
-2.223935957431836738e-03
-2.047662987595926052e-03
-1.865537863102479038e-03
-1.679089407428321695e-03
-1.489851619192239735e-03
-1.299348953756022810e-03
-1.109081877321447304e-03
-9.205128804660074604e-04
-7.350529982938737092e-04
-5.540491175425940737e-04
-3.787720342090108256e-04
-2.104055335169716654e-04
-5.003647826389862475e-05
1.013539473967458557e-04
2.428977187809878025e-04
3.738461712351387510e-04
4.935748255305699977e-04
6.015867621750647974e-04
6.975145325916650959e-04
7.811206590766947523e-04
8.522966350247903472e-04
9.110604408526679510e-04
9.575526889976159828e-04
9.920313908034317056e-04
1.014865410372435247e-03
1.026526677029041381e-03
1.027581313524236371e-03
1.018679709508784172e-03
1.000545674730503494e-03
9.739648904141971417e-04
9.397727312035486242e-04
8.988415557838380556e-04
8.520677062630550641e-04
8.003583817710419003e-04
7.446184391250353302e-04
6.857373574771395350e-04
6.245766101905275052e-04
5.619574669235448319e-04
4.986494690754507799e-04
4.353597014907401876e-04
3.727229137184475023e-04
3.112927782727235707e-04
2.515343091926665136e-04
1.938174999879499591e-04
1.384123278014152459e-04
8.548520977530466990e-05
3.509695081008279796e-05
-1.279789840717619952e-05
-5.835007018754122623e-05
-1.018131443431948089e-04
-1.435395937168189632e-04
-1.839753858716838754e-04
-2.236532223059464460e-04
-2.631844715625256473e-04
-3.032498477540746863e-04
-3.445890099324724508e-04
-3.879892178845556548e-04
-4.342731020594949097e-04
-4.842858038198954540e-04
-5.388815130559041367e-04
-5.989097269908118509e-04
-6.652012634599250218e-04
-7.385542812660539488e-04
-8.197204823166392290e-04
-9.093916045542437508e-04
-1.008186490379936419e-03
-1.116638782205317754e-03
-1.235185423166351758e-03
-1.364156214253430584e-03
-1.503764423364066342e-03
-1.654098667382933102e-03
-1.815116126741874456e-03
-1.986637212712846767e-03
-2.168341784306473344e-03
-2.359766926778492611e-03
-2.560306309808802350e-03
-2.769211240939691964e-03
-2.985593388632446898e-03
-3.208429108626723557e-03
-3.436565348620184736e-03
-3.668727103325068652e-03
-3.903526348623051912e-03
-4.139472359962356740e-03
-4.374983339616799784e-03
-4.608399216810231229e-03
-4.837995505703715331e-03
-5.061998009614970123e-03
-5.278598329393983241e-03
-5.485969977105424611e-03
-5.682284888538696732e-03
-5.865730254778702031e-03
-6.034525411476188844e-03
-6.186938740851649458e-03
-6.321304242690264398e-03
-6.436037811731093287e-03
-6.529652883423962828e-03
-6.600775407660243801e-03
-6.648157993087852428e-03
-6.670693084062289356e-03
-6.667424951822834012e-03
-6.637560551897182283e-03
-6.580478979125427286e-03
-6.495739558492407209e-03
-6.383088426176610798e-03
-6.242463569373105266e-03
-6.073998220353289158e-03
-5.878022749150524709e-03
-5.655064727443593654e-03
-5.405847461025297014e-03
-5.131286844995286943e-03
-4.832486608033469480e-03
-4.510731996951365674e-03
-4.167481927228852516e-03
-3.804359682288952979e-03
-3.423142170932820961e-03
-3.025747921480795386e-03
-2.614223860708879757e-03
-2.190731018503831295e-03
-1.757529200501948457e-03
-1.316960739041434436e-03
-8.714335864496321454e-04
-4.234037702717231258e-04
2.464268845861004227e-05
4.702081385940648354e-04
9.108018768031247167e-04
1.343958810838009714e-03
1.767258092300133532e-03
2.178341395149611254e-03
2.574930886156860145e-03
2.954846727156666165e-03
3.316023868036859380e-03
3.656528016577647276e-03
3.974570818831622485e-03
4.268523938210548943e-03
4.536931941537000398e-03
4.778523965906391995e-03
4.992223981191310118e-03
5.177159599205559924e-03
5.332669270525045024e-03
5.458307893234239962e-03
5.553850757892295729e-03
5.619295690650029200e-03
5.654863394993295440e-03
5.660995992761162603e-03
5.638353741025921642e-03
5.587809850577584933e-03
5.510443577016501705e-03
5.407531477474368346e-03
5.280536954717370002e-03
5.131098064246893999e-03
4.961013766763198302e-03
4.772228663802845910e-03
4.566816301645197120e-03
4.346961206815724149e-03
4.114939799051647515e-03
3.873100290234157434e-03
3.623841830094190041e-03
3.369592913687736828e-03
3.112789365644058788e-03
2.855852081523562510e-03
2.601164677796355493e-03
2.351051237086392888e-03
2.107754475974540041e-03
1.873414465907628345e-03
1.650048123377031344e-03
1.439529684401691075e-03
1.243572363402217686e-03
1.063711463662159835e-03
9.012889363598817561e-04
7.574398066598156008e-04
6.330804488100193715e-04
5.288989557760667747e-04
4.453476685016039710e-04
3.826379897274163585e-04
3.407375672606081430e-04
3.193699514102746849e-04
3.180166596729711546e-04
3.359217789201435927e-04
3.720989535155241478e-04
4.253408337858564556e-04
4.942308823613866635e-04
5.771573546590239544e-04
6.723295088675127363e-04
7.777957229192502490e-04
8.914634415345437353e-04
1.011120705840209098e-03
1.134459071839571606e-03
1.259097688885542615e-03
1.382608291156234770e-03
1.502540829381975983e-03
1.616449458620005742e-03
1.721918582451561174e-03
1.816588761707549305e-03
1.898182098833692743e-03
1.964526907423303891e-03
2.013581250705416027e-03
2.043455242230850840e-03
2.052431775025057113e-03
2.038985429458340520e-03
2.001799391572269687e-03
1.939780190026743146e-03
1.852070013182111150e-03
1.738056538231096170e-03
1.597380099915827805e-03
1.429938176234230723e-03
1.235887076603105986e-03
1.015640927164183915e-03
7.698677870229344872e-04
4.994830962813542018e-04
2.056404955789906759e-04
-1.102799022795520229e-04
-4.466856196460283865e-04
-8.017880870708354608e-04
-1.173621000653706382e-03
-1.560060437896949002e-03
-1.958846573438283167e-03
-2.367606624121932919e-03
-2.783878805682043264e-03
-3.205137069372109883e-03
-3.628816227690372619e-03
-4.052337253651336520e-03
-4.473132366957826428e-03
-4.888669731219686364e-03
-5.296477387913884997e-03
-5.694166220606654109e-03
-6.079451545414305338e-03
-6.450173281504116042e-03
-6.804314284338091809e-03
-7.140016832786953010e-03
-7.455596973658739669e-03
-7.749556582730968840e-03
-8.020593116767553432e-03
-8.267606936525251707e-03
-8.489706036757098742e-03
-8.686208358597242996e-03
-8.856641516285941249e-03
-9.000740087179756599e-03
-9.118440516798349132e-03
-9.209873766899811381e-03
-9.275355808086405834e-03
-9.315376129609455325e-03
-9.330584396822869109e-03
-9.321775562266374979e-03
-9.289873584696036954e-03
-9.235913979585981884e-03
-9.161025471559435321e-03
-9.066411071259113108e-03
-8.953328666797761085e-03
-8.823071626181230170e-03
-8.676949458389295045e-03
-8.516268894611930124e-03
-8.342315643119262158e-03
-8.156337034699723612e-03
-7.959525771335483613e-03
-7.753004983893433712e-03
-7.537814809627182457e-03
-7.314900617086535564e-03
-7.085103123207398858e-03
-6.849150377906744122e-03
-6.607651764159096219e-03
-6.361094070320083387e-03
-6.109839751269619153e-03
-5.854127245242920358e-03
-5.594073471722184505e-03
-5.329678354893017771e-03
-5.060831327950359587e-03
-4.787319736160514441e-03
-4.508838991499808727e-03
-4.225004404319679385e-03
-3.935364413908808492e-03
-3.639415164600862899e-03
-3.336616066316745212e-03
-3.026406235935814003e-03
-2.708221577985541612e-03
-2.381512249696432493e-03
-2.045760254504736930e-03
-1.700496938384879692e-03
-1.345320196671814360e-03
-9.799110498103559032e-04
-6.040493704750169324e-04
-2.176285977756200573e-04
1.793309058223834700e-04
5.866699148547516911e-04
1.004080154487054302e-03
1.431095892970100274e-03
1.867087555148962954e-03
2.311257525120337126e-03
2.762638219810912513e-03
3.220092442035851418e-03
3.682316102636547846e-03
4.147843422091019271e-03
4.615054537612394217e-03
5.082185459997952404e-03
5.547340367668926985e-03
6.008506126820377380e-03
6.463568990573057872e-03
6.910333127289841268e-03
7.346541002956567118e-03
7.769895322363394412e-03
8.178082350148508858e-03
8.568796310468267466e-03
8.939764499096742451e-03
9.288773023630118864e-03
9.613692749740143303e-03
9.912505107267854595e-03
1.018332745651661167e-02
1.042443767137173766e-02
1.063429762994941644e-02
1.081157528998955702e-02
1.095516492900820878e-02
1.106420537129845956e-02
1.113809581801676607e-02
1.117650902281058616e-02
1.117940157572165465e-02
1.114702103711477134e-02
1.107990982640874242e-02
1.097890557297174705e-02
1.084513788673568090e-02
1.068002157124039661e-02
1.048524614402128463e-02
1.026276170770394972e-02
1.001476130413340819e-02
9.743659766409810616e-03
9.452069394029267990e-03
9.142772564304693650e-03
8.818691620506885487e-03
8.482856323856669337e-03
8.138369198698112983e-03
7.788369271976868825e-03
7.435994566158858968e-03
7.084343924460083895e-03
6.736438554309207884e-03
6.395183843901463064e-03
6.063331999236188513e-03
5.743446009718777140e-03
5.437865497357911859e-03
5.148674979419851430e-03
4.877675039753689643e-03
4.626356885544248045e-03
4.395880680279604796e-03
4.187058123471330828e-03
4.000339599172614627e-03
3.835806268279024194e-03
3.693167262865564189e-03
3.571762036073676191e-03
3.470568157803949425e-03
3.388214439889522013e-03
3.322999395128120419e-03
3.272914882914033149e-03
3.235674661210369025e-03
3.208747489945475324e-03
3.189394596324114563e-03
3.174710921267656638e-03
3.161669517209390098e-03
3.147168756856629120e-03
3.128081412139459717e-03
3.101305156782180068e-03
3.063813666978830539e-03
3.012707518420227638e-03
2.945264209677916044e-03
2.858986419189476526e-03
2.751647774663371505e-03
2.621335456741336837e-03
2.466488786760558799e-03
2.285933237407464323e-03
2.078909169764471890e-03
1.845094798452695918e-03
1.584622909066658912e-03
1.298090925529122534e-03
9.865640424802034868e-04
6.515712784037239972e-04
2.950942831186341994e-04
-8.045099528879494724e-05
-4.722396105261770886e-04
-8.770697672109965164e-04
-1.291401313135890228e-03
-1.711400128159507820e-03
-2.132987880583833099e-03
-2.551896394366003941e-03
-2.963725954213416568e-03
-3.364006676112774822e-03
-3.748262088734070040e-03
-4.112073881538062976e-03
-4.451146994550778981e-03
-4.761373924651994029e-03
-5.038897318772835900e-03
-5.280169812094150962e-03
-5.482010296619185645e-03
-5.641655536616760336e-03
-5.756806428850418447e-03
-5.825668029849112757e-03
-5.846982710364230680e-03
-5.820055933797362545e-03
-5.744774128327535465e-03
-5.621614292562453902e-03
-5.451645257011741505e-03
-5.236520360030832988e-03
-4.978461752574813229e-03
-4.680236381417029849e-03
-4.345124162991560908e-03
-3.976878641416611328e-03
-3.579680915846430826e-03
-3.158087385328194659e-03
-2.716972214731990659e-03
-2.261465302381796081e-03
-1.796886860419173769e-03
-1.328679599688085142e-03
-8.623395936557601282e-04
-4.033468340434098135e-04
4.290332818166387748e-05
4.711667814176002987e-04
8.764142790476770568e-04
1.253891067240576855e-03
1.599171676232541460e-03
1.908208968074940953e-03
2.177376789545367852e-03
2.403505497420340385e-03
2.583910022470250079e-03
2.716410003686780747e-03
2.799341880210587472e-03
2.831562965370245689e-03
2.812447407384169838e-03
2.741874471808402724e-03
2.620209348525237830e-03
2.448277157751249135e-03
2.227330783142886933e-03
1.959013195357983163e-03
1.645315234923477865e-03
1.288529640493641694e-03
8.912024446748130404e-04
4.560827271970603961e-04
-1.392828296841466176e-05
-5.158275673598593496e-04
-1.046559327737703370e-03
-1.603061472373771418e-03
-2.182308772358889076e-03
-2.781351788449159743e-03
-3.397350861659770814e-03
-4.027604664314897095e-03
-4.669572631601673178e-03
-5.320891084951333630e-03
-5.979382851089854942e-03
-6.643060173933666192e-03
-7.310121286734453175e-03
-7.978940760765173418e-03
-8.648054056908507925e-03
-9.316136869855287661e-03
-9.981980007811313768e-03
-1.064446052809803894e-02
-1.130250999418357973e-02
-1.195508101073811981e-02
-1.260111294333915270e-02
-1.323949789338504761e-02
-1.386904803082155725e-02
-1.448846536546140318e-02
-1.509631496075014567e-02
-1.569100258636954223e-02
-1.627075763008756920e-02
-1.683362203219921846e-02
-1.737744596536570235e-02
-1.789989063653920492e-02
-1.839843858517205624e-02
-1.887041163499672200e-02
-1.931299644169454446e-02
-1.972327740469674226e-02
-2.009827655229982912e-02
-2.043499984364079494e-02
-2.073048898361523618e-02
-2.098187800064060110e-02
-2.118645339391620266e-02
-2.134171659841168148e-02
-2.144544760247394863e-02
-2.149576815883474240e-02
-2.149120327800106353e-02
-2.143073932820722949e-02
-2.131387745945413983e-02
-2.114068084359596589e-02
-2.091181441609276520e-02
-2.062857580449714567e-02
-2.029291629236399525e-02
-1.990745102093770605e-02
-1.947545747523327792e-02
-1.900086179174294287e-02
-1.848821257230566159e-02
-1.794264198973718333e-02
-1.736981447079654489e-02
-1.677586336041783643e-02
-1.616731621885309639e-02
-1.555100973610563757e-02
-1.493399541456922122e-02
-1.432343742512817882e-02
-1.372650432097186068e-02
-1.315025627476478290e-02
-1.260152987643738468e-02
-1.208682261459751578e-02
-1.161217902327480074e-02
-1.118308085127561746e-02
-1.080434334144295648e-02
-1.048001974709271596e-02
-1.021331615718373831e-02
-1.000651850470179148e-02
-9.860933507937836434e-03
-9.776845060297129422e-03
-9.753487439108315601e-03
-9.789036086565705216e-03
-9.880616907258308462e-03
-1.002433419929924137e-02
-1.021531727766661519e-02
-1.044778553892748707e-02
-1.071513113307809989e-02
-1.101001822283608801e-02
-1.132449736364656012e-02
-1.165013323247972646e-02
-1.197814374558728301e-02
-1.229954815790380157e-02
-1.260532162545172953e-02
-1.288655354867735726e-02
-1.313460665147388358e-02
-1.334127408205130517e-02
-1.349893131416630282e-02
-1.360067998583877613e-02
-1.364048078870093786e-02
-1.361327264560060167e-02
-1.351507560983857686e-02
-1.334307526364184211e-02
-1.309568654073328849e-02
-1.277259543903394405e-02
-1.237477726065118813e-02
-1.190449065389859347e-02
-1.136524697222069183e-02
-1.076175514784144527e-02
-1.009984259838693672e-02
-9.386353194004250222e-03
-8.629023808688260008e-03
-7.836341472058732521e-03
-7.017383372587338887e-03
-6.181642625463249115e-03
-5.338842794945059325e-03
-4.498744593983103855e-03
-3.670948413704514489e-03
-2.864696424486734734e-03
-2.088678145827519827e-03
-1.350843228679527146e-03
-6.582255016018776763e-04
-1.678190588521216763e-05
5.687502424523198591e-04
1.094974504061116925e-03
1.559932040147036071e-03
1.963171605235055316e-03
2.305790610734409496e-03
2.590445967559903105e-03
2.821333816916944334e-03
3.004137765924514390e-03
3.145945998588128671e-03
3.255138211856158786e-03
3.341243898433681435e-03
3.414774107454993882e-03
3.487029555686660745e-03
3.569888155657613762e-03
3.675575802937211881e-03
3.816424545362389915e-03
4.004622626120471658e-03
4.251961196733575893e-03
4.569582640533849036e-03
4.967735504604454608e-03
5.455541152215751671e-03
6.040776972601164842e-03
6.729680890030049698e-03
7.526781590573422380e-03
8.434758433950546169e-03
9.454334628876346833e-03
1.058420662736004290e-02
1.182101207234167312e-02
1.315933784305344315e-02
1.459176920392502540e-02
1.610898006509052863e-02
1.769986374382251718e-02
1.935170258445058356e-02
2.105037423500362784e-02
2.278059146808546556e-02
2.452617173064625469e-02
2.627033193468883074e-02
2.799600335864043180e-02
2.968616105519959053e-02
3.132416178983106481e-02
3.289408405036527844e-02
3.438106363628636725e-02
3.577161818131445459e-02
3.705395384342043824e-02
3.821824807722899731e-02
3.925690216585520087e-02
4.016475778555552573e-02
4.093927259000383623e-02
4.158065032636865110e-02
4.209192177214735736e-02
4.247897369857842748e-02
4.275052395030121133e-02
4.291804178485642690e-02
4.299561358119977084e-02
4.299975524079336503e-02
4.294917353674845145e-02
4.286447973668443961e-02
4.276785989740284483e-02
4.268270723131622341e-02
4.263322267797192699e-02
4.264399086963092944e-02
4.273953901532243776e-02
4.294388705716175453e-02
4.328009775395125908e-02
4.376983554779323438e-02
4.443294325331603040e-02
4.528704542256521692e-02
4.634718713730198031e-02
4.762551632839591431e-02
4.913101733488795669e-02
5.086930244694395226e-02
5.284246745922668159e-02
5.504901607711604888e-02
5.748385689999395420e-02
6.013837538084688961e-02
6.300058175023286189e-02
6.605533448044556555e-02
6.928463751359420497e-02
7.266800780318909136e-02
7.618290841067461294e-02
7.980524082960852028e-02
8.350988896618248558e-02
8.727130583243854212e-02
9.106413311739884608e-02
9.486384256514797386e-02
9.864738724855250107e-02
1.023938504655712289e-01
1.060850794375799294e-01
1.097062906512080716e-01
1.132466339071117184e-01
1.166997023371256076e-01
1.200639761734960537e-01
1.233431886535569233e-01
1.265466036947349437e-01
1.296891958883727991e-01
1.327917248934197270e-01
1.358806979679089144e-01
1.389882158382535204e-01
1.421516992290274284e-01
1.454134953467143276e-01
1.488203655709370576e-01
1.524228576624588050e-01
1.562745681786182617e-01
1.604313026332738201e-01
1.649501429891531701e-01
1.698884340775276280e-01
1.753027022699044646e-01
1.812475214201832441e-01
1.877743423789477450e-01
1.949303037607961198e-01
2.027570423522928600e-01
2.112895224461083521e-01
2.205549036129229312e-01
2.305714664027621874e-01
2.413476154596247703e-01
2.528809786770286339e-01
2.651576203554850131e-01
2.781513849008115380e-01
2.918233863214012014e-01
3.061216568350580980e-01
3.209809658761823004e-01
3.363228186382265505e-01
3.520556406760434465e-01
3.680751524797551966e-01
3.842649353782677801e-01
4.004971869200759094e-01
4.166336614219883216e-01
4.325267881655489033e-01
4.480209571108846878e-01
4.629539591701313239e-01
4.771585655355790601e-01
4.904642282295322842e-01
5.026988816958326556e-01
5.136908235370829523e-01
5.232706508184501448e-01
5.312732269557838283e-01
5.375396534584021557e-01
5.419192201475708792e-01
5.442713072749068015e-01
5.444672131878947052e-01
5.423918818221251659e-01
5.379455052809040128e-01
5.310449780698246469e-01
5.216251814104296836e-01
5.096400781059793328e-01
4.950636006930950184e-01
4.778903185527228481e-01
4.581358722145287277e-01
4.358371666089048135e-01
4.110523177911147852e-01
3.838603515798383881e-01
3.543606554869251357e-01
3.226721890832515149e-01
2.889324611305160162e-01
2.532962852790880959e-01
2.159343289381721875e-01
1.770314732331871310e-01
1.367850042959878332e-01
9.540265894310165362e-02
5.310054942977393555e-02
1.010099407843250731e-02
-3.336971839713791244e-02
-7.708360177946685377e-02
-1.208132532551305927e-01
-1.643341125848593043e-01
-2.074266704505909054e-01
-2.498785975306675455e-01
-2.914867670617596884e-01
-3.320591452088659246e-01
-3.714165254599426924e-01
-4.093940856073631229e-01
-4.458427485153459435e-01
-4.806303304485211592e-01
-5.136424642409068708e-01
-5.447832874893068222e-01
-5.739758895758237944e-01
-6.011625145199150921e-01
-6.263045204533042032e-01
-6.493820997103374459e-01
-6.703937669530082299e-01
-6.893556259889390692e-01
-7.063004291244612265e-01
-7.212764455012539155e-01
-7.343461574293580485e-01
-7.455848061475366384e-01
-7.550788101964795995e-01
-7.629240812075782641e-01
-7.692242628805140425e-01
-7.740889200578342511e-01
-7.776317047308003438e-01
-7.799685259292001849e-01
-7.812157500644136832e-01
-7.814884571997912088e-01
-7.808987776990703455e-01
-7.795543319148939831e-01
-7.775567938378673549e-01
-7.750005973035155593e-01
-7.719718008467786330e-01
-7.685471247280781792e-01
-7.647931706626269754e-01
-7.607658319561202420e-01
-7.565098985380328545e-01
-7.520588585366326795e-01
-7.474348947443267832e-01
-7.426490715055549252e-01
-7.377017045383559291e-01
-7.325829037810134281e-01
-7.272732765436452640e-01
-7.217447760881627872e-01
-7.159616789418687954e-01
-7.098816722720224792e-01
-7.034570314793852086e-01
-6.966358670533100428e-01
-6.893634189694773928e-01
-6.815833767693789680e-01
-6.732392033666839692e-01
-6.642754408999809179e-01
-6.546389777835865953e-01
-6.442802572009784789e-01
-6.331544083818583246e-01
-6.212222838723908680e-01
-6.084513875821937479e-01
-5.948166805680945579e-01
-5.803012538128292652e-01
-5.648968593703127539e-01
-5.486042940236290910e-01
-5.314336317049168645e-01
-5.134043036660457249e-01
-4.945450279163595697e-01
-4.748935916112185796e-01
-4.544964925163685332e-01
-4.334084477967041216e-01
-4.116917803006007737e-01
-3.894156943412146465e-01
-3.666554543542792644e-01
-3.434914813114592902e-01
-3.200083826213426796e-01
-2.962939319350801348e-01
-2.724380159758045261e-01
-2.485315652927796437e-01
-2.246654860852042579e-01
-2.009296096338464011e-01
-1.774116752065714731e-01
-1.541963615579811375e-01
-1.313643807741779190e-01
-1.089916471828605432e-01
-8.714853223179749864e-02
-6.589921473276895425e-02
-4.530113411426722747e-02
-2.540455244436215163e-02
-6.252229083023360529e-03
1.212079024676842968e-02
2.968726977991260549e-02
4.642776729962323073e-02
6.233050876829736991e-02
7.739115912530881991e-02
9.161249611884385302e-02
1.050039954405838777e-01
1.175813366764082435e-01
1.293658403800353462e-01
1.403838477027444798e-01
1.506660543814998809e-01
1.602468113230955671e-01
1.691634043742326343e-01
1.774553255909414595e-01
1.851635481387624571e-01
1.923298165380547819e-01
1.989959633050867593e-01
2.052032621847501848e-01
2.109918273051936688e-01
2.164000663393016444e-01
2.214641947444341563e-01
2.262178166398013113e-01
2.306915766382931221e-01
2.349128857224332401e-01
2.389057224993926254e-01
2.426905101914459129e-01
2.462840680217517064e-01
2.496996346787487275e-01
2.529469601014802116e-01
2.560324609948519958e-01
2.589594341813851175e-01
2.617283214381489476e-01
2.643370183497918413e-01
2.667812196494784294e-01
2.690547926927899791e-01
2.711501706698456471e-01
2.730587572410737573e-01
2.747713341083737326e-01
2.762784633509841048e-01
2.775708769470551229e-01
2.786398460194722260e-01
2.794775233892053956e-01
2.800772534713160677e-01
2.804338445636390675e-01
2.805437992554628557e-01
2.804054997944502303e-01
2.800193461216405333e-01
2.793878453490598046e-01
2.785156524123756916e-01
2.774095624449529618e-01
2.760784565660994727e-01
2.745332034800889165e-01
2.727865199824394127e-01
2.708527945026523165e-01
2.687478780226389419e-01
2.664888474539564012e-01
2.640937468082283912e-01
2.615813119756661420e-01
2.589706848857611932e-01
2.562811229134787649e-01
2.535317093842854308e-01
2.507410707447625953e-01
2.479271059430417368e-01
2.451067328416522695e-01
2.422956561951219723e-01
2.395081612230713086e-01
2.367569361651123971e-01
2.340529265539403880e-01
2.314052232251222196e-01
2.288209855403028625e-01
2.263054003126337144e-01
2.238616764773796453e-01
2.214910747673900782e-01
2.191929710026727929e-01
2.169649509900214157e-01
2.148029345350977726e-01
2.127013253788585523e-01
2.106531837816722763e-01
2.086504179298528938e-01
2.066839901212416120e-01
2.047441334139684099e-01
2.028205744857034531e-01
2.009027585455198106e-01
1.989800718624303300e-01
1.970420579224082813e-01
1.950786234085249704e-01
1.930802304346358189e-01
1.910380719665041305e-01
1.889442275208128574e-01
1.867917969787432630e-01
1.845750106542024538e-01
1.822893142997666638e-01
1.799314282355930494e-01
1.774993804797171948e-01
1.749925139656204054e-01
1.724114686164507360e-01
1.697581395899899481e-01
1.670356131809844769e-01
1.642480824674619477e-01
1.614007450489043649e-01
1.584996854204720473e-01
1.555517449016547982e-01
1.525643820437632137e-01
1.495455266150698126e-01
1.465034302815863554e-01
1.434465169994355860e-01
1.403832362370266984e-01
1.373219216691507483e-01
1.342706580145466289e-01
1.312371584881419362e-01
1.282286547742043648e-01
1.252518014293821091e-01
1.223125960033814436e-01
1.194163159249621298e-01
1.165674728863742848e-01
1.137697848865390216e-01
1.110261658993819123e-01
1.083387326576680798e-01
1.057088277727744469e-01
1.031370580580266011e-01
1.006233465913336511e-01
9.816699690763167063e-02
9.576676744720757917e-02
9.342095415981292728e-02
9.112747920677431723e-02
8.888398351025679489e-02
8.668792090704836861e-02
8.453665176352898047e-02
8.242753378516026741e-02
8.035800819399627204e-02
7.832567926490516252e-02
7.632838566408532699e-02
7.436426207999918825e-02
7.243179010488216829e-02
7.052983723791544923e-02
6.865768349056176889e-02
6.681503526374479862e-02
6.500202642743339865e-02
6.321920686430330949e-02
6.146751891056276978e-02
5.974826257720187300e-02
5.806305050551589103e-02
5.641375383177883729e-02
5.480244048011615604e-02
5.323130739563010361e-02
5.170260834837658859e-02
5.021857913985533495e-02
4.878136188627602010e-02
4.739293020859049882e-02
4.605501719727028709e-02
4.476904769273059442e-02
4.353607648521767154e-02
4.235673383932828800e-02
4.123117955145317454e-02
4.015906670866458555e-02
3.913951598004807714e-02
3.817110096228909510e-02
3.725184500315510683e-02
3.637922966170571704e-02
3.555021462870144172e-02
3.476126883274402446e-02
3.400841209579345825e-02
3.328726647661031657e-02
3.259311639132769084e-02
3.192097630582932388e-02
3.126566470118104235e-02
3.062188280322656816e-02
2.998429651846470229e-02
2.934762005438322496e-02
2.870669954088158823e-02
2.805659509644826966e-02
2.739265968990214212e-02
2.671061327552139847e-02
2.600661086925232929e-02
2.527730322435940702e-02
2.451988894543909170e-02
2.373215720027404066e-02
2.291252014340541127e-02
2.206003450090415763e-02
2.117441207425930713e-02
2.025601887901162107e-02
1.930586313039999932e-02
1.832557229700314608e-02
1.731735975420817947e-02
1.628398177614943584e-02
1.522868568631504521e-02
1.415515028766577317e-02
1.306741967368785055e-02
1.196983179654062361e-02
1.086694310622420695e-02
9.763450750823984489e-03
8.664113797789663521e-03
7.573674982015365584e-03
6.496784415428590205e-03
5.437926622340241017e-03
4.401352238129018109e-03
3.391015590419766291e-03
2.410519235359443596e-03
1.463066423912400471e-03
5.514221616812921408e-04
-3.221164372737981749e-04
-1.155740177107291876e-03
-1.948137948767479687e-03
-2.698497001617725707e-03
-3.406493554880645359e-03
-4.072274087803428450e-03
-4.696427878984902639e-03
-5.279951428557042893e-03
-5.824205687526860797e-03
-6.330867176607711533e-03
-6.801873971986668183e-03
-7.239367773588804150e-03
-7.645633377819340687e-03
-8.023036833190579781e-03
-8.373963548807003207e-03
-8.700757699876455337e-03
-9.005664210329968750e-03
-9.290774441160084066e-03
-9.557976791336218053e-03
-9.808913115117669571e-03
-1.004494197601689918e-02
-1.026710929556098016e-02
-1.047612714741273654e-02
-1.067236094517591202e-02
-1.085582543754193795e-02
-1.102618945969717663e-02
-1.118278931661322896e-02
-1.132465063696860320e-02
-1.145051801739934566e-02
-1.155889203953431969e-02
-1.164807279579970802e-02
-1.171620899526288999e-02
-1.176135180336435743e-02
-1.178151202584624968e-02
-1.177471966531695377e-02
-1.173908460765634744e-02
-1.167285705822579400e-02
-1.157448665113004413e-02
-1.144267878074872909e-02
-1.127644711641787034e-02
-1.107516108609893184e-02
-1.083858732914891841e-02
-1.056692427967007367e-02
-1.026082884990924156e-02
-9.921434789410531543e-03
-9.550362073257653156e-03
-9.149717000249062843e-03
-8.722082960410123750e-03
-8.270501687085618850e-03
-7.798445253616240191e-03
-7.309779209103809544e-03
-6.808717349931363121e-03
-6.299768763239773327e-03
-5.787677997187645577e-03
-5.277359406436786700e-03
-4.773826555309873716e-03
-4.282117964440320355e-03
-3.807220473618303479e-03
-3.353991474878306126e-03
-2.927081329987913511e-03
-2.530857373027677396e-03
-2.169330773474319879e-03
-1.846087558288888588e-03
-1.564225080046773497e-03
-1.326294967357486213e-03
-1.134253738357599668e-03
-9.894218984675331053e-04
-8.924523303296337225e-04
-8.433086476322229933e-04
-8.412539926657624460e-04
-8.848505627763390531e-04
-9.719699693257384272e-04
-1.099814488539721221e-03
-1.264948814932722329e-03
-1.463342062623928467e-03
-1.690419420792881305e-03
-1.941122622011807282e-03
-2.209978482770226169e-03
-2.491174400698443255e-03
-2.778639834319523039e-03
-3.066132336368732839e-03
-3.347326970835388937e-03
-3.615907673178543093e-03
-3.865659190763144452e-03
-4.090558241501587172e-03
-4.284862325129750772e-03
-4.443194990166286773e-03
-4.560626107393092599e-03
-4.632745927918198621e-03
-4.655731895592000492e-03
-4.626407024273655050e-03
-4.542289012527526461e-03
-4.401629291511637530e-03
-4.203441432840521706e-03
-3.947518483282140556e-03
-3.634438937006333453e-03
-3.265561240290762272e-03
-2.843006981363109618e-03
-2.369632992564492825e-03
