-7.665343594961452310e-03
-8.262970547205102101e-03
-4.050875238731541268e-03
-1.058040308254519648e-04
3.706123550653047001e-03
6.765361680735318059e-03
6.769810363071873151e-03
5.978430811121630654e-03
4.334730150618362580e-03
9.858405624475089033e-04
-1.143110916019164083e-03
-3.130951250774068918e-03
-3.649016848724691807e-03
-2.160748776237581253e-03
7.792135862933942132e-04
3.531966758425037281e-03
3.534442913741063768e-03
1.427208570908781960e-03
-1.989161753970477772e-03
-3.915066307692793152e-03
-1.833442660563774701e-03
3.926443387688379502e-04
-3.042955727828567888e-04
-2.074460906403571749e-03
-2.423816356431384919e-03
-2.947452229476479630e-03
-2.468782261858350636e-03
-2.388108549887527337e-03
-1.199383059650975178e-03
-7.575298774186720648e-04
8.815530886182303561e-04
5.024970581937520005e-03
8.213823544013907144e-03
6.794716240653769605e-03
4.089212423354288313e-03
1.698640030700009117e-03
2.715226298717543160e-03
1.967175279478412028e-03
-2.218455280446310525e-03
-4.033273545442135448e-03
-3.752603334274674102e-03
-3.144048413004621803e-03
-3.625539949264004747e-03
-5.495566262250396218e-03
-6.252767645317195734e-03
-6.397670569475648328e-03
-7.152596946345485263e-03
-5.287221803745526666e-03
-1.375583407071721267e-03
7.661449797437039008e-03
1.571975208595789708e-02
1.787162768064402135e-02
1.432193810786313269e-02
6.436474646105824413e-03
1.019024121824594161e-04
-4.335449637388143901e-03
-1.052942864268502712e-02
-1.452095863254332549e-02
-1.204635693351105603e-02
-7.221684668345539418e-03
-2.310327560595180560e-03
3.502257688957788329e-03
7.395353554447876843e-03
7.793854541509530158e-03
6.501418217945574909e-03
4.577655440753588927e-03
1.115426459319675484e-03
-2.029812409908375234e-03
-6.191054965552541221e-03
-8.260434542684495091e-03
-4.352198418156516188e-03
1.650107754333088013e-03
2.820000306391888881e-03
2.763161364961218020e-03
2.336268116728712919e-03
9.853702307243443405e-05
-2.963979839990684914e-03
-3.443727980409748771e-03
-1.314543270495315214e-03
-5.455774558047872492e-04
3.568915784497214672e-04
4.076573384894321278e-03
8.233125904004530080e-03
1.072795037508396387e-02
1.051597715484513251e-02
4.566409261703109276e-03
-3.119096431172170905e-03
-6.372209964596516583e-03
-6.607121307438946350e-03
-7.924373979427454251e-03
-1.130465229262790985e-02
-1.430318298403974661e-02
-1.624602735258251149e-02
-1.428019117526116953e-02
-9.808036930663795172e-03
-2.568327935086887285e-03
1.024450089600116229e-02
2.814895974758710104e-02
4.109434887741564985e-02
4.058567097764616272e-02
2.716225211258658720e-02
6.144291031953047488e-03
-1.248522519997012636e-02
-2.471638050246010784e-02
-3.047941768763614417e-02
-3.192054263272917081e-02
-2.833109005107130318e-02
-2.162038366705274287e-02
-1.066704910900002565e-02
2.868746503708576728e-03
1.497535458582666817e-02
2.077888440843920353e-02
1.801291689579520225e-02
1.491574067786988894e-02
1.631463976098982901e-02
1.582394301320157182e-02
8.806702859055999533e-03
-4.505167637474034631e-04
-8.642972287910558743e-03
-1.174958338378734313e-02
-1.218166117987237382e-02
-1.235174935981406610e-02
-1.084000758613247635e-02
-5.890542919558931084e-03
-5.930133090553504124e-04
6.264751055753607720e-04
-6.639698590481706096e-05
2.767235630251877105e-04
3.237191301464995702e-03
7.184059677574818753e-03
8.176361619301124317e-03
4.377532928380831363e-03
1.999594671922400035e-03
1.415537861082980008e-03
1.281908325002308708e-03
3.123727372317658662e-03
4.479311310902738159e-03
3.034588970211275858e-03
-3.405876625240263531e-06
-2.940945249337854547e-03
-4.038830677606573480e-03
-6.076067271754187829e-03
-8.558260768001341168e-03
-1.030787739389135010e-02
-1.175632556593634095e-02
-1.205552274744572244e-02
-8.027639853847946816e-03
-1.396841651469776628e-04
1.219962408947311214e-02
2.344089354219837384e-02
2.248052060978256508e-02
1.263265626807331607e-02
6.433412788684705549e-03
5.043782059057179412e-03
-1.128435793165204854e-03
-1.013206305155647455e-02
-1.501090751566287393e-02
-1.201970827308418768e-02
-7.163794060895550125e-03
-3.059431982647829035e-03
-3.042493296994875154e-03
-5.212576540680981772e-03
-4.417547786949247920e-03
1.789765491436367964e-03
9.175063988603630177e-03
1.108408039256610078e-02
7.892171636102753712e-03
5.316690780779198891e-03
2.356095087852807385e-03
-2.457424147619343552e-03
-5.718306281562817589e-03
-6.928933046954087287e-03
-5.599265050485427442e-03
-2.466767206330725427e-03
2.181870704856541873e-03
3.168936229868260079e-03
1.410096274794179821e-03
-8.179274266929678280e-04
-9.472190822883452040e-04
1.286365992157562088e-03
1.859682711891175438e-03
3.907876957953813728e-03
6.283371665767055469e-03
5.086518702929129776e-03
-7.196337091660842406e-05
-5.453229890286482098e-03
-7.455154153101006126e-03
-7.946183535167881257e-03
-5.868250577312842699e-03
-4.390500900287836014e-04
4.116948145267081832e-03
5.736879069361711103e-03
4.819720369266136326e-03
2.236887171948123178e-03
-9.788683627060003594e-04
-4.096994838528839750e-03
-5.016312589528442757e-03
-2.254333240977599712e-03
1.640938522565126522e-04
1.093235189952216626e-03
2.260932349849655108e-03
1.244941920275510804e-03
1.082923998709553600e-03
3.710267314261571359e-03
7.062627530879535785e-03
5.690855443501338824e-03
2.059944877503596013e-03
-2.138540431639873556e-03
-3.838617423546585722e-03
-3.317985351087865235e-03
-2.813458220192947661e-03
-3.002304957713990054e-03
-4.827369343841458535e-03
-6.901104353448808335e-03
-7.949384550604567459e-03
-7.886412251564752299e-03
-4.163279534008619207e-03
5.166843195133623626e-03
1.563593436839997436e-02
1.863672756900322178e-02
1.453555166069452065e-02
8.853142810254451683e-03
1.432298671941513316e-03
-6.689056335257782121e-03
-1.403084362253650443e-02
-1.804974644333800365e-02
-1.574074965564782255e-02
-1.004105893827582016e-02
-3.879463702170722270e-03
2.260041886148292725e-03
9.261973661177681783e-03
1.616619278896764406e-02
2.061905059198733056e-02
1.978708017884960729e-02
1.005647149952519984e-02
-2.732068922538029299e-03
-9.064609327409151388e-03
-9.161719532397746141e-03
-9.601996263265053649e-03
-1.384606477706734791e-02
-1.642971768430249654e-02
-1.623973329484522041e-02
-1.606702080114342721e-02
-1.164115372338393392e-02
-8.146962799937174007e-04
1.457174328007641330e-02
3.124905213470602003e-02
3.838633512231303530e-02
2.977773878865062895e-02
1.161722693586521998e-02
-4.818752713186120334e-03
-1.642702418349187635e-02
-2.092536807290802658e-02
-1.865172409663891015e-02
-1.512745406880824581e-02
-1.019782149176016312e-02
-1.980713874088872728e-03
4.599141434938572304e-03
5.137956230495867999e-03
4.295801475675499990e-03
4.804640658556812161e-03
6.697945957530456254e-03
7.455509829969983286e-03
3.522210113417153718e-03
-1.000478263162546183e-03
-4.430270516618496288e-03
-6.287922499124951915e-03
-6.844426768450320546e-03
-5.601302807587792490e-03
-4.502809953140005268e-03
-1.994575213231722377e-03
2.845858993418912391e-03
5.720675379327719128e-03
7.783572520077249382e-03
1.029268353208623657e-02
9.877984157061696358e-03
6.020647826988138190e-03
-3.127261120607521577e-04
-5.285088551469268106e-03
-7.362457706328619060e-03
-5.925329558703426418e-03
-4.916622859416532564e-03
-6.269032787903999759e-03
-5.167390182835264294e-03
-1.337273539964471290e-03
-2.673509820945517532e-04
-1.465783993443216162e-03
3.102595796691471133e-04
2.836778925801246732e-03
5.414132184989069521e-03
5.346632903110887756e-03
2.053354900871994480e-03
4.187599885799648983e-04
1.787062211930778117e-03
4.268044816013040477e-03
4.267118508545770031e-03
3.054028694686840902e-03
1.890176849472673766e-03
-8.585575825170844002e-04
-4.215970516548096271e-03
-6.719806274526232519e-03
-5.496506383824551964e-03
-6.173319871796032962e-03
-1.021207754557050540e-02
-1.018275009082560308e-02
-3.505262257517858041e-03
4.943309587808379126e-03
1.135772690205268630e-02
1.253031344040888076e-02
9.498301904747499802e-03
6.006935119997820413e-03
3.010265845281415859e-03
-1.176991883985895179e-03
-3.856383675604356000e-03
-5.109657269650138244e-03
-4.737063734462357810e-03
-3.162068178643810332e-03
-1.725956861497093776e-03
-8.472111761460095116e-04
1.817752801574759646e-03
4.820079044012908452e-03
3.076505943826794709e-03
3.858066753406707411e-04
2.765074341395461449e-04
-9.513780911272230474e-05
-4.605060150302708877e-03
-8.093646533394154713e-03
-9.036775864895315452e-03
-7.571970263872232140e-03
-6.427221388093790934e-03
-2.392193028218385885e-03
9.086596300200869974e-03
1.878265650031182496e-02
1.603527133085212372e-02
4.304905688652539003e-03
-1.117287525303938813e-03
9.562933957630592469e-04
2.657633928774220684e-03
4.934001616723219727e-03
5.362984763997164471e-03
-1.670758209725694979e-03
-1.259175105396869061e-02
-1.629045373550478890e-02
-1.211177659957129830e-02
-6.793396617246217836e-03
-5.003559375490376077e-03
-2.786383014981969573e-03
1.590385528125094370e-03
2.732822331861864146e-03
4.729678162703059539e-03
8.158138195518740629e-03
9.145392458961844676e-03
7.436378892974137775e-03
3.938062748554859577e-03
7.111734788126588495e-04
-4.050545197412136239e-04
3.800241034886785835e-04
1.580512521482522158e-03
2.125687658674264673e-03
1.376277428378312609e-03
3.632676157135449990e-04
-1.397829681408574920e-03
-3.753062999417366291e-03
-6.199990274134898650e-03
-6.655702694072535008e-03
-6.943984271040033567e-03
-9.438593977550239003e-03
-1.020367087242923451e-02
-6.483808227667800170e-03
7.292744060835897664e-05
4.460840621334186996e-03
1.309428810831720497e-02
2.120321289568288456e-02
1.815707584729421911e-02
5.155545929547240488e-03
-7.061481364730700164e-03
-1.041389276491511834e-02
-5.113190987649932420e-03
4.018601242696965073e-03
1.214888349713139255e-02
1.140694298262778968e-02
2.658127879547193904e-03
-4.929827491063683113e-03
-1.003994291998074224e-02
-1.644381838949672200e-02
-2.200816049719636625e-02
-2.373395074867682558e-02
-1.990881520962915416e-02
-1.333979881414508809e-02
-2.694600723532347870e-03
1.333341862869289601e-02
3.292753323998725418e-02
4.668235993379495075e-02
4.261108550655919036e-02
2.368185460672766682e-02
2.027336256801980097e-03
-1.583046302367109234e-02
-2.482085964600630468e-02
-2.387170666359272539e-02
-1.937164022745276049e-02
-1.429452906325333686e-02
-8.930309980700865125e-03
-4.679539007335562634e-03
7.424027355323551812e-05
4.009933930278397965e-03
5.602397664381726129e-03
3.407522116897550302e-03
1.378240022318531982e-03
5.980688555243549118e-04
1.848267619946461363e-03
4.056704452864981145e-03
5.038599191851154263e-03
3.309703019542611230e-03
2.651397075038304345e-03
3.406672644211013005e-03
6.142081101785135631e-03
7.228825368794048606e-03
5.416043285734039453e-03
1.237446487969474408e-03
-5.562084122476802263e-03
-1.035844099838186504e-02
-9.729987175607100747e-03
-8.610041532304045162e-03
-4.555630976637673260e-03
5.464754022722565906e-05
1.991275794674020848e-03
1.291645591342284504e-03
-1.198462960956806254e-04
-7.307976571779525084e-04
-5.216587645585941003e-04
-2.171417218243532597e-04
-5.383033992096932559e-04
-2.336482581170201179e-04
2.686688266071145595e-03
6.819868646734244914e-03
9.193487151089500473e-03
6.482480391592025833e-03
3.097134782019942377e-03
1.270348014939405969e-03
-2.137250059875187534e-03
-5.249036501869201038e-03
-5.278680553713960971e-03
-4.162602430826689050e-03
-3.207834650242158414e-03
-9.470555823539318196e-04
-6.101701788089840522e-04
-2.493501654365119346e-03
-4.725136551400431831e-03
-4.491639862896516788e-03
-2.472297563659308934e-03
-1.935271832068879852e-03
9.934845746435419696e-05
5.827247236215695250e-03
1.039201494033512030e-02
1.271029429974697596e-02
1.058501010087947031e-02
3.606147439095300569e-03
-2.264328845965813373e-03
-3.225243837153998067e-03
-3.571675706144352043e-03
-5.302170817553001139e-03
-7.034493224052992474e-03
-6.433361630737941331e-03
-7.372270961818127091e-03
-4.211864278020885019e-03
1.568055039534352194e-03
2.279447610457119300e-03
1.107456008924485868e-03
1.265576016491730535e-03
2.626218833897246870e-03
5.064897569223861251e-03
3.870616145012717446e-03
-6.514942036652327569e-04
-3.341061466620003258e-03
-2.580759404175424643e-03
3.104880333509449299e-04
6.416940403196389787e-03
9.004017022294046393e-03
4.203445893572126980e-03
-1.655933634132934372e-03
-1.957642410791167031e-03
-3.215280182671074061e-03
-5.531185182947661455e-03
-5.944470836776814815e-03
-6.206405821189594531e-03
-4.384529249474800917e-03
-8.133713271637362224e-04
2.207811447665241310e-03
3.156289144219881319e-03
2.805016154573586155e-03
3.300132407320090309e-03
3.271985450233406371e-03
2.560830729286501465e-03
1.146382231981423480e-03
8.263842306189407138e-04
2.472543176684491480e-03
4.051543647997180551e-03
1.394331012825043067e-03
-2.183475175005795271e-03
-5.639653561173641090e-03
-5.926215293573351695e-03
-2.867411915900153294e-03
-1.599112438430554855e-03
-4.177745451479749489e-03
-5.312545213256645096e-03
-4.733054089469243206e-03
-7.908768380627466225e-04
6.171366031961533424e-03
9.382743458291242442e-03
7.534962924823061965e-03
3.706187711718275136e-03
2.610338494060547056e-03
3.120644997219666327e-03
5.632186106449331518e-04
-4.569804873988490422e-04
3.274207240492185093e-03
1.081212430327733098e-03
-8.394146674921677473e-03
-1.580653110653173696e-02
-1.101473462895581450e-02
3.192609743817187429e-03
1.262631457017073314e-02
9.549354667382776995e-03
1.066490185629000035e-03
-2.934734918468144896e-03
-6.269550434315676775e-03
-9.373855139308689965e-03
-6.720021827414033623e-03
-3.461047089999954619e-03
-3.323978179834551495e-05
7.676013507767915148e-03
1.168128292634495850e-02
7.297528950302768075e-03
-2.139161965840331858e-03
-5.429167219281786673e-03
-1.514781795622580822e-03
2.508259716998802007e-03
6.048843340772259297e-03
8.168360268467809993e-03
9.278165970903400755e-03
8.568937444144747451e-03
6.936757638925971151e-03
2.434455278951547924e-03
-7.868587259405963527e-03
-1.504351060893450824e-02
-1.766172752782325245e-02
-2.071788056122701033e-02
-2.281621585090524637e-02
-1.786694821348152121e-02
-1.022428710533474817e-02
-1.912695975463022920e-03
8.237135603837127465e-03
1.827829920908116690e-02
2.889608303268108649e-02
3.634939103105082336e-02
3.870325357407873590e-02
2.895847644129541029e-02
8.343722389167074899e-03
-1.105467241705967649e-02
-2.485860572378067318e-02
-3.069567741850244558e-02
-2.860103732595709394e-02
-2.325832529650649974e-02
-1.816685097097371637e-02
-9.519915592224623829e-03
1.284433526644556062e-03
8.240308542472896472e-03
1.062727094313845912e-02
9.621289596731722946e-03
8.870217705846332457e-03
8.204009226610894934e-03
8.640799190273501171e-03
7.633972363699495153e-03
5.618694652236288015e-03
3.411612250312738917e-03
1.907495034499587802e-03
5.622926107491704652e-04
-2.287197308038625351e-03
-6.048276533575367916e-03
-6.632013541457663398e-03
-5.589466950657533129e-03
-4.907073727690796153e-03
-6.078339673001754463e-03
-4.907784849796999367e-03
-2.036463478884436955e-03
-3.497034286426253910e-04
1.425811579768985126e-03
3.677954855846628148e-03
6.204087836951318637e-03
6.217005988550937563e-03
3.218401516043990600e-03
2.121689160068846748e-04
-4.204644395225247172e-04
2.313547689561404504e-03
3.135809082912565521e-03
-1.872936412654426864e-03
-5.657560634935408783e-03
-5.750005733479829698e-03
-4.267198274509356043e-03
-1.501262345077232800e-03
7.234215915038870199e-04
1.948213253293803104e-03
2.468143514707603695e-03
4.245855725048255577e-03
5.722833106120885603e-03
5.634623896221571844e-03
1.639611606740959794e-03
-4.184393701693983093e-03
-8.540288529089723468e-03
-8.433435763909032795e-03
-4.067720397984128655e-03
1.003353305866135818e-03
3.385950776008058577e-03
3.201314433365100558e-03
5.304411284160158273e-03
5.549257561830984661e-03
1.011463409330357792e-03
-1.466477647003695079e-03
-1.753197394181392780e-03
-2.458981803184214290e-03
-3.135116536596698790e-03
-1.492705261772728047e-03
-2.680839045262364243e-04
4.065612438557265180e-04
1.029479061453750997e-04
-1.294953038425714379e-03
-9.996380856706623633e-04
-3.711335023374246129e-05
1.174807225766334165e-03
1.297441251832702784e-03
2.188468778691903763e-03
3.101852566767090719e-03
8.398712845566283242e-04
-2.006363678484159637e-03
-2.591911514187205854e-04
1.489153371073289722e-03
3.223820427777349638e-03
3.103235762691578057e-03
1.126013820860603375e-03
-2.390355236325785154e-03
-6.500648408936747676e-03
-7.188500657023826415e-03
-6.674725353720696239e-03
-4.875854267452662226e-03
-2.462441148625843079e-03
1.115444561245954600e-03
5.786482907628542546e-03
8.711100534011738741e-03
9.307613501940554396e-03
5.583827472737092068e-03
1.764106691918321127e-03
1.730084790733005121e-03
9.394959329421049068e-04
-2.425773830159238219e-03
-5.007197172707049740e-03
-5.582149286685999384e-03
-5.052973417734611325e-03
-4.301678657377057055e-03
-1.742076766358032760e-03
1.038009785323013761e-03
2.634451193591048034e-03
1.214921613421698085e-03
9.243766457394711998e-04
1.199640936951132430e-03
7.319154035047988841e-04
2.039513100476250326e-03
1.850067019816187481e-03
-1.732299702256376609e-03
-6.789704655379147358e-03
-5.152972140368653788e-03
1.725580764234945072e-03
7.499092936420882413e-03
7.179767102487507290e-03
3.699004778129647616e-03
1.804556716661021671e-03
8.914546051325101476e-04
-1.942155564611012554e-03
-4.718567761620872172e-03
-6.832055601937885893e-03
-7.367094629257365211e-03
-5.860040053704320892e-03
-1.689949740921635078e-03
3.018792532321699050e-03
6.138035031376996506e-03
6.293310096710783355e-03
3.927231529310286351e-03
8.388417062257047616e-04
1.251342179001967017e-03
5.253171460125945214e-03
8.497787331224998519e-03
4.804763786882355371e-03
-5.592014569297715058e-03
-1.313660441876723234e-02
-1.389749212271422854e-02
-9.258396340626102311e-03
-4.697882863967470062e-03
-3.843497521970042248e-03
-3.903344787319833892e-03
2.021425721161348120e-04
1.277599749581742952e-02
2.756861911531370557e-02
2.822959653849113973e-02
1.073874391025061645e-02
-7.125516696982844844e-03
-1.506876700894166886e-02
-1.255144803963951193e-02
-8.770729234793699786e-03
-7.997245467483388853e-03
-1.017664051265423919e-02
-1.657420249633207582e-02
-1.986384280425897500e-02
-1.070440964623804551e-02
9.879502147799427286e-03
2.940509774609683866e-02
3.550466572478389732e-02
2.735159279655997866e-02
1.275191621470078002e-02
-5.282383657834385793e-03
-1.997805204490172779e-02
-2.475102491295154070e-02
-1.730707021243490032e-02
-6.795562646402519835e-03
-6.268947197027637398e-05
5.681677509542850182e-03
9.593158663659544921e-03
8.872275670178489740e-03
3.951375162059836063e-03
-8.970568932955885668e-04
-5.039775667594959159e-03
-8.892034904208732243e-03
-7.818465277085955012e-03
-1.294307021778680388e-03
2.967140511654717781e-03
3.501651672950520551e-03
2.643742953549707217e-03
3.314335112785314359e-03
4.131967511017907088e-03
4.292511928708466623e-03
2.653965911188958804e-03
2.165439837366615189e-03
2.550330042903676230e-03
2.452881834354555136e-03
3.661667602189106808e-04
-3.065619582844950151e-03
-6.559824869419696516e-03
-6.505336332362318674e-03
-4.125693951226352615e-03
-3.948784722491075101e-03
-3.888924342651282548e-03
-2.423628359507015891e-03
-1.502412520345310738e-03
-1.524743788833138845e-03
1.728699799078875068e-05
3.028595681434463355e-03
4.641615199923939360e-03
3.626358074996465300e-03
6.177223570222730928e-03
1.354660805247449341e-02
1.365148340319814052e-02
3.661352453949313565e-03
-6.634255703351856284e-03
-9.154180061398937626e-03
-7.884475823606141784e-03
-7.264688767371513603e-03
-5.611734382625063744e-03
-3.195954670738661643e-03
-2.081992378641224668e-03
-6.338119206008936603e-04
-7.851412727649170135e-05
-6.977765807193916231e-04
-1.073671071616565543e-03
8.329601759960573483e-04
4.009820114963528158e-03
5.909372310079448638e-03
8.849969774144574031e-03
9.330253099655405613e-03
4.589729398093355013e-03
-1.742362662612265091e-03
-5.286487236049922968e-03
-5.787307551126334021e-03
-6.036796167420471239e-03
-5.457835818033778159e-03
-4.829012334064888314e-03
-3.077832967587315789e-03
-1.248748094669416232e-03
1.307971611532954053e-03
3.726230527062712565e-03
4.685507108965201659e-03
4.235251649551279723e-03
3.026359508745706754e-03
1.086692976669215551e-03
5.660902957429368634e-04
1.464575615689973692e-03
8.720987910415536285e-04
-4.659251366001141499e-04
-1.347676695564960355e-03
-2.550670052923489049e-03
-2.096151890918483175e-03
-8.904031316465039255e-04
-5.855031195468507390e-04
-5.263690886313685761e-04
-2.176603127109828784e-03
-4.085957761916317668e-03
-3.268509882158151820e-03
-5.499365905380943376e-04
1.560609113104712573e-03
1.608220622883219878e-03
1.624879944741465911e-03
2.391495669783989982e-03
3.432079453839579838e-03
5.451993233619996208e-03
4.387072470409167889e-03
2.088308844345248758e-03
2.514083018112177846e-03
2.279576586433835258e-03
-2.312230463375507857e-03
-7.780841174395988248e-03
-8.643676509377204789e-03
-5.034582242174366618e-03
-1.780124564787204751e-03
6.080028917674221243e-04
2.882857937638495013e-03
3.551539316604492014e-03
3.449478053879334333e-03
2.989016571710692832e-03
-8.981989917588235114e-04
-5.307414153233165621e-03
-7.319161005984466638e-03
-5.533558739442813457e-03
-1.147811920881600676e-03
2.644137409063641864e-03
5.829759048420692265e-03
6.076233074552505990e-03
9.405609560256791152e-03
1.157668933049910316e-02
7.089494537949600668e-03
-1.500997799151994804e-03
-8.000835111040962427e-03
-1.050101008879488623e-02
-1.197761915803004576e-02
-1.051847739157888914e-02
-5.727922074650938083e-03
-2.389486260548311786e-03
8.209687419888629743e-04
4.156142564847730911e-03
8.619844235347524225e-03
1.122930826839651369e-02
9.588396945124822920e-03
7.075723490111782664e-03
6.441498698303676530e-03
4.325278467666573978e-03
-1.557015061031598964e-03
-4.460295444257611139e-03
-5.070923412707623902e-03
-5.538703741356922755e-03
-7.022642115284745239e-03
-9.074141671287448349e-03
-1.375848022280400443e-02
-1.773094565132485312e-02
-1.744487152218582304e-02
-1.192679995442243526e-02
3.139443127245071692e-03
2.194712199464197988e-02
3.432889164564901369e-02
3.274692128466367286e-02
2.082073724205437890e-02
5.695634662479683724e-03
-5.148333654772022788e-03
-8.294322960366733860e-03
-7.098021529320741249e-03
-4.930796701570913654e-03
-3.151832311545229096e-03
-3.508152746838043290e-03
-7.489228140942992204e-03
-1.538570514052056346e-02
-2.246070929512786543e-02
-2.215370794116849895e-02
-1.616511605090801759e-02
-8.227614400693004232e-03
4.094983692201675275e-03
1.776541180131134892e-02
2.758268815060630277e-02
3.392134118808116244e-02
3.140708931574230645e-02
1.805321344202462028e-02
2.926176560911384022e-04
-1.586105128170714473e-02
-2.158661993021769587e-02
-1.758610627918851324e-02
-1.084999271607796356e-02
-6.847533517214395710e-03
-4.163880473866742732e-03
-4.250096799300466174e-03
-2.869393615463846151e-03
3.039252260730811173e-03
7.424691410666009635e-03
7.173196149747522281e-03
5.459265472907785452e-03
5.941388326552944112e-03
3.754738137269229489e-03
-7.587997524956464120e-04
-3.730350880011372265e-03
-3.104819414774230568e-03
-1.997764430921623868e-03
-3.355356456196954655e-03
-4.005250598748419898e-03
-2.136882278530480034e-03
-6.637058577932746731e-04
-1.431804442940438080e-03
-4.978098023058370996e-04
1.791631461846804416e-03
3.538079529747491930e-03
2.657433821955415033e-03
2.825773689339401706e-03
5.847679020758140590e-03
6.011487630579119557e-03
2.148216939499803142e-03
-3.770563219020662171e-04
-3.387741252619336143e-03
-5.507762231640326092e-03
-3.980192315777011762e-03
-9.116841413220366005e-04
-2.107378056764792386e-04
6.596931806102182289e-04
3.362966225674098551e-03
1.824445748442251160e-03
-3.273462403153076447e-03
-8.920345392654830188e-03
-1.054815570928664334e-02
-9.213921825355839146e-03
-5.815977507962756012e-03
-1.721570392356989304e-03
5.639834932907067389e-03
1.802919941070568050e-02
2.631392892601866484e-02
2.358383841911802781e-02
7.136628111850035205e-03
-8.083725665696102347e-03
-1.296738710937432593e-02
-1.154013719316997373e-02
-9.342874237182552388e-03
-8.222113158154874257e-03
-8.602219724554428099e-03
-7.339151760734416788e-03
-3.821145672598549523e-03
-8.883654113609532315e-04
1.565738510757019907e-03
4.901612158592815599e-03
6.834143046751733550e-03
8.282294365458433422e-03
7.250536361765032127e-03
4.920608877972432529e-03
1.829311408545074855e-03
-1.218962078048222699e-03
-7.096113457048891602e-04
1.194479759222537947e-03
-7.459785505478268427e-04
-5.835550225204425533e-03
-7.282744040544299538e-03
-5.467095543417186190e-03
-4.557120360310881507e-04
4.949851975415035972e-03
6.284920710768134716e-03
4.595274494583360264e-03
2.013229366018453020e-03
-1.293601570331348897e-03
-6.969977652475520258e-03
-9.014105367196583590e-03
-7.361346481006341910e-03
-2.854463502482279535e-03
1.545553300364764331e-04
4.323722946365277271e-03
7.867324996296432699e-03
7.294059489130769180e-03
6.403930768956924563e-03
7.283536527165919601e-03
5.883307093381064112e-03
5.689168243228584932e-04
-6.495514381029346938e-03
-9.030258269847227237e-03
-7.613918054923208244e-03
-3.416191093648851540e-03
-1.088442740146371287e-03
-1.281547377450895911e-03
-9.490901408016046235e-04
1.921294364777895213e-03
2.048159966977736515e-03
1.804320632642723897e-03
2.237687780674024209e-04
-1.359946118582688488e-03
-1.457470856767175641e-03
-5.671793955967089403e-04
1.412088247007355470e-03
4.259715838715573411e-03
4.682322303951718008e-03
2.262052492959681395e-03
-8.492319034982640392e-04
-2.217429618893680156e-03
-1.717178297889941641e-03
-2.290571822798911829e-03
-1.549882316933921854e-03
2.124211795432207929e-03
4.705222642549493003e-03
4.766030366484382864e-03
1.500599349752514307e-03
2.221791224449071341e-04
-2.280942189267558869e-03
-7.672095629970192635e-03
-9.810196558709266546e-03
-1.016469825263314683e-02
-9.278313053101828328e-03
-5.710548826489079619e-03
-9.353112990847908727e-04
5.678300223386352659e-03
1.349391902479375391e-02
1.937600388523989456e-02
2.043198032871221606e-02
1.722111009116642985e-02
1.148017926176612968e-02
1.874969520271175952e-03
-6.508167712607574110e-03
-1.250364318644798384e-02
-1.562870980438999663e-02
-1.727648241217175779e-02
-2.039332801751119958e-02
-2.352407271805685013e-02
-2.341755323837998656e-02
-1.795284264990529288e-02
-7.705753956930008405e-03
9.951912823052664475e-03
3.301657887295215282e-02
4.778360156164324080e-02
4.391420119846167064e-02
2.799364218743307167e-02
1.147532339753521910e-02
-2.575073377955584136e-03
-1.501779752757700578e-02
-2.219839330624358981e-02
-2.474509326851480687e-02
-2.507745330616055479e-02
-2.202461575737081623e-02
-1.476445237696906096e-02
-5.557045582627477553e-03
4.220839936699489342e-03
1.055169407162650716e-02
1.316199952976326512e-02
9.694459506767680659e-03
3.001074638663159960e-03
-1.785785180276957878e-03
-6.364608101491993960e-04
3.556615095508449190e-03
6.457193187085958665e-03
7.617874656493178569e-03
8.953941130961883682e-03
9.410404968935765641e-03
7.571300107661734120e-03
2.749797761501969993e-03
-1.170159207575177359e-03
-4.554605947268290482e-03
-8.939139223066945583e-03
-1.425773596981821933e-02
-1.806253672592478265e-02
-2.177274129915614947e-02
-2.259211447483862670e-02
-1.688289094910326582e-02
-2.024825919612296965e-03
2.019201267502583261e-02
3.803519644140434391e-02
3.772839480165047360e-02
2.127637407659990765e-02
5.381403593404884139e-03
-5.719089113444545541e-03
-1.154406639904100723e-02
-1.092330950959249057e-02
-7.464418248319891133e-03
-6.015348819709017900e-03
-5.771456582519275333e-03
-5.745961681293636908e-03
-5.210372448976567303e-03
-2.920416660865319397e-03
-2.299353617463963280e-03
-3.352296465059062709e-03
-2.520505427360293128e-03
8.987718703263253631e-04
5.653847810716676123e-03
8.065676856469925285e-03
7.353829781744692512e-03
6.081770439220632318e-03
2.823409897750980141e-03
-1.433613215442363633e-03
-1.153349432581902067e-03
4.748969788041779963e-04
-6.774524559289391793e-04
-2.195938834271584685e-03
-2.441164015766501393e-03
-3.747226662998253289e-03
-4.939929441306930256e-03
-2.096181342780147928e-03
1.234443078681445255e-03
1.201510380734719828e-03
-5.490721164327252816e-04
-8.442808760375473953e-04
8.939906833612999443e-04
2.647127150165388791e-03
5.292062876765426908e-03
7.718997737722410081e-03
6.986292813639825502e-03
3.082514962725126681e-04
-7.004748998212140428e-03
-9.627335533552659405e-03
-6.943996009443090429e-03
-3.350813333189000924e-03
-1.235734752148799241e-03
8.723734116894005513e-05
1.626490985831895251e-03
2.264483135395360582e-03
2.564492941885141743e-03
2.931526029097721031e-03
1.621356947074372714e-03
3.803261375944857223e-04
-2.890689727453007768e-04
3.954942020279053421e-04
1.970096749477956866e-03
3.184133080683291227e-03
2.919493695421228850e-03
3.247623468329200770e-03
1.196326100576313497e-03
-4.834377031996685628e-03
-7.283354895032709969e-03
-6.054813886021199153e-03
-6.989019705212742330e-03
-6.602985646349365106e-03
-1.095637358999552958e-03
5.254854294120418767e-03
7.103642617867926383e-03
7.645709492537938919e-03
7.624414866232109844e-03
4.871198453133615894e-03
2.393420415321550858e-03
7.488431567030655756e-04
-3.016048618446200841e-03
-6.660641411080735555e-03
-7.319814115585607066e-03
-5.464420406737781691e-03
-2.150179211240746575e-03
1.289153719292809907e-03
6.464913110303105708e-04
1.290157762510689139e-04
2.978270438252385971e-04
3.495275492886755551e-04
2.380793134368719682e-03
2.682943357251217457e-03
1.805354172747151769e-03
1.039532928066306877e-03
-2.926583345178200221e-03
-4.279444551315576828e-03
-2.883233223454812616e-03
1.059820328625766519e-03
4.416154435214483635e-03
4.785672301752023038e-03
4.169002967566032281e-03
5.923772550911624371e-03
8.824721954917206720e-03
7.687838516541096144e-03
2.525175404801341806e-04
-8.377166877152415064e-03
-1.273675893490883518e-02
-1.034743445321125235e-02
-9.035406862836461300e-03
-1.091323410821414507e-02
-1.269674124884298365e-02
-1.259177205146256098e-02
-9.711447787000884388e-03
-2.277686745790902679e-03
1.310766810861287851e-02
2.937728851995006357e-02
3.843560976410267255e-02
3.557327337347180457e-02
2.359230586877351238e-02
7.182533383890566531e-03
-9.787944339091071005e-03
-2.239449299926313600e-02
-2.735184475036979770e-02
-2.891823229065747236e-02
-2.772030366633945753e-02
-2.561543258962550515e-02
-2.004380481632344127e-02
-6.638615085691534218e-03
1.036596014818268706e-02
1.992281731930548028e-02
2.212957619352207833e-02
2.741996262730767367e-02
3.180708639259879206e-02
2.540368358836722629e-02
8.586982703422927493e-03
-9.368895417809962323e-03
-1.759883609822969139e-02
-1.826854607393060131e-02
-1.723687719238264915e-02
-1.456714960519481933e-02
-9.081775058091854508e-03
-2.619008439025311691e-03
1.195606752482926980e-03
4.121581854008895748e-03
5.364066081872700259e-03
5.074947869985319687e-03
5.716147376903901733e-03
4.420367956817011605e-03
3.053477740465881073e-03
1.189278552971440766e-03
-7.943717441520683771e-05
-1.257096894539970662e-04
4.495499375599101215e-04
2.777609977208553662e-04
-1.858448240993924210e-03
-2.749162436084957081e-03
-3.909206487349230555e-03
-3.946443693960061290e-03
-2.070338060510529439e-03
-7.614513951721673258e-05
3.451511031941524935e-03
4.896011709851893004e-03
2.014141357707751982e-03
-2.099815181848133441e-03
-2.984101497306902110e-03
-9.151805859675025230e-04
2.752771295234069174e-03
4.823911954115176794e-03
2.244034184491827850e-03
-2.711048534012140254e-03
-3.807727870358037711e-03
-1.686860542836677397e-03
-1.725982220342743871e-03
-1.373148824107142370e-03
1.156643344479230682e-03
5.356511879080884039e-03
4.308843761781996559e-03
-9.700573246161170535e-04
-5.037625248362229656e-03
-3.973705734316274572e-03
-1.023919782836787669e-03
1.642382173844014010e-03
3.239472078886193335e-03
5.893349280199316857e-03
6.557112498757322258e-03
4.338144665679076473e-03
-2.616099742217771929e-04
-6.105742592203198746e-03
-1.081160647039088214e-02
-1.258264725483931173e-02
-1.204458853181450233e-02
-9.203293306479566963e-03
-3.153464328182745656e-03
5.615668509719148709e-03
1.642342021999191812e-02
2.288896943821092100e-02
1.856666560670362440e-02
8.081910704736593176e-03
-3.401829877187448098e-04
-4.474324524642806639e-03
-8.075334353509180246e-03
-9.563419894324434040e-03
-7.493535049830938807e-03
-4.653506410209673483e-03
-3.621331794855072589e-03
-8.020093549801659335e-04
1.524206458946448942e-03
-1.136087010178682150e-03
-6.492750708808175605e-03
-1.006135121768144021e-02
-1.036782873154146883e-02
-6.985746260511340074e-03
2.949536289289115230e-03
1.769745010146986028e-02
2.524419494443248119e-02
1.839174751667381133e-02
6.192306852190548883e-03
-1.921701849945453696e-03
-5.590463651280791826e-03
-6.493340460329732021e-03
-6.956891325669792119e-03
-5.814646495954754399e-03
-3.880586666613995012e-03
-3.016400547850857372e-03
-2.761022457836609031e-03
-1.389586825224425849e-03
-1.707218151985869783e-03
-3.419598056276269490e-03
-3.137069442129583521e-03
-4.857963224387494561e-04
1.271534469837589569e-03
2.700525768103860958e-03
4.215382379749330229e-03
5.609625321705151262e-03
6.046634031092690438e-03
5.731640058981058404e-03
2.551826779887925167e-03
-1.819581314746500150e-03
-3.750721268741672408e-03
-3.290968028866377189e-03
-3.248353451529877554e-03
-2.315885193604632925e-03
-5.581060036699600057e-04
1.366161396130097054e-04
-7.354671691165851673e-04
-9.175133836597454753e-04
-8.839125992919469495e-04
-4.831991917365921724e-04
1.213722705768494406e-03
1.944793378088254931e-03
9.851585112349847684e-04
2.197017746174721731e-03
3.346762511050834117e-03
1.596745022595637926e-03
-8.501072888016743181e-04
-3.770467668190686811e-03
-4.344525924982817026e-03
-2.499032506026279028e-03
-3.199910979594120051e-03
-5.013467136725929807e-03
-4.538110363655530749e-03
-9.895486062647094756e-04
3.028682193839117923e-03
6.401615235868177677e-03
1.087235536941759222e-02
1.326040421466197737e-02
1.263885973681548938e-02
8.514707742031489904e-03
5.403526565240384955e-04
-8.414036756285837512e-03
-1.178072344659307664e-02
-1.071800763385164293e-02
-1.043222658152971258e-02
-9.793025345676796556e-03
-8.810228591038277157e-03
-9.558912467465796245e-03
-1.177300741086250227e-02
-1.165097588480831434e-02
-2.803075729582256079e-03
1.654329077427179120e-02
3.405169497126518674e-02
4.034212275384030377e-02
2.928313836508933399e-02
1.035271789751763052e-02
-6.757339060497365157e-03
-1.867475672189619976e-02
-2.312337183541974400e-02
-2.193768918988415681e-02
-1.751985143503517403e-02
-1.052521887561821620e-02
-3.814371586922746943e-03
1.366002194834936437e-03
3.546607507027176552e-03
4.379245295930395132e-03
6.329573234834269882e-03
7.315593551758732896e-03
6.027213827439660207e-03
3.890789582920904655e-03
2.154207558760872637e-03
-8.712388796606026966e-04
-3.574098361117304082e-04
2.831120310271778226e-03
4.122376368747166994e-03
4.855484265390996694e-03
3.744466692004504160e-03
8.567305539841007719e-04
-2.832099545825915096e-03
-7.561846150753923773e-03
-1.248807758830019002e-02
-1.369089926479483479e-02
-8.749621401763990960e-03
-8.648345618689904420e-04
4.033754869433247257e-03
4.753629438437827377e-03
6.505902020413508596e-03
1.173871139571035921e-02
1.249924208407020981e-02
7.214107591265252889e-03
2.826405464312710392e-03
-2.135696376147862285e-03
-4.731687001250817204e-03
-6.141318255939280830e-03
-6.463790310520222890e-03
-5.621790934642745784e-03
-4.573549947056786830e-03
-6.376136725336994590e-03
-4.740802240615349383e-03
1.162459361495287282e-03
5.172075198155740884e-03
7.248193427167816741e-03
7.206372025028468832e-03
2.418898578878133851e-03
-4.259201827440134425e-03
-6.022836668288997219e-03
-3.413303526843179669e-03
8.664959094504874702e-04
7.596395931390428902e-03
9.748127531749344737e-03
5.305856914158307500e-03
2.307483942366366295e-03
5.425332811234352855e-04
-1.876370045367000338e-03
-4.993304509870197770e-03
-8.067580436474030073e-03
-7.583197884115469925e-03
-6.401286968016503716e-03
-7.353578047869705099e-03
-9.129994666602470055e-03
-7.206555457589535613e-03
-4.084909748998323716e-03
5.185479644979451574e-03
2.276661081621402308e-02
3.230178472894765923e-02
1.996581908641122463e-02
1.322382700517276766e-03
-6.893641113661043082e-03
-9.187590817437082252e-03
-8.698029138102362362e-03
-7.934167509469935639e-03
-7.684033836465830464e-03
-6.995251993610404964e-03
-6.061391310719635092e-03
-4.995941469504559633e-03
-2.614127805723245879e-03
-1.783505967468004914e-03
-4.252567779272917528e-03
-6.094878327786570210e-03
-4.753292820356014130e-03
2.612076509523225763e-03
1.406328544838590655e-02
2.164277483154628326e-02
2.005676115966495768e-02
1.292654190533511042e-02
7.606269836316311914e-03
3.297124023340341180e-03
-4.960989333594083631e-03
-1.359498460351826407e-02
-1.657112324939029324e-02
-1.436944510606217619e-02
-1.121526709245519553e-02
-8.504933030159230259e-03
-6.786772018569232900e-03
-6.684268428946866895e-03
-6.929282884807342995e-03
-2.555026818149698769e-03
8.819477164915415571e-03
2.161958955763508203e-02
2.640860652229307104e-02
1.627661975141861048e-02
4.530036287324488292e-03
1.345255984154190712e-03
-4.126469263075140570e-04
-4.420869998825884863e-03
-7.062184411630863939e-03
-8.692709376387233733e-03
-1.102555387821150916e-02
-1.222971064352250392e-02
-1.134293664013065819e-02
-5.825492588428557439e-03
-4.128828655604944759e-04
3.098232288584349368e-03
4.767660184314726629e-03
3.900703036398419157e-03
2.998165192652384181e-03
4.231540527671828755e-03
6.837691019930746197e-03
1.138553711448371704e-02
1.519935613865984816e-02
1.526616663184773674e-02
6.267350283007866799e-03
-5.057050282443412842e-03
-1.041251900628731297e-02
-1.457417071314463797e-02
-1.675056285521269242e-02
-1.636902983154297012e-02
-1.536170459522055026e-02
-1.405453403298878232e-02
-1.179818147115486299e-02
-6.998659003758686895e-03
2.387264849140516634e-03
1.759107142039508312e-02
3.579050042543899246e-02
4.321367353377687098e-02
3.160230330561153433e-02
1.194457415729102343e-02
-4.734317566497198149e-03
-1.787008347027591385e-02
-2.450233256555546177e-02
-2.503058811903923625e-02
-2.134438199161051847e-02
-1.709797276345717196e-02
-9.146353620958093400e-03
2.545425594982221834e-04
9.394449383748551194e-03
1.343375909732515833e-02
1.293034080738270433e-02
8.326500652614589673e-03
4.202656585470062114e-03
1.937343864469530256e-03
9.160781680132951913e-04
2.020294438040746803e-04
-1.620744459854704797e-03
-2.481311181965881966e-03
-3.229832216940105825e-03
-3.973556009489548520e-03
-2.548587183339741120e-03
4.470215170935995757e-04
2.723427161116375936e-03
1.979274547035213185e-03
1.759274832490421395e-04
-5.804671428178446654e-04
-1.241100418149605842e-03
-3.188083651255958968e-04
2.452616087158892861e-03
3.069698740750198204e-03
2.570389691316954384e-03
1.391685473910002314e-03
-2.000384478366890820e-03
-4.699308079335262449e-03
-4.239243493926156230e-03
-3.630464229692926918e-03
-4.647696529564587266e-03
-3.104414739422698636e-03
9.171591338715246160e-04
2.295024887410125093e-03
7.769795844207499826e-04
2.193266315681409104e-03
8.837233388214942725e-03
1.122209543248676653e-02
6.086427333710349441e-03
6.707232774889719269e-04
-2.533586622229456325e-03
-4.705442763021092274e-03
-4.731305123538729479e-03
-4.228895184279017269e-03
-3.112242684290122269e-03
-4.162342519179833104e-03
-4.631533690789870795e-03
-2.652951575528680449e-03
-3.196217857659193994e-03
-5.410970006100250702e-03
-3.553452776177960359e-03
4.913716246146266828e-03
1.290025322632736005e-02
1.588443494126884348e-02
1.160066578390668568e-02
2.478437363454497402e-03
-3.439412973214935054e-03
-4.391320923254152589e-03
-6.717811312184233941e-03
-9.743954786790824316e-03
-7.294637481831447653e-03
-2.181962233395557185e-03
8.192668535539594180e-04
1.077402108745762485e-03
2.103552659270588494e-03
1.173171264479654302e-03
1.834580969264352742e-03
2.460689036981344915e-03
1.432860751943494876e-03
1.562361278801551031e-03
2.152933426141977278e-03
1.440169076847442079e-03
-9.684220872403796667e-04
-3.178813305291477813e-03
-3.910565402745183952e-03
-2.498224748970027335e-03
-2.555662030031534762e-03
-3.129193703724242673e-03
-1.295664845095285175e-03
2.034661228966157340e-03
4.402574619793198779e-03
4.848372278431264254e-03
5.894109245926582724e-03
5.152501117083643431e-03
2.502801827872113988e-03
-2.071769505349750813e-04
-6.697894278396146278e-05
-1.484727660708540101e-03
-4.426431806058631936e-03
-6.541742161443607310e-03
-6.054807063305155113e-03
-5.116029478928452688e-03
-2.323815204160618875e-03
-8.141157316754984215e-04
-3.316622381396374416e-04
1.693529626556966724e-03
5.558664248920045653e-03
8.515134853129548501e-03
8.879250016325716810e-03
7.093055981136017069e-03
2.057201332289695581e-03
-9.482415205104857692e-03
-1.889842023531893705e-02
-1.575475531364689888e-02
-3.679071255518933173e-03
7.109132285606407226e-03
1.047364158988499730e-02
1.015431817680246922e-02
8.014667130040991488e-03
5.110844655855590994e-03
4.444177047540278681e-03
4.258438387231493205e-03
2.938417423643869143e-03
-1.276115376716916100e-03
-5.997118947622731219e-03
-6.041095220232241964e-03
-3.939691350647718700e-03
-3.059841706579272298e-03
-3.171584171468001118e-03
-9.756324624768379639e-03
-1.631539979868888365e-02
-1.888336070709143930e-02
-1.880029926656907879e-02
-1.084265866617895729e-02
1.063642585852319494e-02
3.351244041164996162e-02
4.113341868827052883e-02
3.625616813000554634e-02
2.715638240019296878e-02
1.482470424108642618e-02
-1.204613085240658276e-03
-1.609667492087439936e-02
-2.866903514039882694e-02
-3.630792673420893402e-02
-3.767528275296926077e-02
-3.237901002876934775e-02
-2.188273776975403415e-02
-8.603958448078381782e-03
8.175258416958857549e-03
2.860395613771437098e-02
4.199225389030311617e-02
3.882243027452504658e-02
2.475376558519523998e-02
1.022802453444916423e-02
-2.045021810912591581e-03
-1.142927709017198951e-02
-1.460839043282196464e-02
-1.516883466039527575e-02
-1.410824231246364177e-02
-1.270640655974393692e-02
-8.383411206351405048e-03
-2.925323115721693151e-03
7.258028486057598819e-04
2.284504351516575965e-03
2.282385425280115000e-03
2.512874240907156213e-03
3.269019394029644594e-03
4.242592526981199888e-03
4.203281070296499208e-03
2.358456786282452436e-03
3.225561954929513121e-03
4.570965528342309757e-03
2.137483652936925799e-03
2.157314523581703363e-05
-4.608500101340209086e-04
-4.616715408451860518e-04
-1.302256041541569346e-03
-2.326747989255226017e-03
-1.654550218024854321e-03
-1.816519153058826627e-03
-1.812511802928729520e-03
-2.293771692576065512e-03
-3.271212326303401304e-03
-4.268040050316604037e-03
-3.864968521894062564e-03
-1.231766252906276457e-03
1.118363924669783923e-03
4.186192331174413452e-03
6.678948504712825876e-03
5.459991904554501591e-03
3.935209905314095667e-03
4.420583994858998632e-03
2.954333856419122210e-03
-4.766094321344858183e-04
-3.609698744949367977e-03
-5.867402562101227403e-03
-6.671979159073546627e-03
-5.287148333579906948e-03
-1.882325119531680141e-03
7.905449569758752921e-04
1.821515484589311716e-03
2.750817293306906126e-03
3.751045591034032640e-03
3.318656304694893137e-03
1.933123553897322889e-03
-3.866975685390759807e-04
-2.405549064509995751e-03
-2.893308312548577114e-03
-1.998813924458088531e-03
-2.318514130499625681e-03
-6.574150074820175622e-04
1.899302158359168291e-03
2.732161290819586606e-03
3.180338238570732615e-03
3.049151156983129999e-03
1.679978453139346732e-03
8.950459012618313802e-05
6.685830309106838894e-04
4.730102829600104026e-04
-2.210540820801334440e-03
-5.571721338153554602e-03
-5.494601997249128761e-03
-5.017495925095407684e-03
-4.263874504177084593e-03
-5.989899906346564124e-04
3.429684109890011271e-03
7.562453916759552183e-03
7.412129219148687852e-03
4.529619076833048957e-03
1.670758215193714246e-03
-2.557501172008529275e-04
-1.118000427353909492e-03
-1.404107158380252631e-03
-1.759057066630581112e-03
-2.978968208357949191e-03
-4.327299372448532681e-03
-2.004692935366620288e-03
-5.902491573388445826e-04
-6.807043464495488114e-04
1.109266103453518133e-03
4.210983859721179404e-03
4.404681273562157870e-03
2.666972927368670230e-03
4.378937523014989996e-04
-4.196651973442651166e-03
-8.573568502380238265e-03
-8.966164739723465199e-03
-5.472215011211386745e-03
1.336573241242564958e-03
7.966187318965041453e-03
1.028274555145425838e-02
9.611667450635089094e-03
8.006481277827612666e-03
4.284770104968231401e-03
-1.341992051048338911e-05
-5.802595324626610117e-03
-8.961949249783123309e-03
-7.188418100212328257e-03
-5.020057477660346684e-03
-3.298160111609720231e-03
-5.346827008242680587e-04
2.207215132339895337e-03
3.143258431076358106e-03
3.426597746231777736e-03
2.869891604649817043e-03
1.311854933225376852e-03
-2.916274890151970313e-03
-5.064614774015297437e-03
-4.197319415219100125e-03
-4.576083585310100621e-03
-2.243422052567379827e-03
1.080459041352846905e-03
3.632502977509373052e-03
4.970774807165422027e-03
8.256828010340944157e-03
9.419574298311675711e-03
3.871700574325307419e-03
-2.343567829850259215e-03
-2.610390836022576880e-03
8.163133795796447770e-04
3.697419961634470370e-03
3.493526969772360775e-03
1.675998589923362704e-03
-6.650249120135629042e-05
-1.182652648181749125e-03
-6.821816406363110340e-03
-1.195689918816093648e-02
-1.298115774881207322e-02
-1.519479716299857765e-02
-1.909235865601536380e-02
-1.825712333651794209e-02
-9.471397289910296613e-03
7.085568992288863478e-03
2.641764143805809886e-02
3.500743660755418346e-02
3.245200446329105093e-02
2.763205389887008964e-02
2.223541409975873101e-02
9.558928119420235375e-03
-9.124664088343033622e-03
-2.298826847884212835e-02
-2.761350746495329009e-02
-2.462795299641076796e-02
-1.616199027133016081e-02
-8.626121489266391773e-03
-4.754448622282740622e-03
-4.209346664540694269e-03
-5.269706488884023411e-03
-6.685267082207641681e-03
-4.048566498682743507e-03
3.754823392921300546e-03
1.175449076685165621e-02
1.709019877827291922e-02
1.851411647885502568e-02
1.407051737665026420e-02
1.053609052251354775e-02
1.090039805897015379e-02
9.793663457800862518e-03
2.173672472829083098e-04
-1.285006948538220187e-02
-1.837381863369441301e-02
-1.586337752031519860e-02
-1.213984091066435539e-02
-8.343602935205245152e-03
-4.192364082173594825e-03
-5.690029810601294948e-04
2.460563804701327087e-03
3.961324363078330864e-03
5.169250993145160095e-03
5.815554394206081529e-03
5.791541559006592628e-03
3.763388674093103708e-03
2.045874773681845629e-03
2.934730039248024946e-03
3.516843820643889614e-03
9.704623422566675394e-05
-2.489291679265284024e-03
-1.855631135861257521e-03
-9.552221729434249176e-04
-4.432372515933215057e-04
-1.873314841987602309e-03
-3.723943377505939227e-03
-2.920144883649268726e-03
-2.308731435810267279e-03
-4.098427133811219022e-03
-3.913341105412089516e-03
-1.939035836800064331e-03
-3.269665050391799778e-05
4.369738319546842727e-03
6.798677943773757427e-03
6.880088817931910919e-03
4.665954838760828956e-03
4.773767587489204686e-04
-1.891914297431765380e-03
-2.039492881237189945e-03
8.658445273650157512e-04
3.208881491976725217e-03
1.819987502533064331e-03
-6.381589830684610248e-05
-2.248906229136364565e-03
-4.828615858395144539e-03
-4.054909077896661981e-03
-3.013331889963963370e-03
-2.159247058630919119e-03
-2.332643826359652114e-04
8.528284614283880398e-04
-1.090812317772671706e-03
-2.742251062873167413e-03
-3.060136186056363651e-03
-3.447884374849820039e-03
-1.204423133607314270e-03
4.971187780886801577e-03
1.100279312895873461e-02
1.368669004530239861e-02
9.773884004265015468e-03
2.076453652818871683e-03
-3.728959593930283867e-03
-5.955763981256646453e-03
-6.740653144706804795e-03
-7.451422749846957176e-03
-5.469537525681382115e-03
-3.640342973150533651e-03
-1.263794674797582554e-03
1.330633361325677397e-03
2.630529457298861912e-03
6.997228870989920897e-04
-1.792233280467473962e-03
-4.765420411005918890e-04
2.314495801512422152e-03
4.100698960785179557e-03
3.009444556683765933e-03
3.632685924220993112e-04
2.171984982430009102e-04
1.420925571145822876e-03
1.126659197092912644e-03
-9.386992206398081604e-04
-3.693476786732837521e-03
-3.631633134595305817e-03
-6.192868071424990298e-04
1.801997597331932892e-03
2.215442477551029729e-03
1.483647311993769409e-03
1.072408989342681302e-03
7.645983132871902576e-04
3.417233208119420016e-04
-1.480833438510375123e-03
-2.167647405870224992e-03
-2.226655681620723099e-03
-1.697173075611189139e-03
1.835437060863706312e-03
3.322421095046283225e-03
2.153637472843595788e-03
-1.317071164075591880e-04
-2.440035096839297986e-03
-3.362068182299880227e-03
-3.616663744516225576e-03
-4.833537690877507710e-03
-3.454179345890074325e-03
3.617236915152819213e-03
8.327417972085165987e-03
7.796327025768024464e-03
4.161748154678294315e-03
1.537595306597002397e-04
-2.928108711352836566e-04
-1.647044070701723407e-03
-4.568938111270339983e-03
-1.630266671167417874e-03
1.634851803750197357e-03
7.737868239162980829e-04
-1.629254403759847506e-03
-2.816969527715464106e-03
-2.910042695809102881e-03
-3.993250605481680690e-03
-2.795334560737082648e-03
-1.529217391104368108e-03
-2.865110445591289266e-03
-3.226528684540858234e-03
2.776087198820655752e-05
4.932072729819252793e-03
8.568522032574785174e-03
1.148834951175529279e-02
1.344076507504046031e-02
1.307500994608880134e-02
6.427770457441546632e-03
-3.597927819524141153e-03
-9.652515759945756030e-03
-1.029395256516519967e-02
-1.103694687948586842e-02
-1.350650408228982330e-02
-1.650205243604395411e-02
-1.615634005350986141e-02
-1.358182226250144453e-02
-9.251614732091115179e-03
-2.117957123024870845e-03
1.141846015871146765e-02
2.953801329269885659e-02
4.237935323388494074e-02
4.056797079789144916e-02
2.635514151470629007e-02
9.210745394061973373e-03
-5.586827275458811082e-03
-2.117780874061689703e-02
-3.655924553577926533e-02
-4.425030673999638675e-02
-4.231203766628766766e-02
-2.990430439886082245e-02
-9.423145630161406522e-03
1.500599198442326837e-02
3.383350801671264341e-02
3.662390013569368635e-02
2.742849495559736284e-02
1.575136892269874897e-02
7.679399508472201791e-03
2.823789967253263755e-03
-7.915451132611635212e-04
-4.578490446782771534e-03
-1.058412394094115742e-02
-1.521130586672452684e-02
-1.667414525361541125e-02
-1.788121589809336248e-02
-1.544110321451510476e-02
-8.055555950990597736e-03
3.165987421215144676e-03
1.255418083914606152e-02
1.413266349353306355e-02
1.426332508673596941e-02
1.728701020990385320e-02
1.513765575772236041e-02
6.108283464688240086e-03
-3.617875010904171226e-03
-1.109486836119407717e-02
-1.308934934563227639e-02
-1.155780368200336888e-02
-9.054978511554977183e-03
-6.282607553556626701e-03
-4.220903116117721149e-03
1.516766231168117105e-03
5.267731326295457123e-03
5.503028348681038989e-03
5.428906117356554865e-03
6.874970713057114435e-03
4.184200463829059261e-03
-5.319781480935881820e-04
6.220644053554129447e-04
2.407645664420178088e-03
3.698719556490563589e-05
-1.969972720320794287e-03
-1.374534300997555178e-03
-2.026075879148349183e-03
-2.716018186293704152e-03
-2.512802009423783546e-03
-1.063612936336927718e-03
-1.193840621669579768e-04
-6.375422163119854159e-04
-2.481572781967214102e-03
-6.259529187037645576e-03
-8.145974494802935006e-03
-5.387117735296081261e-03
2.770410488159464300e-03
8.657573339618439279e-03
1.265076322218220382e-02
1.477133329070300788e-02
1.254641015338157223e-02
6.657822011432430395e-03
4.935584632004329318e-04
-8.077933614052974082e-03
-1.555216788382622964e-02
-1.536605274210671966e-02
-1.039632288091221594e-02
-7.457417779340964198e-03
-3.107642372268442504e-03
2.615500699418271333e-03
7.561812114198554480e-03
1.112123874578421767e-02
8.721099091518576957e-03
4.482853895748933545e-03
1.756585429601763846e-03
1.441037162058179640e-03
3.071537240201071650e-04
-7.572651905839466492e-04
-9.760476097838442831e-05
-6.252053887656237397e-04
-2.180380739409170602e-03
-5.646043207007126613e-03
-7.450683845033137694e-03
-7.197190428285432304e-03
-7.666127150091227652e-03
-5.209926211278007382e-03
3.182476918870419803e-04
6.161959366635163041e-03
1.366716405712486461e-02
1.713145703078564411e-02
1.035697713465593903e-02
-1.146186372166709119e-03
-7.177604979875056718e-03
-6.421077184064094556e-03
-4.299760970819032496e-03
-3.353250061594169329e-03
-1.854526792321437847e-03
5.529798374346074370e-04
1.794412146214263573e-03
2.680396433918463372e-04
-1.946778757097175671e-03
-1.376545101195612072e-03
-1.088060976177197955e-03
-1.229554346472293671e-03
-1.017503488392720043e-03
1.906769746106279893e-04
4.496039247763505202e-04
-3.552733545648318930e-04
-1.429572274667718955e-03
-1.604134779082731874e-04
3.148352151960521084e-03
5.272679078022607206e-03
4.186842859375596373e-03
2.726764438446377739e-03
2.185331188297370310e-03
9.458013203060605580e-04
-1.612273735586084711e-05
5.892454995309309024e-04
5.617130784700587187e-04
-1.963886521617864978e-03
-5.152343188911084025e-03
-6.514376438816547876e-03
-6.567339744810883270e-03
-8.075758372076042441e-03
-9.651408425019741832e-03
-7.445674780434821151e-03
-2.339321009442310757e-03
4.461806295973490960e-03
1.125317082078045733e-02
1.703380699472454088e-02
1.630538804991429891e-02
1.234240024801866974e-02
1.017761226273206261e-02
8.223956572917256319e-03
1.806806727646359393e-03
-7.957040908517563557e-03
-1.428032133301994702e-02
-1.520341020251283690e-02
-1.265345095827616340e-02
-9.833474412345966434e-03
-9.537819976981278328e-03
-1.125870141104808736e-02
-1.318727057844915063e-02
-1.346211150488862800e-02
-5.627331214016525161e-03
1.217206926531591224e-02
3.043649421653250517e-02
3.987419978077098165e-02
3.351412111212474787e-02
1.737843345288355573e-02
2.403281683093384108e-03
-7.134698407648330104e-03
-1.510948121529195540e-02
-2.251839060725959948e-02
-2.377888072609987344e-02
-2.027305079755550854e-02
-1.269191071888981642e-02
-5.140728742833743092e-03
2.038628419520334227e-04
4.611190530080496244e-03
6.981339181694783819e-03
9.163784495132085844e-03
1.196641168076607691e-02
9.639908157833942948e-03
4.049607700996236959e-03
2.372971987098048893e-03
1.543869785146213629e-04
7.112602906822664960e-05
2.628043304002203664e-03
2.654493512985464394e-03
-2.599373092718401841e-03
-6.890815040132532501e-03
-6.265514540659225529e-03
-3.626138300256240114e-03
-2.927501863831710911e-03
-7.810873028852919047e-04
-4.936342760994479485e-04
-4.899573563276818366e-03
-7.670751520815262403e-03
-7.211700936778480883e-03
1.110954795382145715e-03
1.244462683211485649e-02
1.762856430929341661e-02
1.386827123962900560e-02
5.649426556942345468e-03
7.749722444895682048e-04
4.569828567559162491e-04
-1.736978277557534381e-03
-8.117764127568481355e-03
-1.380605699345265579e-02
-1.419466380928663743e-02
-6.921897963759767944e-03
1.419369647137345850e-03
5.504241864864691143e-03
2.338064963050983953e-03
-2.649616637112451809e-03
-2.330751252253048141e-03
2.800651775780665757e-03
5.989500704897334979e-03
7.484085400141714597e-03
9.340195357343761273e-03
6.719409686147620464e-03
1.621918838626050735e-03
-2.297670658343781321e-03
-5.064125248507978135e-03
-7.168832795578435578e-03
-7.425113790245620356e-03
-6.623247557031373793e-03
-4.168845967655960584e-03
-6.462907533358128599e-05
5.088799700951152777e-03
6.733305380047408667e-03
4.894483217286231362e-03
1.736631196347941360e-03
1.865822266665626862e-04
-7.983581454950106678e-04
-2.721770719129199424e-03
-2.970723981763062106e-03
-6.140881733948408503e-04
1.003457052084651829e-03
1.127674457232183923e-03
5.262595867645144219e-04
-6.478972999271052132e-04
-1.483963570521821445e-03
-6.188774222515767932e-04
1.168152916112534133e-03
1.922903061493553688e-04
-5.241286251828321599e-04
6.613267263656244987e-04
9.599409753056453286e-04
1.240076157908478723e-03
1.146049913081507001e-03
2.152235748899527634e-03
1.462483813241837035e-03
-1.120066394269312801e-03
-2.579159457886528312e-03
-2.328000539222457258e-03
-2.664603451181098322e-03
-1.293725998406658906e-03
-4.822823763961542093e-04
-6.522232150205415800e-04
-9.937330230275827781e-04
2.257821481920111535e-04
2.147807695492626873e-03
2.233805336284692099e-03
2.059526035852131485e-03
2.276435991383161592e-03
7.786481922661700559e-04
-4.313516490088642398e-04
-5.827893545543156011e-04
-5.928673541885360991e-04
4.449626134272140535e-04
-3.821586035384540322e-04
-8.011305112090942029e-04
-5.220271286671615552e-04
-1.388617559901941627e-03
-2.799297521315070609e-03
-2.164198442080803378e-03
1.127366702954456451e-03
3.264624358931691919e-03
3.643393757118101699e-03
7.447144597100723625e-04
-2.068223249578297809e-03
-3.570355795340375473e-03
-1.318946817585255667e-03
8.684467589542762015e-04
2.369636253254279686e-04
-2.395214330879416004e-05
-8.937738783645347211e-05
4.679048593101385058e-04
2.067334858038354876e-03
4.358906068916170579e-03
4.241966461409472054e-03
1.514655063222052327e-03
-9.687334741887226267e-04
-1.564768430344478387e-03
-2.582041809118577457e-03
-4.325660753465673802e-03
-3.415859529675766178e-03
-2.400439391219825504e-03
-3.348215960912037312e-03
-4.344472937367998590e-03
-2.092538651682519270e-03
9.049503668424059132e-04
1.370638513408087723e-03
2.260640949572561599e-03
4.210019791401745093e-03
5.067972991443464234e-03
5.998025302015752395e-03
9.495685057518027036e-03
8.713719959317311331e-03
5.021294637356808754e-03
1.306052201301819001e-03
-2.889732897009706421e-03
-9.212993762116627669e-03
-1.590380994221808619e-02
-1.472925714098501267e-02
-5.013264868604830338e-03
2.091671147049159116e-03
1.908034968885746448e-03
-1.949720256129967551e-03
-5.224398888505261442e-03
-7.312555291236573149e-03
-8.086675196915121128e-03
-2.886859948299869919e-03
1.119778455868155123e-02
2.783170993959378434e-02
3.416667296391826675e-02
2.335173123296808637e-02
7.360659386691829897e-03
-4.501041067647898464e-03
-1.380474802809914664e-02
-2.121351470223641067e-02
-2.415782242997687596e-02
-2.229891794784369385e-02
-1.720337801930953148e-02
-9.282871740209832495e-03
-2.390598257424462515e-04
6.922663279054245763e-03
1.260262019365270339e-02
1.814170865988725886e-02
1.923761961188749994e-02
1.798163686756515736e-02
1.155683327222423520e-02
-2.871113302936321760e-04
-8.972136009332290496e-03
-1.127118390607171478e-02
-9.751949752762230361e-03
-5.896730430005813275e-03
-4.669297408511570262e-03
-7.184681957959993502e-03
-9.946020689926501207e-03
-9.428019412282592771e-03
-3.766841729689720912e-03
2.799012517609663492e-03
7.387211751873295693e-03
1.348875611759132141e-02
2.011885698760767019e-02
1.860261948932865825e-02
9.204335064902199187e-03
-1.156398613370900183e-03
-8.200787156001969336e-03
-1.149518613978216947e-02
-1.367018750739516439e-02
-1.323247330523137991e-02
-1.172392925189041403e-02
-9.594824243904719399e-03
-4.829532894559569745e-03
3.234605755573488964e-03
1.298432529741962507e-02
1.884387233891005042e-02
2.027179951054722609e-02
1.641915313033340262e-02
8.117951142500481887e-03
3.334268785980689753e-04
-8.196761280141259473e-03
-1.701138515364572848e-02
-2.070703208283029492e-02
-2.312050675864088869e-02
-2.222328787490653740e-02
-1.654133008073586236e-02
-3.803008200996153831e-03
1.582750176876986450e-02
2.827338331910789204e-02
2.809690345015336543e-02
2.167915237996440037e-02
1.393107873400432559e-02
8.140038688067039591e-03
3.998188128700223831e-03
-1.306524832427359345e-03
-1.000842844180443655e-02
-2.098453088669377173e-02
-2.789237412220063259e-02
-2.646948966016978572e-02
-1.467086256587891643e-02
2.452190131081020963e-03
1.427118021911236503e-02
1.539921984184024206e-02
1.192741465478541069e-02
5.840076092487348977e-03
3.082887412961719809e-03
3.171655110132648447e-03
2.080809461689923576e-03
7.823884456713292319e-04
-4.012893684855413823e-04
-3.168814012836898911e-03
-2.995032141429389803e-03
-1.178714436818166468e-03
2.006233823446470523e-04
-1.833275493565817923e-04
3.338720350629016223e-06
-1.045055224610347250e-04
-1.513016254490962649e-03
-2.007451961161815443e-03
-3.625506407876350444e-03
-2.584742123700020829e-03
-1.163251938599153796e-04
2.721354792141820501e-03
3.819116945947071112e-03
1.997006447140709830e-03
-8.633658113328666114e-04
-1.958850431026727158e-03
-7.726316646886706094e-04
4.648032498943852563e-04
2.823303660529538606e-04
7.123449061382148726e-04
2.698505942784042914e-04
1.275510965908132873e-03
1.157787923875929067e-03
8.458032518458378102e-04
2.176742424132553470e-03
2.686272943121749608e-04
-1.523344158902514454e-03
-1.674633082011394011e-03
-6.411427988624247062e-04
-7.044011328554197066e-04
-2.155566427738570510e-03
-2.684970443806894078e-03
-1.960979904848230045e-03
-2.395488570011259418e-03
3.128313063452819467e-04
3.135974589432110899e-03
1.968030090658064776e-03
1.386578450723554472e-03
2.900283486205293935e-03
3.574052966599054575e-03
1.980323628038573383e-03
1.100578937813238151e-03
-1.130923915347804972e-03
-3.276627240519613179e-03
-2.983204833651061962e-03
-2.662475339316911716e-05
3.694231125282318451e-03
3.400295465408465900e-03
-1.086207848747999891e-03
-4.270269438526239775e-03
-4.595442657324237505e-03
-3.223618747088217822e-03
-1.749259358009843963e-03
-2.662951806094118745e-03
-3.256271336513126644e-03
-1.125435170142067036e-03
7.814525493085686548e-04
1.781599802664682363e-03
1.920295667759153125e-03
4.097921292437098004e-03
5.519202982295415977e-03
5.779051003367161043e-03
7.934702165188226020e-03
1.164908577187492855e-02
1.061236276885168910e-02
2.175452554230764175e-03
-7.132915798720291384e-03
-9.821039007765512349e-03
-8.855366783388442589e-03
-9.555447876712839378e-03
-1.241225218664709570e-02
-1.552944268070007537e-02
-1.524463328153155203e-02
-1.378076522148771223e-02
-1.225890619866565334e-02
-2.955380662545079203e-03
1.585479422933910171e-02
3.817888077646616057e-02
4.493290001642422093e-02
3.428669104513033111e-02
1.418393678374543429e-02
-2.068293024087217158e-03
-1.285919799409512322e-02
-2.274012453517969268e-02
-2.605226508767492441e-02
-2.351540243606094205e-02
-1.746191547159780394e-02
-1.104936354600969881e-02
-3.060921412390303631e-03
3.853987298114407850e-03
8.966748390597283763e-03
1.039923207528979307e-02
8.763544911655129707e-03
7.444356758989956885e-03
5.711792487774446092e-03
4.503188717133470645e-03
5.953862622803176088e-03
4.693552465802471388e-03
-8.630456518745851287e-04
-4.393170110694113659e-03
-5.850545533326221258e-03
-6.117355746186335479e-03
-5.471122704626446738e-03
-3.426338125244089532e-03
-2.087871327093131051e-03
1.061270865964568751e-04
2.737119077716574159e-03
3.097827791745711573e-03
-1.065477681579973888e-03
-3.012769006283420609e-03
-9.002551841045778073e-04
2.368457353354542702e-03
6.006360811957938035e-03
8.748455572647249531e-03
7.632829982294295212e-03
2.430122411374506346e-03
-3.586728657870613853e-03
-6.228083939837964107e-03
-7.397951283365427309e-03
-7.457058513983188391e-03
-5.828120485003487027e-03
-3.588018301752085235e-03
-2.651160657754345518e-04
5.087894404391610399e-03
5.799943378702017774e-03
3.290253078174333254e-03
1.872637063474963262e-03
6.617164181637552687e-04
-7.863035180697053230e-04
-4.930718726153030234e-04
1.363117059016703261e-03
3.210970583930103980e-03
3.309361318881303554e-03
-2.486266753951004165e-04
-3.884608504466569544e-03
-4.174484110037188569e-03
-3.640358362048701571e-03
1.004861714100832625e-03
5.893002066984576355e-03
5.193383301376439630e-03
1.195760438038896554e-04
-4.881976377009000084e-03
-6.402124081662003904e-03
-5.577736409022173575e-03
-7.686487652170065441e-04
5.267377565647858584e-03
8.878860206452296802e-03
3.682689507002065606e-03
-5.710887880641083922e-03
-1.118387771672363709e-02
-1.119112960720484821e-02
-7.566947249121261029e-03
1.482013881302191938e-03
9.768011208199811612e-03
1.135138259329420037e-02
1.228272107292734117e-02
1.549497618253118693e-02
1.317904480715216542e-02
2.512273487951200042e-03
-5.168270947206605667e-03
-1.058894917756411647e-02
-1.720866489391852452e-02
-1.822801893215191330e-02
-1.152702174762552587e-02
-3.775912205957424050e-03
2.994211111944273390e-03
5.893172229258260286e-03
5.586736871793296540e-03
7.657078123366184777e-03
7.788283666832200580e-03
4.266227755023051932e-03
1.783267436810950313e-03
-4.707131755351203384e-04
-3.624526305907973742e-03
-3.023917728999594295e-03
7.821844017718144982e-04
9.748485939034581523e-04
-2.740488764368159062e-04
-1.412463098956504969e-03
-1.200509955007993904e-03
1.139284421004515060e-03
-4.847493345090312365e-04
-2.705114974121916593e-03
-2.002281474830256564e-03
-5.030281224454439572e-04
2.749460988550524328e-04
1.557986442603498910e-03
1.516596746596638942e-03
7.571137175516451769e-04
3.369465233285646425e-04
1.153715429478873941e-03
4.359630253527484243e-04
1.365036551977878742e-04
2.203157174599931160e-04
9.557593355634063075e-04
7.812276059330112380e-04
-1.821707037892220766e-04
-2.800081602000106394e-04
1.688613752462851572e-04
-1.277970789168936380e-03
-2.013482368911575799e-03
-3.231256342771787141e-03
-3.518292782448475924e-03
-2.367741721083079561e-03
1.214109718353389061e-04
2.322613144901395418e-03
2.142864334478542486e-03
1.135495362020597998e-03
2.212359843815063672e-04
-1.232532314183760981e-03
7.792182375971697550e-05
2.388687891311322940e-03
3.447064614982094880e-03
3.567381982103130702e-03
3.959691980605910266e-03
5.366785840979122063e-03
7.467070311678697739e-03
3.854709477104489163e-03
-2.989958116303983397e-03
-7.939993938790348635e-03
-8.853299883540425089e-03
-8.698857423873315731e-03
-8.991678578130223726e-03
-9.033676887931489652e-03
-8.977410156328333862e-03
-8.472678350086625468e-03
-7.761264777408360266e-03
-4.046126020373256617e-03
5.728981487023377533e-03
2.316992871209962168e-02
3.742087513220001410e-02
3.583055563311063341e-02
1.890422143742676378e-02
-5.993020375362580806e-04
-1.518991043286443098e-02
-2.291733960154112779e-02
-2.504507364032760794e-02
-2.220093303426246348e-02
-1.663855417443639226e-02
-1.038942520134112854e-02
-1.442686630491431731e-03
7.552434703496079330e-03
1.217295371404772744e-02
1.398675428587583397e-02
1.321008945390194679e-02
1.204842321515413317e-02
7.513065130256273844e-03
-3.454758517370327725e-04
-6.302507483212357875e-03
-8.959100009172275142e-03
-8.295675081686805508e-03
-5.361351797316260201e-03
-1.048720045251839766e-03
2.468010105313481434e-04
-5.221525361318111579e-04
1.570924717577132498e-03
2.759583109291662440e-03
2.025983343762652322e-03
2.166594253409335168e-03
3.381677498125690035e-03
2.816591585891255883e-03
5.498552111967624980e-05
-1.659682371891470958e-03
-1.984228351113261936e-03
-3.932497822727926660e-03
-6.245749378644634836e-03
-5.835116977157587918e-03
-4.345454605230817183e-03
-2.246856407733969021e-04
6.999080463831890836e-03
1.198297274661835540e-02
1.165372918883180245e-02
5.817943099865502919e-03
2.169844665064013338e-04
-2.774634324980587360e-03
-5.819424201997182994e-03
-8.368314626360730604e-03
-8.331369646119596989e-03
-6.039879225673547292e-03
-3.481735989668941107e-03
-2.167331652252646630e-03
6.921956145347126909e-05
3.111074615000548448e-03
4.701981567368928791e-03
6.083074790587309107e-03
8.018408610857022389e-03
8.349358929720399058e-03
4.740771757780206166e-03
1.776297370124992915e-04
-3.131503970738749691e-03
-5.576190515130204084e-03
-5.708768938671084786e-03
-5.575208501907916170e-03
-2.772703343951059968e-03
-5.154409937461882415e-04
-1.376712520153318192e-03
-5.765234969119759859e-04
-1.702596019402132692e-03
-2.679208547229855811e-03
-1.116538858378603909e-03
1.407036396696314216e-03
3.759993075370121705e-03
5.401122258838791934e-03
3.625746607728443528e-03
1.495929657116433541e-03
4.177482801323206298e-03
7.956510212165082349e-03
5.281345488701572055e-03
-1.494823403885666173e-03
-5.747733236687293558e-03
-4.656317150889778197e-03
-2.700032834711145469e-03
-4.172151242820438914e-03
-6.459612802064541512e-03
-6.602615044436340071e-03
-8.774836406364162206e-03
-8.270264069698180648e-03
-4.333712509871381208e-03
3.789987832257327161e-03
1.332858818643633744e-02
1.720264933688787912e-02
1.469349694968404701e-02
1.021512076014695174e-02
4.463687913394898815e-03
-1.913768571877411248e-03
-7.238941947622152227e-03
-8.176043651665652889e-03
-9.938341603227006382e-03
-1.162437379845594060e-02
-1.124150836441502842e-02
-6.461780661496652894e-03
1.870663719903066036e-03
6.532961417457213218e-03
7.803917862160163199e-03
9.185525658140300878e-03
1.312550535879866698e-02
1.246990716170954736e-02
2.976115890427634067e-03
-6.917638665501012196e-03
-1.104006804468675093e-02
-9.753379513116224378e-03
-8.423499862102758196e-03
-8.569853157276038219e-03
-7.564874934703601055e-03
-5.662716016695468722e-03
-9.777449263030717989e-04
7.294491547339528037e-03
1.794457861937561946e-02
2.163049820737513243e-02
1.292111823209228863e-02
-1.774370983909149191e-03
-1.076673573335713494e-02
-1.050828645480398303e-02
-7.567079057220617126e-03
-6.103979635132874941e-03
-4.657853887728664877e-03
-1.781916751116612843e-03
2.438683660505480688e-03
7.767900482616987498e-03
1.321655278139374952e-02
1.400004208722279916e-02
7.195601960741399017e-03
-1.988115252831601509e-03
-5.384535476790613256e-03
-6.503971036626957428e-03
-1.045247573364125639e-02
-1.492459781604606357e-02
-1.692058768848928724e-02
-1.718405750035090912e-02
-1.488357814154198447e-02
-8.253706872404859701e-03
4.605462857048917349e-03
2.156990351132464720e-02
3.569337670462920803e-02
4.036871228238905762e-02
3.084031405134993534e-02
1.259926809903091915e-02
-8.668485110056776272e-03
-2.216706422929632866e-02
-2.522543491988730319e-02
-2.249231930678636041e-02
-1.826882326477467788e-02
-1.235929859830377925e-02
-5.088755199497807524e-03
1.635181100027343704e-03
5.691013424914851543e-03
6.561466197171457286e-03
5.620146209548304399e-03
5.500040271638573924e-03
5.342101442077817203e-03
7.032212209790722479e-03
7.098448118231820425e-03
4.329380460029416330e-03
9.884939083712759953e-04
-1.307448491420278502e-03
-4.027865639444141999e-03
-5.010020180819496974e-03
-4.862031683213747027e-03
-4.515799687838876163e-03
-2.933443274477132851e-03
-9.187005558483200048e-04
7.158933942193366432e-04
1.454707472068105271e-03
1.841785009347001335e-03
2.870296190646148653e-03
5.372615938124901402e-03
3.918389533367855511e-03
1.160830445785364417e-03
2.118150486961165198e-04
-2.353274533855829207e-04
-2.695385942410586863e-03
-5.239763264126693319e-03
-5.764367589826367710e-03
-3.818019437263598347e-03
-4.496125833575169190e-04
1.331880002585352418e-03
1.130601703397846438e-03
1.310346113769852473e-03
8.840927349787030664e-04
1.457802337871917523e-03
2.046838247570824723e-04
5.406146477422225146e-04
1.591211640441471918e-03
1.546081240069055061e-03
1.625329179289262266e-03
1.350597768958077807e-03
2.973422332921047805e-03
2.477760563753121301e-03
2.556776453479223544e-03
1.176653227242590140e-03
-3.379738457742300847e-03
-6.706809942766677433e-03
-7.120306998273764724e-03
-5.653931139993685108e-03
-2.397262383984907069e-03
-1.687467142274020259e-03
-3.266346879469128866e-03
-1.539383409909348994e-04
6.844228868920797237e-03
8.515139537422904484e-03
4.470268195760405613e-03
2.679806013219412399e-03
2.988476121107872321e-03
1.234387314641684002e-03
-1.745753038409135526e-03
-2.399872653326514792e-03
1.274934981927799841e-03
2.265080618540769863e-03
-1.258612970361930230e-03
-2.878918251585300611e-03
-3.791857494187695580e-03
-4.406367229764129173e-03
-2.659950326258196142e-03
-5.766093770084512130e-04
-2.988612590680421216e-04
1.251090389507736019e-03
2.144200013843830781e-03
-2.881890710076413374e-04
-1.525897984131798857e-03
9.783160153717974927e-04
3.825057982537546745e-03
4.376241384017982676e-03
2.275896839148650215e-03
-5.538292002429604909e-04
-2.967376906870269719e-03
-4.445330521202549810e-03
-3.265111527736373927e-03
-2.606216181893457502e-03
-3.533041615971161016e-03
-1.487254411266203955e-03
4.250298190837625660e-03
1.055928417292111010e-02
1.139715275035978019e-02
6.501221056314718250e-03
6.335278455274261176e-04
-2.664566665647491277e-03
-2.738272858265799071e-03
-3.942732055928659281e-03
-6.171196639949779253e-03
-7.288285607434438068e-03
-8.619653196951487795e-03
-1.312308413784116397e-02
-1.410517374589489309e-02
-5.611135330558998310e-03
9.622482991249058440e-03
2.106318772033018497e-02
2.150239652777847024e-02
1.573815964636542108e-02
7.902340876623160232e-03
8.501375866397343443e-04
-5.816246843019972149e-03
-1.069923324021461106e-02
-1.135276442670165795e-02
-1.113239021392941480e-02
-7.584235274084022774e-03
-1.894674753465797187e-03
2.336949121820593167e-03
4.594140604954880490e-03
6.222146877259200626e-03
6.916126208981081443e-03
4.412798460954131530e-03
-1.850793693956449262e-03
-6.773318295020256882e-03
-7.832425548628620462e-03
-3.715642737626275068e-03
4.864409942218871487e-04
1.818907560070712063e-03
2.965309332354929776e-03
2.017799364958758768e-03
1.932212170652861409e-03
4.268487668600672719e-03
5.985336976097056436e-03
5.393000598133509960e-03
3.988970634316272787e-03
1.734889349924004578e-03
-1.256244971392607088e-03
-5.473940353731998609e-03
-9.408393888116987208e-03
-1.183442706288492449e-02
-1.211620395528873947e-02
-1.112768353983905126e-02
-1.004235612053941580e-02
-5.770665929142783888e-03
4.444663032653203665e-03
2.087507224732348260e-02
3.381609714738431638e-02
3.456828254820920598e-02
2.108836735038500595e-02
1.516299820283676736e-03
-1.189993544220700403e-02
-1.467058620856125442e-02
-1.368865947960052482e-02
-1.575203204622023512e-02
-2.113005203469959029e-02
-2.568833003589843580e-02
-2.653899744318840084e-02
-2.206205035154627445e-02
-1.362081229930457889e-02
1.255338623317425609e-03
2.454282776467112126e-02
5.049750896609297296e-02
6.042107202644046715e-02
4.307885194862511730e-02
1.544453732349908640e-02
-5.055030550799834849e-03
-1.835665784589088009e-02
-2.507879002820239886e-02
-2.768640160110476256e-02
-2.982711241949531286e-02
-2.575828177258502466e-02
-1.481249206528703274e-02
-3.824816970289673240e-03
3.851689767212878451e-03
8.635795429519201385e-03
1.270933051984335545e-02
1.403582105184871150e-02
1.151698216427917386e-02
7.405142918805333874e-03
4.074967694708473559e-03
1.869748184435738670e-03
6.299742851566436893e-06
-1.903323332746215948e-03
-9.512228085304117245e-04
-2.355950122701997590e-04
-7.643340122445443311e-04
-5.280794441819382842e-04
-1.354113237819700886e-03
-5.078946081805505060e-03
-6.517287479700992550e-03
-2.606802717130514771e-03
2.565042495789284643e-03
4.786472412094846043e-03
4.913903561988822513e-03
2.923923541190142326e-03
3.562277187848184794e-04
-3.500971319020889858e-03
-7.797925792597539506e-03
-1.012737081514628046e-02
-9.888312938366354901e-03
-6.159631308528708271e-03
4.729010999093580074e-03
1.590846417242599078e-02
1.819691258922278079e-02
9.855261309143579368e-03
-9.773890851274434546e-04
-3.761503442920286627e-03
-2.490756153375052896e-03
-3.172850453841294469e-03
-5.123199629267823768e-03
-6.448911269250975561e-03
-3.887839388059794940e-03
-2.567477286078347944e-03
-1.310740554712932885e-04
2.584056285346747472e-03
4.447104953340276848e-03
5.712853453114355440e-03
4.207473335383168055e-03
2.348404111115243425e-03
5.843555159209558574e-04
-4.129138279687132908e-03
-7.800207751880000942e-03
-8.251100120094639889e-03
-6.341280143969170273e-03
-4.141212587478931839e-03
4.010995420483874879e-04
8.110936148313586253e-03
1.094867904143343069e-02
8.787050367611952406e-03
4.523617607149177031e-03
1.180558810850343638e-03
-3.814531077436232359e-04
-1.609905783510741113e-03
-4.726426336431994828e-03
-6.766746352796147029e-03
-4.302085312563546857e-03
-4.506338614131843068e-04
1.079000942350714269e-03
-4.992315681476798810e-04
4.291336497908942204e-06
1.089601205380401642e-03
1.431616371589167344e-03
9.450881402293092454e-04
-5.927763479110575388e-04
-1.105704109265262742e-03
-1.869480558595307566e-03
-2.024637407020403630e-03
-1.481829439315562706e-03
-7.755863280762844390e-04
-2.304756772098324262e-06
1.784745445569604991e-03
5.350747358617876162e-03
5.784270379474557022e-03
4.247306921632223835e-03
3.554034737959169653e-03
8.534499423452563457e-04
-6.119089555851964582e-04
2.655206325607602203e-04
-1.039317443470903985e-03
-3.533927614635680534e-03
-5.123994566218068730e-03
-7.032301097857013641e-03
-1.043991054448691752e-02
-1.313230772088145974e-02
-8.897243783659025684e-03
2.086560973708835240e-03
1.475952326806969153e-02
2.053796228379663538e-02
1.691254839701794924e-02
7.285463490469656911e-03
-7.125584220649802594e-04
-5.749444060971000206e-03
-8.513262325343471520e-03
-1.033004946828773411e-02
-1.086530189172055239e-02
-7.352190606406178511e-03
-1.145770070176268174e-03
7.470233476112473833e-03
1.242106212639949858e-02
1.252625137206061709e-02
9.521448020287348254e-03
2.267521846606899809e-03
-4.390049505600775691e-03
-7.698289291831419794e-03
-6.682485035005863820e-03
-7.480691564318049137e-03
-9.914716674678731786e-03
-9.020802067986720060e-03
-6.352599512914697266e-03
-5.421468710957678613e-03
-7.447373812326510065e-03
-6.045244019767364793e-03
7.101333484807841046e-03
2.390382240735429084e-02
3.159805499317179522e-02
2.707681896149332149e-02
1.628065391155495215e-02
3.260916201864376657e-04
-1.272021965269563501e-02
-1.894798136786512641e-02
-1.963612138933057763e-02
-1.954132198469115886e-02
-1.664810839464177239e-02
-9.170650653016788889e-03
4.868565263953310534e-04
7.253281662790213649e-03
9.941336868436994462e-03
9.858851454355678154e-03
7.129201262127829800e-03
4.489025422810122637e-03
2.238113986141805276e-03
1.737485959811980530e-03
3.661343522055068400e-04
-2.074723213156612692e-03
-2.142454464309023320e-03
-1.754921178709564940e-03
-4.060827777083755017e-04
1.022793839740153638e-03
1.945732654745773805e-03
2.076502901119953864e-03
1.890867388013721048e-03
-4.210171847410145709e-04
-6.204672314262528812e-03
-1.023585777392887683e-02
-1.002854814583691023e-02
-3.701250488090194676e-03
8.644829669020253834e-03
1.530630466489819527e-02
8.839991105886502859e-03
-2.346138645162632735e-03
-6.814146531175101391e-03
-5.051419033615544077e-03
-1.626641281272857991e-04
2.741968950971468248e-03
4.636726129444924266e-03
3.886569142743175227e-03
-2.069300080255770391e-03
-4.656767712347399842e-03
-1.814110967269082230e-04
4.838531714079200366e-03
4.208397747120555532e-03
1.067156944479113719e-03
-1.566367185375529313e-03
-2.924336437260400233e-03
-4.028798565508884613e-03
-7.080925034851559205e-03
-8.750433925703194823e-03
-8.117639391484162206e-03
-7.448076000492195349e-03
-1.679210682242272433e-03
8.897227232711316103e-03
1.388722198261440645e-02
1.246263715636541231e-02
1.014565428097023367e-02
7.970023293587020705e-03
3.245996901040416882e-03
-1.275666045835083728e-03
-4.408493784740296489e-03
-8.038298554622198139e-03
-8.558946179596689519e-03
-6.314221462816278427e-03
-2.835158777707428787e-03
6.982458629079589616e-04
1.939340311850513846e-03
1.956383203675818305e-03
5.022630833864069090e-04
-1.090028660011989987e-03
-3.881733300664852448e-03
-6.913469803985760991e-03
-8.133877229906796152e-03
-5.178186614492256978e-03
6.471268127826027613e-04
6.330187943608160499e-03
1.385117015311006748e-02
2.025113053713826355e-02
1.487787699737660140e-02
1.968076672611182923e-03
-8.349555842865232294e-03
-1.163942904304803364e-02
-8.381074572378632848e-03
-4.563283837238269608e-03
-3.734244958710355305e-03
-3.479046941373360735e-03
-1.360622549426327701e-03
3.713876271273057472e-03
6.614448130838758433e-03
4.992939613943873228e-03
5.041552408596918378e-04
-3.178640918511478619e-03
-5.859007409928370172e-03
-6.853695519185471451e-03
-6.371457197308174648e-03
-1.858412675106441061e-03
4.516042997014338770e-03
9.053695619832810570e-03
8.654257406411378778e-03
4.011887251617148563e-03
5.255075270715677416e-04
-1.163830603988041034e-03
-2.578275650600433001e-03
-2.975155412433806018e-03
-2.394202970676094847e-03
9.418381599029048996e-04
2.240622236223472046e-03
9.796822635413330194e-04
-1.071700205573227578e-03
-1.220717052434004473e-03
-8.820748892611712626e-04
-2.065128623117825843e-03
-1.268314214977960767e-03
-1.838202248846361854e-03
-2.068629718500609484e-03
2.192047227596947013e-04
1.569534303759154798e-03
1.584992849534002084e-03
3.684635375443702076e-03
2.434318916460271806e-03
-1.504043631157543593e-03
-3.054651350037410756e-03
-3.106821881707154398e-03
-2.108740296920071002e-03
8.324703045075325825e-05
2.372393077070273325e-03
6.388683539535117140e-03
6.877130494692378603e-03
3.450245572837108698e-03
4.406625532653695300e-04
-3.620495084273129324e-03
-6.077456680202936688e-03
-3.041001777507751965e-03
-8.255645777388556563e-04
-9.904321408382495574e-04
1.209052691397212469e-04
-3.681481463086544816e-04
-2.714202088184802103e-03
-4.253347694219741792e-03
-4.443483901466590419e-03
-2.584384074362225045e-03
-4.219730238990162499e-04
4.348580432159178670e-04
6.403274525863666012e-04
3.866610354897655893e-03
1.313720604429569755e-02
2.075662401492572515e-02
1.884556929358374017e-02
7.593859319023382043e-03
-3.805062191476124567e-03
-1.010142570439942142e-02
-1.576448261245051372e-02
-2.077252346764859800e-02
-2.319512640396491007e-02
-2.209114618283182854e-02
-1.645151950973234439e-02
-8.884071525547709847e-03
4.272558981580914725e-03
2.360366623108059100e-02
3.849419519676985230e-02
3.915229460907829889e-02
2.650809427983475200e-02
9.004634729429906309e-03
-8.835772700964729387e-03
-2.104773757450085700e-02
-2.309047661409059995e-02
-1.883254301461789390e-02
-1.304289806633810583e-02
-5.718906758593662876e-03
5.795881400450345750e-03
9.121873024779913325e-03
-1.127471974406670023e-04
-7.135995703591500178e-03
-4.132117647826656290e-03
7.447940104311763336e-04
3.804334956708497507e-03
5.805521276529202433e-03
6.907536500366948974e-03
7.268062681989951972e-03
4.440230637474883515e-03
8.439828096269629768e-04
1.022026937819513578e-04
1.854178416377121096e-03
6.912761595991643963e-04
-3.919847838921150171e-03
-7.784881784711709246e-03
-8.081746405718542858e-03
-8.242249605165180223e-03
-6.815262967154265411e-03
-2.965426843015555106e-03
6.191967826096914877e-04
3.820408351626625783e-03
7.858911940603613769e-03
1.177650629911041087e-02
1.197393375566810012e-02
9.383547175690554881e-03
7.340338678951955492e-03
4.728827822953442922e-03
-1.557240229710974951e-03
-9.879811371773719944e-03
-1.429280564728503330e-02
-1.138973376837947721e-02
-7.461798801895434124e-03
-5.979438459374757098e-03
-5.305532609184088547e-03
-4.351460094729536418e-03
-3.968119434599934152e-03
-5.901426384578385177e-03
-5.037720365579536133e-03
2.633108469732234336e-03
1.709179165781645263e-02
3.030104110538265130e-02
2.909204173044390926e-02
1.377885893810926882e-02
-1.518586228260591410e-04
-5.974226712507250264e-03
-8.743008594348206097e-03
-9.845548556245403010e-03
-8.490717920340342187e-03
-9.763222556199898858e-03
-1.529062781263936313e-02
-1.819335580091878055e-02
-1.605231995756661173e-02
-9.698713049425548155e-03
-3.846855340147481081e-03
6.555654751993812441e-04
6.026191983444241160e-03
1.857612472317451621e-02
3.158339257976573028e-02
3.197814267914148023e-02
1.817848921399324233e-02
1.308006570525388013e-03
-1.020541741976763866e-02
-1.381273294548465008e-02
-1.235777413470112891e-02
-9.774058275345472516e-03
-8.919296453583532014e-03
-7.888598349032866983e-03
-5.794697787996199237e-03
-3.978076425489980583e-03
-2.647047189792911016e-03
1.864362004706852742e-04
4.577347995127514085e-03
4.514198728262369328e-03
2.857026478302262737e-03
3.234327558161178250e-03
4.687863796501719194e-03
3.796820348770375657e-03
3.061493703169164589e-03
4.795064255196276361e-03
3.951310964939798616e-03
-1.343687164194805632e-03
-4.139513072504951742e-03
-3.453961695589698004e-03
-2.127280840769541718e-03
-2.235065479537869972e-03
-2.638362508082693972e-03
-2.181158578685763252e-03
-2.958860143986309752e-04
4.052799238486506635e-04
-2.232061260413404681e-04
-1.539953491327288471e-03
-5.935111772382283424e-04
2.990909346235819458e-03
4.107608225786010987e-03
1.320690329854482285e-03
-2.225353957467126643e-03
-3.998340884991052196e-03
-4.524210658206007790e-03
-9.824541621632680664e-04
4.245258017147106669e-03
6.929057444306243457e-03
7.092724451695536780e-03
3.368060899419475507e-03
-8.994395696793201344e-04
-1.461318660778463275e-03
-2.468895070353856452e-03
-5.023863984049155469e-03
-5.495367236751303591e-03
-4.825144262248822445e-03
-4.102145950897135088e-03
-3.954437564883073360e-03
-2.722746839665002305e-03
1.091884893116934789e-03
5.922162686587378877e-03
7.891598854799262291e-03
1.027149905760863652e-02
1.112165248864836753e-02
8.483287449247979908e-03
4.050959905268520546e-03
-9.334555009192569471e-04
-6.885116780253349063e-03
-9.756133415052261823e-03
-9.718898376842298806e-03
-1.176715232374568598e-02
-1.472725846706030017e-02
-1.599410421297378301e-02
-1.383381041159725301e-02
-4.200408701994663881e-03
1.145643001180967485e-02
2.982668537390293501e-02
3.869749993969991142e-02
3.082298815510061893e-02
1.353251264613123533e-02
-6.063225623345845638e-03
-2.013936876325276432e-02
-2.715241490536035238e-02
-2.647494264994051244e-02
-1.837458109643564860e-02
-6.746683795904172276e-03
5.010899700157271652e-03
1.170641240201501961e-02
1.321222307242495356e-02
1.079128083468485974e-02
6.017230885069935892e-03
1.539180418700122714e-04
-4.173667599082647034e-03
-4.052259161448994694e-03
-2.081029228189370910e-03
3.655124464349401696e-05
1.188380616120984692e-03
2.381631327553986911e-03
1.863102953538741833e-03
2.295159266845472976e-03
1.605825065383641821e-03
-1.359260033779687970e-03
-3.168111348659377775e-03
-3.730486233772269643e-03
-7.989778265057921689e-04
2.406071214143462589e-03
1.929667691536568171e-03
-1.576164717528153337e-03
-3.310942514198997495e-03
-3.636373604896347023e-03
-2.588092255740918630e-03
-2.476672803541178115e-03
-3.624103618064184081e-03
-2.390507600041747675e-03
1.032866903625450630e-03
7.343277744165817127e-03
1.109854033380637886e-02
8.340516526407940751e-03
3.917500018477882394e-03
3.399829534806024164e-03
8.800536859722423322e-04
-4.994586157723726952e-03
-7.652282713260624009e-03
-5.858306792165550794e-03
-4.160286080854151518e-03
-2.196851755164330039e-03
1.037034917376567335e-03
4.799966533554821872e-04
-2.483028734938802062e-03
-1.854255615793561074e-03
1.546483054239901225e-04
1.507980887186752576e-03
9.480438632029173241e-04
1.037862979360041705e-03
1.896010572319523210e-03
7.303641421095303631e-04
-5.398490502662490770e-04
8.954452609344013946e-04
3.087466780695299288e-03
3.446584906134269113e-03
1.947009702720446699e-03
-2.439466360121640622e-04
-7.613164354394601511e-04
-3.088000172516527681e-04
4.001443284050410182e-04
1.920684951001131065e-04
-2.711781375383005410e-03
-5.348495783006635210e-03
-3.518080225905227936e-03
-1.240859072456984178e-03
-9.909212610524442775e-04
-6.454671945245046231e-04
8.666682810350093006e-04
1.882685307570595773e-03
1.816243378156723971e-03
2.221598323570712734e-03
3.433625233754507115e-03
4.718799466082160797e-03
4.580500622366700213e-03
3.049723253840777235e-03
9.254866272690972281e-04
-2.662448055583864753e-03
-7.197948796484228418e-03
-8.334729680296132717e-03
-9.493380985156212731e-03
-1.301529199365214148e-02
-1.132061394365091456e-02
-1.263185325920333042e-03
1.280382988823370802e-02
2.145554097545599934e-02
2.040782119214462273e-02
1.081720487053110941e-02
3.402916616051788329e-03
2.282553610217589665e-03
1.174177031007216316e-03
-3.307148945857686217e-03
-6.743418468347323752e-03
-1.169301492250907765e-02
-1.821313517638977614e-02
-2.156117815149751621e-02
-1.890814220695931705e-02
-1.072154656267710303e-02
-1.547306960933854869e-03
1.125601319566598563e-02
2.909623364241046770e-02
3.686201212043109521e-02
2.624854046748350406e-02
7.191285525372879267e-03
-8.612683694240053783e-03
-1.501806652949860821e-02
-1.583855662173432391e-02
-1.383964412306059114e-02
-9.345119932994338727e-03
-5.103093940889676453e-03
-6.283435042550194246e-04
3.837112218012280265e-03
5.342496149644708481e-03
4.025270783407400646e-03
1.734278090745505633e-03
3.465495413834423946e-04
2.363064816479312931e-04
1.948352854003409856e-03
1.920805274998490164e-03
-8.055089592841093143e-04
-2.454985380062980026e-03
-4.721593169419046232e-04
1.591481738140139348e-03
-4.335216042231538496e-04
-4.472632260912106847e-03
-5.111339871682813070e-03
-2.603058033485211240e-03
7.875769857161689629e-04
2.152812077696420953e-03
2.820328709740728412e-03
4.688681488062802077e-03
4.886974985749107867e-03
3.255362872968591871e-03
4.794025823471340965e-03
8.078001628352118185e-03
6.492963892564728758e-03
3.074574047222299804e-04
-5.901961889900855102e-03
-9.335649301503642916e-03
-6.971393072728016525e-03
-4.403650647643531091e-03
-6.073895535988539304e-03
-1.145999434761697279e-02
-1.692003720534352232e-02
-1.647663267437293050e-02
-1.054335770767314551e-02
1.059873377678225087e-03
1.907031675162270887e-02
3.330425496460203555e-02
3.651593162586792840e-02
2.712963476942427399e-02
1.152904671826750910e-02
-4.013850444149438812e-03
-1.453005257853690405e-02
-1.723059433767362703e-02
-1.680506623984874201e-02
-1.775201744962137673e-02
-1.442695166881292901e-02
-7.650167173774331114e-03
-2.709968909501505457e-03
-3.579589249175245858e-04
3.640843082377390877e-03
5.827464601289848722e-03
6.319354400198286953e-03
6.039787389970546760e-03
3.031112512334325007e-03
8.236242932758138045e-04
-7.406952082615028601e-04
5.776721423942957848e-04
2.077731336966951933e-03
2.974777450876235716e-03
3.632225278313683942e-03
3.424698584207782302e-03
1.352198089984090476e-03
1.693856231216858254e-03
3.033199167590420152e-03
-2.016694638638974306e-04
-6.735825315745801005e-03
-9.804560825276647726e-03
-6.598550431043017153e-03
-3.868814298621374198e-04
3.460673645095632342e-03
4.805439217757727539e-03
3.556838984716646432e-03
1.201144173142101043e-03
-1.129843091433418268e-04
1.360040312625434243e-04
-1.143742691842565768e-03
-5.474493392610016093e-03
-1.037531853743630869e-02
-1.211958910801958292e-02
-8.953400582429417442e-03
4.135993302780296521e-04
1.068667686126910203e-02
1.805594070395676390e-02
1.865657958387113499e-02
1.298578642801094182e-02
6.207166562370776755e-03
5.282443673654583453e-04
-6.617099442648372368e-03
-1.171700865372466392e-02
-1.111314236190637239e-02
-9.527477787635274184e-03
-8.908997777718804384e-03
-6.440955286256577414e-03
-1.098976179411002970e-03
2.684411165415906061e-03
4.168118173186390746e-03
4.156410761859457605e-03
3.462025453792477205e-03
4.574156706678328931e-03
6.309315955611660351e-03
6.247095590569964711e-03
4.542718891723729856e-03
4.081058849916605231e-03
7.155740243223933459e-04
-6.806758089225530169e-03
-1.302325599269321156e-02
-1.261532550831133762e-02
-6.812747813749605967e-03
2.405927074324375192e-03
8.191594652902398771e-03
5.839310701094747695e-03
1.480291954961812867e-03
2.158264225738018571e-03
2.702472333913262092e-03
1.136161142644410071e-03
-1.039013097681341376e-04
-5.756551754547004681e-04
-3.040287339061435094e-04
-1.303966125372887572e-03
-1.473460481358599902e-03
-8.305445745582190175e-05
3.966561535231589801e-04
-2.086180549679955015e-04
3.783974383540807790e-04
-1.304852355044514251e-04
-1.263448336748445667e-03
-1.314179297603691211e-03
-6.994190986210849920e-04
-1.350268516275516433e-03
-1.526884783887911884e-03
2.106370971699417802e-04
2.677572138761221397e-04
3.868253229890210375e-04
1.691553783221335164e-03
2.088898148798040352e-03
2.674503186609233224e-03
3.000434612624123046e-03
1.532278119737441298e-03
-1.756172207870183377e-03
-2.787104056981230815e-03
-2.836612181138722585e-03
-3.954308276730692309e-03
-2.246870833321278071e-03
1.290429243287082592e-03
1.233402562631850377e-03
1.463760734354801725e-03
4.185142435752224437e-03
5.806494077033091429e-03
4.728536742618603093e-03
3.333208346018324934e-03
1.429225554690431070e-03
-3.130374710108550958e-03
-6.202032213292603749e-03
-7.723247409491555172e-03
-8.507259010123674123e-03
-1.253539692402422592e-02
-1.353796550927654704e-02
-5.383739368980942387e-03
1.027332902883253477e-02
1.726120618319488750e-02
1.416868436237515849e-02
1.143225178188043804e-02
1.088175156556878652e-02
6.961228334074498827e-03
1.690439120703891721e-03
-2.797430115442204462e-03
-6.525495517131934577e-03
-1.043147646057864149e-02
-1.222776554956340675e-02
-1.080997919081680761e-02
-7.008975658722764457e-03
-3.434069455721167063e-03
-1.271378604948650076e-03
1.080620906869921840e-03
2.351774673381442672e-03
3.114033244186725519e-03
4.238276194539891163e-03
4.436730946365247293e-03
5.132516784191409019e-03
6.636062767179407539e-03
7.683925215410921175e-03
7.425085685668995211e-03
7.260786346114015029e-03
4.755332141433749396e-03
-1.767698114990782577e-03
-8.779524959823504018e-03
-1.088240125494851704e-02
-8.878955608119827939e-03
-7.318382808505413673e-03
-7.167189146714892864e-03
-9.779962284587152138e-03
-1.431766877984536751e-02
-1.456382584114565039e-02
-8.107014486176821952e-03
6.984641154035289498e-03
2.419696763882023607e-02
3.662895819806312458e-02
3.498988543504621268e-02
2.163067862516835499e-02
4.753295284034394358e-03
-9.655046577537320512e-03
-1.962115810677147673e-02
-2.226602045883791653e-02
-2.032944356086406265e-02
-1.832433144926829890e-02
-1.213900347484118611e-02
-4.743301863983164640e-03
3.881333326853477275e-03
6.965557122804399287e-03
6.650782527077752151e-03
7.558479855553097010e-03
6.848866928879430299e-03
5.948587642070573764e-03
6.412726414550011175e-03
4.418292163630675728e-03
1.284803026208220867e-03
-1.904384249791387350e-04
-2.291406382329116455e-03
-2.001228114294742368e-03
-1.484759402621391351e-04
-3.283521532917242744e-04
-1.414495517930496439e-03
-1.418188313982600955e-04
3.586754772466504873e-04
-1.802399724632514902e-03
-4.825578896845264358e-03
-7.187090141685108236e-03
-6.571577586089563487e-03
-5.369905838447201762e-03
-3.820952850172630068e-03
1.655738508471007184e-03
7.308346683912451264e-03
9.669609585514968991e-03
9.666173693442747794e-03
5.592770604946423196e-03
1.807883410410559633e-03
2.176037546536971519e-03
4.583376941873589655e-03
4.765447028462790197e-03
1.358772343439210942e-03
-1.487489794033691705e-03
-5.843614750434157970e-03
-1.388124545197844638e-02
-2.023434814207580867e-02
-1.901545458044731976e-02
-1.068735477218128206e-02
5.176495357216636620e-04
8.561631121693859953e-03
1.854758998227734254e-02
2.563890497377754180e-02
1.931205282938054310e-02
6.689348531269869585e-03
-4.556183260623972164e-03
-1.062353090631104960e-02
-1.065993931713478740e-02
-6.749190644058706071e-03
-2.525465141755466048e-03
5.009528215525074855e-04
8.179016307953070487e-04
-1.096747346505160632e-03
-1.853589477363631584e-03
-1.861825277975794621e-03
-4.106949904051858044e-03
-3.317310675518516088e-03
9.115107032079139155e-04
5.639831666494692433e-03
7.175021496324868533e-03
6.410067696243122379e-03
4.398150482734071443e-03
3.727620109074384139e-03
1.964371304530349201e-03
-1.629309284387977152e-03
-7.462826423297274497e-03
-1.012007093635368046e-02
-7.818442843796367947e-03
-7.446640460594896455e-03
-9.160140503493684888e-03
-8.070899289733254184e-03
-3.655683776903026244e-04
1.072712965225428722e-02
1.827753888827040457e-02
2.049278552193587247e-02
1.826896927049447700e-02
1.076739584802535732e-02
1.540677522759942113e-04
-1.143612970232312127e-02
-2.050621657242901463e-02
-2.263448059300314161e-02
-1.459328139543877856e-02
-1.508805134795579211e-03
6.653653212667618583e-03
6.685276621197141882e-03
5.332186973214392799e-03
5.248625124486307365e-03
4.224235767299334976e-03
1.125534149719502721e-03
-1.518415246464194712e-03
-1.184906326585738598e-03
3.647173793072126173e-04
7.434032209857066326e-04
-6.226465933073385087e-04
-8.167341511860172140e-04
6.173070539487201559e-04
1.828646469861732815e-03
1.102780411362379309e-03
2.212699178788081012e-04
-7.226890892609290438e-04
3.676971575409969308e-05
9.071449141025728514e-04
-1.589630401328311429e-04
-2.760780014203852509e-03
-3.893601221345896479e-03
-1.761359095875747330e-03
-4.820534128425366875e-05
-1.369346694628708141e-04
8.731397379742617676e-04
5.508579138000369154e-04
4.384325948787077556e-04
1.166077297598800593e-03
2.755102769909663091e-03
2.633008182015207643e-03
3.634871225680765222e-04
3.939306963557785593e-04
2.139193750625137738e-03
1.968024392930065296e-03
-8.428049703827101159e-04
-1.511398632826936855e-03
-1.497623962430809537e-03
-3.924509149996211269e-03
-5.644795639252318808e-03
-3.958560919320010599e-03
-3.486365810323271541e-03
-6.108043036722090278e-03
-4.566040022282578069e-03
-3.317854222165252738e-04
2.789211628331759660e-03
5.358976471768127706e-03
9.704377810722957659e-03
1.472604748436970139e-02
1.636042884502128536e-02
1.476421457932592524e-02
1.052114944710945410e-02
8.564451229659474866e-04
-9.037421597805165088e-03
-1.252611896198965735e-02
-1.324961603849753901e-02
-1.410992385268252346e-02
-1.542517760790026657e-02
-1.828565606371190116e-02
-2.304252911587926708e-02
-2.689672993360527412e-02
-2.257001959759652107e-02
-8.013182305320902445e-04
3.448720861917129593e-02
6.277586882335112195e-02
6.215987435304552722e-02
3.617712144714384237e-02
7.242780690109865832e-03
-1.049124435127215399e-02
-1.887761475841194178e-02
-2.015513998692120001e-02
-2.192416547051516049e-02
-2.823887605619927743e-02
-2.887760648005999187e-02
-1.761860645850773371e-02
-3.207738172273946753e-03
4.987269583666929795e-03
9.172342918517211938e-03
1.303441208636533719e-02
1.423670698860230246e-02
1.079762881929171095e-02
5.640025710110324608e-03
1.836389410435388054e-03
1.478685765446149751e-04
-2.270944972036311089e-04
-1.356973267615228405e-03
-1.699513998868270150e-03
-2.233863302019604795e-04
-2.220793541993183664e-04
-1.987041672406239350e-03
-3.109021198854587317e-03
-3.814157879940340522e-03
-2.991988762241956298e-03
2.833770691814537185e-04
1.417398747416608257e-03
2.507137266601884226e-03
4.870187218269569733e-03
5.389526434686666388e-03
3.693683952194457085e-03
1.709175757048160332e-03
7.729086044480030365e-04
-4.917832891748063649e-04
-2.958841014388791189e-03
-4.089890360675256693e-03
-4.335319479666043668e-03
-5.452190816966143161e-03
-8.827094019645456008e-03
-9.226882065016123180e-03
-6.560381829791751482e-03
-2.081204696203237114e-03
1.743518122052277897e-03
3.498753907392516873e-03
7.986934323988054488e-03
1.720590560470720495e-02
2.331633334751768288e-02
1.596019874676119638e-02
1.337409492656880259e-03
-9.074107339114508702e-03
-1.177532119817414555e-02
-1.046119724956338926e-02
-7.453324672687224386e-03
-4.595381225833894065e-03
-5.678954810173152470e-03
-7.125788354698038389e-03
-3.477167576428215681e-03
1.617648025642945625e-03
2.718470358558924913e-03
1.280708963826899778e-03
-6.140002238938944892e-04
1.711879455269004055e-03
8.041815603916561625e-03
1.172834008419886692e-02
7.925140271665419983e-03
1.447831920641450508e-04
-3.250101039284207863e-03
-2.622703077025096037e-03
-3.392811322604542823e-03
-5.194563032811573902e-03
-3.393627534491439578e-03
-5.233660445832448004e-04
1.198531152674201699e-03
3.327123810933946160e-04
-1.164968097520653584e-04
-1.762390547014398205e-04
-1.379017461594435811e-03
-1.270607353948601534e-03
4.841841084679598993e-04
-1.106059766474552179e-03
-9.519594508670952294e-04
1.769009311172601131e-03
1.471856880185509232e-03
1.113641509180250764e-03
1.661635492848739966e-03
2.243763365505394361e-03
3.199549685182304440e-03
2.723782429133415547e-03
3.779195285192445890e-04
-3.517426248760702721e-03
-4.827490827155596007e-03
-1.856501033369055984e-03
-1.906925452013483136e-03
-3.731243873520215335e-03
-1.500214603140269430e-03
1.003947572476561424e-03
2.285737882191352446e-03
2.216494592204696149e-03
1.267101572381792432e-03
5.042184034271608890e-04
3.668805287917401427e-04
2.038499115279106180e-03
5.005765724290510074e-03
6.908050310249137793e-03
3.366232170662998634e-04
-8.392238389428936796e-03
-1.067598810992348955e-02
-7.522627180723503483e-03
-1.154417280979561913e-03
4.994671262867459577e-03
8.874402724458038683e-03
8.903866898460037135e-03
4.583494409706526974e-03
-9.081655700450307674e-04
-1.320879903433801574e-03
-1.824096158438090216e-03
-3.438886658381230983e-03
-4.256059305155963403e-03
-5.997379690953171145e-03
-8.525703561165580077e-03
-1.092021716568940780e-02
-8.740799206746781638e-03
-4.508222601352638898e-04
1.027817023932761815e-02
1.821311575711663869e-02
1.914095026343904521e-02
1.398142664945728648e-02
6.040537958557344947e-03
-5.018910512688007787e-05
-5.491587484733728881e-03
-1.043256124336280205e-02
-1.318810089650247069e-02
-1.342632714623882319e-02
-1.123990075374118290e-02
-6.070713429266679645e-03
2.391467130245813848e-04
5.120831716615945571e-03
6.490066969938045743e-03
7.770851460071025174e-03
7.354959824539496031e-03
4.389918046718860149e-03
3.196518705844406984e-03
2.431001626514443098e-03
1.035375462221550151e-03
-3.286069253328963678e-03
-3.228453057443441982e-03
-2.632530837921560375e-03
-2.440741733920100652e-03
-8.446890935039951583e-04
-6.056677774414671606e-04
-2.033763500741429722e-03
-2.988041250443725528e-03
-4.066815114990397946e-03
-3.118741359221012272e-03
-1.657415165238876158e-03
4.722475292755665371e-04
3.561004403685253186e-03
6.350642675471713378e-03
5.267028271686492735e-03
4.032418589005758516e-03
6.344633710144130696e-03
1.008660876938801548e-02
8.864532846103985106e-03
7.212606610366471219e-04
-6.352372286308723484e-03
-7.979530066735124674e-03
-8.874537305965334716e-03
-1.092997746927358571e-02
-1.336546670648392117e-02
-1.349559914580732156e-02
-1.254277423410296230e-02
-1.154085615650813842e-02
-7.093636834265792251e-03
3.401764109846975529e-03
2.034576169620484765e-02
3.763245046959955153e-02
4.155963794538861805e-02
2.943657349373852983e-02
1.157585693708997054e-02
-7.755906401458099314e-03
-2.007805350041865292e-02
-2.562231952751760009e-02
-2.749087783341231869e-02
-2.490518154874070064e-02
-1.928350116137059547e-02
-1.148251719903055010e-02
-2.410462521661164287e-03
6.804630500779972058e-03
1.387435737669537837e-02
1.882956023273609295e-02
1.926012453752600634e-02
1.624011299761256993e-02
9.731629395900241730e-03
2.237300679921942759e-03
-5.167784556596133685e-03
-9.472442368038555549e-03
-8.921804401642903157e-03
-6.512187694208697482e-03
-2.499179857128316917e-03
-3.346693609153799970e-04
1.279420718988543261e-03
3.517376437577191504e-03
1.637657595463748667e-03
-2.043593766198142057e-03
-4.407964748629794767e-03
-7.488040235175800335e-03
-8.859941204283183769e-03
-6.840135452177974543e-03
4.184312991099877334e-04
1.140331835758654801e-02
1.848224423598464339e-02
1.246854490730678333e-02
-3.349712009017102518e-03
-1.168874337397131022e-02
-7.515060050964387714e-03
1.804327983403921547e-03
1.039224783821130794e-02
9.900859126912197467e-03
1.727165835437448295e-03
-7.402185079117280797e-03
-9.540313616795675217e-03
-5.733587921398816678e-03
-1.893667259082681227e-03
-2.841275951890894977e-03
-4.369549639561835265e-03
-1.484810990212615716e-03
1.976775976627784346e-03
4.177589701559722424e-03
6.493229251012162112e-03
7.708615710579290112e-03
5.234582682086465211e-03
1.412158101141800122e-04
-4.825708907032296227e-03
-6.311037250072554922e-03
-2.331104349144597424e-03
9.982404324111625240e-05
1.146416457446930307e-03
2.660979043825535163e-03
5.552029971077991882e-04
-1.771650740798135773e-03
-2.435689332779671437e-03
-2.290131559510522486e-03
-9.599491497060624141e-04
8.664899961903000823e-04
2.131335359984119760e-04
-1.006590565703979425e-04
1.364085388417900181e-03
1.915493014850400090e-03
2.051839428145321026e-03
1.186824736416994611e-03
-2.153091526166763848e-04
-6.396892136399511420e-04
-8.765372454624115054e-04
-5.094956232410332176e-04
1.171745363445090725e-03
2.123161709196656841e-03
1.975340405959380603e-03
-7.089455891010444178e-04
-1.869278046341907350e-03
-2.624886023121298165e-03
-4.541291234169984002e-03
-1.388536940853544272e-03
1.938609036101477051e-03
2.084814607277250126e-03
4.367727815578636053e-04
6.888116099590972576e-05
8.573605789570012004e-04
8.724866716952558749e-05
-8.372476593010915336e-04
-2.194687782729513870e-03
-3.508614040857652508e-03
-3.398529084953913655e-03
-3.461482287997995886e-04
4.707930986979630764e-03
6.989501075372736225e-03
5.978436011204728284e-03
4.954090215345846593e-03
3.982395520291184821e-03
2.366249243377486523e-03
1.098076331996934848e-03
-1.400449077264710913e-03
-5.909776855095922286e-03
-1.057195460949665947e-02
-1.363170175094718418e-02
-1.191045838027457796e-02
-8.289427378200674157e-03
-3.787521729340103359e-03
1.047619593457376841e-03
8.407580990223463557e-03
1.969241757385882183e-02
2.648943715511362443e-02
2.047833343455546934e-02
2.885782603174825989e-03
-1.612330536109036691e-02
-2.430464649926119755e-02
-2.090398095381880081e-02
-1.099992734833511558e-02
1.067169603492811253e-03
1.170310301856393106e-02
1.638817171846709483e-02
1.502541837811430941e-02
1.423982877066107267e-02
1.228639173050762035e-02
2.730297633608172458e-03
-8.290131269849957546e-03
-1.516572716863203579e-02
-1.691973326269901809e-02
-1.658806887746250985e-02
-1.969431148270419166e-02
-2.022456806252903236e-02
-1.423316350678568987e-02
-4.914391952684921128e-03
4.830150792414687755e-03
1.661688689750849893e-02
3.134802164821341025e-02
4.169961977998924013e-02
4.018835172419049639e-02
2.649382548525802336e-02
6.255615156593584414e-03
-1.621576134125380167e-02
-3.163526498540314424e-02
-3.530384792452736370e-02
-3.072072981370367953e-02
-2.298164752314134363e-02
-1.158051730364498960e-02
1.972513351945422849e-03
1.231705020088078029e-02
1.572141894668456150e-02
1.433381908854319473e-02
1.203823151527188759e-02
7.259133088827151442e-03
1.790821537464744534e-03
-2.118564937987905961e-03
-4.679023230131272582e-03
-5.516366805618341980e-03
-6.730971662387879445e-03
-3.900460465345156197e-03
1.556432186526878316e-03
4.818105841713763403e-03
3.609329478504397226e-03
4.610322961242421629e-03
6.675149616467663388e-03
5.415416222313983348e-03
1.143838558481759422e-03
-2.487668521348899552e-03
-4.426164313438575235e-03
-5.289383681397341261e-03
-7.964775031608866893e-03
-9.513814167511659703e-03
-5.897431116871956411e-03
-6.247779874491553732e-05
5.379365970756037722e-03
6.467103480922270844e-03
3.375984596379925321e-03
1.325236288457976941e-03
8.055923705561302082e-04
1.999228060141573175e-03
5.081991171392553040e-03
6.255521797913086296e-03
3.394704672485553913e-03
-1.507275913733139043e-03
-5.690989083177583341e-03
-7.456764722077599376e-03
-7.534008365246949897e-03
-6.485424474866035432e-03
-4.250383232194765090e-03
-1.369797270542716340e-03
8.545792841318600262e-04
3.708894757991616428e-03
9.990851853141637443e-03
1.332184854227286448e-02
8.824357631221014381e-03
2.582456292528824415e-03
-1.171467855317040755e-03
-4.932129085862645493e-03
-8.756744090368114367e-03
-9.034798453596375872e-03
-6.414534875313756754e-03
-2.898385454417584141e-03
1.668660746469769656e-03
3.952196871264564669e-03
2.312648563943553795e-03
7.670467622531143212e-04
1.048030495102664087e-03
1.071332355510021738e-03
-1.877380279489413762e-04
-1.479252420222784649e-03
-9.618654608204745601e-04
1.314807760920807731e-04
1.458607844816810478e-03
3.872668693832787348e-03
4.235467146192868279e-03
1.982195212079559607e-03
-1.099517062847673161e-04
4.238235411715297733e-04
1.472748713480256932e-03
6.331614151679784783e-04
-6.612528082940813835e-04
-2.317801604257182027e-03
-4.050897025693842371e-03
-3.850723992128066674e-03
-2.558805407060101705e-03
-5.090628774127909165e-03
-8.997785143301436153e-03
-1.103972836473628497e-02
-5.366932918950382408e-03
6.696643271775907721e-03
1.922987714171404613e-02
2.124053727993943999e-02
1.069109825040246570e-02
-2.150886576275936116e-03
-7.377790261310130174e-03
-6.117540477359174195e-03
-7.582023432600108314e-04
3.996255744668309427e-03
1.902286872868422284e-03
-5.197014099113573052e-03
-9.191070735415973747e-03
-8.662230400729713231e-03
-5.217323163130435648e-03
9.399591400817421897e-04
3.988888385903372087e-03
3.168658625021341518e-03
3.077324981372093170e-03
2.067946141011278802e-03
1.091511447046383506e-03
3.335306985648383671e-04
-2.012023863532229166e-03
-2.117322825786716826e-03
2.762940548440301174e-03
7.119015134496373479e-03
4.968919889158439178e-03
-5.258425599327088123e-04
-4.227546655892741589e-03
-3.289096966952982128e-03
-1.115172903636579621e-03
4.256726162909465930e-04
2.431509959018478609e-04
-1.399003101442231414e-04
-9.479230042370202509e-05
-2.480521024973307564e-03
-4.947796828487793092e-03
-7.572134665548389300e-03
-7.519151738954105331e-03
-2.256696407185121434e-03
7.842182617229704472e-03
1.384454388094389157e-02
1.183054978977855776e-02
6.703995495630931181e-03
2.426696913027875414e-03
4.969799220108314392e-04
-2.178541276302237151e-03
-5.492722470467805568e-03
-8.263360734477762440e-03
-8.528907775321241738e-03
-6.135855594639113945e-03
-3.346407431112034120e-03
-2.398751427207621890e-03
8.958253578490061198e-04
3.563484479380201776e-03
2.170431905996660950e-03
1.350805265483468766e-04
-6.757835581499289489e-04
1.416561090047577893e-03
3.776012782768616884e-03
8.451253649919190231e-03
1.012287380544894463e-02
9.232735676332809796e-03
6.045221120326027715e-03
2.953045859212123387e-03
2.666677896246809516e-03
-3.207908962175652721e-03
-1.400711300256799602e-02
-2.075646995724369018e-02
-2.187833855890210233e-02
-1.892024799874008137e-02
-1.504068474739377569e-02
-9.080211458481505724e-03
3.492899499669077645e-03
2.139324837961691442e-02
3.809572905276098487e-02
4.287759928631786760e-02
3.041732565838160818e-02
1.040831300073529267e-02
-5.853074587790912942e-03
-1.718882702333671825e-02
-2.319652573059983666e-02
-2.802860754333023896e-02
-3.059700630016226261e-02
-2.546956914152792920e-02
-1.507142988880129028e-02
9.880218635246638351e-04
1.735049764748465215e-02
2.501793313053169224e-02
2.490364668517917185e-02
1.910888834588863813e-02
9.225794733950645754e-03
7.535381224938154324e-04
-2.393705535982710783e-03
-2.607082996197267188e-03
-2.920935644643504314e-03
-4.093497080939892570e-03
-5.501270809388401732e-03
-6.034919800190091839e-03
-7.135094398084375171e-03
-1.003539433320064025e-02
-1.133356984171547850e-02
-9.708922444658941650e-03
-5.322560521962761693e-03
1.539318749026398871e-03
8.156083346987431579e-03
1.606478777139276962e-02
2.188501125734824970e-02
1.501487278193751156e-02
2.647050954637096554e-03
-7.169322709083962228e-03
-1.040540460986957502e-02
-5.515436866398566902e-03
1.084580876401309299e-03
3.119813315087675495e-03
1.338643814202950541e-03
-1.966103943912648859e-03
-5.996646844089262469e-03
-6.710744631165353746e-03
-7.039676935562762597e-03
-8.037231187445256081e-03
-4.458433554747950195e-03
3.483105854447643944e-03
7.357261699442747133e-03
6.678622536362215437e-03
5.078723416850294131e-03
3.580742549976330576e-03
2.727126111908973263e-03
3.184829320696088741e-03
2.386931795899092847e-03
1.095875114343960359e-03
-1.321979793448690467e-03
-3.532665543805247731e-03
-4.973494434582868134e-03
-3.709261759486058400e-03
-1.766336858602776628e-03
-1.618425087556476334e-03
5.298930808665819076e-04
7.055039406787483400e-04
-2.153641500780559791e-03
-4.218106643667389466e-03
-1.654279110074597910e-03
1.588358443852027832e-03
3.842583528060782710e-03
6.481564553597538893e-03
7.506851130353917045e-03
5.819723499831602927e-03
1.946480477607597201e-06
-4.966480535610455840e-03
-5.941413763106552330e-03
-4.202119729261691652e-03
-1.782976886774903643e-03
5.753867496878003606e-05
1.603436782113091706e-03
1.478916880817853158e-03
-6.044978912044692270e-04
-6.444074541991847175e-04
-4.203538046088658542e-04
-2.003829460141344238e-03
-3.184902730881561742e-03
-1.902501070810486616e-03
-6.754366331181908649e-04
1.325842132414201601e-03
3.237763889135513752e-03
3.414028010605430971e-03
4.610153118376213860e-03
4.979671324678593657e-03
3.416280932363779336e-03
-7.470250909254667112e-04
-1.627769145455255960e-03
-3.659755544171317703e-04
-1.605592646671747704e-03
-2.499408106456397355e-03
-2.619784785730874897e-03
-3.190388536561926565e-03
-4.642290410528974835e-03
-4.783733900949989175e-03
-1.703626871700215451e-03
-1.866366824197001175e-03
-3.337660771332996278e-03
-1.442711685429680195e-03
3.133413943732821748e-03
5.859088897241826119e-03
7.653597231221821034e-03
8.471773846310776818e-03
9.133387443215908175e-03
8.733248293227380624e-03
3.735643573259258068e-03
-2.550091930065129936e-03
-6.969810421911597567e-03
-8.182588944450178842e-03
-4.199606825819855033e-03
-2.132982091187535234e-03
-4.908565376593082390e-03
-8.818474134648061555e-03
-1.099859507354195541e-02
-8.520752300041201446e-03
-3.289854902952158832e-03
2.819042160125874701e-03
8.852731311369795367e-03
5.294691771458167988e-03
3.338812596744311981e-03
9.845980851599232808e-03
1.878647781481654344e-02
1.779644353051621289e-02
7.712928724251175497e-03
-4.280463727585059885e-03
-9.822757066331016737e-03
-1.155980924992803215e-02
-1.091375173141633133e-02
-9.740452964698043808e-03
-7.414476829936542807e-03
-7.991647490681793101e-03
-8.305602442140919833e-03
-3.619142552092857214e-03
2.445915225805781086e-03
3.691292201627095759e-03
4.294748153863143722e-03
1.131686707382349374e-02
1.912445538667970069e-02
2.143845010132591072e-02
1.270835814979101412e-02
6.337185660146417519e-04
-5.111073854854354670e-03
-7.504269096280372607e-03
-1.162612044190480115e-02
-1.578940158343643610e-02
-1.793497274998392260e-02
-1.898465432099916486e-02
-1.811765819848135464e-02
-1.446661118392924064e-02
-3.177240617089812855e-03
1.570833425434444222e-02
3.309697380133194006e-02
3.890087269353006971e-02
2.918767965784886328e-02
1.288608398223862680e-02
-1.025083864963825591e-03
-1.066845521604694973e-02
-1.589751592955644319e-02
-1.597264409334876387e-02
-1.303551382442282199e-02
-1.192591164192168679e-02
-1.298734957353893729e-02
-9.460094470698583030e-03
-3.042509885408724302e-03
1.289880919826095909e-03
4.424685797236122854e-03
6.683547930568755485e-03
7.341444917643861860e-03
8.723964141759688040e-03
8.558179527135681419e-03
6.824202603317423496e-03
4.983403866240524588e-03
5.060574693063707094e-03
2.476219177582507716e-03
-8.217018836706752472e-04
-3.821650752546471973e-03
-6.586341590455198521e-03
-7.491653217508419289e-03
-7.639434770360080049e-03
-6.424149361503045039e-03
-6.412448011080130149e-03
-7.089368288288167182e-03
-5.476298967447109506e-03
-1.330970912730332400e-03
4.516190674157065030e-03
1.274055195977010294e-02
1.803272850870824701e-02
1.565031991897264385e-02
9.043822328805132399e-03
1.772901610116853427e-03
-3.704391741870495178e-03
-9.373771911521165331e-03
-1.157669057130210691e-02
-1.045380022649804522e-02
-7.641794411837307677e-03
-3.516846801891966579e-03
-2.415824397831339333e-04
6.759635826512633023e-04
1.734485071037213241e-03
2.412273867161489251e-03
2.819248709434465060e-03
2.618046277601261164e-03
3.607647128045372333e-03
4.526368011937123396e-03
2.418139311543427046e-03
-4.793238078169212164e-05
-1.598878456431312425e-03
-3.273545491512818394e-03
-2.622734082780229115e-03
2.021046843036146835e-03
3.612512438204363869e-03
1.351265876571356014e-03
1.143985093742880136e-03
4.502267773190736868e-05
-3.515876065815741990e-03
-6.678240706430681531e-03
-5.810730370263691297e-03
-3.224513370371755866e-03
3.021133193179920367e-04
3.079252371935872496e-03
4.027258967757249043e-03
4.198559932954374491e-03
5.248630027709305992e-03
4.704296580139497377e-03
2.067879714848229987e-03
-2.645535406913485728e-04
-2.339348318219702533e-03
-4.198501187022756972e-03
-4.806193791754643022e-03
-4.485785557935082629e-03
-2.017909826988976019e-03
-8.959391884029433133e-04
-1.087735695144064971e-03
1.980832089382539806e-04
1.946266554600311087e-03
4.212579261487860161e-03
4.151545319617181221e-03
1.200344748577247172e-03
8.908025539644274984e-04
2.641267288721175100e-03
8.252138664384151435e-04
-2.562165448898749698e-03
-2.173756900660409313e-03
-1.361977541588820341e-03
-2.868150296083757638e-03
-2.259148489666335576e-03
-5.910934093104871969e-04
1.389013409096424628e-03
3.242350456884673503e-03
1.327085502018374120e-03
-1.743302747341458426e-03
-2.442986244604286768e-03
-1.066562868664023590e-03
-1.121379835330446563e-03
-1.243085048934561157e-03
1.444905211619848182e-03
2.937054225058592129e-03
3.025783517853071827e-03
1.029316112968286156e-03
2.354972689312158449e-03
4.007203095123341476e-03
2.375242523756563792e-03
-1.724329114821034114e-03
-2.581726960357338257e-03
-7.246012682818024370e-04
-9.268134285740114216e-04
-2.436786022043846596e-03
-4.772130287319926827e-03
-5.735207522571351621e-03
-6.298463177265569216e-03
-3.591328538866936718e-03
-3.697346478988577001e-04
7.708212560608388580e-04
2.418149822033281368e-03
9.737257760506835488e-03
1.810064613739257797e-02
1.537053165678258296e-02
1.580491227499239990e-03
-1.182525044681557135e-02
-1.358289886463016904e-02
-9.386627664078236663e-03
-7.538676439411602821e-03
-4.906639559095041930e-03
-1.417358165642732459e-03
2.536618048903053514e-03
5.789958516380902011e-03
7.775915409349171310e-03
9.136244837527977489e-03
1.126583283369152373e-02
6.705696328778216163e-03
6.676759766185748086e-04
-3.295971784208494119e-03
-3.278140873301974706e-03
-3.275326548159595251e-03
-6.462377904473550795e-03
-1.259186143602564721e-02
-1.784135511381195610e-02
-1.909355953009329171e-02
-1.593576071196184038e-02
-6.257972641940738948e-03
1.142995340402599980e-02
3.247550571560971211e-02
4.376839542056609744e-02
3.333541941714414369e-02
8.491884585883850006e-03
-1.513848790482792347e-02
-2.230375560446585734e-02
-1.488393694431319053e-02
-8.812447558204875714e-03
-1.131582539895823608e-02
-1.326502468430226268e-02
-9.457500824600112779e-03
-3.343081265674639757e-03
2.586290271280588041e-03
9.534842190860991912e-03
1.445694678910383786e-02
1.202876380076677368e-02
3.945927176961468164e-03
1.358250467371041473e-03
3.962664913664833317e-03
5.040101477762604608e-03
-1.063053062911642260e-03
-9.315381252195494705e-03
-1.253850334523578733e-02
-8.725789274156490333e-03
-5.769842165828127124e-03
-3.915727042159292473e-03
2.673373591870035234e-04
4.265764384989862920e-03
9.836429617762956074e-03
1.185949149030196374e-02
8.250244053489074608e-03
3.312765691470879320e-03
-8.047605784389361399e-04
-5.479925526761343819e-03
-6.150077234971806223e-03
-3.750046282048388920e-03
-3.180437424161226476e-03
-3.690345117319947417e-03
-2.384836290703682901e-03
-2.770246330182751012e-03
-1.176473174204951825e-03
2.404916853540382902e-03
4.620505572619523424e-03
3.784991466014976311e-03
6.395623215240413186e-04
4.852141387835376472e-04
1.890529148753007042e-03
4.475415341829154341e-03
6.168830029938185758e-03
5.962090628667845831e-03
3.765041248018229005e-03
-4.924528463275625392e-03
-1.329432632023524151e-02
-1.282215205406267954e-02
-8.681983295495448311e-03
-2.805739305874389855e-03
1.230221175989098603e-03
5.826696181298636826e-03
8.212079505975118307e-03
5.160696466159284124e-03
2.506504927590445105e-07
7.698264783990477441e-06
1.752842556322755123e-03
4.006908861136400791e-04
-5.259054399496781562e-04
-2.116759254842782035e-03
-2.290589796570526981e-03
1.309750050747560601e-03
6.745653524552711923e-03
7.790828880761194522e-03
4.622535609902096373e-03
1.849791393149235108e-03
4.391660051354823202e-04
-2.577498247801985644e-03
-7.835714699104068606e-03
-1.271496994579154882e-02
-1.591364535762722701e-02
-1.424842824166521263e-02
-9.836734626837598944e-03
-1.416494149484502597e-03
1.013866434446504018e-02
1.981190622799992862e-02
2.132019528865607486e-02
1.701553193997025828e-02
9.483505855611737423e-03
1.695888329623054325e-03
-3.133197750297191456e-03
-9.160936896300942919e-03
-1.217924321523634022e-02
-9.511654794514896177e-03
-6.249568819068553049e-03
-4.554749467166262569e-03
-2.427030186059444053e-03
-4.117064194183440409e-04
1.759055344834756273e-03
3.027594554438859178e-03
4.362265770315364166e-03
2.799124501144441540e-03
-6.319010143721792618e-04
-1.373468291719453149e-03
-6.572129564758834221e-04
-7.816129800379877177e-04
-2.366073345811666253e-04
1.407063022342528932e-03
3.187357866289972086e-03
4.883387959145814305e-03
5.487583113057558845e-03
1.222044513439545258e-03
-5.456991198689471571e-03
-7.381968579150900017e-03
-3.961912977627787477e-03
3.468479891623103373e-04
1.841724873549734813e-03
1.848204792937526179e-03
1.380498964115244205e-03
5.320414669698261129e-04
-2.286739221993897963e-03
-1.955389490217160353e-03
-9.859637306320651225e-04
9.082288240182513032e-05
2.879206226691667647e-03
5.168919168949328603e-03
4.294326269410638983e-03
2.172942877601689859e-03
-4.889109760553378512e-04
-3.581253409405031098e-03
-6.365377620570277645e-03
-6.097152930032974892e-03
-2.602941305081270685e-03
8.044590685156070235e-04
1.443099177202533017e-03
