-1.416887822874801986e-02
-1.547068727184447261e-02
-1.675258013412703542e-02
-1.801238002096118562e-02
-1.924809224953160855e-02
-2.045792700363431582e-02
-2.164031892581263355e-02
-2.279394328244064086e-02
-2.391772854656895944e-02
-2.501086506702504542e-02
-2.607280986396862815e-02
-2.710328745299298708e-02
-2.810228664987237876e-02
-2.907005354580264114e-02
-3.000708064554583054e-02
-3.091409250757327573e-02
-3.179202806941447412e-02
-3.264201996438918785e-02
-3.346537122985394214e-02
-3.426352965225915037e-02
-3.503806032356213129e-02
-3.579061682974667147e-02
-3.652291136001876992e-02
-3.723668441659665901e-02
-3.793367454445760456e-02
-3.861558842908108941e-02
-3.928407190730881515e-02
-3.994068240953201759e-02
-4.058686302728956724e-02
-4.122391870219017235e-02
-4.185299491865408089e-02
-4.247505903984857833e-02
-4.309088466475796686e-02
-4.370103917410309013e-02
-4.430587449340955136e-02
-4.490552127229505835e-02
-4.549988651004337886e-02
-4.608865459878577070e-02
-4.667129160571151236e-02
-4.724705276512893015e-02
-4.781499303196809492e-02
-4.837398043682608617e-02
-4.892271201394506053e-02
-4.945973195430847930e-02
-4.998345174781160249e-02
-5.049217192441708690e-02
-5.098410511988906574e-02
-5.145739997525164422e-02
-5.191016563736740308e-02
-5.234049634966454756e-02
-5.274649594641510342e-02
-5.312630176359739442e-02
-5.347810771926614359e-02
-5.380018622344491519e-02
-5.409090862134341426e-02
-5.434876407759815092e-02
-5.457237644377830460e-02
-5.476051914562995310e-02
-5.491212785911470107e-02
-5.502631088280369315e-02
-5.510235719446946595e-02
-5.513974214288550751e-02
-5.513813078381207128e-02
-5.509737894650746509e-02
-5.501753204448713713e-02
-5.489882188961021925e-02
-5.474166150675081888e-02
-5.454663820074769770e-02
-5.431450502074455094e-02
-5.404617089244206224e-02
-5.374268952717041470e-02
-5.340524737970150232e-02
-5.303515089259534104e-02
-5.263381322931615092e-02
-5.220274072467018245e-02
-5.174351916483966446e-02
-5.125780019605857829e-02
-5.074728798168916255e-02
-5.021372629982098074e-02
-4.965888612405263552e-02
-4.908455389431769234e-02
-4.849252055686429502e-02
-4.788457138423850984e-02
-4.726247666110991452e-02
-4.662798323080736412e-02
-4.598280689909954588e-02
-4.532862574750370910e-02
-4.466707421728788319e-02
-4.399973796462205294e-02
-4.332814939092815426e-02
-4.265378381363036514e-02
-4.197805617075511114e-02
-4.130231814939613194e-02
-4.062785569695926552e-02
-3.995588681155209931e-02
-3.928755947604382903e-02
-3.862394974587340934e-02
-3.796605989011381938e-02
-3.731481651800931665e-02
-3.667106862542585111e-02
-3.603558560159752372e-02
-3.540905515577210533e-02
-3.479208119928724197e-02
-3.418518164731290665e-02
-3.358878617076593159e-02
-3.300323404806441291e-02
-3.242877207420775260e-02
-3.186555269421962461e-02
-3.131363238476497085e-02
-3.077297038330617171e-02
-3.024342791020881785e-02
-2.972476791142742228e-02
-2.921665553377012642e-02
-2.871865934496049474e-02
-2.823025341612167907e-02
-2.775082029558148186e-02
-2.727965505409410407e-02
-2.681597034771404653e-02
-2.635890264183171280e-02
-2.590751953739759555e-02
-2.546082820634461980e-02
-2.501778493371930104e-02
-2.457730575710491416e-02
-2.413827806356919417e-02
-2.369957307866977711e-02
-2.326005916458596598e-02
-2.281861568987938321e-02
-2.237414749750579746e-02
-2.192559964966847921e-02
-2.147197228678863687e-02
-2.101233546224267126e-02
-2.054584371448980873e-02
-2.007175007438621525e-02
-1.958941948166606842e-02
-1.909834118451486304e-02
-1.859814004575879171e-02
-1.808858655394936232e-02
-1.756960517827219417e-02
-1.704128117442897314e-02
-1.650386540656853876e-02
-1.595777727728124248e-02
-1.540360553485234721e-02
-1.484210692084846073e-02
-1.427420259932264332e-02
-1.370097238106629534e-02
-1.312364674943176761e-02
-1.254359672158747961e-02
-1.196232162403450608e-02
-1.138143493556324423e-02
-1.080264838078501093e-02
-1.022775437947418160e-02
-9.658607097781752790e-03
-9.097102320560169694e-03
-8.545156359552283712e-03
-8.004684429499942314e-03
-7.477578515636447085e-03
-6.965685249428466702e-03
-6.470784031265938013e-03
-5.994565645709521752e-03
-5.538611753964172053e-03
-5.104375461995093628e-03
-4.693163259101292700e-03
-4.306118661482913855e-03
-3.944207664825643243e-03
-3.608206337571826915e-03
-3.298690644315669784e-03
-3.016028702802151570e-03
-2.760375592309112155e-03
-2.531670688199205710e-03
-2.329637672282617016e-03
-2.153787209719712405e-03
-2.003422229694295630e-03
-1.877645713971407655e-03
-1.775370979613283577e-03
-1.695334157712773777e-03
-1.636108853774981969e-03
-1.596122622845111590e-03
-1.573675150931667628e-03
-1.566957813561834553e-03
-1.574074420334675012e-03
-1.593062716155442581e-03
-1.621916458960882693e-03
-1.658607717708815866e-03
-1.701109074533066912e-03
-1.747415530946093724e-03
-1.795565622986122160e-03
-1.843661681454739553e-03
-1.889888807649130675e-03
-1.932532452981979010e-03
-1.969994310247187401e-03
-2.000806338065874278e-03
-2.023642764317102206e-03
-2.037329948440053974e-03
-2.040854045960066414e-03
-2.033366398763524797e-03
-2.014186580398004238e-03
-1.982803209328126010e-03
-1.938872477671888276e-03
-1.882214618936128370e-03
-1.812808295295017776e-03
-1.730783067271438047e-03
-1.636410194773114338e-03
-1.530091973409465362e-03
-1.412349668891558488e-03
-1.283810505757342936e-03
-1.145193717729917461e-03
-9.972960622631156166e-04
-8.409769993243046285e-04
-6.771438216277614374e-04
-5.067368364777659947e-04
-3.307150184956671093e-04
-1.500422438816436917e-04
3.432565423411356050e-05
2.214528363172407679e-04
4.104342729876813908e-04
6.004053066322893656e-04
7.905497787782365428e-04
9.801067043455707027e-04
1.168375546273684633e-03
1.354719849601249268e-03
1.538569413477791550e-03
1.719420995155173694e-03
1.896837600650892698e-03
2.070446457308195310e-03
2.239935844675724520e-03
2.405050851378195530e-03
2.565588168627046077e-03
2.721390232407838814e-03
2.872338777545174835e-03
3.018348013731151323e-03
3.159357609433533377e-03
3.295325682988057159e-03
3.426222021663245451e-03
3.552021626841138282e-03
3.672698742805010925e-03
3.788221589219382957e-03
3.898547866539320370e-03
4.003621171010654164e-03
4.103368352426702004e-03
4.197698040749861526e-03
4.286500163792513786e-03
4.369646587571850149e-03
4.446992882888636638e-03
4.518381062320707756e-03
4.583643323689324568e-03
4.642606722968330678e-03
4.695098586948206164e-03
4.740952567569962049e-03
4.780015303459572013e-03
4.812153350663370306e-03
4.837260239934962867e-03
4.855263595250122917e-03
4.866132092832961380e-03
4.869881968688803166e-03
4.866583072385710119e-03
4.856364144548879977e-03
4.839417261372771020e-03
4.816001249347244551e-03
4.786443937659422797e-03
4.751143208705966778e-03
4.710566639697341337e-03
4.665249822235142604e-03
4.615793216849448100e-03
4.562857595541704517e-03
4.507158109196452052e-03
4.449456892436987228e-03
4.390554448618101506e-03
4.331279950382375607e-03
4.272480388382198305e-03
4.215008876606396969e-03
4.159712244638623033e-03
4.107418136102105113e-03
4.058921831460296503e-03
4.014972944824970330e-03
3.976262258144814057e-03
3.943409001398524676e-03
3.916948632301842786e-03
3.897321594922697509e-03
3.884863044597864148e-03
3.879793867540913977e-03
3.882213134982462083e-03
3.892092226586522756e-03
3.909270707686779249e-03
3.933454109928321077e-03
3.964213616851924860e-03
4.000987906836908636e-03
4.043086990539312454e-03
4.089698149228985190e-03
4.139893911974890095e-03
4.192641909112781139e-03
4.246816583431236095e-03
4.301212693102494239e-03
4.354560259344971221e-03
4.405540822262936883e-03
4.452804854782737957e-03
4.494989998665946396e-03
4.530739906206619934e-03
4.558723380975241574e-03
4.577653526905904428e-03
4.586306641733988061e-03
4.583540550447573469e-03
4.568312153343057590e-03
4.539693722129378890e-03
4.496887836051190711e-03
4.439240637384351575e-03
4.366253211232699362e-03
4.277590923438477112e-03
4.173090476962517184e-03
4.052764574945612319e-03
3.916804035043490104e-03
3.765577419808023834e-03
3.599628007825289144e-03
3.419668260523258188e-03
3.226571727709463128e-03
3.021362508992409511e-03
2.805202455268334012e-03
2.579376134331659055e-03
2.345273988380656548e-03
2.104373790385242592e-03
1.858220639147749320e-03
1.608405816400769722e-03
1.356544867574288561e-03
1.104255104345570979e-03
8.531329637353549100e-04
6.047315839388912265e-04
3.605388521411083641e-04
1.219562935268853429e-04
-1.097208241291654777e-04
-3.333219375312626684e-04
-5.478178075917804809e-04
-7.523351169680788037e-04
-9.461687855932328795e-04
-1.128791791729524254e-03
-1.299862323905806626e-03
-1.459228122289639050e-03
-1.606927955748794958e-03
-1.743190199356892253e-03
-1.868428465233755052e-03
-1.983234343601858723e-03
-2.088367392783170833e-03
-2.184742434552403544e-03
-2.273414373075815110e-03
-2.355560767039691777e-03
-2.432462341716281392e-03
-2.505481740511574310e-03
-2.576040805155848171e-03
-2.645596803287066263e-03
-2.715617823065989960e-03
-2.787557857850755678e-03
-2.862831748041379850e-03
-2.942790550719655025e-03
-3.028697593210460687e-03
-3.121705568405699037e-03
-3.222835057874360535e-03
-3.332954832948531280e-03
-3.452764210929249854e-03
-3.582777698281185575e-03
-3.723312241813667937e-03
-3.874477176121589404e-03
-4.036167143652889290e-03
-4.208058108532226373e-03
-4.389606418670909463e-03
-4.580051100981419321e-03
-4.778419244169870850e-03
-4.983534500308510300e-03
-5.194028524669424933e-03
-5.408355336117376226e-03
-5.624808230564591095e-03
-5.841539152318384227e-03
-6.056580164490624023e-03
-6.267866794397549887e-03
-6.473262919521293769e-03
-6.670586811138632007e-03
-6.857638057362744864e-03
-7.032224871147829334e-03
-7.192191532355744245e-03
-7.335445489665771805e-03
-7.459983824644527035e-03
-7.563918618066386469e-03
-7.645500996428609281e-03
-7.703143458445225328e-03
-7.735440196121125961e-03
-7.741185164463555007e-03
-7.719387606380982182e-03
-7.669284960522064834e-03
-7.590352778257812225e-03
-7.482311762504382721e-03
-7.345131773288005213e-03
-7.179032706413924873e-03
-6.984482317111779734e-03
-6.762191086336222755e-03
-6.513104148315353517e-03
-6.238390544760890818e-03
-5.939429815683631292e-03
-5.617796276510923954e-03
-5.275241181164504363e-03
-4.913673068453298931e-03
-4.535136496748167281e-03
-4.141789619728869672e-03
-3.735880867230920339e-03
-3.319724999980535468e-03
-2.895679003635901871e-03
-2.466118092662918353e-03
-2.033412074960729964e-03
-1.599902525408944702e-03
-1.167881009737673295e-03
-7.395686859521310519e-04
-3.170973588626669758e-04
9.750755437288836111e-05
5.023420844531728850e-04
8.956366898568793051e-04
1.275766868649100792e-03
1.641261458521189529e-03
1.990808557724343866e-03
2.323259037968053008e-03
2.637627711479586644e-03
2.933092175766211906e-03
3.208989448523272975e-03
3.464810588432438651e-03
3.700193425830868889e-03
3.914913568124033828e-03
4.108873973865464699e-03
4.282093299334341005e-03
4.434693219633406916e-03
4.566885055864994616e-03
4.678955937290764366e-03
4.771254791657891965e-03
4.844178432312356251e-03
4.898157983361332672e-03
4.933645918868765322e-03
4.951103887242124489e-03
4.950991600956392361e-03
4.933756980770843958e-03
4.899827680272661815e-03
4.849604080465715235e-03
4.783454021948731379e-03
4.701709162303571721e-03
4.604663135362764559e-03
4.492571402499823292e-03
4.365652904748042358e-03
4.224093351125356166e-03
4.068050102782052105e-03
3.897658494062024390e-03
3.713039496254054352e-03
3.514308523646074694e-03
3.301585204569869401e-03
3.075003936967743608e-03
2.834724917105505091e-03
2.580945537474774176e-03
2.313911737552125803e-03
2.033929274186022269e-03
1.741374536304594010e-03
1.436704692556487438e-03
1.120466961657991169e-03
7.933068050852621527e-04
4.559748617427107674e-04
1.093324226426989175e-04
-2.456447503956495299e-04
-6.078642803415782456e-04
-9.761168800114051807e-04
-1.349077935981688381e-03
-1.725311045271979080e-03
-2.103273498352452742e-03
-2.481323635937205362e-03
-2.857730145845039336e-03
-3.230683062977840643e-03
-3.598306515278956990e-03
-3.958673010327113523e-03
-4.309819035175382895e-03
-4.649761898402658342e-03
-4.976517534785181163e-03
-5.288119061069464569e-03
-5.582635891784351080e-03
-5.858193198446237995e-03
-6.112991360459208399e-03
-6.345325207346189447e-03
-6.553602805023102384e-03
-6.736363560397596803e-03
-6.892295403880307342e-03
-7.020250814994337223e-03
-7.119261381935803289e-03
-7.188550857051558343e-03
-7.227546451576121606e-03
-7.235888192390928925e-03
-7.213436280379658880e-03
-7.160276270527282140e-03
-7.076722023974952799e-03
-6.963316324548461667e-03
-6.820829260013682935e-03
-6.650254223286096618e-03
-6.452801679131781390e-03
-6.229890664544671108e-03
-5.983138102542874190e-03
-5.714346083365794658e-03
-5.425487202641307051e-03
-5.118688153108688632e-03
-4.796211671999867955e-03
-4.460437047972440512e-03
-4.113839364628352029e-03
-3.758967709537330143e-03
-3.398422631969981456e-03
-3.034833008966986677e-03
-2.670832478920776021e-03
-2.309035836324216991e-03
-1.952015505447534174e-03
-1.602278363202594251e-03
-1.262243188234338622e-03
-9.342188695185364971e-04
-6.203836489904188730e-04
-3.227655385791769471e-04
-4.322418385802483836e-05
2.165656714740327594e-04
4.551289562039267586e-04
6.712032987588765695e-04
8.637499033631197958e-04
1.031962345855331987e-03
1.175273107358877113e-03
1.293357891033860381e-03
1.386137547361080465e-03
1.453777708753027252e-03
1.496686034439956856e-03
1.515507071936083314e-03
1.511114874538573537e-03
1.484603297679762922e-03
1.437274210696771765e-03
1.370623564410787055e-03
1.286325579130207604e-03
1.186215012656340398e-03
1.072267843305628899e-03
9.465804695987308122e-04
8.113476071680929529e-04
6.688391087180421213e-04
5.213758998992528001e-04
3.713053049444374823e-04
2.209759181806483926e-04
7.271238990134556231e-05
-7.120968573515900658e-05
-2.085885315768892529e-04
-3.373203443281860836e-04
-4.554225079516334776e-04
-5.610557323925132551e-04
-6.525447473048444358e-04
-7.283974001699384040e-04
-7.873218862702895853e-04
-8.282418905920974246e-04
-8.503094127311377256e-04
-8.529152921362776136e-04
-8.356970196384906407e-04
-7.985438261988472668e-04
-7.415989228602073036e-04
-6.652588856025984767e-04
-5.701701139360442448e-04
-4.572222766254058169e-04
-3.275389102786997958e-04
-1.824651523730993900e-04
-2.355265834435065419e-05
1.474580219237091284e-04
3.286575552079645042e-04
5.179901317504892813e-04
7.132777958194354241e-04
9.122465096002020093e-04
1.112553597048870913e-03
1.311816343382352871e-03
1.507641364264739568e-03
1.697654341674116347e-03
1.879529854971288653e-03
2.051020720414089248e-03
2.209986666010329941e-03
2.354421847063121673e-03
2.482480813011475433e-03
2.592502626672729335e-03
2.683032702125452956e-03
2.752842035108527766e-03
2.800943606476103027e-03
2.826605702723842921e-03
2.829361764294327335e-03
2.809016729972031723e-03
2.765649663391160380e-03
2.699612591869095073e-03
2.611525540906268952e-03
2.502267742015610707e-03
2.372965128188673969e-03
2.224974178058336961e-03
2.059862338068663753e-03
1.879385268359698522e-03
1.685461079429313247e-03
1.480142061284552132e-03
1.265584163902591522e-03
1.044014676253646407e-03
8.176985067851162085e-04
5.889035846862543779e-04
3.598659070827463832e-04
1.327546444540289702e-04
-9.036210173505909759e-05
-3.075504536312719992e-04
-5.170422221939433667e-04
-7.172643479624523722e-04
-9.068656921415044550e-04
-1.084740853831342488e-03
-1.250050597030619983e-03
-1.402238564854257647e-03
-1.541043938571054180e-03
-1.666509884902250046e-03
-1.778987576741975244e-03
-1.879135646658102810e-03
-1.967915120458405172e-03
-2.046579767556044524e-03
-2.116662036670767608e-03
-2.179954683800552212e-03
-2.238488333635265531e-03
-2.294505344126706800e-03
-2.350430174247154173e-03
-2.408836808702611090e-03
-2.472413630305691883e-03
-2.543926163148520041e-03
-2.626178287018288756e-03
-2.721972488918868952e-03
-2.834069648444170579e-03
-2.965149021131858239e-03
-3.117768880577997601e-03
-3.294328503766423555e-03
-3.497031888652419283e-03
-3.727853808775152475e-03
-3.988508754280992684e-03
-4.280423049597591872e-03
-4.604710567377449416e-03
-4.962152423948763304e-03
-5.353180906036554727e-03
-5.777867728048705423e-03
-6.235916889376788563e-03
-6.726662116935115676e-03
-7.249068920131346988e-03
-7.801741164855450529e-03
-8.382932003573628429e-03
-8.990558943393740787e-03
-9.622222894368341259e-03
-1.027523076178160112e-02
-1.094662124158849066e-02
-1.163319343243415793e-02
-1.233153780476716095e-02
-1.303806913715037027e-02
-1.374906079619248045e-02
-1.446067999265441585e-02
-1.516902343068910614e-02
-1.587015297605891273e-02
-1.656013081590626199e-02
-1.723505368864927667e-02
-1.789108575295443593e-02
-1.852448980002836115e-02
-1.913165638527735898e-02
-1.970913080705800902e-02
-2.025363750852509498e-02
-2.076210180931307298e-02
-2.123166888124840626e-02
-2.165971992292436282e-02
-2.204388553971268344e-02
-2.238205631120192274e-02
-2.267239074083570935e-02
-2.291332069917869502e-02
-2.310355448454017718e-02
-2.324207784696311410e-02
-2.332815307974421548e-02
-2.336131648104676495e-02
-2.334137454988163482e-02
-2.326839898477553806e-02
-2.314272090698783757e-02
-2.296492450219842288e-02
-2.273584030206082449e-02
-2.245653827450295320e-02
-2.212832098716567206e-02
-2.175271685545943773e-02
-2.133147367985046075e-02
-2.086655243691524358e-02
-2.036012128358611478e-02
-1.981454988610480486e-02
-1.923240385707220695e-02
-1.861643922982647581e-02
-1.796959673888408326e-02
-1.729499576384872089e-02
-1.659592771367685016e-02
-1.587584854967015457e-02
-1.513837026699052686e-02
-1.438725093625692168e-02
-1.362638325863043363e-02
-1.285978113660176357e-02
-1.209156422738721752e-02
-1.132594026156373210e-02
-1.056718489319902025e-02
-9.819619008987630002e-03
-9.087583479285874649e-03
-8.375411339462478233e-03
-7.687397483861181484e-03
-7.027766038498232774e-03
-6.400635619737511314e-03
-5.809982717018303232e-03
-5.259603626048099494e-03
-4.753075406722553041e-03
-4.293716180387059829e-03
-3.884545511432656740e-03
-3.528245335228561656e-03
-3.227122126469338711e-03
-2.983070958153544779e-03
-2.797542106792862398e-03
-2.671510881493358545e-03
-2.605451412079927420e-03
-2.599314955342992787e-03
-2.652513370594056751e-03
-2.763908318180085828e-03
-2.931806625666490747e-03
-3.153962244841109798e-03
-3.427585171108105469e-03
-3.749357435590404929e-03
-4.115456354099115456e-03
-4.521584935755738020e-03
-4.963009399073436620e-03
-5.434603427382867467e-03
-5.930898873698122083e-03
-6.446142328696785259e-03
-6.974356911749464254e-03
-7.509408533162002797e-03
-8.045075754762345127e-03
-8.575122363900416003e-03
-9.093371558079026834e-03
-9.593780631319727067e-03
-1.007051511679445122e-02
-1.051802113787224033e-02
-1.093109480604907355e-02
-1.130494758937599514e-02
-1.163526639535768410e-02
-1.191826742293634542e-02
-1.215074273905061668e-02
-1.233009873130959215e-02
-1.245438561640983301e-02
-1.252231746856646670e-02
-1.253328217525400377e-02
-1.248734108003611565e-02
-1.238521814508565348e-02
-1.222827864775913147e-02
-1.201849769043481474e-02
-1.175841883534087771e-02
-1.145110354582917767e-02
-1.110007208998617552e-02
-1.070923690843468730e-02
-1.028282953063906074e-02
-9.825322187681189215e-03
-9.341345466885831242e-03
-8.835603469634257731e-03
-8.312787960212682237e-03
-7.777493053435726236e-03
-7.234131928243099988e-03
-6.686857116477968807e-03
-6.139485933004942483e-03
-5.595432422970291614e-03
-5.057647220452827184e-03
-4.528566515950173572e-03
-4.010071022533812091e-03
-3.503456092204114847e-03
-3.009413483856728834e-03
-2.528025296589808853e-03
-2.058770361637640104e-03
-1.600543109199671936e-03
-1.151684714402627808e-03
-7.100259787188978973e-04
-2.729413323883789883e-04
1.625868904077315601e-04
5.998951731400480091e-04
1.042557838126533616e-03
1.494299743024207630e-03
1.958904412906409178e-03
2.440119286972467199e-03
2.941560068076831246e-03
3.466615939778200286e-03
4.018357692674877704e-03
4.599450589542821398e-03
5.212073969873414446e-03
5.857849198177996625e-03
6.537777659538351709e-03
7.252190268813558591e-03
8.000709853665105564e-03
8.782227407151718679e-03
9.594893023746218705e-03
1.043612202401961175e-02
1.130261663847118014e-02
1.219040308750769276e-02
1.309488374963771809e-02
1.401090389830527555e-02
1.493283180747017637e-02
1.585465121854229623e-02
1.677006449542809904e-02
1.767260487410247938e-02
1.855575568933163014e-02
1.941307451779354307e-02
2.023831987654132678e-02
2.102557806140654614e-02
2.176938774586897885e-02
2.246485970474035657e-02
2.310778923335412433e-02
2.369475893514048220e-02
2.422322948272424489e-02
2.469161642739201024e-02
2.509935103201878237e-02
2.544692350705204248e-02
2.573590741246119598e-02
2.596896420517768103e-02
2.614982720492713131e-02
2.628326480484305047e-02
2.637502297059112974e-02
2.643174758178733902e-02
2.646088753860456957e-02
2.647057999326313596e-02
2.646951921006251637e-02
2.646681140897024984e-02
2.647181770214190183e-02
2.649398794720154299e-02
2.654268836316300145e-02
2.662702603854740641e-02
2.675567367134031385e-02
2.693669787717597325e-02
2.717739444554002903e-02
2.748413393028806967e-02
2.786222090688721814e-02
2.831577004209006113e-02
2.884760178295392094e-02
2.945916050610423650e-02
3.015045728915564244e-02
3.092003928241693345e-02
3.176498728520234238e-02
3.268094252443640158e-02
3.366216313602755916e-02
3.470161051004182901e-02
3.579106492040461107e-02
3.692126944072453981e-02
3.808210056980817354e-02
3.926276342200504810e-02
4.045200898517816585e-02
4.163837033009105265e-02
4.281041421347411141e-02
4.395700432699264221e-02
4.506757186091846917e-02
4.613238899732532289e-02
4.714284061778512003e-02
4.809168948173477010e-02
4.897333004995826911e-02
4.978402613340191657e-02
5.052212777503740232e-02
5.118826286728588026e-02
5.178549920872092815e-02
5.231947330615603631e-02
5.279848246505942921e-02
5.323353712040387181e-02
5.363837118417214000e-02
5.402940854712898894e-02
5.442568458486478356e-02
5.484872209796255033e-02
5.532236210999925963e-02
5.587255017595234297e-02
5.652707999391699129e-02
5.731529651556741684e-02
5.826776152902754524e-02
5.941588535600648979e-02
6.079152875121910521e-02
6.242657985823232836e-02
6.435251118088260169e-02
6.659992234525551058e-02
6.919807440213510130e-02
7.217442181882108287e-02
7.555414855833028631e-02
7.935971438616866436e-02
8.361041765043314422e-02
8.832198091283435804e-02
9.350616513000505059e-02
9.917041808417778603e-02
1.053175621785779476e-01
1.119455264367661546e-01
1.190471267448034581e-01
1.266098980185657030e-01
1.346159811178580246e-01
1.430420667521329348e-01
1.518593977030472386e-01
1.610338301696356833e-01
1.705259540452521982e-01
1.802912713523430466e-01
1.902804311415922656e-01
2.004395185406458724e-01
2.107103948970109331e-01
2.210310853982295765e-01
2.313362097355057823e-01
2.415574511880591024e-01
2.516240587830307351e-01
2.614633769623610493e-01
2.710013968405076135e-01
2.801633229720352780e-01
2.888741493602149379e-01
2.970592385396726431e-01
3.046448976583380763e-01
3.115589453798703889e-01
3.177312640313538217e-01
3.230943314183391535e-01
3.275837273210039924e-01
3.311386100833012547e-01
3.337021591549633182e-01
3.352219800526693994e-01
3.356504687233318185e-01
3.349451330530621163e-01
3.330688697487554917e-01
3.299901954821882755e-01
3.256834317263889722e-01
3.201288434997203725e-01
3.133127326278451474e-01
3.052274867492605348e-01
2.958715858397731879e-01
2.852495682980182856e-01
2.733719591614296451e-01
2.602551632776613499e-01
2.459213265317331254e-01
2.303981684414110054e-01
2.137187894072975491e-01
1.959214562071939780e-01
1.770493689105339108e-01
1.571504126666682932e-01
1.362768975001099336e-01
1.144852891361653746e-01
9.183593340032050745e-02
6.839277683428071630e-02
4.422308540935587784e-02
1.939716316423198417e-02
-6.011927794482694286e-03
-3.192864497850395750e-02
-5.827524036006773156e-02
-8.497203182079723915e-02
-1.119376715060998312e-01
-1.390894112877435196e-01
-1.663433660055133601e-01
-1.936147753139190186e-01
-2.208182652197007156e-01
-2.478681103665060226e-01
-2.746784983810470204e-01
-3.011637973536167023e-01
-3.272388278409874007e-01
-3.528191403275256488e-01
-3.778212990930271409e-01
-4.021631732392986769e-01
-4.257642353478185426e-01
-4.485458677510893999e-01
-4.704316764548361340e-01
-4.913478121147868971e-01
-5.112232970521122244e-01
-5.299903569868367192e-01
-5.475847558540977156e-01
-5.639461314251795754e-01
-5.790183294647055501e-01
-5.927497333423698000e-01
-6.050935860668654742e-01
-6.160083013117629847e-01
-6.254577597842894132e-01
-6.334115870249681368e-01
-6.398454087955737224e-01
-6.447410801475452757e-01
-6.480868841895167654e-01
-6.498776968055804959e-01
-6.501151136018910037e-01
-6.488075358344607135e-01
-6.459702123216769509e-01
-6.416252345232115184e-01
-6.358014828238001126e-01
-6.285345221906409874e-01
-6.198664463074132769e-01
-6.098456695240020986e-01
-5.985266669208276769e-01
-5.859696632326238941e-01
-5.722402721954946703e-01
-5.574090884645381827e-01
-5.415512348804264464e-01
-5.247458687439690017e-01
-5.070756509477496454e-01
-4.886261828977951360e-01
-4.694854161772151202e-01
-4.497430407124302087e-01
-4.294898573928867536e-01
-4.088171414249587299e-01
-3.878160030537917136e-01
-3.665767521600634682e-01
-3.451882735717298756e-01
-3.237374195882462002e-01
-3.023084263026068474e-01
-2.809823598270350664e-01
-2.598365985528589550e-01
-2.389443566513080042e-01
-2.183742539106329483e-01
-1.981899363757236021e-01
-1.784497515031889248e-01
-1.592064808674295562e-01
-1.405071327785875346e-01
-1.223927963431392235e-01
-1.048985578750933623e-01
-8.805347947061151204e-02
-7.188063899877190910e-02
-5.639722981871862773e-02
-4.161471794699491550e-02
-2.753905346140241711e-02
-1.417093240865609574e-02
-1.506104954462334118e-03
1.046427537785603497e-02
2.175326664320477096e-02
3.237772336993334499e-02
4.235785751844946267e-02
5.171678187871336235e-02
6.048004224097089376e-02
6.867514468594640431e-02
7.633108445927161423e-02
8.347788257362165343e-02
9.014613601284539313e-02
9.636658719776496074e-02
1.021697177979698501e-01
1.075853715486687484e-01
1.126424102243354375e-01
1.173684062566484471e-01
1.217893748935982984e-01
1.259295480726527749e-01
1.298111914954031554e-01
1.334544657024116232e-01
1.368773313074460873e-01
1.400954977526870648e-01
1.431224143336964350e-01
1.459693016924183129e-01
1.486452213028546798e-01
1.511571799385386661e-01
1.535102657607979315e-01
1.557078122073830284e-01
1.577515854557147712e-01
1.596419911085394938e-01
1.613782955521935736e-01
1.629588572976592709e-01
1.643813636449347193e-01
1.656430680994928351e-01
1.667410240559807910e-01
1.676723105373894296e-01
1.684342460540818043e-01
1.690245869100433784e-01
1.694417068361796785e-01
1.696847550533136240e-01
1.697537905523335833e-01
1.696498907859455563e-01
1.693752334849683294e-01
1.689331508433336571e-01
1.683281558733308592e-01
1.675659412168820916e-01
1.666533511665477252e-01
1.655983282784237176e-01
1.644098361896380589e-01
1.630977608790608324e-01
1.616727926236149748e-01
1.601462915695722466e-01
1.585301398216602820e-01
1.568365832669820215e-01
1.550780663629354184e-01
1.532670632463606630e-01
1.514159085075021116e-01
1.495366308398045629e-01
1.476407927698280276e-01
1.457393393687897998e-01
1.438424586495197499e-01
1.419594561263057830e-01
1.400986456761023624e-01
1.382672584263097137e-01
1.364713711475416258e-01
1.347158551212014888e-01
1.330043461503174484e-01
1.313392358798008142e-01
1.297216842924401037e-01
1.281516528087539297e-01
1.266279570310781533e-01
1.251483378496566490e-01
1.237095493677656532e-01
1.223074617308784473e-01
1.209371767444396978e-01
1.195931540180539682e-01
1.182693451816892311e-01
1.169593335814400337e-01
1.156564769088228722e-01
1.143540501317548697e-01
1.130453860716003900e-01
1.117240112831406479e-01
1.103837749285175446e-01
1.090189682932331816e-01
1.076244332026866368e-01
1.061956575007281800e-01
1.047288560881686759e-01
1.032210364808527486e-01
1.016700480567252901e-01
1.000746142944238248e-01
9.843434794796598886e-02
9.674974909404518431e-02
9.502218653450793251e-02
9.325386327031100209e-02
9.144776693347431151e-02
8.960760648836416098e-02
8.773773653254819671e-02
8.584307087376497059e-02
8.392898724173840364e-02
8.200122495713169091e-02
8.006577767714158356e-02
7.812878320763387563e-02
7.619641238145308249e-02
7.427475916667729272e-02
7.236973397588040979e-02
7.048696196380790924e-02
6.863168819098960927e-02
6.680869105819670084e-02
6.502220566929539647e-02
6.327585815339056841e-02
6.157261199281444108e-02
5.991472715161575563e-02
5.830373241308178800e-02
5.674041121052676023e-02
5.522480100163826983e-02
5.375620594898922883e-02
5.233322246226451702e-02
5.095377687303193764e-02
4.961517442497716951e-02
4.831415839411504209e-02
4.704697822452214712e-02
4.580946532912695546e-02
4.459711505407180920e-02
4.340517328125435836e-02
4.222872599761999524e-02
4.106279036450031367e-02
3.990240555776203291e-02
3.874272198527558414e-02
3.757908719933070879e-02
3.640712717919408065e-02
3.522282169828342552e-02
3.402257259073546841e-02
3.280326389567951584e-02
3.156231301930118721e-02
3.029771230440126556e-02
2.900806042250837075e-02
2.769258331992696318e-02
2.635114456929027113e-02
2.498424523986756546e-02
2.359301341164678559e-02
2.217918386995535243e-02
2.074506845375880329e-02
1.929351779831113556e-02
1.782787525240252594e-02
1.635192399442664604e-02
1.486982827006289552e-02
1.338607001495712746e-02
1.190538180274436711e-02
1.043267743015242888e-02
8.972981236616509038e-03
7.531357442122524164e-03
6.112840506436448794e-03
4.722367621775218870e-03
3.364714405957086076e-03
2.044434711847667539e-03
7.658052574894727137e-04
-4.672240898849071050e-04
-1.651073779046723262e-03
-2.782571331910197853e-03
-3.858981014409620242e-03
-4.878026252878585843e-03
-5.837904615383558010e-03
-6.737295488813833944e-03
-7.575360572218595157e-03
-8.351737346018699507e-03
-9.066526002043044652e-03
-9.720270210269582600e-03
-1.031393228402967092e-02
-1.084886342068052192e-02
-1.132676951595745773e-02
-1.174967342230322231e-02
-1.211987430472617755e-02
-1.243990484243499318e-02
-1.271248702347508620e-02
-1.294048736692094727e-02
-1.312687212107329325e-02
-1.327466322608522771e-02
-1.338689566337404775e-02
-1.346657673508189559e-02
-1.351664785563173182e-02
-1.353994925334955218e-02
-1.353918803058070525e-02
-1.351690981917989115e-02
-1.347547432399972406e-02
-1.341703486771295487e-02
-1.334352210084024416e-02
-1.325663181434034651e-02
-1.315781688672196074e-02
-1.304828317923385078e-02
-1.292898918869090329e-02
-1.280064933166139528e-02
-1.266374061150748152e-02
-1.251851225091552174e-02
-1.236499806417537539e-02
-1.220303112922537653e-02
-1.203226051478222501e-02
-1.185216960513929552e-02
-1.166209572194730135e-02
-1.146125065316543588e-02
-1.124874168456709705e-02
-1.102359289862419982e-02
-1.078476639274613021e-02
-1.053118318028146982e-02
-1.026174342769875514e-02
-9.975345880277763921e-03
-9.670906243826077331e-03
-9.347374355102350610e-03
-9.003750100545026766e-03
-8.639097880351082059e-03
-8.252559605882775831e-03
-7.843366160752930985e-03
-7.410847357430882555e-03
-6.954440262548953165e-03
-6.473696052926959828e-03
-5.968285426407120807e-03
-5.438002586034211550e-03
-4.882767830408641686e-03
-4.302628866822696269e-03
-3.697760844819384610e-03
-3.068465292851632956e-03
-2.415167920056188536e-03
-1.738415527209965670e-03
-1.038871910218153258e-03
-3.173128540023552021e-04
4.253796549674032645e-04
1.188223934187327725e-03
1.970145839481176383e-03
2.769986704781009917e-03
3.586511826383248416e-03
4.418419532616991129e-03
5.264350768714737804e-03
6.122899236830842487e-03
6.992621881652404808e-03
7.872049796663515425e-03
8.759699482972713169e-03
9.654084354657784320e-03
1.055372640830570287e-02
1.145716803466280236e-02
1.236298390019489185e-02
1.326979270990199383e-02
1.417626881530271998e-02
1.508115353074002303e-02
1.598326608638005880e-02
1.688151394268017774e-02
1.777490250104175190e-02
1.866254398885237170e-02
1.954366545680092174e-02
2.041761558627173609e-02
2.128387034612928136e-02
2.214203727105687122e-02
2.299185839168615964e-02
2.383321155918011885e-02
2.466611012513115000e-02
2.549070089836776715e-02
2.630726039601682942e-02
2.711618937166179744e-02
2.791800553186276485e-02
2.871333453235489289e-02
2.950289931802254489e-02
3.028750782362166910e-02
3.106803926553017986e-02
3.184542904571734112e-02
3.262065249465018191e-02
3.339470769366945785e-02
3.416859745128427578e-02
3.494331072768576407e-02
3.571980380909024755e-02
3.649898145186289411e-02
3.728167817873139639e-02
3.806864014651911016e-02
3.886050778145762330e-02
3.965779945329118983e-02
4.046089644483043951e-02
4.127002941880353326e-02
4.208526675526409744e-02
4.290650482253936804e-02
4.373346043387525695e-02
4.456566556344117302e-02
4.540246450864986183e-02
4.624301358289627240e-02
4.708628334305968444e-02
4.793106341278779992e-02
4.877596975345776381e-02
4.961945450484521458e-02
5.045981807604328628e-02
5.129522346032877600e-02
5.212371263090587181e-02
5.294322469752918425e-02
5.375161558272476686e-02
5.454667898593472397e-02
5.532616833897171377e-02
5.608781944998058461e-02
5.682937347320488053e-02
5.754859991842934536e-02
5.824331930071001417e-02
5.891142514976215050e-02
5.955090508051263248e-02
6.015986053862440452e-02
6.073652502455318541e-02
6.127928040437900792e-02
6.178667119195752760e-02
6.225741658232269993e-02
6.269041993866238116e-02
6.308477576393120567e-02
6.343977401888756251e-02
6.375490166163103045e-02
6.402984150817331299e-02
6.426446837439461768e-02
6.445884259567535857e-02
6.461320096243490518e-02
6.472794547753346617e-02
6.480362987926006901e-02
6.484094421299300970e-02
6.484069778998158284e-02
6.480380073880100122e-02
6.473124443489587654e-02
6.462408121308065023e-02
6.448340361818338806e-02
6.431032357758290074e-02
6.410595172161465127e-02
6.387137727060346326e-02
6.360764885054055739e-02
6.331575636908300109e-02
6.299661438326119300e-02
6.265104714155189658e-02
6.227977555815776556e-02
6.188340623722441564e-02
6.146242283357910424e-02
6.101717973296484632e-02
6.054789825859523134e-02
6.005466535706015241e-02
5.953743480655031978e-02
5.899603084896361260e-02
5.843015430868157833e-02
5.783939093230285045e-02
5.722322187667380072e-02
5.658103617714491801e-02
5.591214495817792285e-02
5.521579713963799263e-02
5.449119644757693948e-02
5.373751940744582456e-02
5.295393399613946422e-02
5.213961877876866630e-02
5.129378213902716782e-02
5.041568131436838240e-02
4.950464096754419313e-02
4.856007103733452762e-02
4.758148359188630466e-02
4.656850846931355481e-02
4.552090737188985853e-02
4.443858632218392751e-02
4.332160626803695930e-02
4.217019168824409636e-02
4.098473716771132425e-02
3.976581181907511142e-02
3.851416140424509388e-02
3.723070828120886994e-02
3.591654914109628643e-02
3.457295061729451918e-02
3.320134277722525812e-02
3.180331070303005908e-02
3.038058426322045452e-02
2.893502619604708045e-02
2.746861872380395794e-02
2.598344893692416252e-02
2.448169308922042500e-02
2.296560001137808865e-02
2.143747397303510244e-02
1.989965714550461645e-02
1.835451194594940605e-02
1.680440338505170828e-02
1.525168181902909759e-02
1.369866616749676122e-02
1.214762787640588128e-02
1.060077570613979399e-02
9.060241623459246163e-03
7.528067935328940433e-03
6.006195721321869185e-03
4.496454659034442025e-03
3.000554378034660762e-03
1.520077378855733564e-03
5.647356416615460198e-05
-1.388943709334476912e-03
-2.814999931061527242e-03
-4.220660232353791799e-03
-5.605028706546387116e-03
-6.967346347549828456e-03
-8.306987650874142828e-03
-9.623456015604658909e-03
-1.091637809149101530e-02
-1.218549718806197224e-02
-1.343066585688206145e-02
-1.465183783196014576e-02
-1.584905941255861095e-02
-1.702246056251138437e-02
-1.817224572769155638e-02
-1.929868457114691793e-02
-2.040210281686920951e-02
-2.148287320025251551e-02
-2.254140680627240989e-02
-2.357814476973531248e-02
-2.459355042683928488e-02
-2.558810209080256137e-02
-2.656228649579543341e-02
-2.751659289503585737e-02
-2.845150791648963159e-02
-2.936751111162210631e-02
-3.026507127112666728e-02
-3.114464350384653010e-02
-3.200666707982944420e-02
-3.285156380002692694e-02
-3.367973718439978836e-02
-3.449157210528425166e-02
-3.528743501963382129e-02
-3.606767455430143904e-02
-3.683262246964712910e-02
-3.758259492944346358e-02
-3.831789396813869292e-02
-3.903880899002158678e-02
-3.974561831896781389e-02
-4.043859067866054091e-02
-4.111798657044706679e-02
-4.178405931293793785e-02
-4.243705590229316510e-02
-4.307721748909255216e-02
-4.370477942074610378e-02
-4.431997089567905890e-02
-4.492301414642255880e-02
-4.551412311029501973e-02
-4.609350165653604281e-02
-4.666134128411222187e-02
-4.721781837156877742e-02
-4.776309100527863921e-02
-4.829729538232704206e-02
-4.882054191197772453e-02
-4.933291104517190800e-02
-4.983444881084170969e-02
