-3.942578402999419502e-04
-8.972279007706028629e-04
-1.142639322428358299e-03
-2.037655144379553647e-03
-1.738427792772634286e-03
5.338635422470743713e-04
2.202356790162611055e-03
7.900496329651731926e-05
-2.439325541003228775e-05
2.206351546985615281e-03
4.028288471474121557e-03
2.235229815386575135e-03
-7.379255605981906510e-04
-2.459365867090604427e-03
-3.092333269406857561e-03
-2.036157233484046144e-03
-1.586753049178344765e-03
-9.847907984006029364e-04
1.448189611275265548e-03
1.900528790815101191e-03
5.299103707158371243e-04
1.462231396582092070e-03
1.804240866347808303e-03
-1.033040778202438080e-03
-2.468411290505131018e-03
-1.584594256035746357e-03
-5.181942738637171104e-04
7.279722033083138848e-04
2.453521718984952912e-03
1.293066825371517927e-03
2.871754887918153191e-04
3.285175488839847576e-05
9.733565836724529085e-04
3.477750899171095484e-04
-1.551411861743450405e-03
-1.987297104555709425e-03
-1.728427260727391978e-03
-2.149138422765746546e-03
-1.872805138749164891e-03
1.243683843128870741e-03
4.615474479942955656e-03
3.674921647968672905e-03
8.731140490431193134e-04
-1.492410301427314970e-03
-1.888115478846789583e-03
-1.832992576869861643e-03
-1.015320895170217577e-03
4.188438688354665317e-04
1.408023229670488140e-03
7.381611258137491579e-04
-5.844368608703599555e-05
-2.129730541432946201e-04
-1.246336894194343802e-03
-1.781630390733961004e-03
-9.016190715790133210e-04
3.247402200656761425e-04
1.588248970078652827e-03
2.576094696185135709e-03
2.819264527087772445e-03
6.250623156942721696e-04
-2.076897866453574382e-04
-3.049319998415297582e-04
-2.900562990454435891e-04
-1.086863367003903158e-03
-2.849677643452501463e-03
-4.657231585051891873e-03
-3.292147239736883165e-03
-5.665934367406421333e-04
1.252778089445620580e-03
4.476924093501324052e-03
4.089119993558612554e-03
3.000858232071566302e-03
1.216305601673797147e-03
-2.008422492858325762e-04
-8.049054758022373100e-04
-9.188011076319812500e-04
-4.106603856367149730e-04
-2.168073774420698808e-04
-1.576122078845103953e-03
-3.433916924438688758e-03
-1.830314521207261364e-03
-1.038935003994293773e-03
-1.055529372672248025e-03
5.692188539475429108e-04
1.708336990239560675e-03
2.980364451851621327e-03
3.627462964199039755e-03
2.887538828139007713e-03
2.130439302498113828e-03
-3.288905910009822333e-04
-3.277383882023806021e-03
-2.906438682349800264e-03
-1.812101644565901944e-03
-1.821572109991733638e-03
-1.398375718946202146e-03
-1.441086034430215249e-03
-1.622779951282273848e-03
5.219582052159734385e-04
2.880044629075583298e-03
3.181717656557756652e-03
1.286562469916600632e-03
8.600927414466712218e-04
3.269576146922478256e-03
2.701905422028957459e-03
-7.119037384454439572e-04
-2.877442950734926137e-03
-2.294765090977184813e-03
-2.191242808408896178e-03
-1.821289405084652912e-03
-1.805180921483297415e-03
-1.076771801447742394e-03
-5.463088716107038743e-04
-9.659521829293583580e-04
1.340227910204987594e-03
4.707915644919541398e-03
3.503389201566353434e-03
3.228002130052538398e-03
3.122489186046356700e-03
-2.001565271946403619e-03
-6.501703357190663501e-03
-6.110083373214603847e-03
-1.746919292353840778e-03
7.852332713994430481e-04
1.940105955956623884e-03
3.238858214442407683e-03
2.233674096383685050e-03
1.662372962893377080e-03
1.666443792403054288e-03
5.548131068611791145e-04
-1.532486707845519183e-03
-2.774872310555528184e-03
-2.794156733219489036e-04
1.554132270795676579e-04
-8.527383882160207654e-04
-3.894325647515052666e-04
-1.178339421484660360e-03
-2.122034060231837386e-03
-3.797304354975581525e-03
-1.591624899487536571e-03
3.764819580339277914e-03
5.890404406058689403e-03
4.345670473254254623e-03
1.732127472846135049e-03
-1.230595470143288413e-04
-2.149885480504109408e-03
-3.150704468999762035e-03
-1.170838346271363146e-03
9.562528181233191367e-05
4.638363003916991137e-04
-4.015824796534950823e-04
6.708059759418240581e-05
-2.874396273327533007e-04
-1.174978816410128871e-03
-1.078437835843145147e-03
-1.532999772033153340e-04
6.870523030225808309e-04
3.804695721671161822e-04
1.560220769923937884e-04
1.548933912343587781e-03
1.363936791006893287e-03
-6.962676827383892410e-04
-9.634416630397550380e-04
7.192140637440943424e-04
8.446300057667805762e-04
-5.860897496505951048e-04
-6.734276671810975751e-04
1.251355997652874974e-04
5.898209144121332667e-04
-4.978726801325018651e-04
-1.608085836035597072e-03
3.170045790644083106e-04
4.028105561092946009e-04
-2.723331967163804723e-04
1.202586675836166607e-03
8.732265823347986049e-04
-9.418353356013178107e-04
-1.635479677995017346e-03
-1.348309047471744210e-03
-1.748962476594805894e-03
6.786003969955951582e-04
3.189841927502826396e-03
2.424439148333646168e-03
8.144835471558104206e-04
-1.292085186342200296e-04
-4.265403489275923238e-04
5.187384587942129270e-05
-5.495447218045361806e-04
-8.811803300455931399e-04
-5.059672079382272541e-04
4.076656795667057856e-04
9.346724556541781241e-04
-3.005051828898971391e-04
-2.224477570636326697e-03
-2.841232793548219716e-03
-3.353277587585014926e-03
-9.921022581383721374e-04
3.044477388637574673e-03
3.741815078482305622e-03
2.641507664534557560e-03
1.277936516923332180e-03
1.482389149837442339e-03
1.263432227040189697e-03
-7.665522921468143243e-04
-1.421601014307493326e-03
4.188812914494667231e-05
5.551503367212421661e-04
-9.615680957590574691e-04
-3.901792707894340215e-03
-4.140369939113771637e-03
-1.204970134040841013e-03
3.493638868517799970e-04
9.295805537850825701e-05
9.551038318522629689e-04
2.353709438839011840e-03
1.564823851912309919e-03
1.806675945524254803e-03
2.471996480702920787e-03
1.568704168285823619e-03
1.456547938396643850e-04
1.584324820703280907e-04
-4.103892219563885888e-04
-8.336519306556397155e-04
-1.602980165579460242e-03
-1.831155563521648074e-03
-1.538021307688336274e-03
-1.953802833580853358e-03
-1.703824052037308540e-03
-6.239381960535660566e-04
3.901227071880844217e-04
1.210934635104047577e-03
4.923333370829250126e-04
-6.161668299568218783e-05
1.706252799175668033e-03
5.199498703750974477e-03
4.320199441692330541e-03
-6.292006442350185288e-04
-2.334302295208548050e-03
-2.640871305208022848e-03
-1.871025219081637499e-03
-9.568868833641558033e-04
-1.591131460864164508e-03
-1.953298564077041166e-03
-1.287111763661014921e-03
9.899903444843843772e-05
8.307580425615656173e-04
2.739100951648080172e-03
5.213186748271228695e-03
5.047157864167636787e-03
1.024600495124639444e-04
-3.824612408675426203e-03
-4.140159335700712047e-03
-2.824239721187879037e-03
-2.920143078389766510e-03
-1.362478560428486037e-03
1.409011635463765320e-03
3.431417250618113476e-03
7.586773735933844461e-04
-2.853603288354380447e-05
7.801203591313774464e-04
1.058566982193729494e-03
1.421137333399010924e-03
3.453781022568605438e-05
-3.624373994286406750e-04
3.707524671121834232e-04
-5.270492150930729388e-04
-3.244049964659639755e-04
5.071617885601003607e-04
-7.895751041587963223e-04
-2.084615011848126379e-03
-1.853211713007148122e-03
-5.492380031709056653e-04
4.280254627558758166e-06
-1.402828120984910953e-03
-2.950322334068029560e-05
2.149267014348385605e-03
1.628011036373827949e-03
5.404075917259084164e-04
1.012297673495199390e-03
2.567459281035442981e-03
2.891444439109954953e-03
8.853521756936682217e-04
-1.652739045509881962e-03
-2.618189797809576148e-03
-2.037503578761492695e-03
-9.969138994593549664e-04
-1.792540482488220619e-03
-1.062678222528734649e-03
-6.215924473549968177e-04
-1.052168149696470090e-03
-1.708373076424146752e-03
1.265080564269815792e-03
2.721942431434096112e-03
3.311686652387162404e-03
1.694236248105952889e-03
-2.744875875010009355e-04
1.465555339866683988e-05
5.831596561976863354e-04
-5.568299093178437917e-04
-3.657177624630173060e-04
-8.242812526256884935e-05
-2.170508110475995785e-03
-1.465871277308273017e-03
1.244877588235710712e-03
1.362402530501191991e-03
1.157225355446157324e-03
7.682029210147332853e-04
-4.232963712210584847e-04
-2.877334662221766193e-03
-3.080681871792660242e-03
-1.787205224174387864e-03
-8.149187779834070593e-04
1.224414238355077053e-03
3.124488569077750553e-03
3.218267044553654085e-03
1.664866633095705289e-03
-3.144651830589347019e-04
7.842897583323684427e-04
2.203924150900613086e-03
-3.687693861923589412e-05
-2.596416959544014819e-03
-4.115567418568093043e-03
-3.384779673559633068e-03
-7.161655331334323103e-04
2.257374835888956231e-04
1.731244387585488282e-03
3.652001159280611909e-03
1.721106224718245989e-03
-1.614427350532730756e-03
-2.382573398799530100e-03
1.098541012400989928e-03
3.337786663484860073e-03
2.352558878509084309e-03
4.324817030540747237e-04
-2.420803843823685856e-03
-3.914854031317050245e-03
-2.975047182183380556e-03
-1.270148639785400897e-03
-6.187714772400937455e-04
1.739668406521165025e-03
3.682864302043408183e-03
2.934144937961671081e-03
8.758158444725403467e-04
-3.507482669294286035e-04
-5.917313476484552335e-04
-6.122342965138401942e-04
-1.179887157615506273e-03
-1.995807940773801359e-03
-1.236078843105032667e-03
1.762379207601257644e-04
1.165185738624167260e-03
9.594881503270243604e-04
1.603412110490168199e-04
-2.182409327227750507e-05
5.540375129341624377e-04
5.018769381541776653e-04
5.709423360622324682e-04
-4.736029657218322514e-04
-9.672224885712764298e-04
-1.838455409192563854e-03
1.056448335954816842e-04
1.804150219939535792e-03
2.029959952330677875e-03
1.237735204890164954e-03
-8.769700382482033523e-04
-2.020272346966768724e-03
-9.617499295023943483e-04
-2.722501067718428956e-03
-3.469571199423717844e-03
-8.931680720093541654e-04
3.502795459630785209e-03
5.924689408098685398e-03
5.017787345616542445e-03
1.407615221352271229e-03
-2.757774252532116475e-03
-3.501789753550341427e-03
-2.647483002312659133e-03
-2.628509329779869005e-03
-2.521405882947786500e-03
-1.860698617474954670e-03
1.648694762699931884e-03
3.279617655232937648e-03
2.724953261062964659e-03
2.570397388640392744e-03
2.800859989267489702e-03
3.242603050068939598e-03
1.276313567392831127e-03
-4.650603125879422886e-03
-7.086324318601233685e-03
-4.220228500089893454e-03
-3.387689920884810074e-04
2.786434106010438560e-04
8.357712280972645104e-04
3.015242958741282554e-03
3.314377074120231515e-03
2.045864766248709551e-03
5.896378476709742723e-04
-1.964973040219680517e-03
-2.105662056995017978e-03
-1.204857985269282760e-03
-2.617901625948985969e-05
1.123444165057812172e-03
2.241693109082235329e-03
2.258174489827183534e-03
-6.596653574249017760e-04
-2.849601052230870454e-03
-2.630654400267877068e-03
-6.077672241445433634e-04
-1.295274241819167730e-04
3.407363087385435860e-04
1.883449160808507716e-03
5.439722053541941413e-04
-1.529701212064299128e-03
7.076309567030938073e-04
2.837950489513277243e-03
-6.281053117630824769e-04
-8.399260403451656387e-04
9.793443900603670833e-04
-5.155989183150799359e-04
-2.954792724839901998e-04
5.650753851415848093e-04
2.291152170236703336e-04
-1.612915433088940934e-03
-1.148502347057841263e-03
2.494454698022530842e-04
9.053990100180692559e-04
5.192791971744641338e-04
-1.054994193321610093e-03
-2.742435791897677739e-03
-1.332769268921393541e-03
1.193870072719028152e-03
2.853407506777704949e-03
2.114290999235708072e-03
4.906874797258047212e-04
2.536010784171013172e-04
-1.459965382292009435e-04
1.401190353538046135e-03
7.467495726804466863e-04
-1.068752102701738243e-03
-7.121971154832105848e-04
-1.863200051083809894e-03
-1.479105508749532392e-03
4.407081710637793487e-04
-1.281047665697747796e-03
-3.419950201083672443e-03
-2.286167859074506384e-03
1.695277909088497431e-03
3.218337542110975402e-03
2.315902463040985220e-03
1.457529638983716576e-03
8.168670152720282004e-04
2.539828540914336268e-04
1.298824454295691849e-03
1.964110298554820871e-03
-5.063258861152122002e-04
-1.700602126557628803e-03
-1.785461472326240091e-03
-3.062461155515737703e-03
-3.252288444740432296e-03
-1.597328015101361857e-03
2.511621649600586335e-03
2.973243747453529172e-03
1.622816471782519317e-03
-3.141502210597801469e-04
-6.972828400942088483e-04
-1.343344092861020582e-04
1.527877114335005407e-03
1.999082045004943031e-03
9.709607362804178066e-04
-1.102879708333211065e-03
-1.937932756435261934e-03
-2.300806930671148078e-03
-2.804411720255652572e-03
-1.771798422318118620e-03
-1.196454822828838329e-04
2.302711073367412226e-03
5.186111125201892449e-03
3.640683799911264857e-03
8.602858524819918112e-04
-1.490041098072469091e-03
-2.357275605127073705e-03
-2.214215069606618059e-03
-1.531821898851767156e-03
-2.456236738773229320e-03
-1.103549985480827965e-04
3.521016618515891358e-03
3.710935275200827246e-03
-4.487167297870273499e-04
-2.843239407226353342e-03
-7.114251357114659497e-04
1.844532422869676197e-03
2.671721683588231758e-04
-2.522476049557514401e-03
-3.755396296989019136e-03
-1.426360301974042340e-03
2.194873557583501035e-03
5.292045519532579713e-03
2.838818255506597547e-03
-1.269036446525920105e-04
-1.015128366227476854e-03
-1.405942929210512277e-04
3.469999328348932223e-04
-2.540694323291233233e-05
2.531286838406883737e-04
-1.729125667353125211e-03
-3.386824613611763915e-03
-2.892841688036324691e-03
-1.467204047604743879e-03
5.891176263473126701e-04
2.213879960920954546e-03
2.191631943903678617e-03
2.203227563852567811e-03
1.788665651800654946e-03
4.823634820356127360e-04
-3.558057030526663223e-04
1.392251449911232784e-03
2.121059134005074136e-04
-3.003080939976083934e-03
-3.239241234352266668e-03
-1.430290213035450035e-03
2.735271716084135946e-04
1.558231687092080263e-03
2.267953225924280222e-03
7.264232843631897004e-04
-4.648927166494029139e-04
2.323592616858303290e-04
-3.690192703927928984e-04
-1.179567879658434057e-03
-2.174469389172590909e-03
-1.037687241028176829e-03
1.496009362129911745e-03
1.181515725776881472e-03
-2.780886005066474033e-04
-8.791849434564263498e-04
-6.081015575985682271e-04
1.609361245737113942e-03
2.566605180495611094e-03
1.032269582482068810e-03
-2.653957078946054854e-04
2.244988770087616987e-05
1.714942256602208564e-03
1.578470615770057994e-03
-1.089267360606844019e-04
-3.216609635123500715e-03
-3.333684878488701875e-03
-3.211392714362449382e-03
-2.997042134448911748e-03
-1.303132397582255561e-03
8.229966287213678205e-04
3.710499901774672645e-03
3.720662817206108353e-03
1.483081208576055108e-03
8.247728645420322399e-04
2.512465858326233190e-03
1.200530196130961298e-03
-7.226977669017511517e-05
-1.782776196683951266e-03
-3.495980291066743718e-03
-2.641825554051061096e-03
-1.684696917825468255e-03
-6.451197654532563226e-04
-7.611055968806872216e-04
1.462942084806557021e-03
4.795646827524797581e-03
5.109663042621594153e-03
2.248501138499351716e-03
-1.193224357916074490e-03
-3.530498797209625107e-03
-4.596811713172404071e-03
-5.438055010710382033e-03
-2.514283172655308422e-03
1.770342088257579032e-03
4.405564487558900205e-03
3.144989812717271464e-03
-5.982818674524813599e-04
-1.907464630176902622e-03
2.294781829245637946e-03
3.326428721801977326e-03
1.239535061839389183e-04
5.423914623630332342e-06
-7.071820077111914873e-04
-3.411223998039838393e-03
-2.949000947207030491e-03
1.102740247628025347e-03
4.282104095950927877e-03
1.363681516375366779e-03
-1.737886104701906334e-03
-1.241355406674181285e-03
-1.143008828838812732e-03
-1.160802031271563305e-03
3.675311348245442040e-04
2.365276876638108382e-03
2.695522061371289236e-03
9.077616805097479293e-04
-2.983049303935746566e-03
-4.224648077011110281e-03
-3.552030694381341346e-03
-2.306566332466011230e-03
1.223417841320816914e-03
4.017436286001760566e-03
4.270519352361779909e-03
3.221579339350334314e-03
1.642289427627187468e-03
2.946252675272300974e-04
-6.799406281938951487e-05
-1.445068982336194467e-03
-3.550784005336254413e-03
-2.590381590042851491e-03
-1.633610056320538694e-03
-1.305065436793815311e-03
1.742623609090172832e-03
2.621922053785629217e-03
7.222040500479974838e-04
-1.383269988551069738e-04
5.046500596671342313e-04
5.238313563855650406e-04
-5.278750242376679946e-04
-1.417964382668805354e-03
-1.829014394945213586e-03
2.344821346183432965e-04
2.053781622271152161e-04
2.279165238012243095e-04
1.222082119502302354e-03
5.939051602302120600e-04
3.221077835205291896e-04
1.007156991573776366e-03
1.719213282024152113e-03
6.095673134840986921e-04
-9.679400524065306455e-04
-2.727542860820202347e-03
-1.482382816458050010e-03
3.122434386898320451e-04
1.274031198450308391e-03
1.552237927363680570e-03
-1.291850337232395207e-03
-2.214223092127922884e-03
1.979438254224693397e-05
5.456916790473631020e-04
-1.073156682975347741e-03
-8.473719605630886803e-04
-4.345017831759783399e-04
-1.221718534515541855e-04
1.780238568278689690e-03
3.141676007908038304e-03
2.738794329472915220e-03
2.392313061918025906e-03
2.543356921236322884e-04
-2.475663948916058919e-03
-3.531766677083964402e-03
-2.325342922307842720e-03
-2.477205056633175807e-04
-5.157647314023127826e-04
8.318231782778184868e-04
1.354420320462597273e-03
2.962369058752555733e-04
-9.568000895940835093e-04
-1.319676405257060644e-03
2.954117600563826670e-04
1.315306099205688179e-03
9.973446935668472350e-04
-7.929786221086156627e-04
-1.294641022088265916e-03
-6.505933878425119955e-04
1.448360451361138668e-03
2.711425950059870565e-03
2.215265792222810039e-03
1.320324745801404681e-03
-7.527928061134400630e-04
-3.259319920581686941e-03
-2.707569408657954212e-03
-2.871408282753131893e-05
3.490674422448551950e-05
-1.303914142210030845e-03
2.235786996710997776e-04
1.412972734927093544e-03
5.884086345399312410e-04
-2.623601786956288799e-04
-6.771549556265388540e-04
1.026123191073481135e-03
1.187342416635543858e-03
-3.463360492531758505e-04
-2.206732103398640493e-04
6.438343146020718537e-04
1.630130061823708730e-03
1.052167724014995212e-03
-1.097409506107640317e-03
-2.840901736758004274e-03
-2.198109330907453956e-03
6.785612553800729886e-05
1.671596216359913945e-03
1.399284195463857544e-03
-1.044414523995260179e-03
-1.527534827287749253e-03
4.211984579495331275e-04
2.374435177250548267e-03
2.260604530351687468e-04
-1.280966587796167344e-03
-3.044271644088607297e-04
1.028690517431537794e-03
2.115185024123983088e-03
6.093299823318637677e-05
-2.079258542281459381e-03
-2.930913206729802382e-03
-1.579154078319779195e-03
1.422926327209832447e-04
1.465399564019781008e-03
2.534795692498220936e-03
2.423862859402971248e-03
2.644443911555377415e-03
8.915192284422652266e-04
-2.546765700540914220e-03
-3.719328487544114933e-03
-3.097705264135367734e-03
-8.446622082715440384e-04
5.922821732852337831e-04
1.427096500100064915e-04
2.079768985824954289e-03
2.591347128445295120e-03
6.127394327152355536e-04
-4.957017676192529681e-04
-5.784267343726745905e-04
-7.011832956195124559e-04
-1.014700311341519730e-03
-4.493173462004826368e-04
3.860725489205567404e-04
1.340497655096004525e-03
2.873793343627515252e-03
7.164255239252915238e-04
-2.685917811437131802e-03
-2.596876567588836306e-03
-1.907323512775733814e-03
-7.594655538346712330e-04
5.534311033189576179e-04
1.128315471182490337e-03
2.655542820840202552e-03
3.161703268678383444e-03
2.132333141675510607e-04
-2.064816544025794166e-03
-2.143913426281103627e-03
-4.813085302311544546e-04
1.751939453898919148e-04
-7.874367113917027892e-04
-4.740691460093543236e-04
6.520894751769592060e-04
1.515980011231924784e-03
1.193607310815089769e-03
5.906732138966274076e-04
-3.035797069955845280e-04
-2.794632363831300067e-04
3.474055344588334844e-04
-1.788931121638857955e-03
-1.507394344613991865e-03
-3.382442265707796846e-04
-2.669296269780438153e-04
8.028974860821368425e-05
1.621049717566029440e-03
1.611812406167385109e-03
6.662204335844971103e-04
-1.060135146953655435e-03
-8.183001318189084316e-04
-1.200721686978818530e-03
8.201619343914767052e-05
1.198396552112611282e-03
1.631559360039559889e-04
-1.653237106325514908e-03
3.228998253202156250e-04
2.119429014086445049e-03
2.205166961763033954e-03
2.100934131194304166e-03
-7.911421401716111843e-04
-4.031317903158691471e-03
-4.718993293466419887e-03
-2.696658064845193232e-03
6.705143041888165893e-04
3.256619167401590079e-03
3.394317150123439281e-03
2.772610392803354518e-03
2.621184334852328084e-03
1.268719419784237069e-03
-3.110140529765658812e-03
-5.474950622594757996e-03
-3.226540556812322342e-03
-1.699815023184351927e-03
9.421572199874547922e-04
3.789037569711392085e-03
4.402730204434802952e-03
1.410304434055360693e-03
-2.139679024989302094e-03
-1.523747767883864342e-03
-1.085981554642750045e-04
7.206081731117766186e-04
6.457930258781170068e-04
-4.984499008992744357e-04
-8.927453989633318994e-04
-6.993285444813458979e-04
-6.881262125352274319e-04
-1.168361951525061140e-03
-1.073124373333501653e-03
1.582443113250505545e-03
3.444404909578095437e-03
1.465119162626686827e-03
-1.298956452287347314e-03
-1.943698678315830802e-03
-9.218457962076894276e-04
-3.646951246654310313e-04
-5.728451898065469935e-04
1.359938062560030658e-04
1.459236878685080466e-03
9.563957520576414975e-04
-2.611529475228322271e-07
-3.455672909565666944e-04
9.840677230981314302e-04
1.541816922375366947e-03
8.645595189223490885e-04
-8.992696726833120059e-04
-2.225580867519272570e-03
-1.586965085529398528e-03
-1.877234169518094851e-03
-2.019206822934745908e-03
4.404949760917265303e-04
2.158438885603619888e-03
2.537608626306368537e-03
1.284318135884417221e-03
8.482680082558477237e-04
4.707976170313300682e-04
-4.584270540971766288e-04
-5.701241800933215271e-04
-2.618380623168244450e-03
-2.493709162533044518e-03
-3.614418354974743169e-04
1.780035184332933590e-03
1.930600874911666967e-03
1.598276996053772919e-03
2.595545240340164320e-03
1.394705514879823229e-03
-2.020476025473965168e-03
-1.101196818419393269e-03
-1.805346718215106085e-03
-3.980455966446280573e-03
-1.515707031867105994e-03
5.678589143599337662e-04
7.644869189108924584e-04
1.234275440787776243e-03
9.343034199617833825e-04
1.109344390079526578e-03
7.120675698492927915e-04
-3.942572362994527864e-04
1.309841869830383676e-03
1.097918229190021373e-03
1.104244386118182018e-03
-5.088685085143731818e-04
-6.994431486990551356e-04
-1.004511999373943658e-03
-1.282269749332548645e-03
-1.999444630994324460e-03
-4.156614349140003791e-04
8.719553077363755489e-04
3.199381029841705200e-05
-1.102903546273545626e-03
-1.767464187787832000e-03
-4.341174528677520109e-04
2.591656091498432003e-03
3.644397870769082882e-03
3.785402941605195935e-03
3.310016483358505391e-03
6.809593395744380911e-04
-2.434027001849040518e-03
-6.042404200194549657e-03
-6.026214840741998813e-03
-3.601211411313385690e-03
-1.289512306463024103e-04
2.118711175521455561e-03
3.161278751055915381e-03
3.780511220732429151e-03
2.313009604659167339e-03
1.666909668629203492e-03
7.756645715779630391e-04
-1.587433717400043957e-03
-3.146364658807703288e-03
-2.088230176938804701e-03
8.022792555679092094e-04
2.144744799632255887e-03
1.610630299983464115e-03
3.992597975407973540e-04
-1.336243172086012574e-04
-1.831040062678995165e-03
-1.798716262395169728e-03
-3.386835261450628983e-04
5.768908620023822757e-04
-1.016344807621337616e-03
-2.346029705890167408e-03
-1.703506988101126558e-03
3.327825403526333517e-04
1.657165388785110166e-03
1.990551438772688447e-03
2.572514199739740510e-03
2.649805068958565723e-03
5.435822585044521385e-04
5.841459204617736265e-05
-8.077894498148116467e-04
-1.621727739497978585e-03
-1.342917975135539703e-03
4.586200536257759356e-04
2.231974429961290814e-03
2.953117304438483432e-04
-2.159397251020554569e-03
-2.084082036679232690e-03
-3.135424953673579714e-03
-3.010736689801890922e-03
-6.214221899393755893e-04
1.004982146770189502e-03
3.670187889782700204e-04
3.894325107816718357e-03
5.955436349561638032e-03
4.114467340355337788e-03
9.615391699920807118e-04
-1.837197941840838875e-03
-2.469174541420778198e-03
-2.634449486914401672e-03
-2.964880548272795253e-03
-2.563635382157640474e-03
-9.869913451438284448e-04
-6.849557959689588256e-04
1.696041270454822295e-03
4.020718109607865701e-03
2.630952900205224803e-03
-4.838432482248997504e-04
-1.502429690715062841e-03
-1.944070227184787258e-03
-1.955158781690797404e-03
-1.072567369119833405e-03
2.538920253132920073e-03
4.609543309340713435e-03
1.783636630431307104e-03
-1.360847560010910139e-03
-7.037203762454303374e-04
-2.106852359355990535e-04
-1.556081947924217810e-03
-3.664164695786760809e-03
-2.861338433678332557e-03
4.095458022581265046e-04
3.113858934489977751e-03
9.966779436653822304e-04
-7.381457852404029211e-04
2.103721561606813754e-04
2.170545406163136831e-03
1.175316640356232701e-03
-7.985223609566197058e-04
-5.603899703584280540e-04
6.491637241780156414e-04
1.279739288327425310e-03
5.410778896876268984e-04
5.415010454909341582e-04
1.867705265416613487e-04
-1.308076387426857119e-03
-3.348644785736200075e-03
-4.265043426517296787e-03
-1.464063364492044009e-03
2.008943248427194628e-03
2.809148666336767908e-03
2.173004413025820657e-03
5.754582365888045829e-04
-1.203921599886835243e-03
-1.014382657614587438e-03
6.977027791893714677e-04
3.329769823549461483e-03
3.376565890876114841e-03
-6.863997465455609105e-04
-4.281900302302902271e-03
-3.901343853647748234e-03
-2.815044713589395631e-06
2.430182266551226048e-04
-8.726871724377362107e-04
1.029223188425413227e-05
3.353227164371537072e-03
3.360721225035181569e-03
-4.231883669968558256e-04
-1.894547964817287159e-03
-1.817074179059784914e-03
1.128126216546950368e-04
8.414264413440771060e-04
3.669772895428564810e-04
5.192859255308794478e-04
6.876863236221021679e-04
-9.579796017478329562e-04
-1.211095245253178583e-03
-2.051711177082166538e-03
-1.033861521182469212e-03
1.084360350877160151e-03
1.102803522074043358e-03
8.550419357592480441e-04
1.103969062026556851e-03
1.236069831350204186e-03
1.550155100293998042e-03
8.163713285436940753e-04
-1.586733173950838870e-03
-2.466796481531982523e-03
-2.903771814190974059e-03
-7.723975065845518385e-04
-9.653437246313809582e-04
-7.450244238286280645e-04
2.321260330050625622e-03
4.714984999632286858e-03
3.680029000101150884e-03
1.953325823299978652e-03
-3.210837122941952539e-04
-3.759144060128937707e-03
-4.088940515273150646e-03
-1.914526075484766169e-03
-5.786773774410516012e-04
-1.127565157296301713e-03
2.820296263122097700e-04
1.089016905571482544e-03
1.070891593161507301e-04
-8.000480251415689834e-04
6.841067110314124310e-04
1.222465696820949953e-03
1.587782243478130274e-03
1.473434650554627124e-03
3.002923773350294184e-03
4.932845582567625155e-03
1.739986540453663600e-03
-4.473130411959036837e-03
-5.652446817853122238e-03
-3.809943334595103023e-03
-1.254681862194365494e-03
-2.856346930297433439e-04
3.182963838505082125e-04
8.722598632833558369e-04
-4.373503206498505083e-04
-7.893739853351725640e-05
9.028824847173804163e-04
1.919502440695256777e-03
1.919997694296365085e-03
1.983005249101508442e-03
1.043048810192984078e-03
-1.057940987157818431e-03
-1.586325769646801127e-03
-1.171517235231544270e-03
-4.472744143616491056e-04
1.018366634512848229e-03
9.103751970561341569e-04
4.247431127831472375e-04
-1.985835855114759414e-03
-1.912886791189520510e-03
1.243474423101850702e-03
2.596926845946534879e-03
-2.900643187549882041e-04
-2.981205988946222882e-03
-1.643631316551376256e-03
8.476565605951447580e-04
1.317051479085755081e-03
-5.091663230189112307e-04
-1.699803010072054466e-03
6.427788625383370233e-05
8.421739514611018430e-04
1.875034955322296129e-03
1.497341899852002930e-03
4.765602001647946287e-04
2.935109020078902485e-05
-8.819270071969294482e-06
4.961904017214194534e-04
1.674020816404687799e-03
6.004630300490609775e-04
-1.375735603171178694e-03
-3.360614634889205928e-03
-2.471546986803102152e-03
-1.160156073110304347e-03
-3.455058819986541450e-04
-2.506535079254489543e-05
7.238753581733420230e-04
2.216403500998622832e-03
1.869092703092828031e-03
9.119865998907801096e-04
5.724625095891334049e-04
-2.144551342448328395e-04
-8.391149692194138903e-04
-1.305908283312661247e-03
-8.595294501331318757e-04
4.897510617793176309e-04
4.408833873582317943e-04
2.011029240834126140e-04
8.246202933185803373e-04
4.669463578184408228e-04
-2.735077332928477576e-04
4.249758084233536668e-04
8.783182068118236367e-04
-4.402231776918601441e-04
-2.305275074696409941e-03
-2.722602379798916891e-03
-1.065494885741402045e-03
1.619280992179978219e-03
1.694613385207158901e-03
4.081273651446110985e-04
-7.696389859941798095e-05
1.027536810249295510e-03
-5.288616792212771402e-04
-1.676985339137764723e-03
-8.790274776384858360e-04
2.176050922381030182e-03
3.520603499407368078e-03
1.775097788090301571e-03
-9.354496672166702411e-04
-1.879227442019980971e-03
-1.225435608718549937e-03
-2.500345221887429609e-03
-1.599582386290881444e-03
1.310882807895935673e-03
1.489848287072254637e-03
4.544073829467809903e-04
-5.818929388170067515e-04
-1.472756823945739089e-03
-1.003773171111414222e-03
1.123060694618401370e-03
2.457493337168642662e-03
5.470526591771582986e-04
1.085338670859484374e-04
-9.418482939198218160e-05
-7.759840749451896104e-05
2.125757165538850243e-03
1.618970950584378964e-03
-6.924631190555474713e-04
-1.608173189107746674e-03
-1.582123961192016771e-03
-3.043060321511624391e-03
-3.070141062791051194e-03
-1.633683401791612708e-03
-1.139559231329247916e-03
1.654854065455746166e-03
4.192953553101282788e-03
4.524029068258340544e-03
2.215860799769611700e-03
-2.738296439770511654e-04
-9.548740390881802625e-04
-8.980204657123161752e-04
8.020105592837086742e-04
-4.481819058066082383e-04
-2.226170168000275989e-03
-2.415727581773949653e-03
-8.834847112189833651e-04
-8.802746989252320975e-05
4.139138126468496263e-04
7.632477163918446016e-04
1.408671401456517130e-03
1.580479105772789484e-03
9.687967082421713571e-04
3.338948933315377568e-04
-6.298789644914766506e-04
-1.767959178804697981e-03
-1.549846052413565798e-03
3.164888867932129276e-05
3.918092371579183736e-04
-1.679633120134942179e-03
-2.205147883049201219e-03
3.495469284992104640e-04
1.564187763867721116e-03
2.201246144553083931e-03
2.559006888335481952e-03
2.166001871045572773e-03
1.002309869657182261e-03
-1.936517735045885120e-04
3.825196296299648662e-04
-1.872599327615604749e-03
-4.081675820821367359e-03
-3.208124704795004608e-03
8.940918297231101666e-04
1.361569670451106932e-03
9.535257817369922938e-04
3.016631453663314141e-04
-5.654671985905123602e-04
-1.156346740773922608e-03
-8.240208524525087161e-04
-4.471797246236362366e-04
3.136819136861667182e-04
1.792882474438782731e-03
1.723186363960822667e-03
8.797452532677142289e-04
-8.882263837290411534e-04
-8.429063513995836221e-04
2.370427309625061738e-03
2.774082377092824177e-03
2.013958811415775436e-03
-7.082234741120243919e-04
-3.138361380014071961e-03
-3.781303991423574061e-03
-2.660952401158963969e-03
-2.081308995632219060e-03
8.510329298270116576e-04
2.934918621709711392e-03
9.767473731355786736e-04
-8.872907401796993219e-04
2.616430008838623619e-04
1.545203859018036592e-03
8.421399334334990559e-05
-7.468910275868685146e-04
4.389526916188924680e-04
1.514784363907716166e-03
3.488473167488473684e-04
-7.243898801957031610e-06
5.949394981025978545e-04
-1.406751825165577932e-04
-1.613000018719081691e-03
-2.611538715409865083e-03
-1.162932913308385718e-03
8.919431592113759300e-04
1.560295444053031279e-03
1.291372205378407689e-03
3.823727410967614503e-04
-1.060322936345141278e-04
-2.800306753642675426e-05
-1.521955613844161285e-04
2.800929568491208389e-04
-7.170560740471767971e-04
-1.007297352982091786e-03
6.328825552819804202e-04
6.995935125524263727e-04
-4.936147930700808192e-04
-9.522694159807573808e-04
-1.121339201337286312e-03
-2.238165640850101740e-04
6.866697324380296010e-04
2.234444869217432766e-03
1.990688198811289486e-03
-1.254795617686666094e-03
-1.237913805801468294e-03
-1.005178032456279869e-03
-4.016051226467901589e-04
4.196747153712979323e-04
5.395505496882241608e-04
2.564792286360946440e-04
-1.354944078821950990e-03
4.225802501940692751e-04
1.453506666232577378e-03
9.570175690231495650e-04
1.050092115877479786e-03
1.873660795414816181e-04
-8.865473200444916758e-04
-1.424362738726091563e-03
-6.746805555383492484e-04
-1.704318512490090548e-05
-2.145996457089639688e-04
-4.983289635529771291e-04
-1.313896551282435878e-03
1.026255700225221724e-04
1.026057683971906163e-03
7.174237643136510169e-04
-4.932223009569459710e-04
4.700283841602305294e-04
4.247465013823791794e-04
-4.580776021116561461e-04
1.802745554219877585e-03
1.417635746930536941e-03
-2.525618536744927891e-03
-2.399739891745143131e-03
-1.956793930365931342e-04
1.938232519658518276e-03
3.222718524601400798e-03
1.654336145659554471e-03
-2.636523377858768571e-03
-3.111847943646843008e-03
-4.048871841541835351e-04
1.648494671122815221e-03
4.360234564283776873e-04
-5.472462873915003934e-04
1.130173560394709745e-03
1.801386477701866218e-03
-1.126831323826255104e-03
-2.459945710218239528e-03
-1.117611804767705292e-03
1.239098736697903311e-03
2.066792186019626807e-04
-2.664813424291159315e-03
-2.467677324247178738e-03
9.740701676991269948e-04
3.407582414864781997e-03
3.473329780605457703e-03
2.245820584065764004e-03
6.389270408500833699e-04
-1.967155389649880882e-03
-2.689455532250236390e-03
-1.854530744853883284e-03
-7.079032556724822785e-04
-3.908442529728613143e-05
1.040660840047225684e-03
3.268689389224220965e-03
2.959970517514773358e-03
-5.145318827186773792e-04
-2.284767427321913579e-03
-2.355955834323271349e-03
-1.487456295063796377e-03
-1.039590109864628204e-03
-3.799275865929873015e-04
-2.414187927168648590e-04
-1.351113608879589683e-03
-6.180762617160846318e-04
2.760179329759249612e-03
5.616346033658085359e-03
2.489322698986540065e-03
-2.475701761461387724e-03
-3.615384455576020617e-03
-1.988282898242879453e-03
2.710138141028487348e-04
1.783280587516403301e-03
2.077751227182119114e-03
9.825019298704378012e-04
1.513729783650246427e-04
-1.359727778747420960e-03
-2.666223027745527347e-03
-1.358469167863488253e-03
1.159087179820148840e-03
1.652731993856225781e-03
-2.093266480014241882e-04
-4.828261560026217382e-04
1.271376393351222097e-03
2.751066525047798569e-03
1.049737058931865486e-03
-2.002057932740027805e-03
-3.345664024943221463e-03
-1.593402705503448469e-03
-2.064610019733885242e-03
-3.664615413995341887e-03
-1.078626142387530053e-04
4.362479594990821205e-03
4.584298565223707787e-03
3.018563003391440489e-03
1.049788885192942667e-03
-2.518691161723357456e-04
-2.113915140969528650e-03
-2.414450010613074498e-03
-4.104723618492453333e-04
-5.503818309539657526e-04
-5.699003806020263782e-04
2.711726694095674840e-03
2.865204813340311869e-03
3.326357603775797101e-04
-1.232759431285071613e-03
-1.526361781341039128e-03
-2.217852045064569021e-03
-4.357072198451623218e-03
-4.560310274487766428e-03
-2.184130754411584257e-03
3.570546918736879072e-03
7.703693417637529767e-03
5.821160210680680069e-03
2.524178049135057753e-03
-7.991341657824601978e-04
-2.921991207576434425e-03
-3.082911795578437576e-03
-1.289033370522892725e-03
1.599746386160087990e-04
-1.342795294021789914e-03
-3.064637737128895079e-03
-1.052638871113982869e-03
2.541998179214039182e-03
2.362626699529519429e-03
6.803007873135368498e-04
1.289882122237087430e-03
1.575554151504706193e-03
-1.643029764206460381e-04
-5.960421430412444002e-04
-8.096064742796478227e-04
-1.128775601284728435e-03
-4.991183480298559119e-04
-1.486887986750638389e-04
9.905911544923931382e-04
-1.252962130402972914e-04
-1.344698857657758255e-03
-1.119316798679248579e-03
-9.468969093134178795e-04
-1.253244371365635004e-03
-1.242035154131642619e-03
1.869183877410798866e-04
2.908996234951614652e-03
4.504179651168687196e-03
2.391518222578803508e-03
8.449578183498818586e-05
-5.905434456885229940e-04
-2.558982768387898024e-04
-4.544797991903556955e-04
-2.121472775025482708e-03
-3.140578686419771923e-03
-1.699070324605353672e-03
-7.116849124885887834e-04
1.182406061318619014e-03
9.217144460582352887e-04
-8.912605211266209698e-04
1.077048135208650854e-03
3.615211031277320262e-03
2.137889188509771617e-03
-1.588834793995997600e-04
-8.420070599542309013e-04
-3.764328702021459681e-04
-1.666030188425491774e-03
-2.270276933261102838e-03
4.087623109093232033e-04
7.346051516528742231e-04
-8.204749229285703384e-04
-5.752884495948971987e-04
-3.384290189876786796e-04
2.195020938816843819e-04
-7.084988412972056254e-04
-5.066588974523404156e-04
1.910558122639332635e-03
1.671537318538560829e-03
-9.150053697534526673e-04
-5.134315202647415097e-04
1.489467142197399650e-03
2.020580824270017811e-03
2.425523518593450910e-03
1.299307200299548194e-03
-1.238250230233172355e-03
-3.844392536727628349e-03
-2.119110503951733213e-03
2.587042916177600591e-04
-7.451191034861940937e-05
-2.046308630964970097e-03
-1.674426693628648134e-03
-1.681244596772876482e-03
4.057440298159783912e-04
2.637912860569347189e-03
3.982842661047825313e-03
1.116930099961587104e-03
-7.433345847228907746e-04
1.018072618099401597e-03
1.380532244065915551e-03
-1.061975114078402970e-04
-1.305060820204487475e-03
-2.221049921960752647e-03
-2.864068442545317662e-03
-2.332733091977695020e-03
-3.479495788233933755e-05
2.329132203940314540e-03
3.054145068918991904e-03
1.346502972655325711e-03
-2.345388220008231856e-04
1.020075989945387444e-03
2.325390252097952852e-03
5.930649586584226364e-04
6.392732561604400174e-05
-4.828722736306904608e-05
-1.739074731667352965e-03
-4.090803096715544054e-03
-3.118802078584299170e-03
-3.520880183461993964e-03
-3.725755581502023482e-03
-1.237422211119159222e-03
2.782045735596122560e-03
5.948025168083235711e-03
6.478692218726802600e-03
3.495553129189527767e-03
3.774769980353854712e-04
-1.191089210996930641e-03
-7.612857259928908042e-04
-1.406080652444864068e-03
-1.934765311817905013e-03
-1.466683824396928420e-03
-3.776534419123103991e-05
1.097684291275572051e-03
-1.598404170121985827e-03
-1.738883269399831965e-03
-5.578921407686523136e-04
-1.967451870713487962e-04
4.153808821045029101e-04
6.774111262961874259e-04
7.560983201688397607e-04
5.159993848814571670e-04
8.908386485003075153e-04
3.721989611560960818e-04
-8.721544488711858653e-04
-1.152135498522396636e-03
-4.606852849668664133e-04
4.410148898618045663e-04
6.334404375200066405e-04
2.090382729570218912e-03
1.744728970516491902e-03
-4.235172156616591487e-04
-1.538467658614953116e-03
-1.624961866484525043e-03
9.709751118268980085e-04
7.339208823061297345e-04
-9.811403095337273457e-04
-8.301768276162278977e-04
-3.454490832959220318e-04
1.687244540274607620e-04
1.483667798360958651e-03
1.478922815363700955e-03
-2.111722014027917621e-03
-3.919228191252276464e-03
-8.589714909785331519e-04
1.763789944787557415e-03
7.800972439510204040e-04
4.952556434642736184e-04
3.266567105311262158e-04
1.668003896229951297e-03
5.634116965071366782e-04
-1.002080235553973707e-03
7.773928950956148290e-04
2.221199193854221394e-03
-9.700764260885312660e-04
-1.505713858156040906e-03
1.034387925258013112e-03
1.728292348890371867e-03
-7.209587415629074934e-05
-2.264115963171353576e-03
-1.517693343036382366e-03
-5.975080028686500459e-04
6.410520216323795095e-04
6.748027781931434507e-04
-9.409479962522859916e-04
-1.895046052002000853e-03
-1.852597337770205566e-03
-6.264907427081399440e-04
-1.157970256229180120e-05
1.705062783722434416e-03
3.179519705329385618e-03
2.144407953776866164e-03
9.000619904676447104e-04
-7.053681194493220154e-04
2.175804816517611865e-04
1.361371361120459816e-03
1.479911119499107211e-03
-1.134341113866627580e-03
-2.390937875941602335e-03
-1.801063823120099578e-04
-1.557024545152622879e-05
-2.214962854193079124e-03
-4.187422160517062855e-03
-1.349024447766599940e-03
9.743073768965909709e-04
9.724986226215113399e-04
1.721929486035432468e-03
2.332466288158138897e-03
3.132856983407370562e-03
2.006678189333364979e-03
1.257699177600506493e-03
-2.766340751959642935e-03
-4.567148649192396929e-03
-2.770368422249574764e-03
4.853436142723990105e-04
1.684827865628701817e-03
1.429575334290394614e-03
4.703186142554166105e-04
4.699609846381937401e-04
1.891597397497713363e-04
9.801508287814633246e-04
8.368708652371197737e-04
-5.682567374772039270e-04
7.112853587325422382e-04
8.433430184908704890e-04
-2.168337409589732572e-03
-3.752732090897358593e-03
-2.231459813303999107e-03
-1.260461884234740379e-03
8.710176731819421823e-05
1.673326944244867996e-03
4.124538316060038894e-03
3.793953951825558991e-03
2.068179708812955230e-03
-1.264978165741149311e-04
-9.505373353201757025e-04
-2.685687799848876772e-03
-5.172703194237232051e-03
-3.674407235735610480e-03
-9.300630576307140733e-04
2.457022632882196848e-03
5.119184663181364572e-03
4.618010902840378497e-03
1.901273316782941820e-04
-1.759689572522934054e-03
4.403833191146622411e-04
6.846880914063833046e-05
-2.730577788120220218e-03
-2.316888719444650142e-03
-9.821297538659817805e-04
-2.513993797379486289e-04
3.373908336267230647e-04
1.249184802108878854e-03
8.144324096711361236e-04
-8.049599553215768932e-04
-5.488681906614753135e-04
9.785498587806717909e-04
1.338942900632858306e-03
1.904912386179671499e-03
6.882196316550424041e-04
-2.014158512231579903e-03
-2.093452499736715971e-03
1.505388220056346925e-03
1.444141613953782042e-03
-1.833394011177601288e-03
-1.626428186285392569e-03
5.276346419761532508e-04
-1.109796247704909939e-04
-8.030842402767010123e-04
4.297023323560365316e-04
2.210838520440369312e-03
2.250152418668938548e-03
1.005945221406617709e-03
-2.129577455263099474e-03
-3.489553999123548491e-03
-2.151475659254639943e-03
-3.952559782088743722e-04
1.107292879533804629e-04
1.970667119458024367e-03
2.599667336870552237e-03
2.004759431116314577e-03
6.481552172707346921e-04
-1.010395430122824813e-03
-2.240562230040427062e-04
7.180636386310642770e-04
1.053603370529762866e-03
-1.045653816770450439e-03
-3.589864876254410513e-03
-3.211983430455331388e-03
-1.729276012321084985e-03
-1.935315275793650293e-04
1.717338439926652076e-03
1.119193159204584726e-03
2.600266769252910452e-03
1.892107996819822942e-03
1.889942986501501289e-03
1.208260731502211948e-03
-3.252313914679052826e-04
-2.945216307743646063e-04
-8.643863250646241720e-04
-6.903015718804025608e-04
-2.560765994679801310e-04
-3.453754603579533970e-04
-2.192355383983469151e-03
-3.208152802572136926e-03
-1.863710055289381339e-03
-5.900814268757338752e-04
-1.050353366838407054e-03
1.503260169753992733e-03
3.883079211918000727e-03
5.186605710858439335e-03
4.200669666990146899e-03
1.079300098960934984e-03
-2.502926857117949901e-03
-3.043842793819166812e-03
-1.772499391184669155e-03
-2.205307020415146237e-03
-2.667318031074201925e-03
-2.394724972255584620e-03
1.436086385397821504e-04
2.362426961080483362e-03
2.288786212114834930e-03
2.222451621990459859e-03
1.410194262882648406e-03
6.224785956542614688e-04
4.747131139676671516e-04
-2.508787035556633870e-04
-1.400139975813006685e-03
-1.903805690473398893e-03
-1.302569736961035115e-03
-2.044149246994179600e-04
-8.950665808497502681e-04
-2.761031110956161522e-03
-1.985587869812527589e-03
1.583292908512495736e-03
6.872921340548879612e-03
5.328806324168463074e-03
4.458125438844763220e-04
-1.080895863460331133e-03
-3.400726307390563815e-04
-1.013592380353197514e-03
-3.575154394234567826e-03
-3.609291850041872543e-03
-2.185753695992314911e-03
-1.891879890476648538e-03
-8.826757542090004575e-04
1.929032901310315674e-03
3.207563676266713716e-03
3.583569098904157858e-03
2.310659243387049293e-03
9.958029983308354103e-06
-1.788695961553874152e-03
-1.714928630319345225e-03
6.799591971050167154e-04
2.635469900497850425e-03
1.235338188877821474e-03
-2.470711301101459739e-03
-3.007289195188212177e-03
-2.220910962483406328e-03
-1.039004219255333346e-03
1.293692146739228773e-03
3.095368649716768485e-03
1.162425145449004103e-03
7.696219753174860716e-05
-1.531514439511577890e-04
1.093510429202685773e-03
4.741531923306529215e-04
-2.451999805851693380e-03
-5.071582884261268201e-03
-2.328321982238955052e-03
9.159545533136206896e-04
3.154651048359412031e-03
3.487897187728562082e-03
3.452003951701602871e-03
1.983201097388910712e-03
-4.623918615740100374e-04
-1.907747984263226263e-03
-3.278326176701058543e-03
-2.449269693556124002e-03
2.631066519449592653e-04
1.492156986934424067e-03
1.077604166345464548e-03
-1.901718534953998575e-03
-3.024816245953746135e-03
-1.684685039249708520e-03
1.199313046317611884e-03
3.790487125784082739e-03
3.791458627418713492e-03
2.716053762828372908e-03
8.541590166914483050e-04
-1.506444180222751665e-03
-3.010165364912584067e-03
-3.062597982301742353e-03
-2.439011716327831730e-03
7.385998361206797392e-05
1.879991983929806465e-03
-3.744043426591298052e-04
-7.308737897371829235e-04
2.042077250841016576e-03
1.853772271459199362e-03
-6.131145048912030088e-05
-1.095344534847981057e-03
-9.298291437917392214e-04
6.003449838544477240e-04
1.675807621167085728e-03
1.697237270923777431e-03
-2.401321635431164653e-04
-4.631703923692136161e-04
-7.911184601557419037e-04
-3.042098722972852182e-03
-3.692652466712364329e-03
-1.050099793388293949e-03
1.694322679976590935e-03
2.719693129767218262e-03
2.031137423496669724e-03
2.373435449782390443e-04
3.804325033618109384e-04
4.587794300970886199e-04
-1.637844239444351832e-04
1.379623257210360826e-03
1.848027039861135576e-03
1.203207795696786646e-03
-5.914713224255470792e-04
-3.415183957483117119e-03
-2.714152687358601952e-03
-1.858923813002675987e-03
-1.309304673015439886e-03
1.233182167469854158e-03
1.058656401820718025e-03
-1.956407785037242528e-03
5.121514285044742026e-06
3.014212196014460794e-03
3.447080789491963927e-03
8.815685373417241760e-04
-2.668149988321879933e-03
-3.058590044232357714e-03
-1.495179920028409919e-03
-1.083073037317888569e-04
1.402821855009430069e-03
3.023243719611941761e-03
3.507029177409074026e-03
1.751816763183841868e-03
1.580337929945579273e-04
-1.471367313550757307e-03
-1.196763662827744507e-03
-5.834673063605379066e-04
-1.340906374630507171e-03
-1.962510945149043440e-03
-1.690874083265328856e-03
-1.279860119719764770e-03
-8.589378437303809644e-04
-1.003206368956691564e-03
1.012580492358631776e-05
1.315042057519355588e-03
1.588657065567022778e-03
8.780429217653267122e-04
1.969807214651954266e-03
3.368231017811887124e-03
2.345357084454322612e-03
-1.092151497001687607e-03
-2.523826321007165141e-03
-1.658734713496175586e-03
-1.265310097893070779e-03
-1.523447859129432131e-03
-3.276944765437991695e-04
9.161213283560756121e-04
1.869979763446336010e-03
2.196866052818932397e-03
1.104300747749642920e-03
-8.232687423880915862e-04
-3.454203136241530084e-03
-2.225730666667224012e-03
8.704472791516378906e-04
1.103021988872271864e-03
3.359573321400989298e-06
-4.337206149637863974e-04
-3.998822559953834921e-05
1.351106669080392086e-04
-3.460348282184521544e-04
2.151405411891928285e-04
4.639731020006629186e-04
7.216202791401599538e-04
1.763541615388294990e-03
1.614788443972658798e-03
1.277647596742013849e-04
-2.237913622234348043e-03
-2.430926492516619422e-03
-3.004896734333971299e-04
6.415046191238767213e-04
6.978611070797471200e-04
1.912982347143646201e-05
-6.332906157120810411e-04
7.232649927047088466e-04
1.189236373413120286e-03
-9.136300399995555535e-04
-9.132675845863336822e-05
7.584786691266380337e-04
-8.034588658107908506e-04
-1.264868570604675861e-03
-4.700037758367849321e-04
1.279223402971698233e-03
1.696952297738499923e-03
1.750214247049627166e-04
-2.064899862115937481e-03
-1.056220089049665937e-03
-1.226785838733462008e-03
-7.509177966889054191e-04
1.888855040758075131e-03
3.629041510123230500e-03
2.928778463945428019e-03
2.282166488951745977e-04
-1.745084436359436693e-03
-1.331416267558357611e-03
-2.514731699990227325e-03
-2.561404193495812453e-03
-5.640255397114373338e-04
3.016838761817354844e-03
1.469698646482873496e-03
-1.231216599114527991e-03
-1.870963289851645299e-03
-5.889665055963272952e-04
9.508522892479531405e-04
2.000303568844465172e-03
2.115551158191119295e-03
5.460464796286342362e-04
-1.324362899399648659e-03
-1.808377183741765627e-03
4.748124670103604709e-04
2.632793750617374706e-03
8.574379172353741984e-04
-3.013339473985536445e-03
-4.394480004337813182e-03
-9.892814391526515844e-04
1.259091619604604112e-03
1.441708269072670490e-03
2.156677792882235201e-03
1.268117940161509437e-03
-1.380951307565808162e-03
-1.375090375963206567e-03
2.186495808297745681e-03
3.181110680333248085e-03
9.760139432764961594e-04
-1.400878469810300621e-03
-1.989099174771258478e-03
-1.419288644690017403e-03
-7.749698292403000427e-04
-6.755369572770274136e-04
-8.176984946174958900e-04
-5.857831335662845368e-04
6.424295771629973248e-04
2.273778388433310427e-03
5.144546962103395057e-04
-2.018796702562598595e-03
-1.335988081756919570e-03
4.474073989205617119e-04
1.822513040548942457e-03
6.647335434037981213e-04
-5.795235616428582801e-04
-6.919709583882914473e-04
-2.929995666332377855e-04
2.583795298326366924e-03
3.795204481510706246e-03
2.618397257666795950e-04
-2.094832671277636373e-03
-1.472107481478239065e-03
2.748309992261639928e-04
2.298040728683707179e-04
-5.466075013092564286e-04
-3.881987333836564233e-03
-3.352672570047291172e-03
1.516015341302056555e-04
1.782777358219462920e-03
3.610136714328273950e-04
-2.555368177816462754e-04
1.348706528767255972e-03
1.854327140124218233e-03
9.857833192353723534e-04
5.935371584090424948e-04
3.801910793302061878e-04
3.414972661609023594e-04
4.617538581589166716e-04
-8.106465359909956637e-04
-3.049948671374746729e-04
1.329428386862389466e-03
1.152141712836513314e-03
-7.249661345215009916e-04
-3.118424834671900455e-03
-3.160374220858900695e-03
-8.743920046898000752e-04
1.130680299523300920e-03
1.780796165321220110e-03
1.841412260649159544e-03
1.017436527319853616e-03
8.837118797128787925e-05
-7.713436255562357898e-04
-1.993637593865010046e-03
-2.176924135271099663e-03
-5.293388168607723486e-04
7.733072854430842499e-05
-4.860822895873739770e-04
5.440173378560308505e-04
1.497600059103278668e-03
1.915220760556857974e-03
2.700025178812683405e-03
4.134755857566881597e-03
2.984594574102973196e-03
-1.396017547476399983e-03
-3.549588033454354526e-03
-3.202405434640742416e-03
-2.513579357476457884e-03
-1.341386071114413804e-03
-9.033652478324686805e-04
-1.138387233233335513e-04
-1.230931093747236532e-03
-3.298032599903761870e-03
-7.744357427386835665e-04
3.489981227771281943e-03
3.590353971269514156e-03
2.311470360871467622e-03
1.968809618942655125e-03
2.117421582294904108e-03
8.979031183243126472e-06
-1.015048077121582073e-03
8.642551472473877024e-05
-6.893871459659205213e-04
-1.704378780667157537e-03
-5.586409105315815610e-04
-3.431081400957221414e-04
-9.391419974011038733e-04
-1.152616057218844216e-03
-1.764414263824377015e-03
-4.946993961567826455e-04
6.723204028490587045e-04
1.285455167146460752e-03
1.051472861923201342e-03
4.434604254656011857e-04
3.936819850662072614e-04
1.555841335916568677e-04
-5.614362135823315180e-04
-6.776257785479208526e-04
8.830615373470525765e-04
1.571432645335591436e-04
4.340773778017976975e-05
-5.304971471926463091e-04
7.168826119682262686e-04
2.555479269054871955e-03
1.313328902443066781e-03
3.368303676498420740e-05
6.950559052550000626e-04
-9.747913837484279169e-04
-5.121310532455225321e-03
-5.931354279367044915e-03
-1.704369838680370661e-03
1.636384261630993622e-03
2.442842155486836270e-03
3.491154544377395377e-03
2.517569573312303331e-03
3.023955913898966424e-04
-5.530129559604740532e-04
-5.103031502081073825e-04
2.626642412650675128e-04
2.142107688433729431e-04
1.446007038973285341e-03
1.170716158247451198e-03
1.175685897942330832e-03
1.875766176514364388e-03
-5.818793742612133734e-04
-3.785368273471181357e-03
-3.327334555013462206e-03
-2.873622571692536782e-03
-2.108270772805794380e-03
-2.685609988321655244e-03
-7.563079381877255408e-04
2.042108320300042943e-03
4.073447509689020161e-03
3.545236122839895594e-03
2.319049539362119314e-03
1.329758490032882223e-03
8.891733198518538168e-04
-5.345459833762332934e-04
-1.127315782473403173e-03
-3.040307479987213401e-04
1.294928490010236041e-03
7.394341493259248572e-04
-1.693385997757447786e-03
-3.431224016367549756e-03
-1.892717541057556754e-03
-1.199716305169847268e-03
-1.648422540159850090e-03
-1.541487995196214739e-03
5.209499394612222920e-04
3.044212060399553114e-03
3.466679099704350533e-03
1.513377864186305193e-03
-3.490687269216289691e-04
-1.034331482368201034e-03
-2.271705025072061834e-04
8.532866803703175688e-04
9.797826995136054654e-04
-1.665973335521131937e-04
-1.232068085743135474e-03
3.538481996341343960e-04
7.508606577087447841e-04
-3.719304779386838262e-04
-1.512694816077671993e-03
-5.560559853098131925e-04
-1.180684569505461006e-03
-6.516850403946182523e-04
5.664045820643597712e-04
-4.279001253623604590e-04
4.866038009503411018e-04
1.635417311538522314e-03
1.040490302471551529e-03
2.340620536823748664e-04
-3.195694378397599613e-04
-1.562342251288849576e-04
7.302940905529565563e-04
5.151211316855173116e-04
-1.558422406939883979e-03
-2.279487457043636624e-03
-7.258549940631775369e-04
5.730251658992722893e-05
3.810965492085778518e-04
9.753831475778728505e-05
1.955826281298545574e-03
2.599267634424425912e-03
1.415419622548402378e-03
5.366680269436891609e-04
-1.567387831974533267e-03
-1.848800886050344910e-03
-1.529967504896105959e-03
-1.372292101469583170e-03
-1.217852788021176261e-03
1.051227618998129111e-05
-1.165617626972767246e-04
1.313931398848815690e-03
2.637707492002456123e-03
1.884214090594913456e-03
-1.240938096228205115e-03
-2.762852148541010324e-03
-8.465736782860001615e-04
2.371579328624885512e-03
2.157244524953214147e-03
-5.820793975522939225e-04
-1.585441874315779648e-03
-7.146097013940118283e-04
-4.274050438614433452e-04
-2.837048437804782336e-04
1.376936799027181921e-03
3.011107239448944459e-03
6.354078176204923031e-04
-2.712089961073509831e-03
-1.548480937777002835e-03
4.581182877737424784e-04
-1.271227627965270486e-03
-2.155516278001148259e-03
-6.614211610481342827e-04
1.848240711176015556e-03
1.876083808666557939e-03
1.112940155093855056e-03
6.382731297801742028e-04
7.667189768367955885e-04
-1.730342039729449767e-04
-1.413197406375119904e-03
-1.425042629666407618e-03
7.082715017014075323e-04
5.619779838609202140e-04
-3.314761128765483274e-05
4.483522460511198062e-04
1.752185951552046755e-04
-1.157433486744768219e-03
-1.259847043790918077e-03
-7.408106009473001182e-04
7.068146080117963456e-04
-5.771116142122259454e-04
1.359849855623462486e-03
2.703666075915693839e-03
1.165169380637501740e-03
-5.250415692034403255e-05
-7.983685611999554680e-04
-4.634120612508485916e-04
-1.947263379958135560e-03
-3.875875817149710290e-03
-3.043088605654644275e-03
1.011011181109372319e-03
3.710081328647862452e-03
3.985101224675750668e-03
2.594827751302722797e-03
7.520725737061228697e-04
-1.706958182297626386e-03
-1.133527605403193347e-03
-1.051063990617067626e-03
-8.618909610088400274e-04
-1.033638507116922374e-03
-1.114446769809446930e-03
-9.530697521372825422e-04
-8.514451537433108787e-04
1.028810574590235428e-03
3.019821185520390073e-03
3.456032741581366568e-03
6.303541531534276733e-05
-3.023983856440365294e-03
-2.432263085647047227e-03
-1.294614441865397762e-04
3.905212381525848485e-04
-1.010417047242924199e-03
-8.104122910281115954e-04
1.152199231723732235e-03
2.135578809231475621e-03
1.528978116886041492e-03
6.997903055344957546e-04
-3.631801379933831072e-04
-6.075382978141098764e-04
-2.048791030901222826e-04
6.109849336321331015e-05
1.694189870936809662e-05
-8.144898211502106002e-04
-6.186397741607097510e-04
-7.813505317412596310e-04
2.152981815828114204e-04
3.844737860530325906e-04
-1.645833015509891306e-03
-1.903313543692233822e-03
6.878256988207174204e-04
2.627077746605318165e-03
8.716747109519167123e-04
7.699810760883999978e-04
1.107082701632166547e-03
-2.497773858861016276e-04
-2.475275717003229772e-04
-1.022717902383011874e-03
-7.455054884755922626e-04
-3.327320215823264464e-04
-2.428768124752266066e-04
1.348244079341000691e-04
8.022432425422483396e-04
2.369744977527106153e-04
-6.403977256689166817e-04
-1.518223837283220589e-03
-4.052823576455446631e-04
8.756060467749288926e-04
1.722436878653003153e-03
3.120720305014686364e-04
-7.544508895844671131e-04
-5.557091382711115083e-04
1.218124977190557755e-03
1.671349613508802713e-03
-4.142778939770670201e-04
-2.137901060998028888e-03
-1.819948002835549338e-03
8.236723287194486448e-05
3.644577209005525208e-04
-1.127803260859984794e-03
-2.780727677320548263e-04
1.076344349186106157e-03
2.315553082438206577e-03
2.663565001578775855e-03
2.561913502020486677e-03
-4.492842067025135480e-04
-3.337539259780335742e-03
-3.069450359711762156e-03
-1.491930089223164699e-03
-2.279317201139725423e-03
-1.472434316437507820e-03
4.739321432275640095e-03
6.284590416417221506e-03
1.334779611866433735e-03
-2.170337578028903001e-03
-2.391745780810333732e-03
-3.285893017202718650e-03
-3.618470472285750372e-03
-1.542665333375517651e-03
2.042694693001380086e-03
3.949263509179377213e-03
3.580284795140924008e-03
1.250792854389416991e-03
-4.397240169015998097e-04
-1.489942439172357511e-03
-6.810963808317519429e-04
9.148881722733247148e-04
-6.733658482153943945e-04
-4.132722624439364389e-04
-4.412720846152110910e-04
-2.962865505524826608e-04
-1.344392729254413827e-03
-2.811821257569898942e-03
-1.785945386059064211e-03
1.595075838457170932e-03
2.156501072003198880e-03
8.235639219749835843e-04
-1.109550862540272062e-04
4.175636085456316108e-04
1.481664556314867161e-03
2.450560249091372159e-03
8.548072155406300117e-04
-8.979435928874730626e-04
6.650966034138158789e-04
1.692882215057317161e-03
3.220524362177553572e-04
-2.403972337158343225e-03
-3.294882990371505570e-03
-3.420105700133156418e-03
-2.920132825022883974e-03
-1.770415197432229429e-03
-5.468857069092529152e-04
1.804580821136609898e-04
2.894553152630171752e-03
5.496981047639158853e-03
3.745073263801984836e-03
8.618735612507849760e-04
-5.524748991091103616e-04
1.326934575233293173e-03
9.902623815206358301e-04
-1.739366838988172992e-03
-3.075562339357316120e-03
-1.673597843521867348e-03
-1.526138399731387114e-03
-2.112286007516467432e-04
4.283826774957579463e-04
6.947917125330621167e-04
-4.746295339574895639e-04
-1.693372955143723942e-03
-9.583455880374403425e-04
2.282412686045335660e-04
1.128979036851474787e-03
2.531753667905478622e-03
2.017264479951830398e-03
6.073448800362250903e-05
-1.647748518669194494e-03
-1.119310174788696200e-03
1.492317659113668975e-03
1.297269067498502647e-03
-4.958901181439295596e-04
-6.989303011045409908e-04
-8.565405092320342887e-04
-5.311262417348070137e-04
4.096268640760495467e-04
1.153654348548357924e-04
-9.736149422611954261e-04
-1.257500738234733969e-04
5.105535817215160798e-04
1.632119326023202322e-04
-1.057411835246478064e-04
9.213074941366102173e-04
6.501374529801078094e-04
-7.641844619509309587e-04
-1.180435927067542820e-03
-1.201722893454010765e-03
7.069701334442183649e-04
1.504443037401946397e-03
1.202147339771587583e-03
-7.984285331811900692e-04
-1.281135889507119307e-03
2.232134463482027752e-04
1.131378423186230357e-03
-3.778942639611218243e-04
-1.702045177392996029e-03
-1.155571896256994604e-03
4.603130442100820426e-05
2.974003313619854715e-03
3.051625602224808734e-03
5.829304073813540779e-04
-2.145992445390021083e-03
-2.697302860743204089e-03
-6.168124217087419311e-04
1.193407253039991366e-03
4.426854076648048075e-04
-1.649065432148826829e-03
-1.724975388064087928e-03
-9.019254266166216766e-05
1.576079080015852863e-03
9.825809774587444118e-04
8.709286868502779137e-04
1.233124735423264760e-03
1.600341907458434918e-03
7.382391908479675469e-04
-2.131368313070177659e-03
-3.056763457778051678e-03
-2.214038656346607747e-04
2.242635575563106491e-03
1.427291345236031406e-03
-1.756792842154764837e-03
-1.359161174444697842e-03
-7.327341582475937077e-04
-1.090019956792708661e-03
2.207272239665910508e-05
1.091829023505086222e-03
1.371776005674102362e-03
2.556009784830744810e-03
9.973014606060918129e-04
-1.001968869466927058e-03
-1.446152760262233404e-03
-1.240359914484770584e-03
-8.335406560786225464e-04
-5.238287957186042341e-04
-1.374472842149734560e-03
-3.316477719372411975e-04
4.669524782913378751e-04
2.541571503596753122e-03
4.356224811461660573e-03
3.607810040490292466e-03
-1.399576238009100741e-03
-4.733895095469085879e-03
-3.209054884922722586e-03
-1.975557118136456799e-04
1.690399695503994642e-05
4.802070994312982832e-04
2.260383363922530055e-03
1.853555647355731523e-03
-1.187078055596029131e-03
-2.878650303238800348e-03
-2.744196230659654533e-03
-6.096749955895645022e-04
2.173594600370477772e-03
3.337325525144021945e-03
1.067628127673651752e-03
-4.566628121832316383e-05
-1.522300694904895214e-03
-1.073899233168511529e-03
1.139926887216871458e-03
2.206842208836063985e-03
2.773118551289679903e-04
-1.772115413391901978e-03
-1.067591978103461185e-03
2.282013136724622508e-04
-3.521615836548587964e-04
6.766854948538250213e-04
5.471232817714231965e-04
-1.215478969806458318e-03
-5.031108241199038020e-04
1.152084011257487831e-03
8.505997855921629963e-04
-7.915599810713729598e-04
-2.084511288298289151e-03
-7.227787495637680261e-04
1.331044567151947779e-03
1.507260003587338609e-03
-1.679549255201296363e-04
-1.989546549080957374e-03
-1.032841879888114246e-03
4.363070463415611583e-04
1.979227144290826319e-03
2.236740011402379991e-03
1.217267730379148396e-03
-4.663161231019646966e-04
-2.054150886231349404e-03
-1.723168936359280659e-03
-1.926768561105383437e-03
9.821192284841760711e-04
4.239776843433706345e-03
1.419286677474651970e-03
-1.393999166703209763e-03
-8.599121143702453734e-04
-6.545007382784595509e-04
5.857451960398124590e-04
4.148308235600064162e-04
-1.471252847514896737e-03
-3.387160880581196239e-03
-3.947769846785668772e-03
6.768968211414583963e-04
3.484370209382237332e-03
1.896022211216693036e-03
1.416754677699702666e-03
2.052779885913070135e-03
4.467961366927991249e-04
5.590677335531759988e-04
1.461270599415622146e-03
8.472568626247023080e-05
-3.131706557543955174e-03
-3.476411936440017107e-03
-1.270856190757040267e-03
5.732909004093301661e-04
6.747852309700881190e-04
-3.593594277851676539e-04
2.182487468098886303e-04
1.191060481333973409e-03
1.344927824105690692e-03
-9.905727858902104409e-04
2.968452858207394260e-04
9.436796415428003312e-04
1.111361098934139906e-03
-8.699351811313755893e-04
-7.192294225700121254e-04
-1.021972400317612507e-03
-2.436151259462880712e-04
2.513060511052028832e-04
-5.967215917032033965e-04
2.720828935889417076e-04
-3.397560201024381918e-04
-1.053881844148894017e-03
-1.892103993680946514e-04
1.490962924402842223e-03
3.830452222206018591e-03
2.244916844267720417e-03
-6.808200304332253337e-04
-2.363294083820016624e-03
-3.118192978792551449e-03
-1.123622273381530423e-03
2.566670658190946144e-04
-2.020293160450879679e-04
1.161152660993091355e-03
6.851254075252494104e-04
-7.120577062238474036e-04
3.296769532024205790e-04
-7.644581195306392706e-04
-4.832178728141328498e-04
1.173309862573022975e-03
2.524314453340220123e-03
1.581450296856485877e-03
-7.465090223094360006e-04
-1.721080253052911790e-03
-1.350727772153769227e-03
-1.009866995601222718e-04
1.106487228396948455e-03
4.368738547686952804e-04
-2.110794342045895985e-03
-1.041396004990497587e-03
1.055761101464217132e-03
-5.426403219593876935e-04
-9.454190342850462333e-04
1.229648808173035941e-03
2.634237822611887238e-03
8.345000916057246972e-04
-3.487940167082198583e-04
-6.059762085905824559e-04
-1.764995085061948042e-03
-1.382362920005447086e-03
1.153731650648957743e-03
1.724627786737383201e-03
1.094579288299869476e-03
-1.242790887539404565e-04
-5.560087850855461407e-04
-1.264849903094349051e-03
-2.398080151854011053e-03
-5.921014281107847121e-04
1.414077807492725809e-03
2.254861966200664546e-03
-3.517654894175256349e-04
-2.128534438437339454e-03
-2.310760524165492505e-03
3.199660897779492137e-04
3.467707024252249508e-03
3.305375676802317034e-03
2.256834110868987265e-03
3.002112655192229712e-04
-3.199513167916757071e-03
-2.774629525809074043e-03
-7.380562451069108514e-04
-7.727372367888254295e-04
-4.533919895713947536e-04
1.124987961642785620e-03
1.974257078512732001e-03
-1.928438478337234443e-04
-3.334818744993132424e-04
1.107539461542589787e-03
-1.242456137320884391e-04
-2.022846124940701033e-03
-1.510744124142231496e-03
-1.001443167389549568e-03
7.541871469758229182e-04
-1.840844129973949852e-04
6.324613891024521506e-04
2.154107633563011239e-03
1.645879414528654073e-03
3.323558649849029842e-04
-8.750266464150450747e-04
-7.671406825968576492e-04
7.906600295159463233e-04
1.181700862210777105e-03
2.279776186374152236e-04
-1.127729138840673499e-04
-4.749657792352441916e-04
-5.734281802308193766e-04
-1.490340686023749030e-03
-2.011814018054691646e-03
-1.221309783406242504e-03
7.371613291222720368e-04
1.284680773843476995e-03
1.359046044967311326e-04
-1.008327877560597592e-03
-5.997052861042137441e-04
-7.545242690653986657e-04
-3.896880553466111510e-04
1.875988933402220407e-03
2.532238172604962898e-03
3.247447339380085760e-03
2.934503938714650047e-03
3.464137448445855374e-04
-3.326973653945707911e-03
-1.403695082141882215e-03
1.814645690587827088e-03
-5.611932365788271449e-04
-3.814501596398021336e-03
-4.438145120167050033e-03
-3.033240669857439464e-03
-8.006528640509659803e-04
1.982438384602325677e-03
2.754679352829044522e-03
2.464877037645732318e-03
2.058621553370353508e-03
1.559609980722089905e-03
1.288283072327926077e-03
2.994688820850832729e-05
-9.975594564848445749e-04
1.790702344367879671e-04
3.398201688828487413e-04
-8.389279333535648456e-04
-1.239487459485314434e-03
-1.183193205129988001e-03
-6.817792009624556396e-04
-5.041012382488124603e-04
-1.412568562065410821e-03
2.617470309235882882e-04
2.586117138440425329e-04
-3.251242214990656705e-05
7.799240487615777652e-04
7.305911467957045512e-04
2.936196397105986298e-04
8.549361242033046929e-04
-1.719877428081617598e-04
-1.412574411654828489e-03
-8.886189163989156089e-04
2.150592608678424719e-03
3.719207924861423105e-03
1.312113988387213551e-04
-1.622029433461689161e-03
-4.403358629591632665e-05
-3.515984356168003395e-04
-1.502533576795106809e-03
-1.229057699514046493e-03
-3.596769263115286702e-06
-1.343139703925773061e-03
-1.738347448063754831e-03
3.431509660825649856e-04
2.319338258119634823e-03
1.306941472859119097e-03
-2.345064779064410046e-04
-3.025941653881086412e-04
1.120759210929593921e-03
8.476013060367115076e-04
-6.502500241993931437e-04
-6.148253548784151160e-04
-2.581706290796135454e-04
-3.371800806582559199e-04
-3.904338361302121395e-04
-1.112089079174285588e-04
1.263198357097458690e-03
8.319892260875144793e-04
-3.392615432627612638e-04
1.879804752774138327e-04
-3.354252294489710345e-04
-9.955635871206922147e-04
3.436546375916768700e-04
3.269526270419705755e-04
-1.652503506963494666e-03
-1.927464799950261241e-03
-9.494787232435806038e-04
1.287947296429027598e-03
4.027724573364680274e-03
2.238841415613564492e-03
3.487725293319783831e-04
-5.739666530903703850e-04
-2.056560934880373014e-03
-2.270476909003376047e-03
-2.439767857823616631e-03
-4.323266354854056926e-04
-5.258762021339022721e-04
1.850114935149162676e-03
2.871190747971073560e-03
1.303632305822830482e-03
9.457618388661976835e-04
1.625842821186795819e-03
2.255139814133483474e-03
-5.434899740247504767e-04
-5.109200628595758284e-03
-4.435911904099098385e-03
-1.582156962584422254e-03
5.529724971614215050e-04
1.823537744425471428e-03
2.241698359512013777e-03
1.671028450523668251e-03
8.930211743292926739e-04
-1.751313099956894326e-03
-1.817748162369773983e-03
2.538420598609966391e-04
1.427504735199397034e-03
6.482288645180992945e-04
-3.955099205363752052e-04
2.867227220329559363e-04
1.325382144335403170e-03
-6.353232618114009302e-04
-1.018570812771478484e-03
-2.841305376997908393e-04
1.922797455839255789e-04
2.559088384855246682e-04
2.105627209327421009e-04
-7.069385731224282592e-04
-1.274893431680099035e-03
-2.705068779446742643e-04
1.727638161787461285e-04
6.680773424828825423e-04
3.019452254377678695e-04
-6.200316410162733192e-04
4.941760097453455148e-04
2.266310558376555175e-03
-3.473712832515066869e-04
-2.475872287358741024e-03
-1.387717881349659821e-03
1.525826314924890294e-03
2.429879972647713045e-03
1.608163860597456489e-03
1.480639142898223376e-03
-4.139009377749383015e-04
-2.718453998211586755e-03
-1.934424399131410340e-03
-3.546704244862605043e-04
-1.116572045819935494e-04
-5.833135818349270436e-04
-1.598040996474619189e-03
-1.147314277979616078e-03
1.102752975092783890e-03
1.825302104415890215e-03
5.913976240575181346e-04
-1.324310651740113088e-04
-1.742154168040673326e-04
1.546380609481790317e-03
2.287172176225894197e-03
1.129375118151473151e-03
-2.584400451252579401e-04
3.977777027484194440e-04
-5.814071436931931257e-04
-1.382273472969791856e-03
-2.019722016331855843e-03
-1.436116813954319612e-03
-1.009546740053850070e-03
-7.387625520748402827e-04
-3.118489229330166190e-04
-1.757139406678441312e-04
-3.173653634663434024e-04
6.493199076823098293e-04
2.276969556309367711e-03
2.893151974435289892e-03
2.345725998278509663e-03
1.714572510682307079e-04
-4.360660428317099488e-04
-1.017824516833196484e-04
-5.205793316477286660e-04
-1.555959348520840864e-03
-2.458797489136259253e-03
-2.323721590681033979e-03
-2.682541617522034034e-03
-1.803936761457254200e-04
2.131546246449222363e-03
2.423672112894592959e-03
1.459281856916940824e-03
9.144033839961430900e-04
-2.854398721814455715e-04
-3.198321173635708847e-04
1.407131516415757863e-03
2.742228683598998788e-03
1.379072586880930856e-03
-7.143176744576614987e-04
-2.022925683595138465e-03
-2.550119187557626111e-03
-1.679211465000501544e-03
-1.223946477446969392e-03
-2.071510802002874633e-03
-1.284634234430555473e-03
1.334609457391809162e-03
3.420962205647352168e-04
-8.566890145114301400e-04
-1.302568280336108969e-03
2.243376681398926049e-03
3.547057671723263545e-03
3.378552405180814625e-03
5.544065649052974491e-03
2.696314370727317337e-03
-1.537385305149328169e-03
-3.384599892356840185e-03
-5.026292911991669596e-03
-4.215935145583754769e-03
-2.210026484474159059e-03
3.544283754129558240e-04
8.669845698830026641e-04
2.365040276613472635e-04
-9.587249713892636885e-06
8.990824809391434859e-04
1.752446181131358778e-03
8.832051678626170067e-04
-7.837682219699923080e-04
-1.910021785624495879e-04
1.899536327518880135e-03
2.431996489273067011e-03
1.702902046651065017e-03
1.581186456027429573e-04
-1.147402662293448006e-03
-3.141252783943052160e-03
-2.169912659860906336e-03
3.901989256379885334e-04
8.806172403110615115e-04
-7.740935265210016603e-05
-2.313520979283623710e-03
-2.905095359043227774e-03
-4.516443613641107414e-04
6.501967227712423993e-04
1.037559107948980448e-03
4.242336072607304914e-03
4.787089369914647972e-03
2.069250032454739759e-03
-7.071297108949691108e-04
-3.396847230865100188e-03
-4.334124385480958748e-03
-1.246001935362244743e-03
1.272905292500380210e-03
2.443279747911266796e-03
2.670367735345949485e-04
2.258503307146037746e-04
1.757041806799643680e-04
-2.481007159155851176e-03
-2.708219103287585940e-03
5.667578354479581911e-04
9.428486673642083116e-04
-6.550552369640614192e-04
3.602552304116996202e-04
1.860784039410992140e-03
2.021060170595982957e-03
8.431428979990176608e-04
3.732167765398327289e-06
-1.972960002147928539e-04
8.423704426946600644e-04
3.664778619468396221e-04
-2.550620437665692287e-03
-4.561558751840246589e-03
-3.385969443706233605e-03
1.273963882087915216e-03
3.155281518954567484e-03
1.945559990212736160e-03
2.519178475686050401e-03
2.424823155001023297e-03
1.193828353012342958e-03
6.466512186889931697e-04
-4.457553960580144998e-04
-2.392413967830775510e-03
-3.969910039089914570e-03
-3.794313088641746400e-03
-3.067500030457413849e-03
-6.954124806296323007e-04
2.437152446642695206e-03
1.174490465624463071e-03
2.718494591629073108e-03
4.347531848802038169e-03
3.332200044319793501e-03
2.910043305945565393e-04
-2.030298435748104091e-03
-1.961859172798989786e-03
-1.349184459511395965e-03
-8.206159152425206767e-04
-2.428355366718314070e-04
8.233393078654584673e-04
-2.324311478973771635e-04
-9.817807645424304723e-04
-6.709308274249681974e-04
-5.257929273084482056e-04
6.232037716232178659e-05
-5.840010622172620578e-04
2.844812839784088246e-04
2.365592000222495762e-03
1.999359246853742774e-03
-8.139307618388246998e-04
-2.566987759999988031e-03
-3.657224949508498563e-04
1.361351342695245185e-04
1.216726097475715872e-03
1.947612560674944881e-03
1.398926853767607816e-03
4.716161230370526113e-04
-5.424217163945713399e-04
-5.853016182884116653e-04
-1.646146981578286558e-03
-2.503619802224008907e-03
-2.692443932023682717e-03
-6.201982625872809398e-05
2.356285218724415379e-03
9.252596660653134714e-04
-9.706924475127413779e-04
-2.518319443060179782e-04
2.345463581764219586e-03
3.182634066464628229e-03
1.058414199939810511e-03
-1.723578670466655201e-03
-1.338494194733159471e-03
-2.205546207593517532e-03
-2.033986021424324768e-03
2.426191737760650328e-04
1.262126630820343143e-03
1.931266518673976007e-03
1.627251059032446164e-03
-2.762164392294748122e-04
-1.204183564671638604e-03
1.951916944529544738e-04
-3.735296187650895077e-04
-1.408024201193975450e-03
-3.375030262829002378e-04
2.220366125993139138e-04
1.013508055289114853e-03
1.561847690888609232e-03
1.700690280621635448e-03
1.573258101700498839e-03
-1.265864325079143300e-03
-3.915313216982031427e-03
-4.382554055783861348e-03
-9.736567364823181005e-04
2.060047745687919579e-03
2.607499977248241198e-03
1.153593426070812162e-03
7.769915517236714031e-04
2.816984285294713334e-04
-6.165361762865592373e-04
-7.064950075851995762e-05
-5.390704405854169053e-05
-4.093232717459305108e-04
-9.859312924546531631e-04
-2.652591401454023928e-04
1.129645108595942436e-03
1.808291791755470713e-03
1.444934781112342057e-03
1.085256423449557474e-03
-5.612727941463263251e-05
-1.236689858684926566e-03
-2.472836593423525988e-03
-3.165025462265917081e-03
-2.554630781711318081e-03
-6.394419477990329753e-04
1.672914851081287214e-03
3.173854154456252734e-03
3.572798797660866905e-03
1.664540361130110134e-03
5.160971294765723423e-04
-1.841726429753675481e-03
-3.411806003731466825e-03
-2.045388136095329865e-03
-6.301985292652197580e-04
-7.182179666298204560e-05
1.163335772091782586e-03
2.622126725582514441e-03
1.253541662154894661e-03
8.687272789125114868e-04
3.917714893418294407e-04
-4.939956347278399518e-04
-1.345071007771021440e-03
-1.872190421728776172e-03
-5.659555405623396124e-04
-3.417125298661962047e-04
-6.044025501110634503e-04
1.225862303827307152e-03
2.084532190616183046e-03
-1.760072362269892202e-04
-7.237866244067753881e-05
5.565278825720482332e-04
3.320531149317074485e-04
-2.121379717030163602e-03
6.410471195364536557e-05
2.621707273586917474e-03
3.737117452419542346e-04
-2.087225371952099607e-03
-2.452691144464561306e-03
-1.462046855417338141e-03
-1.569477580685445424e-04
5.748078852599868309e-04
1.523167252431120895e-03
1.033822581540858217e-03
-2.635499552288301920e-04
3.905239641575850300e-04
2.238531273983445508e-03
1.615956301417357643e-03
-2.664070843420975683e-04
-1.899123732180080844e-03
-1.472665771335874684e-03
-8.004635192107267230e-05
4.211649605032926464e-04
-7.584592909347417488e-04
-8.973374152988096691e-04
1.202983581947228821e-03
2.014566093401263473e-03
1.218594427725947036e-03
-2.774449263626411187e-04
-4.916889603072844292e-04
-2.776220831268751566e-03
-2.847223992844347823e-03
-2.060940739025518120e-03
-5.488108106972292358e-04
1.254353480299060008e-03
1.692113710939690445e-03
3.224242221210374230e-03
2.506217370191575131e-03
6.111572352144566123e-04
-2.232907869044586862e-05
2.906852671516380504e-04
1.229665566102968550e-03
-1.191188179036098589e-03
-2.871039906637510870e-03
-1.690623038380034216e-03
6.589149749943192490e-04
-5.594865319488982226e-04
-1.531348857339176299e-03
-1.182196478065514634e-03
1.949481038377913293e-04
2.158873496445304959e-03
1.829568547228617621e-03
-9.257330000220229463e-04
-1.358194775818675863e-03
9.016952644169774008e-05
1.447262702677133651e-03
1.193586170971692052e-03
2.453868021521438060e-04
-2.894927270473557024e-05
3.606304900810339904e-04
6.372691738942749427e-04
-8.939330402912448086e-04
3.274045982030032438e-04
4.702710702263028790e-04
-1.852335264506404936e-03
-2.414505117448050204e-04
-1.950472840607073339e-04
-9.497150260114309208e-04
-2.042233624224561433e-03
-2.852774591468690193e-03
1.401123723551618301e-04
2.218592429092535508e-03
2.783067747428726729e-03
3.671921545455600257e-03
4.125042031448204922e-03
1.546663071426992563e-03
-3.610930538451117503e-03
-5.556968136751818874e-03
-3.536306133402810845e-03
-3.019469499434169362e-04
1.853248261853296039e-03
3.233130670816374962e-03
1.855298702605396840e-03
-9.035505744399271923e-04
-1.833978919723676989e-03
-1.692671955868366640e-03
-9.306139207184600803e-04
-9.145958209619193570e-04
1.107241368740858288e-03
4.069901109389323021e-03
3.853769999328258544e-03
-7.647051680891971473e-04
-3.077325444891370818e-03
-3.244428719367835421e-03
-1.274907185490991310e-03
1.143634268544175322e-03
2.476667017243669704e-03
2.258879181640801453e-03
1.094790412674584608e-03
-7.138405064271453188e-04
-2.709514647621061919e-03
-1.989575538912862190e-03
-6.827906867172899800e-04
-1.829815776851837026e-03
-2.288810762126364956e-04
1.846167369960871520e-03
1.510531263444921330e-03
1.370182615351921498e-03
5.176848177637133255e-04
1.769788034028246533e-04
1.261655079758508807e-03
8.657627897989175194e-04
3.518708423093143693e-04
-7.511277968844971712e-04
-2.152509921494908957e-03
-2.645702640898716252e-03
-8.701388663779766400e-04
-1.261636106521584746e-03
-3.195182396101444691e-04
1.948795501963614032e-03
1.416725794577991917e-03
2.350131121998598385e-03
3.826788256376720439e-03
1.415282193172493971e-03
-1.379823124347098230e-03
-2.424287926888105561e-03
-2.020638460951216381e-03
-3.669772058341416298e-03
-2.626278924865532369e-03
6.306423480588590753e-05
1.067396711450404418e-03
1.941187754542097674e-03
1.949968943183659053e-03
1.119466094165541634e-03
3.859450196266593527e-04
5.264853203479989262e-04
6.322299134383631367e-04
-2.132876286221513688e-04
-6.448208619698171879e-04
-1.286864669890776507e-03
-1.242785962769821922e-03
2.282533923613487721e-04
2.950006189798630614e-03
3.694637166527162467e-03
9.147482175298121470e-04
-3.423769600723751676e-03
-4.603105797288321865e-03
-2.934527553651844565e-03
-2.690223332951533798e-03
-2.643948026474459041e-03
1.332844897444235809e-03
5.739648652465812254e-03
5.547592180959397268e-03
3.657711674355046752e-03
1.286931533936551061e-03
-6.582009686634188519e-04
-1.884971424559204242e-03
-2.559368631083231045e-03
-2.540388764282857682e-03
-3.513893076218001232e-03
-2.887565340755955928e-03
-3.517532190520718965e-04
2.272485197123237308e-03
4.083696480622697397e-03
2.046450962086397100e-03
9.077993240226424169e-04
-5.370068556448778958e-04
-1.663397055333207253e-03
-1.391192950953654226e-03
-9.313147848432434903e-04
9.444793264287447334e-04
1.800216205435814076e-03
1.792075323484387459e-03
4.644861102072031836e-04
-1.974851685634132113e-04
-1.565752026739657046e-03
-3.943531611771856384e-03
-1.682231192911107839e-03
1.712147278750060812e-03
5.973009213070578152e-04
-1.209869935495548133e-03
-4.767010528432345779e-05
1.485576828640613328e-03
2.159966246446356521e-03
1.961062106076255813e-03
2.700685984723050041e-03
1.456972827012059267e-03
-1.336306887357633548e-03
-1.887012098106260072e-03
-1.891838311725871965e-03
-1.819892265017864245e-03
-1.368680803990061316e-03
-1.294501716430270996e-03
-1.734587879717480394e-03
-1.598637511314850244e-03
-2.233912644202148013e-03
3.529667509195052555e-04
2.979727972179186269e-03
5.202872016859458153e-03
5.957928869794013212e-03
3.100451690796579389e-03
2.731410628134967196e-04
-1.331351659380277525e-03
-2.813818067035904220e-03
-1.917931711148493715e-03
-1.570341263934538776e-03
-2.399721342478716452e-03
-2.733861088319175948e-03
-1.344911993211422244e-03
-1.569640293104716030e-03
-1.698405881478872153e-03
1.664533806259279767e-03
3.373370229651599921e-03
2.553546091359529171e-03
1.224170809541734982e-03
1.746506141516545707e-04
7.933755566574838061e-04
7.941626144703226638e-04
3.199417148605251233e-04
1.130333103296001114e-04
4.493521947736082425e-04
1.141481583811527513e-03
6.266954311180039563e-04
-1.893110810425614569e-03
-2.022892211017295744e-03
-2.073453489674495671e-03
-2.514671466073812364e-03
-3.653383021567101901e-03
-1.514312891867174811e-03
2.392238972605313218e-03
4.271769767462169250e-03
2.467268587826825735e-03
1.118170795566013603e-03
3.922476325368328353e-04
4.513355026888691830e-04
-3.802990404015983120e-04
-5.802699893719213140e-04
-6.150895641498839049e-04
-3.447355227626125343e-04
2.161144804994964989e-04
1.357650852785379164e-03
1.671801080927750281e-04
-1.076929637408249787e-03
-2.075566582820755242e-03
-2.219203821704395386e-03
-7.402369686809542621e-04
5.400216457366539390e-04
1.940563459545097255e-03
1.799406975850487362e-03
-1.843462726825679656e-05
4.715557819398518108e-04
8.060780692182339577e-05
-2.551712712463300847e-03
-5.496851754655677005e-04
7.510565117944945340e-04
1.298305964275252289e-04
-1.298475607050324449e-04
2.664726399502464062e-04
2.218506570628884286e-03
3.112243003614120936e-03
-5.845657334013602564e-04
-9.606958080631897287e-04
1.199479943360784277e-03
5.385763335865592291e-04
-1.274573460293354846e-03
-3.630052607143530261e-03
-3.161035974654199335e-03
-2.899151475446250497e-03
-1.442223563615100627e-03
-4.339134967951705575e-04
1.841095473596004051e-03
3.281078766695859784e-03
4.066545342710213042e-03
2.842103374375415555e-03
1.444565018177187705e-03
1.392887751609258543e-03
-1.146202084034758997e-03
-2.080753356061234172e-03
-1.597472302669062727e-03
-2.022011210889169183e-03
-1.559515052025467301e-03
6.728586508327784321e-04
1.138648891623591716e-03
7.337296073047862343e-04
-1.011135657539281299e-03
-2.115289847259455968e-03
-5.898317896329349644e-04
2.357282742729972617e-03
1.557114535487189380e-03
-5.250663363225785418e-04
-1.268237947859769807e-03
-1.559464464592808441e-03
6.130235925830376277e-04
-6.533937274501910105e-05
-8.257801781737921518e-04
1.400350370106285538e-03
3.724399543353265358e-03
2.793091026837890133e-03
-2.325929557312056344e-05
-3.360035968928610887e-03
-2.499937909973459250e-03
2.527066437183816071e-04
-1.456898487581616120e-06
-9.899510938426604040e-04
-5.918543563647536265e-04
2.634730960539691572e-04
6.482799966975474979e-04
1.009654458399140715e-03
1.490942284237188999e-03
7.109999727987513030e-04
-1.158350199101164477e-04
-7.868943127292034865e-05
-2.384597479957692532e-03
-3.677217384133405192e-03
-5.982469006210065689e-04
3.345659379234066852e-03
2.970174192681566353e-03
8.730070452835473910e-04
-8.063958141940900850e-04
-1.912980250038751745e-03
-9.191197991440040434e-04
6.505418719771591295e-04
6.607838064169400255e-04
9.437771525557764156e-04
4.330226828190121362e-04
4.662888072967839116e-05
-3.639361543108949335e-04
-1.823183091292338736e-04
-2.452012148422300867e-03
-1.669297881944167145e-03
1.946921902339726433e-04
1.627831452784694009e-03
1.423423889999940765e-03
3.575857465684684493e-04
1.201303769773811182e-04
-8.060950437005424789e-04
-8.896399538825188824e-04
1.397509775764829449e-03
1.781547894069773590e-03
-3.525139885469277920e-04
-1.350087068733072000e-03
-1.831356307894529880e-03
2.322577501364305675e-05
1.301927859743517513e-03
1.076176911843263525e-03
4.011079289240395709e-04
-7.356211732928015458e-04
-5.629507605518016138e-05
5.987484151627742428e-04
-4.559416003434321567e-04
-1.698883643707486176e-03
-1.300820033836827061e-03
-1.767931345197690078e-04
7.597822930981113984e-04
1.384406738670639655e-04
-5.124281530299821261e-04
1.249822756231776461e-03
2.067531075425375637e-03
1.785129315792651026e-03
1.007983154236121760e-03
3.505903651054026194e-05
-2.055399998631177606e-03
-2.216503468810332445e-03
-1.671203036671611939e-03
-1.181217192171045600e-03
7.842982548766498467e-04
2.664468723895568512e-04
-4.349426450094885936e-04
9.814934807786904625e-04
1.476928980552161567e-03
1.674031850051905905e-03
5.157030059201495216e-04
-4.627388697191980546e-04
1.199861573024092840e-04
1.346098095961401531e-04
-5.649626223123321075e-04
-1.667028873039255775e-03
-2.859590456276677860e-03
-1.389069842329746039e-03
1.072662976400907877e-03
2.089450217244178017e-03
1.358892091672823628e-03
1.626849391999777563e-03
1.515132231591654905e-03
5.566995643812094278e-04
-3.092889148829122345e-03
-3.194422412169957166e-03
-1.446036800824469391e-03
4.520378622142042445e-04
2.934314743417915268e-03
3.230127989017149166e-03
2.078418819962543889e-03
6.698317421812737048e-05
7.568751935290078214e-05
-8.086133625089068086e-04
-2.439983886484039990e-03
-4.816263611532520250e-03
-4.416373157306252573e-03
6.111105708417868126e-04
2.511595387091820116e-03
5.538126770064238924e-04
1.026588053158738198e-03
2.892402792532157603e-03
3.430509875018082720e-03
1.439544904337553693e-03
-3.217165001207739441e-04
-1.390048136263261807e-03
-1.155109816893251477e-03
-6.887467729311566415e-04
-1.064638776958858274e-03
4.580947737862915334e-04
-3.975631212071770279e-04
-1.650661697781349510e-03
-2.996782437263274552e-03
-1.536181660493318637e-03
7.481899010382865329e-04
1.719287376029325848e-03
2.898973472112300210e-03
4.126097673346465836e-03
2.182601346456841240e-03
-6.611874586517183135e-04
-2.138365805401505181e-03
-5.937068645627812270e-04
-4.743556159724500562e-04
-1.493662585174285531e-03
-9.179696131001874055e-04
2.607939822391543396e-05
-1.406490012777548374e-03
-2.765438177610972208e-03
-2.052254713262702691e-03
2.277905200434630472e-03
3.836986069578279031e-03
2.034393609539454726e-03
7.014401712571007377e-04
4.602847248559118246e-04
-2.088854156565346260e-04
-2.526694138776838013e-03
-3.294417947046717095e-03
1.444543732593437258e-03
3.282991230719765636e-03
1.440063070091772771e-03
7.790375181353865943e-04
2.124624417388240539e-04
-1.241124795824099245e-04
-8.535949937909581087e-04
-2.592448160213013230e-03
-3.050109589999048382e-03
-2.216409444378797996e-03
-3.783673781437894520e-04
2.183548379828284276e-03
1.683681358990325554e-03
8.993371869562589039e-04
1.281055766780516630e-05
-3.392867096001851474e-04
3.216800166391645707e-04
2.009871050311294507e-03
1.680363865779362954e-03
7.060957942410947758e-04
-4.618525166886376849e-04
-7.669246832551295488e-04
-9.866785225438228293e-04
-1.136901590638749555e-03
-1.385458895706023893e-03
-8.303487968202632671e-04
-1.466323462650628590e-03
-4.028478581912971744e-04
1.590513504579366133e-03
2.524697813311596682e-03
7.161224782116296095e-04
-7.890245693385746981e-04
-6.239326479376299840e-04
1.051324264065885659e-03
1.481925815174681051e-03
2.016783791739968094e-04
1.019339975099549953e-04
1.083091640821302979e-04
-1.766655812317549819e-03
-3.234857202232124980e-03
-2.615251862677220318e-03
7.079625638265443950e-04
2.011864863198742446e-03
3.886270571960400095e-04
8.801478278443944500e-04
1.048902693701353949e-03
8.951914556402691550e-04
2.093863201899869280e-03
1.586002159601127871e-03
-9.432000111981593115e-04
-1.231780314629935631e-03
-1.425437337058657128e-03
-1.225574405762034323e-03
-4.817809019078971738e-04
-1.632304537769304134e-03
-1.769248619792344358e-03
-1.158544931302639511e-04
1.972423740094599379e-03
2.837517239195985839e-03
2.500829074353821697e-03
2.204348004432076034e-04
-2.610833502452964121e-03
-1.855833492729101536e-03
-1.314916535880977788e-03
-6.721479726248617273e-04
3.840736745806362716e-04
2.007662019708629595e-03
2.057995136856373853e-03
2.195303438102843673e-04
2.908901798084339587e-04
1.183035993467723484e-03
8.879539893585054137e-04
-6.203790599733764212e-04
-3.672845287033872468e-03
-2.036859859718988513e-03
9.108190843671801207e-04
1.035148117596911650e-03
-1.063671918437121468e-03
-1.271062462790759160e-03
5.645542618343797961e-04
1.393855778015877685e-03
4.588404504277185793e-04
5.126622351455535197e-04
1.257718776954688204e-03
8.712403428806801339e-04
-2.733902652593678189e-05
2.507440500437773463e-04
1.917472765427873191e-04
-9.526403194283242183e-04
-3.012253950470061056e-03
-2.609598016610057813e-03
-2.685994482150617330e-05
9.454624230157585929e-04
1.784156282466515793e-04
2.869605482821375769e-04
1.287271590612075510e-03
1.968187078923227910e-03
8.054425382721937081e-04
-5.293667534349117635e-04
8.478381341740356611e-04
2.320831922563033108e-03
1.420629862691984114e-03
-1.730776736333266338e-03
-3.349704338373829613e-03
-3.007293526933419066e-03
-5.756584856036741846e-04
8.743396164756327138e-04
8.720483103259572561e-04
6.314185608741929197e-04
4.564193167102664739e-04
-8.702326645717510089e-04
-4.424231739656145942e-04
9.861916153313726383e-04
8.320537815599776763e-04
-2.839999710455613454e-04
-3.687382152984892340e-04
7.383858204640998029e-04
1.440322462410055244e-04
-6.224796928892010941e-04
-1.102366484393071683e-03
6.867997642870629811e-04
1.842796797242175766e-03
8.354754316987531536e-04
5.593738438913033531e-04
2.476260839615721009e-04
-1.780282460882825178e-03
-1.556135974246177812e-03
-1.516622212019395552e-03
-1.347729537977075849e-03
-4.264028506982822588e-04
1.568303651808529518e-03
1.907443545404318699e-03
2.440202777467633932e-03
-1.730331049197362918e-04
-2.865095028169651302e-03
-8.931097461707077989e-04
1.174499810060072912e-03
7.489643697107199044e-04
-1.852838168124258374e-04
-4.114879032586183315e-04
-3.962058004665174027e-04
-3.055653795899040980e-04
1.063186202586495358e-03
1.787670905846404606e-04
5.260383565549758052e-04
7.054080617915437033e-04
1.606081157870955546e-03
1.677774470515507347e-03
5.949790235042874209e-04
-1.961575778033381335e-03
-3.861636294186067322e-03
-3.270786469632798715e-03
-2.770107943534411577e-03
-1.117427868005605373e-03
3.088414921921772693e-03
3.927745519295159672e-03
5.162712973849131401e-04
-2.516138905577694333e-04
5.778581700331898892e-04
5.770982571697885668e-04
5.586607380749904287e-05
9.928516832256157297e-04
7.801042400704253418e-04
3.114861601688595993e-04
-7.456152024159924240e-04
-1.201307148044255656e-03
-3.241930219674771176e-04
6.354068594690042478e-04
4.315765121424777078e-04
-3.881953782045665611e-05
-1.396562321099558465e-03
-1.353937143953273066e-03
-1.275636981408610759e-03
-2.059318991182574905e-03
-3.221474861641627509e-04
3.510109778205681291e-03
3.217033573044720401e-03
3.612958098842023748e-04
-2.580296291714852079e-03
-3.439800669531224535e-03
-1.886112932387611031e-03
1.030890221005162756e-03
3.794249810479876760e-03
2.892941920072473073e-03
2.129486091060331463e-03
2.855179528771339872e-03
1.225555222233883123e-03
-2.488717061912272717e-03
-4.508559624766071867e-03
-1.967901778131193359e-03
-1.913311640113726352e-03
-3.296611319398172046e-03
-1.399179424176576203e-03
2.096759377898911071e-03
4.294665392428590953e-03
3.065331225271403226e-03
4.017497055879528842e-04
-2.312892539374061460e-03
-1.712567911908561375e-03
-5.365025462267616375e-04
-3.930513118401518965e-07
1.881738933358791501e-03
2.973348890911356630e-03
1.593466718184269847e-03
-1.193528491142413104e-03
-1.118755586026013663e-03
2.901014954260322499e-04
-7.801332514195114236e-04
-2.797560797007324004e-03
-3.157144567427219977e-03
-1.080193690153886206e-03
1.011139037262109071e-03
-2.193074320167901728e-04
-4.792504643638471461e-04
2.536445004371187893e-03
5.023698130938853562e-03
4.086833426713903580e-03
1.400342877126542138e-03
-2.893821683372502229e-03
-4.996501163672441466e-03
-2.484456874704418176e-03
1.987485719248085938e-04
1.815466375690820639e-03
5.206496397636382065e-04
-6.441065685547122917e-04
-7.691520465495047540e-04
1.517325667951846752e-03
1.945602364483898410e-03
-8.511127808253499127e-04
-3.658930048580782534e-03
-2.956768093733441391e-03
-7.160787704681712343e-04
1.853547492444286180e-03
3.692190797994216855e-03
3.430209833088818019e-03
1.218255330438206430e-03
1.003682809839409335e-04
-1.309535921966622097e-03
-1.196844693132840046e-03
-1.410859789722276273e-03
-1.359365904269581272e-03
-1.058688377607743371e-03
-2.168636953915036036e-04
1.156852373439494919e-03
1.379125651022767522e-03
7.547872208240600286e-04
5.091128595251244964e-05
-4.188625031233657119e-04
-1.099764964849210113e-03
-6.023319137292487344e-04
2.446531339557279902e-05
3.440228879760860877e-04
-9.950100234580024159e-04
-7.670349153264973113e-04
-4.789842069805978699e-04
-5.736381160415051934e-04
1.247306722872039897e-03
2.545227260782116988e-03
1.942283593677021115e-03
1.105220890119350263e-03
1.542093398593292509e-03
6.369295683954516365e-04
1.972891389360554107e-04
-2.392856611032935683e-03
-4.252038043524485750e-03
-3.102513937019206903e-03
-2.304379244509367677e-03
8.937729526220204723e-04
3.604462409829090486e-03
3.510319536408112507e-04
-1.523556451210301022e-03
-1.699937653481462245e-04
1.680349268518110343e-03
2.359044502525812440e-03
1.411712604055050634e-03
9.706581215154681547e-04
-8.061614305052045189e-04
-1.036529692876466714e-03
-4.677277753492866628e-05
1.377029121963842121e-03
7.707426456168173191e-04
-1.580393491217961088e-03
-2.639648485914180935e-03
-2.262930371551162903e-03
-1.061651978311995044e-03
-2.500763365441108937e-04
2.016060392706807685e-03
3.771754589795305902e-03
4.617687944492762631e-04
-2.854082451922529753e-03
-2.183761135694390829e-03
6.651935858807138564e-04
1.593709077070533994e-03
9.237213309564556692e-04
-1.123937811969070142e-04
1.237899638572241513e-03
1.770363609808478945e-03
-5.039946259250260158e-04
-1.933039700032165810e-03
-6.991791855904565993e-04
2.827150591756103274e-04
-2.248178408757858977e-04
-8.653043551907012949e-04
-1.044523818451382514e-03
2.906770370384007571e-04
1.906049299224927543e-03
4.326133348994268615e-04
-1.546170052173877988e-03
-6.823691118427677388e-04
1.948495693382075022e-03
1.915699939669377990e-03
-3.267170000316856689e-04
-1.270696262453823193e-03
-1.067685811206150722e-03
-7.818042902838303774e-04
-8.639214456531258638e-04
6.879589874365094732e-05
1.417652043392466851e-03
1.059443641508789422e-03
-3.819153928828168611e-04
-1.519863343376303289e-03
-8.162997390027446716e-04
1.739288677968262552e-03
1.577546298013162308e-03
2.300775310398507102e-04
-3.163632039696000057e-04
-8.239935221289859581e-04
-2.259118604486819767e-04
1.017562354257560420e-03
4.000337013743942218e-06
-2.049249494042912432e-03
-4.149040743065013381e-04
2.005692472590353895e-03
2.331401909179937358e-05
-1.632128828511897160e-03
-8.239716504060632654e-04
3.124118249309211677e-04
-5.320359526159201721e-05
6.734672804200451165e-04
9.658332061961923164e-04
6.692964891685741335e-04
1.001235072886662476e-03
5.840309404538975143e-04
3.285132401010748765e-04
-3.798826853436523322e-04
-1.238788822559139507e-03
-1.638481295826066126e-03
-1.882171200866299262e-03
-2.728362104765087465e-03
-3.561724484672151099e-04
2.952267295876440274e-03
2.930157675390676186e-03
8.013637090256266540e-04
6.853424940614955170e-04
1.662113909704836202e-03
8.242387059924822807e-04
-9.240357410674458240e-04
-2.375119617590108582e-03
-3.084941394969564332e-03
-2.456396385620225869e-03
-1.875009350912837814e-03
1.242051754216652766e-03
4.137825364955512349e-03
4.818775174513878143e-03
3.428175138694906574e-03
1.026178119416924252e-03
-1.476822783552384898e-03
-5.301941274908408656e-03
-5.407673633772808533e-03
-2.238067564106448019e-03
-3.494621888258708287e-04
7.434875231894376608e-04
1.377450468431507674e-03
1.432229763618749104e-03
1.700929993977334364e-03
3.124294153364655293e-03
4.042204523133356708e-03
2.023870650675764233e-03
-2.469849703960340630e-03
-5.475028231603365665e-03
-4.100795723760463848e-03
-1.410691450806638922e-03
2.581099818365506764e-03
2.518031278400222148e-03
1.281848134722627514e-03
1.447994126822403031e-03
8.611185196639868818e-04
1.127532736003276383e-04
-1.577442790037917111e-03
-2.088045831819102058e-03
-5.147468982685014186e-04
-1.137055239386565789e-03
-1.058653265967146422e-03
-2.787562225220030607e-04
1.378850839723554350e-04
8.061934723320591774e-04
2.188274246058648318e-03
1.998199330400385852e-03
6.944118192362279309e-04
1.062936661780956589e-04
-7.485396207199734105e-05
-3.111276549862641914e-04
-1.485229126391218258e-04
-3.516753584324677035e-04
-1.559268003189882162e-04
-2.301739365461407793e-03
-3.421236702957169713e-03
-2.430822319756848187e-03
9.936785099924770777e-04
3.058467644165211666e-03
4.089626080736459036e-03
2.885610791157337384e-03
9.884756897886141924e-04
-2.046906471808136209e-03
-2.396683082537168653e-03
-1.580663549408981364e-03
-1.579116363477898587e-03
-2.391254476562880513e-03
-6.622447508636407788e-04
1.771212379571694695e-03
3.678423938082676318e-03
2.908211403528113224e-03
1.119036797528290923e-03
-9.505933002676423584e-04
-1.497116851211139927e-03
-3.965659999039014127e-04
-2.704641133713016495e-04
-6.852645597810526649e-04
1.858997700806172448e-05
3.032222818083674045e-04
1.232755526913949413e-03
-1.613347724175851665e-03
-2.881681081007530631e-03
-1.636518480126045475e-03
-1.819342959692714454e-03
-9.598693041928199349e-04
1.733722900395524022e-03
3.387903947873424117e-03
4.174743936005363351e-03
3.342533472838493582e-03
2.829931284296579599e-04
-2.263978032904151450e-03
-1.260504500030567698e-03
-3.874292214992400177e-04
-1.496685708774565284e-03
-2.167219464105988192e-03
6.352511539852402286e-04
1.862575773158828621e-03
-4.756269603788699520e-04
-1.343962761492855946e-03
-1.251765261922080602e-04
6.001911403204757524e-04
-3.694460748026325123e-04
-8.744582190174877891e-04
-1.651917323275140957e-03
-1.149772858154769761e-03
3.508915564256283770e-04
2.259336607583590454e-03
2.910094440136169053e-03
2.460592160876325877e-03
9.068162020219004693e-04
-6.957043937178401284e-04
-1.451420092514407083e-03
-1.691032228004077939e-03
-8.330758442754366330e-04
-1.196391713054370098e-03
-6.350927516412242205e-05
2.691723791580105749e-03
9.435089416092496848e-04
-1.968123822951741916e-03
2.023989637554218042e-04
1.348127577364001406e-03
9.980016674492235367e-05
-2.615648846054026682e-03
-3.423138770246641691e-03
-4.680044189081163119e-04
7.837305984073155134e-04
1.123201383017517980e-03
5.769035505399108896e-04
-7.011733947870945932e-05
1.638987156858255287e-03
4.032968241547059754e-03
2.074795221847474790e-03
-1.956770507145236867e-03
-2.433043112818908480e-03
1.663356196518585371e-04
1.392291508080181588e-03
1.068889941402580623e-03
-2.134531182348208098e-04
-1.553328806863872678e-03
-3.720156414453900523e-03
-2.591944157141558985e-03
-1.417449234688136696e-04
-6.242567669764996800e-04
-6.599632282838282116e-04
9.961312437768686263e-04
1.925177886542936206e-03
9.239993669015618676e-04
1.664528311179551499e-03
3.689490717148496534e-03
3.175050040905182894e-03
1.476899748262378541e-03
5.551808634519815253e-04
-1.446955373458836541e-03
-4.095714254644777785e-03
-3.442021639912240787e-03
-3.004801079776490188e-03
-3.851148894018675915e-03
-1.849880124879350711e-03
7.299375590587306797e-04
2.692535755596651894e-03
2.232897549714272546e-03
1.357602272294731538e-03
1.761313327382957360e-03
3.756148222101754908e-03
3.371492536821560099e-03
2.578034335950732826e-03
8.976592533704846194e-04
-1.999093284414914327e-03
-5.831181585463274600e-03
-6.346201647789132330e-03
-4.014911266739265572e-03
-1.130590109955622192e-03
1.089884588801232328e-03
3.725000111100128242e-03
3.584635084696894975e-03
9.890705682902307255e-04
8.344677997763200183e-04
2.062417820654718643e-03
1.321107051424851974e-03
-1.083762463922235530e-03
-1.951142751623163125e-03
-1.744641162474592274e-03
-6.237626005197499570e-04
-2.735712169654688796e-04
2.163247859415554596e-04
1.453437543162499485e-03
1.606717463864935089e-03
-2.362073000512061275e-04
-1.780141108141854037e-03
-3.626056861757104375e-03
-1.489724107170676843e-03
5.220839041077127499e-04
1.659413910331027130e-03
2.696475350750963257e-03
3.336211188706042063e-03
1.904167400831794418e-03
-1.905217630464028488e-03
-2.450624457558688192e-03
-5.026776040649673025e-04
-3.438327937164045831e-04
-2.748509337715638549e-03
-1.320439672407923253e-03
1.333230198629870716e-03
1.689071992542029140e-03
2.173748845486791342e-03
2.619193696415597628e-03
1.104935615229309098e-04
-1.552756816608862967e-03
-1.163080420417003224e-03
-1.477066695484976653e-03
-6.692649193285824796e-04
-7.237063232058838901e-04
-1.093629642747990344e-04
4.213343230311681546e-04
2.732974586686540922e-04
7.599131221280042430e-05
7.668459891607823029e-04
2.369474176591490882e-03
7.883317437033165662e-04
-1.510990192284213975e-03
-2.674158128013505008e-03
-5.433443284017844656e-04
3.228109190399877019e-04
-1.891484140613366571e-03
-1.377669791857148197e-03
1.410322403035571158e-03
3.722205162974231898e-03
2.646904125843308267e-03
9.110143090908968955e-04
1.539305893923503289e-03
5.325524355461449871e-04
-1.685570466068754504e-03
-1.638577706711446527e-03
-2.254493764926158213e-03
-2.334691672280899636e-03
-2.045375835090362197e-03
-1.391164453451880501e-03
-2.157264932008606730e-04
2.864686171786721101e-03
2.524338382186423670e-03
-3.046199190556926118e-04
-1.486397815572148423e-03
1.280953903803381134e-03
2.665704876631611996e-03
1.603498699701178800e-03
-6.863354879373664494e-04
-1.463034655672653100e-03
6.377177404494726708e-04
7.226548170998015400e-04
-6.079865680912859569e-04
-1.988959210356295963e-03
-2.967047508825010338e-03
-1.253555957266791173e-03
2.088026478217584227e-03
3.099529149335250502e-03
-1.897872180591817046e-04
-1.813249707372272153e-03
-8.377984376081223233e-04
3.133766573206789828e-04
2.847574711085470414e-04
1.076218472190951583e-03
1.480773318124360954e-03
4.407580690837205393e-04
-9.689937757966678167e-04
-1.982753245498361516e-03
-1.533540137538107976e-03
8.314718032145344568e-04
3.577876100669155537e-03
1.963683919949469822e-03
-1.126358403309128111e-03
-1.436050418041043102e-03
-2.186865834754931053e-03
-1.564816370829148762e-03
-1.112076595440883268e-03
1.292468650500356231e-03
3.041059837900468230e-03
1.832562684587086058e-03
7.080943687084238596e-04
-6.460139218854689738e-04
-1.930233322087248314e-03
-1.162948057546092911e-03
5.899602344866173480e-04
1.309627284369042314e-04
-5.450040713117999727e-04
-2.490864077943852513e-03
-1.873884342562124206e-03
5.623973064091847707e-04
2.853333231528485617e-03
2.574273303171577439e-03
5.010774117474041302e-04
-1.222043711724962300e-03
-3.037080016810512670e-04
5.068063581963551173e-04
1.354850638370148951e-03
1.772076834257448096e-03
-2.375240140975522793e-04
-1.939724758132069151e-03
-1.971772872818183288e-03
-7.986044573899124706e-04
-5.592100761887572151e-04
-4.886139359665726302e-04
-5.803002609785136044e-04
-3.664600093429186758e-04
1.080574001154149420e-03
1.331911747993324690e-03
-3.642638277265472751e-04
-3.253761780081077757e-05
6.525185514516204134e-04
3.165230753042736996e-04
1.699820867183728362e-03
1.892351442922440060e-03
1.795259150158033581e-03
1.717215301114923323e-04
-1.925846316004398368e-03
-2.832029419601165676e-03
-3.013102333262085170e-03
-3.082226611263917497e-03
-1.052708403528497365e-03
1.557596424912245647e-03
1.250412532810466111e-03
1.547504677445494560e-03
3.222817375520058408e-03
3.995490661266869366e-03
2.072521576333644512e-04
-3.107014840468184588e-03
-1.679225418193994309e-03
-9.431114974731475320e-05
-1.718364238039374672e-03
-1.831271478341552983e-03
1.668882990262514517e-04
7.561974815070463766e-04
1.757531938934170975e-03
1.787840416583593535e-03
1.753729879921414906e-03
1.953074653141261517e-03
-5.178290749086728300e-04
-2.912790053263150571e-03
-2.022388281188162128e-03
-1.192098132567837726e-03
-5.564579581201355325e-04
-1.922579080764145370e-03
-2.363081098706346864e-03
-6.272161074141071159e-04
2.703572045182875676e-03
3.686662220749124981e-03
2.950077635469188723e-03
1.723285690550345819e-03
6.157404637545521586e-04
7.514612167290100442e-05
-5.264587498638605059e-04
-1.822179001743883409e-03
-1.243122104055438678e-03
-3.398503303015839292e-04
-1.575658447795569034e-03
-2.221336951821754630e-03
-6.103629243761402295e-04
6.568254716690800823e-04
5.272684490429776003e-05
6.310728902674185873e-04
1.175228974043169639e-03
3.165721400887805729e-04
6.531292325016280990e-04
2.340108356231866086e-03
3.089705290823886556e-03
3.077570487941564607e-04
-2.496620163383961050e-03
-3.034022564686608605e-03
-2.675014978947207449e-03
-8.036709210616959156e-04
-7.684793080809371440e-04
1.877414929586228461e-04
1.466086914698777350e-03
1.398760232265933243e-03
1.367334397089043068e-03
1.223824660681646203e-03
5.288259900523662680e-05
1.054517969828087454e-03
4.057396785084307141e-04
-1.904604439565900668e-03
-1.616596901771096256e-03
7.996913905990348306e-04
1.824266154102122724e-03
7.662972114620523892e-05
-1.089055375509137254e-03
-2.970268664291290570e-04
-1.048781906470578435e-03
-3.331075042977078675e-03
-2.243712613719874103e-03
-5.136164791389727976e-04
1.420889614103759864e-03
3.423596263613469266e-03
1.995549567834354297e-03
3.436562399482113290e-04
1.055193340099148556e-03
9.096788931179721838e-04
4.929376804069820995e-04
6.896862043543094175e-04
8.554716059027155962e-04
1.566861809565353245e-03
3.528572371908322283e-04
-2.503062240559367473e-03
-5.333193251721130013e-03
-5.999312530936033554e-03
-3.570991958805852778e-03
-1.226511579777926630e-03
1.525632022447518093e-03
4.874745815569483248e-03
6.261470398737418834e-03
5.408670557890760469e-03
1.876845955989726433e-03
-2.038127952108987392e-03
-3.746079974243430102e-03
-1.581517495258754529e-03
9.265253334303591524e-04
5.506602343396312669e-04
1.665325291558344088e-04
-9.443159955929272061e-05
-1.621878796515175639e-03
-1.984112019223894727e-03
-2.251266278459070503e-03
-1.502037207080031845e-03
1.344413933205239244e-03
1.575855405201838149e-03
1.044368722857048036e-03
-2.284423488546608223e-04
-5.442899051858495537e-04
1.333556097296267461e-03
2.516678342776177291e-03
1.331273755849165380e-03
3.698376173229347172e-04
-1.747937396176859736e-03
-1.218666474241648966e-03
-3.452123057825380310e-04
1.467655594943888210e-03
-6.775357954177073372e-04
-2.216081321824737386e-03
-7.168923700355820435e-04
-1.545430351944184118e-04
-5.333833649608845512e-04
-3.294931976804583041e-04
6.092714745520942232e-04
9.096737384342313540e-04
1.029091147565013150e-03
3.254872949127335987e-03
2.548890244148326826e-03
-1.550247355455023745e-03
-3.247903401122749934e-03
-1.478691530412744402e-03
-5.158589342627883413e-04
-8.154036176143986689e-04
-3.892639367189340712e-04
4.640437651010358871e-04
3.793018322974244677e-04
-6.350773896793450576e-04
6.328724524120467711e-04
2.052758982175337168e-03
2.559852842785977339e-03
1.391941303152629357e-03
-8.422462083445025113e-04
-2.467465682973801495e-03
-2.877216466608472495e-03
-1.464706889159462719e-03
8.896393090885784736e-05
1.172006468013151630e-03
2.241915887558866820e-03
1.926174638300310292e-03
5.317458567121091575e-04
-7.176733972989934526e-04
-1.207125452818637919e-03
-1.082484696843896482e-03
2.758294392584356735e-04
-3.246228067526484603e-04
-1.190977650632209098e-03
1.344888032151115729e-04
1.075079987201414417e-03
-4.884133051788617152e-04
-1.488976947617583289e-03
-2.362785072394724334e-04
-3.856103540456407215e-04
-5.634692378783755619e-04
1.969064777182465056e-03
4.449123324013539230e-03
2.579346778870042402e-03
-6.210714853063107124e-04
-1.833534925620227112e-03
-1.099505206387888520e-03
-1.359679321203820625e-03
-3.637426735475845292e-04
3.297434870740517904e-04
-5.244960799643162567e-04
-1.567981418888614743e-03
-9.737613602604212838e-04
1.968788796698494627e-04
2.419015847681852283e-03
1.904728575795549324e-03
-7.008422107446492938e-04
-2.762680813117725492e-03
-2.251980166903853366e-03
-6.477406934474484995e-04
-1.929486557151181044e-04
-2.354295562711039124e-04
2.616668545842233771e-03
4.879376218154491372e-03
3.515472834710647344e-03
2.063943425914715926e-04
-2.614436463169469722e-03
-3.591067765068307622e-03
-1.527297735234650232e-03
3.805113947493318853e-05
4.974874824345131781e-06
9.349086560879759679e-04
2.338482902839408070e-03
6.769150159660808266e-04
-2.244453187676360116e-03
-1.716575148036309038e-03
-1.112355955180791434e-03
4.732168053913718571e-04
1.203818222898400854e-03
7.736304558447330317e-04
-8.142596998514546863e-04
-1.723036666714490529e-03
-2.669093622470781069e-04
1.425700545923749146e-03
3.362153374542721160e-03
8.184956422004159224e-04
-7.071481655203536078e-04
-2.953699463299499736e-04
7.358027789090079848e-05
-9.699168493277514954e-04
-2.353067286233444418e-03
-1.475696537215062882e-03
9.070645346958186150e-04
7.414911978417931793e-05
6.130875101269088207e-04
1.465597518997806010e-03
4.665350094534627569e-05
-1.267836718874207228e-04
-2.699403512187182057e-04
6.886455692856378267e-04
9.192325277596903035e-04
4.214362278222005256e-04
-5.011177791707269961e-04
-4.772087235970815747e-04
-1.492428920998440777e-03
-1.259291120353357978e-03
-3.886171294887976239e-04
5.180603081328510184e-05
9.783040545081366553e-04
1.476141617203809153e-03
9.352858964836688761e-04
7.285583284502975855e-04
5.494394567423608201e-04
-3.670989944644819009e-04
-2.634003011760074463e-03
-2.744664247700475974e-03
-1.007519761857266632e-03
1.200198510030856718e-03
8.215331393182855827e-04
1.382149743297507525e-04
3.565916851425829284e-03
4.226621256429822539e-03
1.954784815272542393e-03
-9.736120012890543685e-04
-2.280443222307661482e-03
-3.955777766507597576e-03
-4.474235514043945448e-03
-3.982289221822828303e-03
-1.704876324643789850e-03
1.611290671990376136e-03
3.694855927673859099e-03
4.408698887715683905e-03
3.610818697713250470e-03
1.457588811450682368e-03
-3.761259691450834068e-04
-6.798017591461212421e-04
-2.311356673045458917e-04
1.563701524206799085e-03
-1.931993414411597337e-04
-3.223574601988511441e-03
-3.868737416262786957e-03
-2.581106439933326859e-03
-1.940212575868559622e-03
-1.770951871721783725e-03
5.488860101836850070e-04
3.371492049252614812e-03
5.810839647569888272e-03
3.314327922652788964e-03
-7.430191164122770982e-04
-1.773777667622755509e-03
-3.870506845631969841e-04
-9.898349206754350157e-05
-9.228107384260035399e-04
-1.045749336026138669e-03
-3.168026307565750566e-05
7.226834290698811933e-04
-9.426594202212667346e-04
-4.729800248581886020e-04
4.321838652583649492e-04
8.388077299534278967e-04
1.189247665864157913e-03
-6.647293618634947604e-04
-1.832437736881103573e-03
-2.166383512380883405e-03
-9.057510903327732664e-04
8.814753834517339605e-04
1.823482480033019812e-03
1.769613991051877675e-03
2.247516401644150848e-03
2.495725449102024953e-03
2.270582680054071534e-04
-2.877270471142054104e-03
-3.455268655051894292e-03
-1.193306581967979330e-03
-1.987833680619567102e-04
-3.026695404111884942e-04
-1.943087038955994272e-03
8.942723954492488056e-05
3.069854190898322222e-03
3.050727670767216116e-03
1.421807281256991847e-03
-1.194566598569384800e-03
-1.129319777846199717e-03
-6.693427960008363877e-04
-7.329070292344375516e-04
3.516212410776009567e-04
-1.088096075674799311e-03
-4.872825617711759789e-04
2.749771798366244888e-03
3.877409115416168440e-03
5.917684231352938421e-04
-3.153156333106268971e-03
-3.400230761088447219e-03
-2.444142342816763101e-03
-2.858768504791034414e-04
1.552480527110109212e-03
1.552844637545399125e-03
4.886823547568611972e-04
5.079767907057457146e-04
-3.614813635717715697e-04
-1.041917952713295251e-03
-1.679342509380436169e-03
3.226163803308842071e-04
2.672446076807115118e-03
1.699768919658522452e-03
-1.525003678501524281e-05
-2.025430327170051460e-04
1.420672758690517089e-03
5.577275192806154100e-04
-1.899674675695220329e-03
-6.320437554888505083e-04
7.205637002386398242e-05
-1.627659888863977914e-03
-2.390631744785074863e-04
2.783404855261713729e-04
8.565091202405512210e-04
-1.989955529921223504e-03
-3.195573340921290927e-03
-2.726771481256838863e-03
-9.179542792689076550e-05
3.367036158279038648e-03
4.317367334910491607e-03
2.011663342460713339e-03
1.795064197614972424e-03
3.203308926200745636e-03
1.947683782855527549e-03
-1.232238666672679384e-03
-4.837513137887522463e-03
-4.164570477324569878e-03
-1.830306178122750350e-03
-1.055664123143444655e-03
-1.391865861408807942e-03
8.218691087343373176e-04
2.233919740196056800e-03
2.396756712480554476e-03
8.657482779205068722e-04
-9.717650877232118095e-04
-1.118880741116198407e-03
1.045893055931149465e-03
1.563366733647549240e-03
2.854957396538801667e-04
1.027881682312921895e-03
4.311559685807649241e-04
-1.967637598751325809e-03
-2.818826236699472493e-03
-2.588913627282603876e-03
5.432566348000135437e-04
2.599348108470479583e-03
1.430724337589632435e-03
-2.299843301963025368e-04
4.317521563101605302e-05
1.318149491569486301e-03
1.136800722463391722e-03
-2.113444875265944542e-04
7.356271579298380602e-06
1.174143522839884123e-03
-2.225679726571173228e-04
-8.200122901996507226e-04
-3.197446629752041802e-03
-5.347412852403902843e-03
-2.965455455538330235e-03
1.239958533410019919e-03
3.647903978161377500e-03
3.841260535056412358e-03
2.924668097762783605e-03
3.171952857933660655e-04
-9.091144909414449783e-04
-1.201839203436879224e-03
-2.557112162005569064e-04
1.157117528092574052e-03
1.035870177319952058e-03
-3.375194845253756508e-04
-1.464432125576639902e-03
-5.429041179036066690e-04
1.094035369336510469e-04
-1.823136479274294237e-03
-5.656075838856400133e-04
1.268805249918927586e-03
3.372220067974791915e-06
-4.047882805486363524e-04
-1.792930473818322556e-03
-4.417717722471720213e-05
2.704512507744901307e-03
1.113126744690554754e-03
-5.448707568816849641e-04
-1.324111654942497637e-04
1.893124769039091892e-03
4.962678814361770824e-04
-2.644811344308866958e-03
-2.342321606822456072e-03
3.063792211093686093e-05
-1.028452327260360153e-04
-4.527129017792010882e-04
1.424118247726687079e-03
2.478043834808007530e-03
3.780165355532624435e-03
3.656659479718554848e-03
-1.736845980313075661e-04
-4.189186877862273450e-03
-6.082892737616935747e-03
-5.372243204073015067e-03
-3.247084646944714287e-03
-5.881646072639491567e-04
1.876745739610820047e-03
4.483992999422056411e-03
5.577857003114760487e-03
4.711297404639836102e-03
1.880950685832719765e-03
-3.161253279637853743e-05
-7.513035305459828377e-04
-1.538121026527610987e-03
-2.588930882925833277e-03
-3.338122376195451751e-03
-4.697492402953220973e-04
4.892549295931964207e-04
-7.903826227329746254e-04
-6.596119954746556668e-04
5.746845648695270235e-04
1.548234098847447483e-03
-1.620628393199742610e-04
-2.852245348750392061e-03
-3.593103618974665629e-03
-6.428902393589521120e-05
2.881131780457129796e-03
5.573129268734858602e-03
4.519403839193460344e-03
-1.035001113665938010e-03
-3.767621903566796982e-03
-1.705709857859378500e-03
-2.084552810159591961e-04
3.945519602410191696e-04
1.753765326597788755e-03
1.398545780716047970e-03
5.216557894405491648e-04
-2.906365844055808808e-04
-9.035133456148186594e-04
-1.936681956604228115e-03
-2.779278305414508831e-03
-1.741909711640807733e-03
1.281192832038619163e-04
1.133115884634326319e-04
-7.304045796547101177e-05
1.284928274177510625e-03
1.171984181248130700e-03
-3.795869354502799079e-04
-1.403474300989064714e-04
5.320328030055340197e-04
1.642322278311510435e-03
3.641891672010443785e-03
3.767498341073168173e-03
2.604690785535802421e-03
-1.707331450625548894e-03
-5.232101705653750996e-03
-5.708782026792535123e-03
-3.617042334632592469e-03
-6.492091441673212941e-04
7.479269108246217740e-04
1.034193889903271390e-03
2.048057162587186165e-03
1.968563494314024172e-03
1.416172433759001420e-03
1.161652781811700662e-03
5.985975503496332450e-04
-5.789159117405272021e-04
-2.401219152147354458e-04
5.373174347977342129e-04
-5.479161147995191376e-04
-3.054906659147286368e-04
-4.278308932420698575e-04
-1.385069258398697895e-03
-1.508165574678313730e-03
8.759370592866697839e-04
2.257088318883437427e-03
1.419228592158824171e-03
5.087889000247693746e-04
-6.109577377272790849e-04
-2.376401499582302384e-03
-2.624984182828134487e-03
-8.688127692277183628e-04
-1.348280382053752878e-03
-9.801719440257431609e-04
-4.185938633787979207e-05
1.640201536617148705e-03
3.619462416836728268e-03
3.606483440173237440e-03
2.503486294367931585e-03
2.116228546113416153e-03
5.786446552515128912e-04
-1.082245536958301082e-03
-2.909118329249010034e-03
-3.110431868103512559e-03
-2.633747925806837094e-03
-2.110666239625237379e-03
-4.816148374897382040e-04
1.037255143888118382e-03
1.699599983792425117e-03
-6.044231254006592405e-04
-4.163316326460234952e-03
-2.837632975894791281e-03
3.865194981806529487e-03
6.819652619228778329e-03
2.995377509924794252e-03
3.377525147026417553e-04
-5.434498582612828921e-04
-7.276979543218982209e-04
-9.982644484545313314e-04
-6.189418080022918330e-04
-1.145778789054849311e-03
-7.783472622549861535e-04
7.601642064941171832e-04
8.519134269320545287e-04
-1.283718388335111345e-03
-4.436588024214872285e-03
-3.421976746384764508e-03
6.953943700680428365e-04
3.651824017579124483e-03
5.764963486641221796e-03
4.302869986011403566e-03
3.494066472149877345e-04
-3.484973651372750159e-03
-4.894185592665030449e-03
-3.707376212912783398e-03
-1.126142872159351365e-03
1.495399323531388432e-03
1.733723121423236648e-03
1.282179955184739942e-03
1.371723093006743405e-03
2.159344588612194249e-03
1.354266661715050613e-03
-1.360089918620698967e-04
-6.460262665334568291e-04
-6.498475153368230743e-04
-1.650075476406958404e-04
-2.762798449021982151e-04
-1.455314030637771486e-03
-2.185902986369190736e-03
-7.942309197049620805e-04
1.499437843485268342e-03
-3.026049913561024588e-05
-2.323590457866619129e-03
-7.936014675361841453e-04
6.010105400271133257e-04
1.560830655116358543e-03
2.086938854807175118e-03
1.869282634660258263e-03
2.422495501288928540e-03
2.508883080295670667e-03
8.866614195738883961e-04
-2.466851915616512236e-03
-4.063494559386840628e-03
-4.530815633899072659e-03
-2.048567447793485721e-03
2.311973930353256827e-03
2.146784047356159464e-03
2.141989043353229873e-04
-5.691479461505010362e-04
-1.249928856573560756e-03
7.894055976442026492e-04
1.452815866041947237e-03
1.525715125512259410e-03
1.180525221242934974e-03
4.336376628324691506e-04
-1.160058242503697080e-03
-5.397566607744076978e-04
-7.513654841711447322e-04
-1.639146553608581466e-03
1.547221445821447730e-04
8.144603718857448870e-04
-2.732054343632572195e-04
-1.129369774645114623e-03
1.291168785095167569e-03
3.317980961128249359e-03
1.126483004949423205e-03
-1.937464963132840261e-03
-2.833851135124840648e-03
-1.727181756177368493e-03
-6.128887188914884567e-04
3.959430788064065369e-05
1.286541170049996206e-03
1.894830019164903730e-03
1.698592043949657786e-03
5.311550056587639908e-04
-9.595068651998089307e-05
1.787338709594248672e-03
3.712967384125039571e-04
-1.910254827542534834e-03
-2.007816062470739894e-03
-1.595658379688632547e-03
-2.188576148611896897e-03
-2.090581863914965383e-03
-2.109887109843537275e-04
8.816506164400028742e-04
1.670740450520683896e-03
2.484562101407860896e-03
2.883585429095410820e-03
2.269278518545347293e-03
4.939593165995859354e-04
1.501980513523061024e-04
-4.467280574600306802e-04
-1.763600376568690009e-03
-3.047052888284091862e-03
-2.321678064506191817e-03
-2.492331207327014905e-03
-2.035955015152106015e-03
1.030550848584738804e-03
3.961083033585242885e-03
3.246091670420463496e-03
2.240651679201877220e-03
3.300000849418390967e-04
-5.134583031135329332e-05
-2.852088375796984804e-04
-9.907446918325899139e-04
-2.480623261304674022e-03
-2.470755290904381139e-03
-8.094750540937811420e-04
2.506562389581388356e-03
1.839075634282389977e-03
-6.647517433753928097e-04
-2.397499373216468999e-03
-1.818670678303770669e-03
3.231023843712046485e-04
7.288838663286584360e-05
1.254166127128015281e-03
3.413045968190702491e-03
3.953737492900565552e-03
2.105873509567769784e-03
-1.532342813773772232e-03
-4.076985661201629890e-03
-3.713373798971402340e-03
-2.593401378353541592e-03
-2.729349128356004157e-04
2.321542546512423214e-03
3.350739902194156336e-03
9.777933460750564375e-04
-3.759714592428444455e-04
-2.546312583920485434e-04
-3.366363911004171552e-04
-3.148600196991824750e-04
-1.253468937593366864e-03
-8.577613924539115612e-04
2.694696615962803555e-04
4.585181952984628841e-04
-2.812941689564820184e-04
-4.149243234933273948e-04
1.439241811646144349e-03
1.168276205325790218e-03
-1.841537427123273782e-06
1.747215912025184637e-03
6.194324356633395525e-04
-7.895970383689466469e-04
-2.478325128785200792e-03
-2.918842214890725924e-03
-2.108454346813572276e-03
4.136404915314177851e-04
2.818970325897237651e-03
2.361990811143874300e-03
4.144034801421701462e-04
-7.399821483833049149e-04
2.633687379116024171e-04
1.123317597482870016e-03
2.987575290575306131e-04
-1.922223618007041189e-03
2.410983076015718195e-04
2.652197702046880500e-03
7.192697717118887559e-04
-1.600663151703280796e-03
-3.092097906626879722e-03
-2.686370796196486770e-03
-1.903055640844406905e-03
-2.730980691899511791e-04
2.676075042367223860e-03
3.451383875997410602e-03
1.611224790817719545e-03
6.908452381327882179e-05
-5.531732066462327971e-04
3.632174099059772595e-04
1.297990468654662988e-03
-1.102247326329369769e-03
-3.172950388731959285e-03
-2.896877045458632057e-05
1.008576661208244584e-03
-5.585857870797663992e-05
7.511295270563300144e-04
9.959562700480838193e-04
-1.295697555964179810e-03
-1.688405719675390489e-03
-1.239584853749832937e-03
-1.159969245720501949e-03
3.893926402939623427e-04
1.886940621801800949e-03
1.653503274979040800e-03
9.029431495406444255e-04
1.147625396746709478e-03
1.146846551923533112e-03
-9.559999746977102583e-04
-1.528318173998889163e-03
