1.722752797833868726e-02
1.722510558811802400e-02
1.722268160604206733e-02
1.722025603268166616e-02
1.721782886860804759e-02
1.721540011439279608e-02
1.721296977060786035e-02
1.721053783782554997e-02
1.720810431661853879e-02
1.720566920755985801e-02
1.720323251122288233e-02
1.720079422818134723e-02
1.719835435900935253e-02
1.719591290428136229e-02
1.719346986457219797e-02
1.719102524045703143e-02
1.718857903251138144e-02
1.718613124131111725e-02
1.718368186743245152e-02
1.718123091145195430e-02
1.717877837394654952e-02
1.717632425549351152e-02
1.717386855667047199e-02
1.717141127805540957e-02
1.716895242022664983e-02
1.716649198376285490e-02
1.716402996924303037e-02
1.716156637724652878e-02
1.715910120835306002e-02
1.715663446314268092e-02
1.715416614219579181e-02
1.715169624609315033e-02
1.714922477541585763e-02
1.714675173074535486e-02
1.714427711266344051e-02
1.714180092175225656e-02
1.713932315859428845e-02
1.713684382377235471e-02
1.713436291786961732e-02
1.713188044146957134e-02
1.712939639515605877e-02
1.712691077951325469e-02
1.712442359512568457e-02
1.712193484257821738e-02
1.711944452245604473e-02
1.711695263534470171e-02
1.711445918183006343e-02
1.711196416249833457e-02
1.710946757793605985e-02
1.710696942873010662e-02
1.710446971546767184e-02
1.710196843873628553e-02
1.709946559912380384e-02
1.709696119721841254e-02
1.709445523360862002e-02
1.709194770888326775e-02
1.708943862363153030e-02
1.708692797844292219e-02
1.708441577390728758e-02
1.708190201061480715e-02
1.707938668915598424e-02
1.707686981012163790e-02
1.707435137410292375e-02
1.707183138169132350e-02
1.706930983347864500e-02
1.706678673005700489e-02
1.706426207201883205e-02
1.706173585995686762e-02
1.705920809446416844e-02
1.705667877613412445e-02
1.705414790556044821e-02
1.705161548333716109e-02
1.704908151005860711e-02
1.704654598631945295e-02
1.704400891271469140e-02
1.704147028983963447e-02
1.703893011828992374e-02
1.703638839866152346e-02
1.703384513155072402e-02
1.703130031755413151e-02
1.702875395726866775e-02
1.702620605129157375e-02
1.702365660022039581e-02
1.702110560465298905e-02
1.701855306518752428e-02
1.701599898242249845e-02
1.701344335695671728e-02
1.701088618938928834e-02
1.700832748031962799e-02
1.700576723034745094e-02
1.700320544007278417e-02
1.700064211009595302e-02
1.699807724101758816e-02
1.699551083343862207e-02
1.699294288796027522e-02
1.699037340518406644e-02
1.698780238571182336e-02
1.698522983014568236e-02
1.698265573908808168e-02
1.698008011314175100e-02
1.697750295290970449e-02
1.697492425899525467e-02
1.697234403200202635e-02
1.696976227253393921e-02
1.696717898119522172e-02
1.696459415859040767e-02
1.696200780532432922e-02
1.695941992200212731e-02
1.695683050922923429e-02
1.695423956761137399e-02
1.695164709775455469e-02
1.694905310026506920e-02
1.694645757574950520e-02
1.694386052481473837e-02
1.694126194806794619e-02
1.693866184611658374e-02
1.693606021956838362e-02
1.693345706903135600e-02
1.693085239511380596e-02
1.692824619842433348e-02
1.692563847957181608e-02
1.692302923916541579e-02
1.692041847781458261e-02
1.691780619612905101e-02
1.691519239471885733e-02
1.691257707419431891e-02
1.690996023516601679e-02
1.690734187824480955e-02
1.690472200404185069e-02
1.690210061316857471e-02
1.689947770623669368e-02
1.689685328385819030e-02
1.689422734664531439e-02
1.689159989521060029e-02
1.688897093016686335e-02
1.688634045212720688e-02
1.688370846170499096e-02
1.688107495951386011e-02
1.687843994616773299e-02
1.687580342228079539e-02
1.687316538846750369e-02
1.687052584534259533e-02
1.686788479352107836e-02
1.686524223361823144e-02
1.686259816624960384e-02
1.685995259203101199e-02
1.685730551157853599e-02
1.685465692550851963e-02
1.685200683443758424e-02
1.684935523898261484e-02
1.684670213976075664e-02
1.684404753738944285e-02
1.684139143248637380e-02
1.683873382566953084e-02
1.683607471755716942e-02
1.683341410876780173e-02
1.683075199992020710e-02
1.682808839163342160e-02
1.682542328452674846e-02
1.682275667921975110e-02
1.682008857633224969e-02
1.681741897648433154e-02
1.681474788029634071e-02
1.681207528838888146e-02
1.680940120138282173e-02
1.680672561989928274e-02
1.680404854455962507e-02
1.680136997598546608e-02
1.679868991479867638e-02
1.679600836162137636e-02
1.679332531707594320e-02
1.679064078178501077e-02
1.678795475637148010e-02
1.678526724145850205e-02
1.678257823766947376e-02
1.677988774562804916e-02
1.677719576595812154e-02
1.677450229928383052e-02
1.677180734622956207e-02
1.676911090741994501e-02
1.676641298347984754e-02
1.676371357503439810e-02
1.676101268270896796e-02
1.675831030712918515e-02
1.675560644892091708e-02
1.675290110871025667e-02
1.675019428712353972e-02
1.674748598478735181e-02
1.674477620232852487e-02
1.674206494037411980e-02
1.673935219955145076e-02
1.673663798048808521e-02
1.673392228381183344e-02
1.673120511015073128e-02
1.672848646013306087e-02
1.672576633438735069e-02
1.672304473354236515e-02
1.672032165822708721e-02
1.671759710907073579e-02
1.671487108670276570e-02
1.671214359175284686e-02
1.670941462485090595e-02
1.670668418662711249e-02
1.670395227771186153e-02
1.670121889873577709e-02
1.669848405032971911e-02
1.669574773312477653e-02
1.669300994775227420e-02
1.669027069484377984e-02
1.668752997503107974e-02
1.668478778894618222e-02
1.668204413722132462e-02
1.667929902048896629e-02
1.667655243938179210e-02
1.667380439453271246e-02
1.667105488657486326e-02
1.666830391614160245e-02
1.666555148386650656e-02
1.666279759038338110e-02
1.666004223632626055e-02
1.665728542232940146e-02
1.665452714902729281e-02
1.665176741705464911e-02
1.664900622704640343e-02
1.664624357963770743e-02
1.664347947546391746e-02
1.664071391516062232e-02
1.663794689936363633e-02
1.663517842870899238e-02
1.663240850383294195e-02
1.662963712537196895e-02
1.662686429396277935e-02
1.662409001024228727e-02
1.662131427484762891e-02
1.661853708841615207e-02
1.661575845158541620e-02
1.661297836499319933e-02
1.661019682927749805e-02
1.660741384507652060e-02
1.660462941302868686e-02
1.660184353377262487e-02
1.659905620794718123e-02
1.659626743619141073e-02
1.659347721914458673e-02
1.659068555744618728e-02
1.658789245173590554e-02
1.658509790265365325e-02
1.658230191083955377e-02
1.657950447693392823e-02
1.657670560157729553e-02
1.657390528541036884e-02
1.657110352907405909e-02
1.656830033320946804e-02
1.656549569845790562e-02
1.656268962546088644e-02
1.655988211486013328e-02
1.655707316729756323e-02
1.655426278341528765e-02
1.655145096385560524e-02
1.654863770926099514e-02
1.654582302027413770e-02
1.654300689753791451e-02
1.654018934169539795e-02
1.653737035338985820e-02
1.653454993326475969e-02
1.653172808196374730e-02
1.652890480013066363e-02
1.652608008840954212e-02
1.652325394744461745e-02
1.652042637788032897e-02
1.651759738036130687e-02
1.651476695553236174e-02
1.651193510403850193e-02
1.650910182652492661e-02
1.650626712363702925e-02
1.650343099602038371e-02
1.650059344432074082e-02
1.649775446918402139e-02
1.649491407125633358e-02
1.649207225118395903e-02
1.648922900961337715e-02
1.648638434719126508e-02
1.648353826456446999e-02
1.648069076238002986e-02
1.647784184128517349e-02
1.647499150192731354e-02
1.647213974495405700e-02
1.646928657101319471e-02
1.646643198075269793e-02
1.646357597482072527e-02
1.646071855386561922e-02
1.645785971853590615e-02
1.645499946948029285e-02
1.645213780734766651e-02
1.644927473278707045e-02
1.644641024644771798e-02
1.644354434897899592e-02
1.644067704103046798e-02
1.643780832325187485e-02
1.643493819629313415e-02
1.643206666080433698e-02
1.642919371743575135e-02
1.642631936683781185e-02
1.642344360966112304e-02
1.642056644655645950e-02
1.641768787817477274e-02
1.641480790516717733e-02
1.641192652818494746e-02
1.640904374787952730e-02
1.640615956490253449e-02
1.640327397990574629e-02
1.640038699354111687e-02
1.639749860646076349e-02
1.639460881931696992e-02
1.639171763276218302e-02
1.638882504744899882e-02
1.638593106403017988e-02
1.638303568315865183e-02
1.638013890548751031e-02
1.637724073167001401e-02
1.637434116235958123e-02
1.637144019820979332e-02
1.636853783987438429e-02
1.636563408800723388e-02
1.636272894326239180e-02
1.635982240629407086e-02
1.635691447775663651e-02
1.635400515830459992e-02
1.635109444859262837e-02
1.634818234927555222e-02
1.634526886100836837e-02
1.634235398444621942e-02
1.633943772024440411e-02
1.633652006905837728e-02
1.633360103154374299e-02
1.633068060835625099e-02
1.632775880015180717e-02
1.632483560758646313e-02
1.632191103131641272e-02
1.631898507199798509e-02
1.631605773028765513e-02
1.631312900684203995e-02
1.631019890231790934e-02
1.630726741737217531e-02
1.630433455266189213e-02
1.630140030884424940e-02
1.629846468657656852e-02
1.629552768651631664e-02
1.629258930932110314e-02
1.628964955564867964e-02
1.628670842615692962e-02
1.628376592150388227e-02
1.628082204234770902e-02
1.627787678934672355e-02
1.627493016315937832e-02
1.627198216444426457e-02
1.626903279386009496e-02
1.626608205206570013e-02
1.626312993972005294e-02
1.626017645748225465e-02
1.625722160601154528e-02
1.625426538596730711e-02
1.625130779800906811e-02
1.624834884279649158e-02
1.624538852098937267e-02
1.624242683324764180e-02
1.623946378023136128e-02
1.623649936260073215e-02
1.623353358101607344e-02
1.623056643613782560e-02
1.622759792862656439e-02
1.622462805914299047e-02
1.622165682834794675e-02
1.621868423690241146e-02
1.621571028546748422e-02
1.621273497470439307e-02
1.620975830527448397e-02
1.620678027783922781e-02
1.620380089306022731e-02
1.620082015159921007e-02
1.619783805411801822e-02
1.619485460127861182e-02
1.619186979374307583e-02
1.618888363217363055e-02
1.618589611723262461e-02
1.618290724958252463e-02
1.617991702988592906e-02
1.617692545880556124e-02
1.617393253700426248e-02
1.617093826514498164e-02
1.616794264389078556e-02
1.616494567390485207e-02
1.616194735585047698e-02
1.615894769039107753e-02
1.615594667819018546e-02
1.615294431991145044e-02
1.614994061621865054e-02
1.614693556777567138e-02
1.614392917524651652e-02
1.614092143929530751e-02
1.613791236058626649e-02
1.613490193978372317e-02
1.613189017755211827e-02
1.612887707455599659e-02
1.612586263146002091e-02
1.612284684892894768e-02
1.611982972762763047e-02
1.611681126822101309e-02
1.611379147137413648e-02
1.611077033775214218e-02
1.610774786802026542e-02
1.610472406284385247e-02
1.610169892288833976e-02
1.609867244881926784e-02
1.609564464130228134e-02
1.609261550100311855e-02
1.608958502858762879e-02
1.608655322472175506e-02
1.608352009007153749e-02
1.608048562530311684e-02
1.607744983108272407e-02
1.607441270807668729e-02
1.607137425695143521e-02
1.606833447837350409e-02
1.606529337300952390e-02
1.606225094152622518e-02
1.605920718459042176e-02
1.605616210286901768e-02
1.605311569702900718e-02
1.605006796773748509e-02
1.604701891566163649e-02
1.604396854146874704e-02
1.604091684582618568e-02
1.603786382940141503e-02
1.603480949286197749e-02
1.603175383687549874e-02
1.602869686210968425e-02
1.602563856923232624e-02
1.602257895891131406e-02
1.601951803181463074e-02
1.601645578861035299e-02
1.601339222996663383e-02
1.601032735655170611e-02
1.600726116903389978e-02
1.600419366808163851e-02
1.600112485436342921e-02
1.599805472854785166e-02
1.599498329130357235e-02
1.599191054329933415e-02
1.598883648520396314e-02
1.598576111768635830e-02
1.598268444141549144e-02
1.597960645706042113e-02
1.597652716529030306e-02
1.597344656677436928e-02
1.597036466218193507e-02
1.596728145218239900e-02
1.596419693744523596e-02
1.596111111863999024e-02
1.595802399643628244e-02
1.595493557150381297e-02
1.595184584451236204e-02
1.594875481613179311e-02
1.594566248703203210e-02
1.594256885788307779e-02
1.593947392935500182e-02
1.593637770211795215e-02
1.593328017684216003e-02
1.593018135419793299e-02
1.592708123485566535e-02
1.592397981948580690e-02
1.592087710875887685e-02
1.591777310334547418e-02
1.591466780391626729e-02
1.591156121114200434e-02
1.590845332569349249e-02
1.590534414824161177e-02
1.590223367945731506e-02
1.589912192001162808e-02
1.589600887057563208e-02
1.589289453182047077e-02
1.588977890441735374e-02
1.588666198903754267e-02
1.588354378635238248e-02
1.588042429703327707e-02
1.587730352175170320e-02
1.587418146117918968e-02
1.587105811598734512e-02
1.586793348684784749e-02
1.586480757443243725e-02
1.586168037941293116e-02
1.585855190246120844e-02
1.585542214424921770e-02
1.585229110544895959e-02
1.584915878673250067e-02
1.584602518877197344e-02
1.584289031223955896e-02
1.583975415780748686e-02
1.583661672614805616e-02
1.583347801793363527e-02
1.583033803383665158e-02
1.582719677452958454e-02
1.582405424068496907e-02
1.582091043297539565e-02
1.581776535207351717e-02
1.581461899865203163e-02
1.581147137338368563e-02
1.580832247694129861e-02
1.580517230999774550e-02
1.580202087322597065e-02
1.579886816729898433e-02
1.579571419288985923e-02
1.579255895067172705e-02
1.578940244131777845e-02
1.578624466550125963e-02
1.578308562389546185e-02
1.577992531717372846e-02
1.577676374600945827e-02
1.577360091107611606e-02
1.577043681304721862e-02
1.576727145259633825e-02
1.576410483039709584e-02
1.576093694712315391e-02
1.575776780344822353e-02
1.575459740004607131e-02
1.575142573759051243e-02
1.574825281675541755e-02
1.574507863821470940e-02
1.574190320264234888e-02
1.573872651071233503e-02
1.573554856309870506e-02
1.573236936047554477e-02
1.572918890351699545e-02
1.572600719289725391e-02
1.572282422929056553e-02
1.571964001337121733e-02
1.571645454581354143e-02
1.571326782729190810e-02
1.571007985848073968e-02
1.570689064005450011e-02
1.570370017268768112e-02
1.570050845705482298e-02
1.569731549383051802e-02
1.569412128368940368e-02
1.569092582730615207e-02
1.568772912535548042e-02
1.568453117851214412e-02
1.568133198745095408e-02
1.567813155284675936e-02
1.567492987537446453e-02
1.567172695570902621e-02
1.566852279452544613e-02
1.566531739249877112e-02
1.566211075030408614e-02
1.565890286861653519e-02
1.565569374811131079e-02
1.565248338946365406e-02
1.564927179334885815e-02
1.564605896044226480e-02
1.564284489141925041e-02
1.563962958695522265e-02
1.563641304772563426e-02
1.563319527440598655e-02
1.562997626767181208e-02
1.562675602819868850e-02
1.562353455666224376e-02
1.562031185373814919e-02
1.561708792010211427e-02
1.561386275642989187e-02
1.561063636339728861e-02
1.560740874168015276e-02
1.560417989195437422e-02
1.560094981489589146e-02
1.559771851118068285e-02
1.559448598148477881e-02
1.559125222648425659e-02
1.558801724685523506e-02
1.558478104327386780e-02
1.558154361641634310e-02
1.557830496695889778e-02
1.557506509557781034e-02
1.557182400294939394e-02
1.556858168975001552e-02
1.556533815665608889e-02
1.556209340434407812e-02
1.555884743349049762e-02
1.555560024477191036e-02
1.555235183886492095e-02
1.554910221644618257e-02
1.554585137819240563e-02
1.554259932478035955e-02
1.553934605688687097e-02
1.553609157518881512e-02
1.553283588036312966e-02
1.552957897308679565e-02
1.552632085403684616e-02
1.552306152389037325e-02
1.551980098332450715e-02
1.551653923301642146e-02
1.551327627364332620e-02
1.551001210588248344e-02
1.550674673041121422e-02
1.550348014790689857e-02
1.550021235904697030e-02
1.549694336450891004e-02
1.549367316497024354e-02
1.549040176110854337e-02
1.548712915360142897e-02
1.548385534312656658e-02
1.548058033036166931e-02
1.547730411598449013e-02
1.547402670067283756e-02
1.547074808510456867e-02
1.546746826995759605e-02
1.546418725590988086e-02
1.546090504363944150e-02
1.545762163382435189e-02
1.545433702714273973e-02
1.545105122427278474e-02
1.544776422589272565e-02
1.544447603268084973e-02
1.544118664531549633e-02
1.543789606447507068e-02
1.543460429083802835e-02
1.543131132508288560e-02
1.542801716788821074e-02
1.542472181993262241e-02
1.542142528189479299e-02
1.541812755445345039e-02
1.541482863828738496e-02
1.541152853407544779e-02
1.540822724249654892e-02
1.540492476422966085e-02
1.540162109995380640e-02
1.539831625034806389e-02
1.539501021609156715e-02
1.539170299786350553e-02
1.538839459634313428e-02
1.538508501220977459e-02
1.538177424614281009e-02
1.537846229882168340e-02
1.537514917092589091e-02
1.537183486313500186e-02
1.536851937612864448e-02
1.536520271058651466e-02
1.536188486718837072e-02
1.535856584661402478e-02
1.535524564954335661e-02
1.535192427665631534e-02
1.534860172863291954e-02
1.534527800615325017e-02
1.534195310989745938e-02
1.533862704054576344e-02
1.533529979877844285e-02
1.533197138527583707e-02
1.532864180071834455e-02
1.532531104578643659e-02
1.532197912116065736e-02
1.531864602752161172e-02
1.531531176554997396e-02
1.531197633592649467e-02
1.530863973933199208e-02
1.530530197644735906e-02
1.530196304795355955e-02
1.529862295453161478e-02
1.529528169686261707e-02
1.529193927562772469e-02
1.528859569150816701e-02
1.528525094518523933e-02
1.528190503734029766e-02
1.527855796865476394e-02
1.527520973981014857e-02
1.527186035148803828e-02
1.526850980437008745e-02
1.526515809913802507e-02
1.526180523647365297e-02
1.525845121705885279e-02
1.525509604157558943e-02
1.525173971070589891e-02
1.524838222513190400e-02
1.524502358553580898e-02
1.524166379259989969e-02
1.523830284700654174e-02
1.523494074943817535e-02
1.523157750057731880e-02
1.522821310110657536e-02
1.522484755170862292e-02
1.522148085306622260e-02
1.521811300586221709e-02
1.521474401077953058e-02
1.521137386850116534e-02
1.520800257971021037e-02
1.520463014508983794e-02
1.520125656532330879e-02
1.519788184109397214e-02
1.519450597308526739e-02
1.519112896198072590e-02
1.518775080846396577e-02
1.518437151321869703e-02
1.518099107692872166e-02
1.517760950027793009e-02
1.517422678395031511e-02
1.517084292862997015e-02
1.516745793500108574e-02
1.516407180374795133e-02
1.516068453555495348e-02
1.515729613110657070e-02
1.515390659108737520e-02
1.515051591618203977e-02
1.514712410707533784e-02
1.514373116445214343e-02
1.514033708899743293e-02
1.513694188139629547e-02
1.513354554233391040e-02
1.513014807249555942e-02
1.512674947256662482e-02
1.512334974323259820e-02
1.511994888517907698e-02
1.511654689909175918e-02
1.511314378565645385e-02
1.510973954555908626e-02
1.510633417948568577e-02
1.510292768812238756e-02
1.509952007215543783e-02
1.509611133227119727e-02
1.509270146915613585e-02
1.508929048349683111e-02
1.508587837597998201e-02
1.508246514729240373e-02
1.507905079812102422e-02
1.507563532915289113e-02
1.507221874107516485e-02
1.506880103457512027e-02
1.506538221034013809e-02
1.506196226905772741e-02
1.505854121141550830e-02
1.505511903810122579e-02
1.505169574980274975e-02
1.504827134720808195e-02
1.504484583100535247e-02
1.504141920188282154e-02
1.503799146052887080e-02
1.503456260763202414e-02
1.503113264388093555e-02
1.502770156996438566e-02
1.502426938657128869e-02
1.502083609439069760e-02
1.501740169411179895e-02
1.501396618642390247e-02
1.501052957201644972e-02
1.500709185157901408e-02
1.500365302580129213e-02
1.500021309537311921e-02
1.499677206098445903e-02
1.499332992332540887e-02
1.498988668308620827e-02
1.498644234095723553e-02
1.498299689762899387e-02
1.497955035379213221e-02
1.497610271013744519e-02
1.497265396735587492e-02
1.496920412613849879e-02
1.496575318717653820e-02
1.496230115116136024e-02
1.495884801878448293e-02
1.495539379073758217e-02
1.495193846771248822e-02
1.494848205040118228e-02
1.494502453949581033e-02
1.494156593568866064e-02
1.493810623967217928e-02
1.493464545213895808e-02
1.493118357378175019e-02
1.492772060529347182e-02
1.492425654736718836e-02
1.492079140069612134e-02
1.491732516597365013e-02
1.491385784389331545e-02
1.491038943514882628e-02
1.490691994043405119e-02
1.490344936044302876e-02
1.489997769586996409e-02
1.489650494740922711e-02
1.489303111575535250e-02
1.488955620160304846e-02
1.488608020564719837e-02
1.488260312858285042e-02
1.487912497110522453e-02
1.487564573390971062e-02
1.487216541769187210e-02
1.486868402314744930e-02
1.486520155097235778e-02
1.486171800186268134e-02
1.485823337651468248e-02
1.485474767562480411e-02
1.485126089988967647e-02
1.484777305000611891e-02
1.484428412667113464e-02
1.484079413058191077e-02
1.483730306243582001e-02
1.483381092293042762e-02
1.483031771276350011e-02
1.482682343263298785e-02
1.482332808323703031e-02
1.481983166527396471e-02
1.481633417944232256e-02
1.481283562644082445e-02
1.480933600696839395e-02
1.480583532172415583e-02
1.480233357140743264e-02
1.479883075671774122e-02
1.479532687835479962e-02
1.479182193701853408e-02
1.478831593340907899e-02
1.478480886822677344e-02
1.478130074217216469e-02
1.477779155594600644e-02
1.477428131024926053e-02
1.477077000578310047e-02
1.476725764324891658e-02
1.476374422334832300e-02
1.476022974678315586e-02
1.475671421425546817e-02
1.475319762646752804e-02
1.474967998412182214e-02
1.474616128792105053e-02
1.474264153856813357e-02
1.473912073676621366e-02
1.473559888321866219e-02
1.473207597862906740e-02
1.472855202370125169e-02
1.472502701913926647e-02
1.472150096564739732e-02
1.471797386393015883e-02
1.471444571469229974e-02
1.471091651863880301e-02
1.470738627647487709e-02
1.470385498890597158e-02
1.470032265663778065e-02
1.469678928037624656e-02
1.469325486082754574e-02
1.468971939869809402e-02
1.468618289469456398e-02
1.468264534952386756e-02
1.467910676389315439e-02
1.467556713850982734e-02
1.467202647408153912e-02
1.466848477131619914e-02
1.466494203092198224e-02
1.466139825360732347e-02
1.465785344008091289e-02
1.465430759105170420e-02
1.465076070722890964e-02
1.464721278932200853e-02
1.464366383804074565e-02
1.464011385409512596e-02
1.463656283819541985e-02
1.463301079105216486e-02
1.462945771337615872e-02
1.462590360587847152e-02
1.462234846927044224e-02
1.461879230426368394e-02
1.461523511157008896e-02
1.461167689190182896e-02
1.460811764597134445e-02
1.460455737449134830e-02
1.460099607817483269e-02
1.459743375773506734e-02
1.459387041388560298e-02
1.459030604734027486e-02
1.458674065881321660e-02
1.458317424901885498e-02
1.457960681867191167e-02
1.457603836848739808e-02
1.457246889918061526e-02
1.456889841146715402e-02
1.456532690606288614e-02
1.456175438368398009e-02
1.455818084504690614e-02
1.455460629086842428e-02
1.455103072186559980e-02
1.454745413875580505e-02
1.454387654225672115e-02
1.454029793308633800e-02
1.453671831196295602e-02
1.453313767960518962e-02
1.452955603673196892e-02
1.452597338406253109e-02
1.452238972231643596e-02
1.451880505221355561e-02
1.451521937447407956e-02
1.451163268981852349e-02
1.450804499896772744e-02
1.450445630264284198e-02
1.450086660156534035e-02
1.449727589645702017e-02
1.449368418804000691e-02
1.449009147703676260e-02
1.448649776417007887e-02
1.448290305016306304e-02
1.447930733573914684e-02
1.447571062162208988e-02
1.447211290853597267e-02
1.446851419720520358e-02
1.446491448835452061e-02
1.446131378270899999e-02
1.445771208099405104e-02
1.445410938393541615e-02
1.445050569225917944e-02
1.444690100669176851e-02
1.444329532795994922e-02
1.443968865679082572e-02
1.443608099391185430e-02
1.443247234005083993e-02
1.442886269593594319e-02
1.442525206229568029e-02
1.442164043985891958e-02
1.441802782935488157e-02
1.441441423151313198e-02
1.441079964706357824e-02
1.440718407673647651e-02
1.440356752126243159e-02
1.439994998137240738e-02
1.439633145779772687e-02
1.439271195127007907e-02
1.438909146252150169e-02
1.438546999228440190e-02
1.438184754129154079e-02
1.437822411027604372e-02
1.437459969997139687e-02
1.437097431111145247e-02
1.436734794443042876e-02
1.436372060066289785e-02
1.436009228054380138e-02
1.435646298480845219e-02
1.435283271419253437e-02
1.434920146943209802e-02
1.434556925126356797e-02
1.434193606042372983e-02
1.433830189764974394e-02
1.433466676367914014e-02
1.433103065924982641e-02
1.432739358510008894e-02
1.432375554196859378e-02
1.432011653059437999e-02
1.431647655171686649e-02
1.431283560607584868e-02
1.430919369441150009e-02
1.430555081746438459e-02
1.430190697597544941e-02
1.429826217068602169e-02
1.429461640233782235e-02
1.429096967167295222e-02
1.428732197943390070e-02
1.428367332636354750e-02
1.428002371320516439e-02
1.427637314070241345e-02
1.427272160959935400e-02
1.426906912064043222e-02
1.426541567457047591e-02
1.426176127213470840e-02
1.425810591407874854e-02
1.425444960114860375e-02
1.425079233409068391e-02
1.424713411365180309e-02
1.424347494057917607e-02
1.423981481562042531e-02
1.423615373952356704e-02
1.423249171303702688e-02
1.422882873690963119e-02
1.422516481189062092e-02
1.422149993872964119e-02
1.421783411817674307e-02
1.421416735098238182e-02
1.421049963789741861e-02
1.420683097967312923e-02
1.420316137706120231e-02
1.419949083081374283e-02
1.419581934168325822e-02
1.419214691042266357e-02
1.418847353778527817e-02
1.418479922452482722e-02
1.418112397139545400e-02
1.417744777915171984e-02
1.417377064854860071e-02
1.417009258034148539e-02
1.416641357528618944e-02
1.416273363413893781e-02
1.415905275765637177e-02
1.415537094659555066e-02
1.415168820171394323e-02
1.414800452376943456e-02
1.414431991352032951e-02
1.414063437172535104e-02
1.413694789914364189e-02
1.413326049653476635e-02
1.412957216465871545e-02
1.412588290427590175e-02
1.412219271614715936e-02
1.411850160103374392e-02
1.411480955969732914e-02
1.411111659290002068e-02
1.410742270140434053e-02
1.410372788597323568e-02
1.410003214737007293e-02
1.409633548635864410e-02
1.409263790370317987e-02
1.408893940016833247e-02
1.408523997651918262e-02
1.408153963352124470e-02
1.407783837194046157e-02
1.407413619254320632e-02
1.407043309609628916e-02
1.406672908336695053e-02
1.406302415512284722e-02
1.405931831213207486e-02
1.405561155516316281e-02
1.405190388498507234e-02
1.404819530236720189e-02
1.404448580807938184e-02
1.404077540289187798e-02
1.403706408757539846e-02
1.403335186290109206e-02
1.402963872964054122e-02
1.402592468856578463e-02
1.402220974044929118e-02
1.401849388606397212e-02
1.401477712618318106e-02
1.401105946158071568e-02
1.400734089303081083e-02
1.400362142130814717e-02
1.399990104718785121e-02
1.399617977144550045e-02
1.399245759485711130e-02
1.398873451819914078e-02
1.398501054224848654e-02
1.398128566778249204e-02
1.397755989557893964e-02
1.397383322641605405e-02
1.397010566107250232e-02
1.396637720032739734e-02
1.396264784496029261e-02
1.395891759575118574e-02
1.395518645348052360e-02
1.395145441892919370e-02
1.394772149287852592e-02
1.394398767611028725e-02
1.394025296940669574e-02
1.393651737355041352e-02
1.393278088932455201e-02
1.392904351751266673e-02
1.392530525889876594e-02
1.392156611426730202e-02
1.391782608440318703e-02
1.391408517009178579e-02
1.391034337211892111e-02
1.390660069127087548e-02
1.390285712833438415e-02
1.389911268409663343e-02
1.389536735934525022e-02
1.389162115486831592e-02
1.388787407145435776e-02
1.388412610989236441e-02
1.388037727097177730e-02
1.387662755548249235e-02
1.387287696421486173e-02
1.386912549795968341e-02
1.386537315750820815e-02
1.386161994365214291e-02
1.385786585718365785e-02
1.385411089889538455e-02
1.385035506958040910e-02
1.384659837003227208e-02
1.384284080104496856e-02
1.383908236341295679e-02
1.383532305793114606e-02
1.383156288539490013e-02
1.382780184660003554e-02
1.382403994234282507e-02
1.382027717341999251e-02
1.381651354062872483e-02
1.381274904476665830e-02
1.380898368663188540e-02
1.380521746702296007e-02
1.380145038673889248e-02
1.379768244657915595e-02
1.379391364734367312e-02
1.379014398983282458e-02
1.378637347484744022e-02
1.378260210318880442e-02
1.377882987565865087e-02
1.377505679305916428e-02
1.377128285619298557e-02
1.376750806586320326e-02
1.376373242287336901e-02
1.375995592802749072e-02
1.375617858213003253e-02
1.375240038598590959e-02
1.374862134040048638e-02
1.374484144617958876e-02
1.374106070412949715e-02
1.373727911505695509e-02
1.373349667976917106e-02
1.372971339907380281e-02
1.372592927377896954e-02
1.372214430469323801e-02
1.371835849262564334e-02
1.371457183838568385e-02
1.371078434278331405e-02
1.370699600662894299e-02
1.370320683073343593e-02
1.369941681590812824e-02
1.369562596296480805e-02
1.369183427271572322e-02
1.368804174597357780e-02
1.368424838355152516e-02
1.368045418626317143e-02
1.367665915492258244e-02
1.367286329034427157e-02
1.366906659334320498e-02
1.366526906473480851e-02
1.366147070533496946e-02
1.365767151596002961e-02
1.365387149742678351e-02
1.365007065055249061e-02
1.364626897615485619e-02
1.364246647505204524e-02
1.363866314806267376e-02
1.363485899600581745e-02
1.363105401970100480e-02
1.362724821996821357e-02
1.362344159762788470e-02
1.361963415350091883e-02
1.361582588840867629e-02
1.361201680317297366e-02
1.360820689861607508e-02
1.360439617556070090e-02
1.360058463483002945e-02
1.359677227724769531e-02
1.359295910363779447e-02
1.358914511482487743e-02
1.358533031163395091e-02
1.358151469489047788e-02
1.357769826542036713e-02
1.357388102404998020e-02
1.357006297160612621e-02
1.356624410891607568e-02
1.356242443680754500e-02
1.355860395610870156e-02
1.355478266764816551e-02
1.355096057225501673e-02
1.354713767075878088e-02
1.354331396398943642e-02
1.353948945277741803e-02
1.353566413795360794e-02
1.353183802034933769e-02
1.352801110079638984e-02
1.352418338012698236e-02
1.352035485917378252e-02
1.351652553876990688e-02
1.351269541974891956e-02
1.350886450294482531e-02
1.350503278919207469e-02
1.350120027932556407e-02
1.349736697418063049e-02
1.349353287459305675e-02
1.348969798139906980e-02
1.348586229543534756e-02
1.348202581753901209e-02
1.347818854854762258e-02
1.347435048929918229e-02
1.347051164063213687e-02
1.346667200338536562e-02
1.346283157839819021e-02
1.345899036651037467e-02
1.345514836856212884e-02
1.345130558539409452e-02
1.344746201784734717e-02
1.344361766676339595e-02
1.343977253298418890e-02
1.343592661735210428e-02
1.343207992070995054e-02
1.342823244390097849e-02
1.342438418776888132e-02
1.342053515315778933e-02
1.341668534091226828e-02
1.341283475187732450e-02
1.340898338689839805e-02
1.340513124682136264e-02
1.340127833249252567e-02
1.339742464475863343e-02
1.339357018446686934e-02
1.338971495246485399e-02
1.338585894960064339e-02
1.338200217672272894e-02
1.337814463468002535e-02
1.337428632432186883e-02
1.337042724649802408e-02
1.336656740205869123e-02
1.336270679185450928e-02
1.335884541673654745e-02
1.335498327755630689e-02
1.335112037516571377e-02
1.334725671041712448e-02
1.334339228416332561e-02
1.333952709725753222e-02
1.333566115055338612e-02
1.333179444490495587e-02
1.332792698116673676e-02
1.332405876019364388e-02
1.332018978284101214e-02
1.331632004996460145e-02
1.331244956242059324e-02
1.330857832106558357e-02
1.330470632675659175e-02
1.330083358035105169e-02
1.329696008270681885e-02
1.329308583468217023e-02
1.328921083713580087e-02
1.328533509092681524e-02
1.328145859691473585e-02
1.327758135595950330e-02
1.327370336892147278e-02
1.326982463666141407e-02
1.326594516004049769e-02
1.326206493992030007e-02
1.325818397716281051e-02
1.325430227263042944e-02
1.325041982718597536e-02
1.324653664169266401e-02
1.324265271701411881e-02
1.323876805401437082e-02
1.323488265355785183e-02
1.323099651650939262e-02
1.322710964373421776e-02
1.322322203609795077e-02
1.321933369446662981e-02
1.321544461970668161e-02
1.321155481268493706e-02
1.320766427426862781e-02
1.320377300532538448e-02
1.319988100672323666e-02
1.319598827933060603e-02
1.319209482401631148e-02
1.318820064164956743e-02
1.318430573309997689e-02
1.318041009923753837e-02
1.317651374093264417e-02
1.317261665905607865e-02
1.316871885447901125e-02
1.316482032807300868e-02
1.316092108071001930e-02
1.315702111326238002e-02
1.315312042660280942e-02
1.314921902160440595e-02
1.314531689914065320e-02
1.314141406008541985e-02
1.313751050531296490e-02
1.313360623569792898e-02
1.312970125211533265e-02
1.312579555544057634e-02
1.312188914654944215e-02
1.311798202631809032e-02
1.311407419562305755e-02
1.311016565534125870e-02
1.310625640634999027e-02
1.310234644952692172e-02
1.309843578575009548e-02
1.309452441589793216e-02
1.309061234084922358e-02
1.308669956148313107e-02
1.308278607867917852e-02
1.307887189331725236e-02
1.307495700627760507e-02
1.307104141844085340e-02
1.306712513068797842e-02
1.306320814390032371e-02
1.305929045895960067e-02
1.305537207674789014e-02
1.305145299814764251e-02
1.304753322404166548e-02
1.304361275531312238e-02
1.303969159284553564e-02
1.303576973752278503e-02
1.303184719022910248e-02
1.302792395184905992e-02
1.302400002326759010e-02
1.302007540536998312e-02
1.301615009904187950e-02
1.301222410516926845e-02
1.300829742463849477e-02
1.300437005833625197e-02
1.300044200714957354e-02
1.299651327196584515e-02
1.299258385367278723e-02
1.298865375315846199e-02
1.298472297131126815e-02
1.298079150901995139e-02
1.297685936717360260e-02
1.297292654666165265e-02
1.296899304837387072e-02
1.296505887320036944e-02
1.296112402203159625e-02
1.295718849575832471e-02
1.295325229527166840e-02
1.294931542146308089e-02
1.294537787522434709e-02
1.294143965744758672e-02
1.293750076902524734e-02
1.293356121085009920e-02
1.292962098381523345e-02
1.292568008881405869e-02
1.292173852674029927e-02
1.291779629848799696e-02
1.291385340495152488e-02
1.290990984702557534e-02
1.290596562560516504e-02
1.290202074158563160e-02
1.289807519586263183e-02
1.289412898933213827e-02
1.289018212289043917e-02
1.288623459743414544e-02
1.288228641386017503e-02
1.287833757306575642e-02
1.287438807594843554e-02
1.287043792340606882e-02
1.286648711633682149e-02
1.286253565563918143e-02
1.285858354221194357e-02
1.285463077695420814e-02
1.285067736076536682e-02
1.284672329454511486e-02
1.284276857919344934e-02
1.283881321561068309e-02
1.283485720469743595e-02
1.283090054735461921e-02
1.282694324448343560e-02
1.282298529698539143e-02
1.281902670576229482e-02
1.281506747171624362e-02
1.281110759574962364e-02
1.280714707876511038e-02
1.280318592166567078e-02
1.279922412535457188e-02
1.279526169073537563e-02
1.279129861871192327e-02
1.278733491018833705e-02
1.278337056606901855e-02
1.277940558725864685e-02
1.277543997466218557e-02
1.277147372918488802e-02
1.276750685173229545e-02
1.276353934321021628e-02
1.275957120452473822e-02
1.275560243658223347e-02
1.275163304028934311e-02
1.274766301655298403e-02
1.274369236628034897e-02
1.273972109037890300e-02
1.273574918975637835e-02
1.273177666532077437e-02
1.272780351798036627e-02
1.272382974864369638e-02
1.271985535821958113e-02
1.271588034761709715e-02
1.271190471774558128e-02
1.270792846951463578e-02
1.270395160383413352e-02
1.269997412161421105e-02
1.269599602376526512e-02
1.269201731119794403e-02
1.268803798482314935e-02
1.268405804555203416e-02
1.268007749429600831e-02
1.267609633196673836e-02
1.267211455947614591e-02
1.266813217773639887e-02
1.266414918765991840e-02
1.266016559015938243e-02
1.265618138614771002e-02
1.265219657653806479e-02
1.264821116224386019e-02
1.264422514417875426e-02
1.264023852325665657e-02
1.263625130039172997e-02
1.263226347649837496e-02
1.262827505249123315e-02
1.262428602928518558e-02
1.262029640779534743e-02
1.261630618893707506e-02
1.261231537362595551e-02
1.260832396277781174e-02
1.260433195730870266e-02
1.260033935813492829e-02
1.259634616617302111e-02
1.259235238233975991e-02
1.258835800755214729e-02
1.258436304272742175e-02
1.258036748878305772e-02
1.257637134663675861e-02
1.257237461720644815e-02
1.256837730141027558e-02
1.256437940016661391e-02
1.256038091439406514e-02
1.255638184501144117e-02
1.255238219293777595e-02
1.254838195909232200e-02
1.254438114439454348e-02
1.254037974976412138e-02
1.253637777612095876e-02
1.253237522438516681e-02
1.252837209547707879e-02
1.252436839031724133e-02
1.252036410982642657e-02
1.251635925492561828e-02
1.251235382653601014e-02
1.250834782557900225e-02
1.250434125297620810e-02
1.250033410964944240e-02
1.249632639652073149e-02
1.249231811451230467e-02
1.248830926454659422e-02
1.248429984754623363e-02
1.248028986443405070e-02
1.247627931613307269e-02
1.247226820356652464e-02
1.246825652765782069e-02
1.246424428933057098e-02
1.246023148950857473e-02
1.245621812911582374e-02
1.245220420907650234e-02
1.244818973031498049e-02
1.244417469375582418e-02
1.244015910032378672e-02
1.243614295094381053e-02
1.243212624654102712e-02
1.242810898804075186e-02
1.242409117636848227e-02
1.242007281244989284e-02
1.241605389721084189e-02
1.241203443157736300e-02
1.240801441647566838e-02
1.240399385283214029e-02
1.239997274157333788e-02
1.239595108362599035e-02
1.239192887991699514e-02
1.238790613137341796e-02
1.238388283892249281e-02
1.237985900349162366e-02
1.237583462600838971e-02
1.237180970740054016e-02
1.236778424859599247e-02
1.236375825052283758e-02
1.235973171410933991e-02
1.235570464028393038e-02
1.235167702997519087e-02
1.234764888411187152e-02
1.234362020362288204e-02
1.233959098943729175e-02
1.233556124248432265e-02
1.233153096369335455e-02
1.232750015399393037e-02
1.232346881431575607e-02
1.231943694558869373e-02
1.231540454874275291e-02
1.231137162470808538e-02
1.230733817441498519e-02
1.230330419879388515e-02
1.229926969877537420e-02
1.229523467529018699e-02
1.229119912926921084e-02
1.228716306164347877e-02
1.228312647334416779e-02
1.227908936530259718e-02
1.227505173845022841e-02
1.227101359371865659e-02
1.226697493203960862e-02
1.226293575434495020e-02
1.225889606156668407e-02
1.225485585463694134e-02
1.225081513448798148e-02
1.224677390205219062e-02
1.224273215826208669e-02
1.223868990405031776e-02
1.223464714034966025e-02
1.223060386809301375e-02
1.222656008821340103e-02
1.222251580164396972e-02
1.221847100931799067e-02
1.221442571216886652e-02
1.221037991113011617e-02
1.220633360713538167e-02
1.220228680111842649e-02
1.219823949401312516e-02
1.219419168675346318e-02
1.219014338027353539e-02
1.218609457550755282e-02
1.218204527338983580e-02
1.217799547485481741e-02
1.217394518083704177e-02
1.216989439227115707e-02
1.216584311009191559e-02
1.216179133523417888e-02
1.215773906863290912e-02
1.215368631122317605e-02
1.214963306394015348e-02
1.214557932771911063e-02
1.214152510349541386e-02
1.213747039220452496e-02
1.213341519478199938e-02
1.212935951216348451e-02
1.212530334528471275e-02
1.212124669508150843e-02
1.211718956248979649e-02
1.211313194844559384e-02
1.210907385388499888e-02
1.210501527974419678e-02
1.210095622695946289e-02
1.209689669646716974e-02
1.209283668920377135e-02
1.208877620610579635e-02
1.208471524810985319e-02
1.208065381615263355e-02
1.207659191117090719e-02
1.207252953410151326e-02
1.206846668588137071e-02
1.206440336744747308e-02
1.206033957973688849e-02
1.205627532368675446e-02
1.205221060023428312e-02
1.204814541031675769e-02
1.204407975487153774e-02
1.204001363483605397e-02
1.203594705114780124e-02
1.203188000474435249e-02
1.202781249656335004e-02
1.202374452754249867e-02
1.201967609861955694e-02
1.201560721073234930e-02
1.201153786481875922e-02
1.200746806181672045e-02
1.200339780266422747e-02
1.199932708829933546e-02
1.199525591966014819e-02
1.199118429768481625e-02
1.198711222331154055e-02
1.198303969747857751e-02
1.197896672112423039e-02
1.197489329518685620e-02
1.197081942060486751e-02
1.196674509831672194e-02
1.196267032926091184e-02
1.195859511437597118e-02
1.195451945460046864e-02
1.195044335087301450e-02
1.194636680413225897e-02
1.194228981531689042e-02
1.193821238536562669e-02
1.193413451521722554e-02
1.193005620581048462e-02
1.192597745808422240e-02
1.192189827297728336e-02
1.191781865142854842e-02
1.191373859437692105e-02
1.190965810276132728e-02
1.190557717752072607e-02
1.190149581959410070e-02
1.189741402992044485e-02
1.189333180943876259e-02
1.188924915908808055e-02
1.188516607980743926e-02
1.188108257253589310e-02
1.187699863821251554e-02
1.187291427777640955e-02
1.186882949216670063e-02
1.186474428232252298e-02
1.186065864918301599e-02
1.185657259368733119e-02
1.185248611677463225e-02
1.184839921938409327e-02
1.184431190245489179e-02
1.184022416692621232e-02
1.183613601373723762e-02
1.183204744382715043e-02
1.182795845813513005e-02
1.182386905760034884e-02
1.181977924316198088e-02
1.181568901575919678e-02
1.181159837633116716e-02
1.180750732581705743e-02
1.180341586515601567e-02
1.179932399528717431e-02
1.179523171714965193e-02
1.179113903168254457e-02
1.178704593982493436e-02
1.178295244251588783e-02
1.177885854069446112e-02
1.177476423529970513e-02
1.177066952727064998e-02
1.176657441754629801e-02
1.176247890706563597e-02
1.175838299676763322e-02
1.175428668759123489e-02
1.175018998047536178e-02
1.174609287635890696e-02
1.174199537618073400e-02
1.173789748087967870e-02
1.173379919139455260e-02
1.172970050866414642e-02
1.172560143362721789e-02
1.172150196722248489e-02
1.171740211038862882e-02
1.171330186406428775e-02
1.170920122918805463e-02
1.170510020669848078e-02
1.170099879753406374e-02
1.169689700263325423e-02
1.169279482293445263e-02
1.168869225937600731e-02
1.168458931289621458e-02
1.168048598443332392e-02
1.167638227492552930e-02
1.167227818531096223e-02
1.166817371652770392e-02
1.166406886951377488e-02
1.165996364520714181e-02
1.165585804454571245e-02
1.165175206846734771e-02
1.164764571790984429e-02
1.164353899381093300e-02
1.163943189710829260e-02
1.163532442873954111e-02
1.163121658964222892e-02
1.162710838075383876e-02
1.162299980301179439e-02
1.161889085735345190e-02
1.161478154471610319e-02
1.161067186603697426e-02
1.160656182225321999e-02
1.160245141430191716e-02
1.159834064312006627e-02
1.159422950964458278e-02
1.159011801481230064e-02
1.158600615955998440e-02
1.158189394482432230e-02
1.157778137154193143e-02
1.157366844064933523e-02
1.156955515308297038e-02
1.156544150977918683e-02
1.156132751167424609e-02
1.155721315970431769e-02
1.155309845480548617e-02
1.154898339791374413e-02
1.154486798996498878e-02
1.154075223189501495e-02
1.153663612463952208e-02
1.153251966913412460e-02
1.152840286631434327e-02
1.152428571711560518e-02
1.152016822247322984e-02
1.151605038332242752e-02
1.151193220059830435e-02
1.150781367523586764e-02
1.150369480817001015e-02
1.149957560033552408e-02
1.149545605266709923e-02
1.149133616609931442e-02
1.148721594156664957e-02
1.148309538000346318e-02
1.147897448234400097e-02
1.147485324952238900e-02
1.147073168247263707e-02
1.146660978212864224e-02
1.146248754942418881e-02
1.145836498529293444e-02
1.145424209066842232e-02
1.145011886648407418e-02
1.144599531367319380e-02
1.144187143316896527e-02
1.143774722590445471e-02
1.143362269281259468e-02
1.142949783482619629e-02
1.142537265287793362e-02
1.142124714790034891e-02
1.141712132082584735e-02
1.141299517258668843e-02
1.140886870411498243e-02
1.140474191634269045e-02
1.140061481020163657e-02
1.139648738662350086e-02
1.139235964653982636e-02
1.138823159088201559e-02
1.138410322058133056e-02
1.137997453656888584e-02
1.137584553977563986e-02
1.137171623113240708e-02
1.136758661156984929e-02
1.136345668201847563e-02
1.135932644340865473e-02
1.135519589667058696e-02
1.135106504273431828e-02
1.134693388252973854e-02
1.134280241698658147e-02
1.133867064703442812e-02
1.133453857360270517e-02
1.133040619762068664e-02
1.132627352001749216e-02
1.132214054172207135e-02
1.131800726366321772e-02
1.131387368676956863e-02
1.130973981196960361e-02
1.130560564019164257e-02
1.130147117236384412e-02
1.129733640941420550e-02
1.129320135227055572e-02
1.128906600186056070e-02
1.128493035911172331e-02
1.128079442495138161e-02
1.127665820030670195e-02
1.127252168610467890e-02
1.126838488327213360e-02
1.126424779273571888e-02
1.126011041542191067e-02
1.125597275225700099e-02
1.125183480416710492e-02
1.124769657207815368e-02
1.124355805691589980e-02
1.123941925960592232e-02
1.123528018107361991e-02
1.123114082224421599e-02
1.122700118404275881e-02
1.122286126739411617e-02
1.121872107322297203e-02
1.121458060245381777e-02
1.121043985601096089e-02
1.120629883481852329e-02
1.120215753980043256e-02
1.119801597188043070e-02
1.119387413198206713e-02
1.118973202102870046e-02
1.118558963994349849e-02
1.118144698964944166e-02
1.117730407106931959e-02
1.117316088512573628e-02
1.116901743274109800e-02
1.116487371483761842e-02
1.116072973233732391e-02
1.115658548616204650e-02
1.115244097723342397e-02
1.114829620647287897e-02
1.114415117480163295e-02
1.114000588314070436e-02
1.113586033241090699e-02
1.113171452353284990e-02
1.112756845742694269e-02
1.112342213501338849e-02
1.111927555721218749e-02
1.111512872494314214e-02
1.111098163912585188e-02
1.110683430067970628e-02
1.110268671052388849e-02
1.109853886957736825e-02
1.109439077875890370e-02
1.109024243898704826e-02
1.108609385118014719e-02
1.108194501625633585e-02
1.107779593513353797e-02
1.107364660872946389e-02
1.106949703796159673e-02
1.106534722374721488e-02
1.106119716700339033e-02
1.105704686864698166e-02
1.105289632959463413e-02
1.104874555076277090e-02
1.104459453306759313e-02
1.104044327742508685e-02
1.103629178475101606e-02
1.103214005596092097e-02
1.102798809197012321e-02
1.102383589369372759e-02
1.101968346204661511e-02
1.101553079794344824e-02
1.101137790229867255e-02
1.100722477602650816e-02
1.100307142004094789e-02
1.099891783525575907e-02
1.099476402258448351e-02
1.099060998294043578e-02
1.098645571723670840e-02
1.098230122638618050e-02
1.097814651130150400e-02
1.097399157289511047e-02
1.096983641207921120e-02
1.096568102976578675e-02
1.096152542686658696e-02
1.095736960429313268e-02
1.095321356295670887e-02
1.094905730376836452e-02
1.094490082763891273e-02
1.094074413547894281e-02
1.093658722819880469e-02
1.093243010670863144e-02
1.092827277191833410e-02
1.092411522473759299e-02
1.091995746607585596e-02
1.091579949684233844e-02
1.091164131794602338e-02
1.090748293029566128e-02
1.090332433479977020e-02
1.089916553236662880e-02
1.089500652390428329e-02
1.089084731032054915e-02
1.088668789252301636e-02
1.088252827141903897e-02
1.087836844791573165e-02
1.087420842291997834e-02
1.087004819733843573e-02
1.086588777207752633e-02
1.086172714804343152e-02
1.085756632614209155e-02
1.085340530727921422e-02
1.084924409236027315e-02
1.084508268229049388e-02
1.084092107797486777e-02
1.083675928031814506e-02
1.083259729022482791e-02
1.082843510859918430e-02
1.082427273634523589e-02
1.082011017436676839e-02
1.081594742356733162e-02
1.081178448485024986e-02
1.080762135911861321e-02
1.080345804727526372e-02
1.079929455022280924e-02
1.079513086886360780e-02
1.079096700409978328e-02
1.078680295683321320e-02
1.078263872796553571e-02
1.077847431839814608e-02
1.077430972903220367e-02
1.077014496076862844e-02
1.076598001450810617e-02
1.076181489115107456e-02
1.075764959159772327e-02
1.075348411674800775e-02
1.074931846750165100e-02
1.074515264475813664e-02
1.074098664941670715e-02
1.073682048237636390e-02
1.073265414453586190e-02
1.072848763679372201e-02
1.072432096004823261e-02
1.072015411519743056e-02
1.071598710313911157e-02
1.071181992477082331e-02
1.070765258098987580e-02
1.070348507269334136e-02
1.069931740077805123e-02
1.069514956614060416e-02
1.069098156967735608e-02
1.068681341228442348e-02
1.068264509485766962e-02
1.067847661829270794e-02
1.067430798348491423e-02
1.067013919132942662e-02
1.066597024272115252e-02
1.066180113855475474e-02
1.065763187972465324e-02
1.065346246712503900e-02
1.064929290164985318e-02
1.064512318419280103e-02
1.064095331564734494e-02
1.063678329690670443e-02
1.063261312886385097e-02
1.062844281241150796e-02
1.062427234844215591e-02
1.062010173784802732e-02
1.061593098152112218e-02
1.061176008035320112e-02
1.060758903523579232e-02
1.060341784706018975e-02
1.059924651671746015e-02
1.059507504509843955e-02
1.059090343309373322e-02
1.058673168159371403e-02
1.058255979148851715e-02
1.057838776366803492e-02
1.057421559902192200e-02
1.057004329843958847e-02
1.056587086281021021e-02
1.056169829302271330e-02
1.055752558996578619e-02
1.055335275452787616e-02
1.054917978759719807e-02
1.054500669006174125e-02
1.054083346280926085e-02
1.053666010672726916e-02
1.053248662270304427e-02
1.052831301162363356e-02
1.052413927437584849e-02
1.051996541184626287e-02
1.051579142492122497e-02
1.051161731448685237e-02
1.050744308142902671e-02
1.050326872663340065e-02
1.049909425098539094e-02
1.049491965537018012e-02
1.049074494067271657e-02
1.048657010777771445e-02
1.048239515756965549e-02
1.047822009093279418e-02
1.047404490875114558e-02
1.046986961190849406e-02
1.046569420128839328e-02
1.046151867777416790e-02
1.045734304224891185e-02
1.045316729559548838e-02
1.044899143869653171e-02
1.044481547243444886e-02
1.044063939769141434e-02
1.043646321534937547e-02
1.043228692629005229e-02
1.042811053139493238e-02
1.042393403154528476e-02
1.041975742762214774e-02
1.041558072050632021e-02
1.041140391107837210e-02
1.040722700021864781e-02
1.040304998880726972e-02
1.039887287772413293e-02
1.039469566784890706e-02
1.039051836006103791e-02
1.038634095523974753e-02
1.038216345426403765e-02
1.037798585801269317e-02
1.037380816736427867e-02
1.036963038319714189e-02
1.036545250638940853e-02
1.036127453781898397e-02
1.035709647836356544e-02
1.035291832890063678e-02
1.034874009030745806e-02
1.034456176346107599e-02
1.034038334923832736e-02
1.033620484851583733e-02
1.033202626217002117e-02
1.032784759107708769e-02
1.032366883611303063e-02
1.031948999815363727e-02
1.031531107807448153e-02
1.031113207675093263e-02
1.030695299505815510e-02
1.030277383387111050e-02
1.029859459406454701e-02
1.029441527651301508e-02
1.029023588209086564e-02
1.028605641167224492e-02
1.028187686613109796e-02
1.027769724634116852e-02
1.027351755317599917e-02
1.026933778750893124e-02
1.026515795021310309e-02
1.026097804216145361e-02
1.025679806422671696e-02
1.025261801728143476e-02
1.024843790219794916e-02
1.024425771984840451e-02
1.024007747110475611e-02
1.023589715683876147e-02
1.023171677792197691e-02
1.022753633522576269e-02
1.022335582962128481e-02
1.021917526197952363e-02
1.021499463317126870e-02
1.021081394406711876e-02
1.020663319553748519e-02
1.020245238845259028e-02
1.019827152368247766e-02
1.019409060209700880e-02
1.018990962456586130e-02
1.018572859195852366e-02
1.018154750514430051e-02
1.017736636499231261e-02
1.017318517237149507e-02
1.016900392815060089e-02
1.016482263319819744e-02
1.016064128838266994e-02
1.015645989457221975e-02
1.015227845263487125e-02
1.014809696343846150e-02
1.014391542785065582e-02
1.013973384673894258e-02
1.013555222097063321e-02
1.013137055141287435e-02
1.012718883893264608e-02
1.012300708439675678e-02
1.011882528867184480e-02
1.011464345262437677e-02
1.011046157712064929e-02
1.010627966302678551e-02
1.010209771120873859e-02
1.009791572253229859e-02
1.009373369786308733e-02
1.008955163806657222e-02
1.008536954400805243e-02
1.008118741655266402e-02
1.007700525656538004e-02
1.007282306491101044e-02
1.006864084245420732e-02
1.006445859005946665e-02
1.006027630859113176e-02
1.005609399891338983e-02
1.005191166189027541e-02
1.004772929838566170e-02
1.004354690926327273e-02
1.003936449538667987e-02
1.003518205761930876e-02
1.003099959682443414e-02
1.002681711386518154e-02
1.002263460960453427e-02
1.001845208490532817e-02
1.001426954063025510e-02
1.001008697764186640e-02
1.000590439680257640e-02
1.000172179897466582e-02
9.997539185020274874e-03
9.993356555801410218e-03
9.989173912179941453e-03
9.984991255017608078e-03
9.980808585176014283e-03
9.976625903516637625e-03
9.972443210900827290e-03
9.968260508189800626e-03
9.964077796244646609e-03
9.959895075926332789e-03
9.955712348095708750e-03
9.951529613613504383e-03
9.947346873340322942e-03
9.943164128136647989e-03
9.938981378862845120e-03
9.934798626379160238e-03
9.930615871545724754e-03
9.926433115222552117e-03
9.922250358269551693e-03
9.918067601546523560e-03
9.913884845913155039e-03
9.909702092229025899e-03
9.905519341353601417e-03
9.901336594146239317e-03
9.897153851466191504e-03
9.892971114172600597e-03
9.888788383124506864e-03
9.884605659180844758e-03
9.880422943200448116e-03
9.876240236042060569e-03
9.872057538564326870e-03
9.867874851625801566e-03
9.863692176084943794e-03
9.859509512800125955e-03
9.855326862629625040e-03
9.851144226431624365e-03
9.846961605064227449e-03
9.842778999385454544e-03
9.838596410253249575e-03
9.834413838525478402e-03
9.830231285059932295e-03
9.826048750714329663e-03
9.821866236346310855e-03
9.817683742813438155e-03
9.813501270973199256e-03
9.809318821683000317e-03
9.805136395800176374e-03
9.800953994181994811e-03
9.796771617685657088e-03
9.792589267168298750e-03
9.788406943486992889e-03
9.784224647498751884e-03
9.780042380060536070e-03
9.775860142029241598e-03
9.771677934261705639e-03
9.767495757614704649e-03
9.763313612944961306e-03
9.759131501109146248e-03
9.754949422963878070e-03
9.750767379365728529e-03
9.746585371171219078e-03
9.742403399236829534e-03
9.738221464418998080e-03
9.734039567574116064e-03
9.729857709558529730e-03
9.725675891228548892e-03
9.721494113440441731e-03
9.717312377050436531e-03
9.713130682914716471e-03
9.708949031889426567e-03
9.704767424830675407e-03
9.700585862594531678e-03
9.696404346037036312e-03
9.692222876014197283e-03
9.688041453381987869e-03
9.683860078996355328e-03
9.679678753713222630e-03
9.675497478388490197e-03
9.671316253878025487e-03
9.667135081037678615e-03
9.662953960723277141e-03
9.658772893790627811e-03
9.654591881095513084e-03
9.650410923493696336e-03
9.646230021840918392e-03
9.642049176992914875e-03
9.637868389805409261e-03
9.633687661134109417e-03
9.629506991834714535e-03
9.625326382762916869e-03
9.621145834774403466e-03
9.616965348724850968e-03
9.612784925469927341e-03
9.608604565865297084e-03
9.604424270766614286e-03
9.600244041029536504e-03
9.596063877509728238e-03
9.591883781062859188e-03
9.587703752544605995e-03
9.583523792810640096e-03
9.579343902716632927e-03
9.575164083118264599e-03
9.570984334871227364e-03
9.566804658831225619e-03
9.562625055853974168e-03
9.558445526795205163e-03
9.554266072510661165e-03
9.550086693856095141e-03
9.545907391687273938e-03
9.541728166859978280e-03
9.537549020230007973e-03
9.533369952653183640e-03
9.529190964985344986e-03
9.525012058082347327e-03
9.520833232800061594e-03
9.516654489994381266e-03
9.512475830521225847e-03
9.508297255236542594e-03
9.504118764996306520e-03
9.499940360656520394e-03
9.495762043073218209e-03
9.491583813102456510e-03
9.487405671600321333e-03
9.483227619422936877e-03
9.479049657426462036e-03
9.474871786467097337e-03
9.470694007401083206e-03
9.466516321084698232e-03
9.462338728374252231e-03
9.458161230126094915e-03
9.453983827196608958e-03
9.449806520442215196e-03
9.445629310719372632e-03
9.441452198884585367e-03
9.437275185794404345e-03
9.433098272305418669e-03
9.428921459274266018e-03
9.424744747557629171e-03
9.420568138012236012e-03
9.416391631494862996e-03
9.412215228862335151e-03
9.408038930971529545e-03
9.403862738679377026e-03
9.399686652842858745e-03
9.395510674319016570e-03
9.391334803964949615e-03
9.387159042637810771e-03
9.382983391194813644e-03
9.378807850493230819e-03
9.374632421390397333e-03
9.370457104743701998e-03
9.366281901410596078e-03
9.362106812248593285e-03
9.357931838115273251e-03
9.353756979868279794e-03
9.349582238365324385e-03
9.345407614464186150e-03
9.341233109022710132e-03
9.337058722898810767e-03
9.332884456950470142e-03
9.328710312035736266e-03
9.324536289012735207e-03
9.320362388739665896e-03
9.316188612074801853e-03
9.312014959876487724e-03
9.307841433003137543e-03
9.303668032313243408e-03
9.299494758665377211e-03
9.295321612918183707e-03
9.291148595930380505e-03
9.286975708560759810e-03
9.282802951668197092e-03
9.278630326111651089e-03
9.274457832750172478e-03
9.270285472442896940e-03
9.266113246049041685e-03
9.261941154427903722e-03
9.257769198438856387e-03
9.253597378941347609e-03
9.249425696794905116e-03
9.245254152859146840e-03
9.241082747993773980e-03
9.236911483058576205e-03
9.232740358913436862e-03
9.228569376418327766e-03
9.224398536433302265e-03
9.220227839818502177e-03
9.216057287434166467e-03
9.211886880140624304e-03
9.207716618798295061e-03
9.203546504267688319e-03
9.199376537409409069e-03
9.195206719084162914e-03
9.191037050152743929e-03
9.186867531476039864e-03
9.182698163915033879e-03
9.178528948330813217e-03
9.174359885584555327e-03
9.170190976537543476e-03
9.166022222051152871e-03
9.161853622986852394e-03
9.157685180206215012e-03
9.153516894570919507e-03
9.149348766942740074e-03
9.145180798183551521e-03
9.141012989155331003e-03
9.136845340720156292e-03
9.132677853740210974e-03
9.128510529077787927e-03
9.124343367595284110e-03
9.120176370155197096e-03
9.116009537620126807e-03
9.111842870852782453e-03
9.107676370715975592e-03
9.103510038072621866e-03
9.099343873785747938e-03
9.095177878718486292e-03
9.091012053734078696e-03
9.086846399695879678e-03
9.082680917467354786e-03
9.078515607912085797e-03
9.074350471893762038e-03
9.070185510276182125e-03
9.066020723923255697e-03
9.061856113699001680e-03
9.057691680467553491e-03
9.053527425093159040e-03
9.049363348440182461e-03
9.045199451373105853e-03
9.041035734756527539e-03
9.036872199455160334e-03
9.032708846333841954e-03
9.028545676257535013e-03
9.024382690091318354e-03
9.020219888700385311e-03
9.016057272950043708e-03
9.011894843705721067e-03
9.007732601832968075e-03
9.003570548197453380e-03
8.999408683664961855e-03
8.995247009101399807e-03
8.991085525372794970e-03
8.986924233345299981e-03
8.982763133885185436e-03
8.978602227858843363e-03
8.974441516132782015e-03
8.970280999573631078e-03
8.966120679048146871e-03
8.961960555423203675e-03
8.957800629565798936e-03
8.953640902343056734e-03
8.949481374622224317e-03
8.945322047270673829e-03
8.941162921155898849e-03
8.937003997145517853e-03
8.932845276107279422e-03
8.928686758909063978e-03
8.924528446418885513e-03
8.920370339504881188e-03
8.916212439035316531e-03
8.912054745878587175e-03
8.907897260903217124e-03
8.903739984977857014e-03
8.899582918971282383e-03
8.895426063752398874e-03
8.891269420190240497e-03
8.887112989153969633e-03
8.882956771512883973e-03
8.878800768136407839e-03
8.874644979894088723e-03
8.870489407655604217e-03
8.866334052290762019e-03
8.862178914669499932e-03
8.858023995661887598e-03
8.853869296138117823e-03
8.849714816968511782e-03
8.845560559023522493e-03
8.841406523173733073e-03
8.837252710289860216e-03
8.833099121242748986e-03
8.828945756903379752e-03
8.824792618142862990e-03
8.820639705832442751e-03
8.816487020843494921e-03
8.812334564047534166e-03
8.808182336316203523e-03
8.804030338521277865e-03
8.799878571534658703e-03
8.795727036228379384e-03
8.791575733474605095e-03
8.787424664145627659e-03
8.783273829113875941e-03
8.779123229251907176e-03
8.774972865432408703e-03
8.770822738528197965e-03
8.766672849412232918e-03
8.762523198957608561e-03
8.758373788037549998e-03
8.754224617525408966e-03
8.750075688294677717e-03
8.745927001218982075e-03
8.741778557172071029e-03
8.737630357027820205e-03
8.733482401660235331e-03
8.729334691943459179e-03
8.725187228751773300e-03
8.721040012959594551e-03
8.716893045441478569e-03
8.712746327072109359e-03
8.708599858726295828e-03
8.704453641278985659e-03
8.700307675605254906e-03
8.696161962580313196e-03
8.692016503079500259e-03
8.687871297978287666e-03
8.683726348152275357e-03
8.679581654477193375e-03
8.675437217828905340e-03
8.671293039083408441e-03
8.667149119116833444e-03
8.663005458805446424e-03
8.658862059025652230e-03
8.654718920653984085e-03
8.650576044567107048e-03
8.646433431641816283e-03
8.642291082755037060e-03
8.638148998783828220e-03
8.634007180605378709e-03
8.629865629097007579e-03
8.625724345136162249e-03
8.621583329600423715e-03
8.617442583367501338e-03
8.613302107315232853e-03
8.609161902321584361e-03
8.605021969264652071e-03
8.600882309022664027e-03
8.596742922473978379e-03
8.592603810497081648e-03
8.588464973970593927e-03
8.584326413773270617e-03
8.580188130783995490e-03
8.576050125881777217e-03
8.571912399945754574e-03
8.567774953855203379e-03
8.563637788489526087e-03
8.559500904728260459e-03
8.555364303451077831e-03
8.551227985537772705e-03
8.547091951868261012e-03
8.542956203322590522e-03
8.538820740780937377e-03
8.534685565123609555e-03
8.530550677231043405e-03
8.526416077983803646e-03
8.522281768262576426e-03
8.518147748948178000e-03
8.514014020921547785e-03
8.509880585063746630e-03
8.505747442255960286e-03
8.501614593379492463e-03
8.497482039315764832e-03
8.493349780946322231e-03
8.489217819152822253e-03
8.485086154817047394e-03
8.480954788820901577e-03
8.476823722046408424e-03
8.472692955375712986e-03
8.468562489691085216e-03
8.464432325874913024e-03
8.460302464809705755e-03
8.456172907378090714e-03
8.452043654462814901e-03
8.447914706946738073e-03
8.443786065712841418e-03
8.439657731644225822e-03
8.435529705624111863e-03
8.431401988535829409e-03
8.427274581262826289e-03
8.423147484688671763e-03
8.419020699697047846e-03
8.414894227171756252e-03
8.410768067996709715e-03
8.406642223055933727e-03
8.402516693233566536e-03
8.398391479413866087e-03
8.394266582481201347e-03
8.390142003320048836e-03
8.386017742814999565e-03
8.381893801850755568e-03
8.377770181312133371e-03
8.373646882084057053e-03
8.369523905051558244e-03
8.365401251099774393e-03
8.361278921113947035e-03
8.357156915979420050e-03
8.353035236581639669e-03
8.348913883806156205e-03
8.344792858538618852e-03
8.340672161664773945e-03
8.336551794070471907e-03
8.332431756641670711e-03
8.328312050264435884e-03
8.324192675824935300e-03
8.320073634209440919e-03
8.315954926304320108e-03
8.311836552996040850e-03
8.307718515171171741e-03
8.303600813716381993e-03
8.299483449518441427e-03
8.295366423464220484e-03
8.291249736440679807e-03
8.287133389334880654e-03
8.283017383033979691e-03
8.278901718425223794e-03
8.274786396395951774e-03
8.270671417833596120e-03
8.266556783625681262e-03
8.262442494659823569e-03
8.258328551823733085e-03
8.254214956005210060e-03
8.250101708092148420e-03
8.245988808972535763e-03
8.241876259534448163e-03
8.237764060666053628e-03
8.233652213255610378e-03
8.229540718191461629e-03
8.225429576362037337e-03
8.221318788655848989e-03
8.217208355961489602e-03
8.213098279167637197e-03
8.208988559163049592e-03
8.204879196836560931e-03
8.200770193077088627e-03
8.196661548773636827e-03
8.192553264815286007e-03
8.188445342091191237e-03
8.184337781490580443e-03
8.180230583902757882e-03
8.176123750217107605e-03
8.172017281323091728e-03
8.167911178110248693e-03
8.163805441468188068e-03
8.159700072286595746e-03
8.155595071455227010e-03
8.151490439863908269e-03
8.147386178402543991e-03
8.143282287961113239e-03
8.139178769429662730e-03
8.135075623698305100e-03
8.130972851657220640e-03
8.126870454196650356e-03
8.122768432206899439e-03
8.118666786578342467e-03
8.114565518201421676e-03
8.110464627966636544e-03
8.106364116764543798e-03
8.102263985485773021e-03
8.098164235021012777e-03
8.094064866261007143e-03
8.089965880096557441e-03
8.085867277418522236e-03
8.081769059117808671e-03
8.077671226085377659e-03
8.073573779212240425e-03
8.069476719389465438e-03
8.065380047508173209e-03
8.061283764459534554e-03
8.057187871134767129e-03
8.053092368425140632e-03
8.048997257221971596e-03
8.044902538416619925e-03
8.040808212900492358e-03
8.036714281565042473e-03
8.032620745301772419e-03
8.028527605002231185e-03
8.024434861558009391e-03
8.020342515860744495e-03
8.016250568802108650e-03
8.012159021273806969e-03
8.008067874167587932e-03
8.003977128375238184e-03
7.999886784788582533e-03
7.995796844299485687e-03
7.991707307799848781e-03
7.987618176181598972e-03
7.983529450336696379e-03
7.979441131157130607e-03
7.975353219534925958e-03
7.971265716362137960e-03
7.967178622530855098e-03
7.963091938933188410e-03
7.959005666461274955e-03
7.954919806007274344e-03
7.950834358463375676e-03
7.946749324721802746e-03
7.942664705674803635e-03
7.938580502214648976e-03
7.934496715233633687e-03
7.930413345624080443e-03
7.926330394278334468e-03
7.922247862088763540e-03
7.918165749947754517e-03
7.914084058747718545e-03
7.910002789381091054e-03
7.905921942740324823e-03
7.901841519717893447e-03
7.897761521206287869e-03
7.893681948098009438e-03
7.889602801285568179e-03
7.885524081661487994e-03
7.881445790118301459e-03
7.877367927548551557e-03
7.873290494844788212e-03
7.869213492899570020e-03
7.865136922605464251e-03
7.861060784855043379e-03
7.856985080540888552e-03
7.852909810555587858e-03
7.848834975791739790e-03
7.844760577141949784e-03
7.840686615498821538e-03
7.836613091754962221e-03
7.832540006802985941e-03
7.828467361535505070e-03
7.824395156845121574e-03
7.820323393624439151e-03
7.816252072766056297e-03
7.812181195162567170e-03
7.808110761706558121e-03
7.804040773290610300e-03
7.799971230807301384e-03
7.795902135149201245e-03
7.791833487208867613e-03
7.787765287878849543e-03
7.783697538051687417e-03
7.779630238619912076e-03
7.775563390476038748e-03
7.771496994512573121e-03
7.767431051622005270e-03
7.763365562696808789e-03
7.759300528629446865e-03
7.755235950312371410e-03
7.751171828638021323e-03
7.747108164498814689e-03
7.743044958787155714e-03
7.738982212395431257e-03
7.734919926216002155e-03
7.730858101141211899e-03
7.726796738063380562e-03
7.722735837874803930e-03
7.718675401467755236e-03
7.714615429734485164e-03
7.710555923567217508e-03
7.706496883858148308e-03
7.702438311499444981e-03
7.698380207383245452e-03
7.694322572401664229e-03
7.690265407446788062e-03
7.686208713410672480e-03
7.682152491185343518e-03
7.678096741662796855e-03
7.674041465734994343e-03
7.669986664293863138e-03
7.665932338231295703e-03
7.661878488439151542e-03
7.657825115809251994e-03
7.653772221233387171e-03
7.649719805603305556e-03
7.645667869810716596e-03
7.641616414747293314e-03
7.637565441304667961e-03
7.633514950374430293e-03
7.629464942848120622e-03
7.625415419617233292e-03
7.621366381573218413e-03
7.617317829607484457e-03
7.613269764611394798e-03
7.609222187476259898e-03
7.605175099093343383e-03
7.601128500353861173e-03
7.597082392148979749e-03
7.593036775369819621e-03
7.588991650907448393e-03
7.584947019652879888e-03
7.580902882497069818e-03
7.576859240330920987e-03
7.572816094045285891e-03
7.568773444530963249e-03
7.564731292678698003e-03
7.560689639379179587e-03
7.556648485523047992e-03
7.552607832000883363e-03
7.548567679703207731e-03
7.544528029520481544e-03
7.540488882343103667e-03
7.536450239061409651e-03
7.532412100565674326e-03
7.528374467746104005e-03
7.524337341492835611e-03
7.520300722695936677e-03
7.516264612245407949e-03
7.512229011031182520e-03
7.508193919943128430e-03
7.504159339871044332e-03
7.500125271704656017e-03
7.496091716333622493e-03
7.492058674647530774e-03
7.488026147535895016e-03
7.483994135888156519e-03
7.479962640593680254e-03
7.475931662541757464e-03
7.471901202621603934e-03
7.467871261722352182e-03
7.463841840733061866e-03
7.459812940542718922e-03
7.455784562040226882e-03
7.451756706114410350e-03
7.447729373654012400e-03
7.443702565547696305e-03
7.439676282684039473e-03
7.435650525951540378e-03
