2.450014608378637063e-02
2.514797687779468660e-02
2.577822761670843163e-02
2.639209228057814646e-02
2.699086262205502296e-02
2.757590611965710439e-02
2.814864345666513376e-02
2.871052588336935746e-02
2.926301276723695596e-02
2.980754980906106036e-02
3.034554819717577914e-02
3.087836500264849043e-02
3.140728521565377268e-02
3.193350560767638929e-02
3.245812073323909447e-02
3.298211122577304755e-02
3.350633461811299701e-02
3.403151871054197614e-02
3.455825759330060504e-02
3.508701033789674018e-02
3.561810229853490384e-02
3.615172898528915685e-02
3.668796223997455169e-02
3.722675872045039941e-02
3.776797031177536040e-02
3.831135624968689396e-02
3.885659665669754376e-02
3.940330716878850253e-02
3.995105430747235287e-02
4.049937124022475604e-02
4.104777348390863806e-02
4.159577429026249662e-02
4.214289925820282473e-02
4.268869992076365638e-02
4.323276585456553578e-02
4.377473511613356322e-02
4.431430267928872235e-02
4.485122669915932170e-02
4.538533241614234326e-02
4.591651348948978112e-02
4.644473080001550180e-02
4.697000863611841548e-02
4.749242824213739667e-02
4.801211894761546473e-02
4.852924695717782122e-02
4.904400184079544395e-02
4.955658121933651655e-02
5.006717379356916131e-02
5.057594109319921150e-02
5.108299825345965356e-02
5.158839423149170350e-02
5.209209186995540641e-02
5.259394825303696785e-02
5.309369571792654091e-02
5.359092405445837343e-02
5.408506421802358743e-02
5.457537391607555910e-02
5.506092555210558015e-02
5.554059677014087232e-02
5.601306395695372642e-02
5.647679889519631458e-02
5.693006881002400654e-02
5.737093989923121307e-02
5.779728446313216889e-02
5.820679160761740856e-02
5.859698157482243902e-02
5.896522352058256033e-02
5.930875655588705581e-02
5.962471388654072557e-02
5.991014977608390135e-02
6.016206882348094226e-02
6.037745739759980967e-02
6.055331670999652971e-02
6.068669703541747229e-02
6.077473267182278982e-02
6.081467696106002130e-02
6.080393708030865096e-02
6.074010795094905713e-02
6.062100473756710378e-02
6.044469347792566505e-02
6.020951937270131726e-02
5.991413220731755390e-02
5.955750858132977804e-02
5.913897050514094200e-02
5.865820006530241687e-02
5.811524987353642452e-02
5.751054917805526606e-02
5.684490532212092828e-02
5.611950063906207681e-02
5.533588470680771143e-02
5.449596188916375206e-02
5.360197448240820728e-02
5.265648152841692631e-02
5.166233358659386155e-02
5.062264372670428197e-02
4.954075505439652777e-02
4.842020526458600677e-02
4.726468860335137495e-02
4.607801572570098536e-02
4.486407190398535721e-02
4.362677424097691908e-02
4.237002829835448403e-02
4.109768470644692417e-02
3.981349632573402686e-02
3.852107652022222078e-02
3.722385899557952710e-02
3.592505966533034861e-02
3.462764110238081283e-02
3.333427992649174582e-02
3.204733759611323035e-02
3.076883483418086859e-02
2.950043003248403392e-02
2.824340199021287134e-02
2.699863698804000692e-02
2.576662041177305712e-02
2.454743303598314400e-02
2.334075189272157708e-02
2.214585589407639526e-02
2.096163588091105520e-02
1.978660912346824272e-02
1.861893798699375616e-02
1.745645274836167896e-02
1.629667801110255484e-02
1.513686259480376620e-02
1.397401253995120100e-02
1.280492681679867156e-02
1.162623545503901554e-02
1.043443953022758254e-02
9.225952878573787444e-03
7.997144812096547428e-03
6.744383539507253604e-03
5.464079889464471852e-03
4.152730881089207980e-03
2.806962764158021668e-03
1.423573095336797293e-03
-4.285471424166744771e-07
-1.467781582462824100e-03
-2.980937408282082531e-03
-4.542024782608186130e-03
-6.152817892675923293e-03
-7.814707382172693395e-03
-9.528674555000737206e-03
-1.129526905240754893e-02
-1.311459007785390971e-02
-1.498627142797087815e-02
-1.690947043543506931e-02
-1.888286090507704240e-02
-2.090463014652515703e-02
-2.297248012730662009e-02
-2.508363278939138366e-02
-2.723483951042033474e-02
-2.942239463946363237e-02
-3.164215300419088994e-02
-3.388955143191286351e-02
-3.615963395074242581e-02
-3.844708068358078379e-02
-4.074624016313333624e-02
-4.305116491622949793e-02
-4.535564992391569183e-02
-4.765327386006347476e-02
-4.993744278898204492e-02
-5.220143587912993294e-02
-5.443845299097957446e-02
-5.664166352582583608e-02
-5.880425642691395477e-02
-6.091949072311014790e-02
-6.298074625975186303e-02
-6.498157424701501983e-02
-6.691574704352774849e-02
-6.877730695539059635e-02
-7.056061342763357558e-02
-7.226038819295478588e-02
-7.387175797347342310e-02
-7.539029425314631994e-02
-7.681204983513907625e-02
-7.813359165905969794e-02
-7.935202953758788147e-02
-8.046504046501200269e-02
-8.147088816402554834e-02
-8.236843769592222531e-02
-8.315716475833172250e-02
-8.383715966175592227e-02
-8.440912566384520255e-02
-8.487437174856234112e-02
-8.523479971996009152e-02
-8.549288571365876166e-02
-8.565165625247098125e-02
-8.571465886008820811e-02
-8.568592770622250610e-02
-8.556994439725663926e-02
-8.537159424801522845e-02
-8.509611847372489102e-02
-8.474906295224390873e-02
-8.433622376474537996e-02
-8.386359020355978189e-02
-8.333728585899642660e-02
-8.276350846235619452e-02
-8.214846904299615005e-02
-8.149833105222026308e-02
-8.081915017220481223e-02
-8.011681561646746830e-02
-7.939699342069872490e-02
-7.866507245067168308e-02
-7.792611377725457145e-02
-7.718480397643820434e-02
-7.644541297812086633e-02
-7.571175693687598462e-02
-7.498716654796290515e-02
-7.427446124362251101e-02
-7.357592953244808387e-02
-7.289331574649642043e-02
-7.222781342202755361e-02
-7.158006528727053897e-02
-7.095016997882272469e-02
-7.033769523100427690e-02
-6.974169750291300818e-02
-6.916074774264577285e-02
-6.859296288958754984e-02
-6.803604286102196697e-02
-6.748731237781893655e-02
-6.694376714346854385e-02
-6.640212375091325558e-02
-6.585887272448757990e-02
-6.531033388782635229e-02
-6.475271346276163797e-02
-6.418216208990210059e-02
-6.359483295292697735e-02
-6.298693934680046902e-02
-6.235481087857846355e-02
-6.169494765356626359e-02
-6.100407164747904259e-02
-6.027917468615755225e-02
-5.951756245001712381e-02
-5.871689381175677902e-02
-5.787521523332590095e-02
-5.699098964212450519e-02
-5.606311962865677401e-02
-5.509096453934152898e-02
-5.407435139604330199e-02
-5.301357958157873473e-02
-5.190941933117688284e-02
-5.076310400583074894e-02
-4.957631647594334251e-02
-4.835116981185834384e-02
-4.709018260918314963e-02
-4.579624942976801699e-02
-4.447260674693779420e-02
-4.312279498769362729e-02
-4.175061724530917256e-02
-4.036009529762572129e-02
-3.895542347716316606e-02
-3.754092121984276692e-02
-3.612098482773221791e-02
-3.470003920424159088e-02
-3.328249016059934423e-02
-3.187267797746677622e-02
-3.047483286615863818e-02
-2.909303274153239235e-02
-2.773116406044826010e-02
-2.639288598617054588e-02
-2.508159845520249037e-02
-2.380041431346253261e-02
-2.255213595496774123e-02
-2.133923653347795032e-02
-2.016384597617758984e-02
-1.902774175823286271e-02
-1.793234453319989680e-02
-1.687871836254706964e-02
-1.586757549015171617e-02
-1.489928540505501380e-02
-1.397388793694301877e-02
-1.309111002697361560e-02
-1.225038571060098683e-02
-1.145087900857433456e-02
-1.069150921443386137e-02
-9.970978025076562487e-03
-9.287798117781921256e-03
-8.640322725235870249e-03
-8.026775558724101589e-03
-7.445280617280150906e-03
-6.893891563547767561e-03
-6.370620037399715718e-03
-5.873462646168722129e-03
-5.400426144955135406e-03
-4.949550547288936002e-03
-4.518929902924571571e-03
-4.106730489523609424e-03
-3.711206155600168914e-03
-3.330710879870941044e-03
-2.963708394575706971e-03
-2.608778804875116607e-03
-2.264622364060975800e-03
-1.930060469799720329e-03
-1.604034037044172909e-03
-1.285599386412505842e-03
-9.739219311137485915e-04
-6.682679560450931937e-04
-3.679947847377230594e-04
-7.253959492242422207e-05
2.185927838323564808e-04
5.058427478315234314e-04
7.896089979874794601e-04
1.070261665590140814e-03
1.348155024041672702e-03
1.623639567394454843e-03
1.897073112520266313e-03
2.168830696815869392e-03
2.439312987824933301e-03
2.708953118358008345e-03
2.978221665926920891e-03
3.247629733395242246e-03
3.517730137022404870e-03
3.789116557090877694e-03
4.062420703836083780e-03
4.338307538636555945e-03
4.617468692344739271e-03
4.900614283209796078e-03
5.188463156490052616e-03
5.481731810016496689e-03
5.781122219601821620e-03
6.087308960442174184e-03
6.400925661831057857e-03
6.722551212873366724e-03
7.052696029735433525e-03
7.391788553485633025e-03
7.740162310329077623e-03
8.098043849065891461e-03
8.465541749280151851e-03
8.842637028037895336e-03
9.229175028379566978e-03
9.624859059611197420e-03
1.002924595583462239e-02
1.044174353043316079e-02
1.086161027489212713e-02
1.128795712644411336e-02
1.171975136192030496e-02
1.215582260998473996e-02
1.259487100298647792e-02
1.303547725760369029e-02
1.347611459106239258e-02
1.391516231948167551e-02
1.435092098636549067e-02
1.478162874841169351e-02
1.520547881075095045e-02
1.562063773973574633e-02
1.602526427808046577e-02
1.641752846083287601e-02
1.679563069512761755e-02
1.715782067119861129e-02
1.750241579749571563e-02
1.782781873187570462e-02
1.813253410975465552e-02
1.841518392335998039e-02
1.867452150120205850e-02
1.890944397944241406e-02
1.911900299026286082e-02
1.930241339094565522e-02
1.945906022372858452e-02
1.958850353904716471e-02
1.969048118883452714e-02
1.976490955435317512e-02
1.981188223289330821e-02
1.983166678658209586e-02
1.982469961016676205e-02
1.979157893342278415e-02
1.973305622459615993e-02
1.965002600876146130e-02
1.954351436412841286e-02
1.941466621185085686e-02
1.926473165271563176e-02
1.909505149080438155e-02
1.890704216178623956e-02
1.870218026342465589e-02
1.848198689787543952e-02
1.824801199567989071e-02
1.800181884768465440e-02
1.774496902333473278e-02
1.747900780584579067e-02
1.720545033596655032e-02
1.692576857616335737e-02
1.664137921211887930e-02
1.635363265613045541e-02
1.606380312264189467e-02
1.577307997663025471e-02
1.548256034664909075e-02
1.519324298869265469e-02
1.490602348687119875e-02
1.462169077689273386e-02
1.434092492247925586e-02
1.406429622180931094e-02
1.379226541834333367e-02
1.352518518039945786e-02
1.326330260134339981e-02
1.300676273119984530e-02
1.275561303196944170e-02
1.250980873553702785e-02
1.226921884909099210e-02
1.203363288270484742e-02
1.180276816246536749e-02
1.157627758086577849e-02
1.135375766031485566e-02
1.113475706173362896e-02
1.091878510978668178e-02
1.070532054031717722e-02
1.049382017235698725e-02
1.028372763689234214e-02
1.007448182291044957e-02
9.865525277169192100e-03
9.656312246511979461e-03
9.446316422128406623e-03
9.235038297774399857e-03
9.022012118670416636e-03
8.806812352634913257e-03
8.589059608694221346e-03
8.368426031821224464e-03
8.144640089077106668e-03
7.917490765504428193e-03
7.686831028427398328e-03
7.452580707664153287e-03
7.214728630954384339e-03
6.973334055108217772e-03
6.728527362786704095e-03
6.480510030398957746e-03
6.229553871835909543e-03
5.975999515120350089e-03
5.720254141836271164e-03
5.462788522043223426e-03
5.204133304816091314e-03
4.944874651607004609e-03
4.685649217778448984e-03
4.427138468531535351e-03
4.170062418342990879e-03
3.915172858022187771e-03
3.663246097931909754e-03
3.415075261987168560e-03
3.171462297948661729e-03
2.933209648761455571e-03
2.701111757572646939e-03
2.475946464454880942e-03
2.258466371916460942e-03
2.049390407324588881e-03
1.849395440437421332e-03
1.659108250993584057e-03
1.479097779620049905e-03
1.309867956325783470e-03
1.151851074958000487e-03
1.005401794374236046e-03
8.707919342950296796e-04
7.482060817746514613e-04
6.377380835279950659e-04
5.393885312506736807e-04
4.530632668481034239e-04
3.785728791718247850e-04
3.156333361676559460e-04
2.638677193517611412e-04
2.228090187679940769e-04
1.919040139704822530e-04
1.705182414296764178e-04
1.579419095943137533e-04
1.533968153390221885e-04
1.560441078906664111e-04
1.649929081437359201e-04
1.793095353307701647e-04
1.980274083526234778e-04
2.201573897009930869e-04
2.446985195369344229e-04
2.706489029163902703e-04
2.970167781649885996e-04
3.228314902138610808e-04
3.471542843401282286e-04
3.690888516704452687e-04
3.877914374253069283e-04
4.024802903962625199e-04
4.124445196317389883e-04
4.170521341450390482e-04
4.157571873288107723e-04
4.081060157934642322e-04
3.937423757990423691e-04
3.724115260909418158e-04
3.439630952563837540e-04
3.083528804011888193e-04
2.656433924777997489e-04
2.160032620260910765e-04
1.597054951448195715e-04
9.712463429423073282e-05
2.873280761847462125e-05
-4.490524641728562891e-05
-1.231380411030808582e-04
-2.052341231882708300e-04
-2.903895445589090344e-04
-3.777360543142004794e-04
-4.663498164623449066e-04
-5.552606278219230501e-04
-6.434614868868664475e-04
-7.299183294769787675e-04
-8.135799487340353818e-04
-8.933879088208958623e-04
-9.682864289994149365e-04
-1.037232061714098803e-03
-1.099203083785710126e-03
-1.153208600846316245e-03
-1.198297243509500402e-03
-1.233565339931109138e-03
-1.258164645675212282e-03
-1.271309494114618343e-03
-1.272283330990624803e-03
-1.260444723446865669e-03
-1.235232658288394668e-03
-1.196171303289365623e-03
-1.142874115433403608e-03
-1.075047385967377615e-03
-9.924930823753171788e-04
-8.951112817067416764e-04
-7.829019080697187209e-04
-6.559660979970494002e-04
-5.145069226341177299e-04
-3.588297972782355269e-04
-1.893422298517087967e-04
-6.553286084225306028e-06
1.889274359107625124e-04
3.963912149217300508e-04
6.150319880995712809e-04
8.439486383317660982e-04
1.082147658684512849e-03
1.328546219874153717e-03
1.581975671797623394e-03
1.841185560046266264e-03
2.104848068008311965e-03
2.371563044528598400e-03
2.639863461465150486e-03
2.908221598738120611e-03
3.175055709876374241e-03
3.438737329208035268e-03
3.697599187184903626e-03
3.949943842074132676e-03
4.194052825457684174e-03
4.428196552908072320e-03
4.650644853168395092e-03
4.859678044406912263e-03
5.053598593932088698e-03
5.230743321742614693e-03
5.389496043172720303e-03
5.528300538017376191e-03
5.645673815021668568e-03
5.740219618531456486e-03
5.810641895602139395e-03
5.855758233035200482e-03
5.874513030624174681e-03
5.865990345900048801e-03
5.829426158583572021e-03
5.764220015594567759e-03
5.669945805694225766e-03
5.546361433165049488e-03
5.393417372410441203e-03
5.211263826820729771e-03
5.000256418784130436e-03
4.760960238099846975e-03
4.494152098890428354e-03
4.200820919795784751e-03
3.882166174046839269e-03
3.539594235794639530e-03
3.174712662839569797e-03
2.789322345172719729e-03
2.385407575304168432e-03
1.965123960718885999e-03
1.530784332767582681e-03
1.084842762498653117e-03
6.298766726990764810e-04
1.685673041681739115e-04
-2.963213292666970217e-04
-7.619649240954062732e-04
-1.225502406203228881e-03
-1.684060290034509674e-03
-2.134777703320871189e-03
-2.574831774552973924e-03
