-3.612452638367369406e-02
-3.613554506509693981e-02
-3.614655992084316732e-02
-3.615757095088831946e-02
-3.616857815520874153e-02
-3.617958153378119518e-02
-3.619058108658283063e-02
-3.620157681359123525e-02
-3.621256871478441969e-02
-3.622355679014079705e-02
-3.623454103963918288e-02
-3.624552146325880908e-02
-3.625649806097930999e-02
-3.626747083278071548e-02
-3.627843977864347869e-02
-3.628940489854848295e-02
-3.630036619247702795e-02
-3.631132366041082971e-02
-3.632227730233199975e-02
-3.633322711822307288e-02
-3.634417310806698637e-02
-3.635511527184710073e-02
-3.636605360954717897e-02
-3.637698812115137265e-02
-3.638791880664425660e-02
-3.639884566601079424e-02
-3.640976869923633757e-02
-3.642068790630662023e-02
-3.643160328720777136e-02
-3.644251484192631563e-02
-3.645342257044918016e-02
-3.646432647276372230e-02
-3.647522654885767407e-02
-3.648612279871916997e-02
-3.649701522233675388e-02
-3.650790381969936521e-02
-3.651878859079634582e-02
-3.652966953561745389e-02
-3.654054665415283620e-02
-3.655141994639304198e-02
-3.656228941232899515e-02
-3.657315505195200822e-02
-3.658401686525378921e-02
-3.659487485222642777e-02
-3.660572901286240910e-02
-3.661657934715457224e-02
-3.662742585509615872e-02
-3.663826853668079864e-02
-3.664910739190251066e-02
-3.665994242075568121e-02
-3.667077362323509920e-02
-3.668160099933594209e-02
-3.669242454905377593e-02
-3.670324427238453452e-02
-3.671406016932454719e-02
-3.672487223987054572e-02
-3.673568048401966435e-02
-3.674648490176941895e-02
-3.675728549311770010e-02
-3.676808225806279390e-02
-3.677887519660335419e-02
-3.678966430873840954e-02
-3.680044959446735625e-02
-3.681123105378994453e-02
-3.682200868670631316e-02
-3.683278249321696174e-02
-3.684355247332275762e-02
-3.685431862702494288e-02
-3.686508095432514120e-02
-3.687583945522533019e-02
-3.688659412972785517e-02
-3.689734497783543621e-02
-3.690809199955114722e-02
-3.691883519487844378e-02
-3.692957456382114229e-02
-3.694031010638341994e-02
-3.695104182256980091e-02
-3.696176971238517711e-02
-3.697249377583480129e-02
-3.698321401292430782e-02
-3.699393042365969886e-02
-3.700464300804732348e-02
-3.701535176609385691e-02
-3.702605669780634212e-02
-3.703675780319219679e-02
-3.704745508225919942e-02
-3.705814853501547546e-02
-3.706883816146949034e-02
-3.707952396163002179e-02
-3.709020593550621525e-02
-3.710088408310756314e-02
-3.711155840444392562e-02
-3.712222889952551674e-02
-3.713289556836293220e-02
-3.714355841096709382e-02
-3.715421742734927729e-02
-3.716487261752108445e-02
-3.717552398149447795e-02
-3.718617151928175352e-02
-3.719681523089555381e-02
-3.720745511634886843e-02
-3.721809117565504782e-02
-3.722872340882778242e-02
-3.723935181588110960e-02
-3.724997639682942757e-02
-3.726059715168747455e-02
-3.727121408047034262e-02
-3.728182718319344308e-02
-3.729243645987254108e-02
-3.730304191052374874e-02
-3.731364353516349042e-02
-3.732424133380854436e-02
-3.733483530647602189e-02
-3.734542545318333961e-02
-3.735601177394826111e-02
-3.736659426878888302e-02
-3.737717293772360727e-02
-3.738774778077116195e-02
-3.739831879795060821e-02
-3.740888598928134717e-02
-3.741944935478310613e-02
-3.743000889447593155e-02
-3.744056460838020989e-02
-3.745111649651663294e-02
-3.746166455890621166e-02
-3.747220879557026929e-02
-3.748274920653045517e-02
-3.749328579180875171e-02
-3.750381855142750215e-02
-3.751434748540937586e-02
-3.752487259377734752e-02
-3.753539387655469711e-02
-3.754591133376501688e-02
-3.755642496543222519e-02
-3.756693477158055960e-02
-3.757744075223455604e-02
-3.758794290741906963e-02
-3.759844123715923303e-02
-3.760893574148051893e-02
-3.761942642040872614e-02
-3.762991327396997265e-02
-3.764039630219064014e-02
-3.765087550509743641e-02
-3.766135088271739539e-02
-3.767182243507784939e-02
-3.768229016220645683e-02
-3.769275406413113289e-02
-3.770321414088010498e-02
-3.771367039248189890e-02
-3.772412281896536657e-02
-3.773457142035965828e-02
-3.774501619669422270e-02
-3.775545714799879299e-02
-3.776589427430339374e-02
-3.777632757563832017e-02
-3.778675705203414503e-02
-3.779718270352173948e-02
-3.780760453013225220e-02
-3.781802253189710944e-02
-3.782843670884802889e-02
-3.783884706101701967e-02
-3.784925358843638232e-02
-3.785965629113870884e-02
-3.787005516915687570e-02
-3.788045022252404387e-02
-3.789084145127365882e-02
-3.790122885543944359e-02
-3.791161243505540568e-02
-3.792199219015585099e-02
-3.793236812077535602e-02
-3.794274022694878179e-02
-3.795310850871121827e-02
-3.796347296609802607e-02
-3.797383359914482948e-02
-3.798419040788753032e-02
-3.799454339236228023e-02
-3.800489255260550148e-02
-3.801523788865388692e-02
-3.802557940054437924e-02
-3.803591708831417090e-02
-3.804625095200071805e-02
-3.805658099164170582e-02
-3.806690720727508304e-02
-3.807722959893905523e-02
-3.808754816667211940e-02
-3.809786291051302926e-02
-3.810817383050080220e-02
-3.811848092667471932e-02
-3.812878419907429067e-02
-3.813908364773927612e-02
-3.814937927270969920e-02
-3.815967107402586100e-02
-3.816995905172832632e-02
-3.818024320585788889e-02
-3.819052353645559922e-02
-3.820080004356275760e-02
-3.821107272722090026e-02
-3.822134158747182708e-02
-3.823160662435757390e-02
-3.824186783792041938e-02
-3.825212522820287120e-02
-3.826237879524768681e-02
-3.827262853909784573e-02
-3.828287445979656339e-02
-3.829311655738729114e-02
-3.830335483191371626e-02
-3.831358928341978970e-02
-3.832381991194969834e-02
-3.833404671754785109e-02
-3.834426970025889975e-02
-3.835448886012772507e-02
-3.836470419719944375e-02
-3.837491571151940145e-02
-3.838512340313319365e-02
-3.839532727208664481e-02
-3.840552731842579448e-02
-3.841572354219689039e-02
-3.842591594344640926e-02
-3.843610452222105678e-02
-3.844628927856776762e-02
-3.845647021253368464e-02
-3.846664732416617272e-02
-3.847682061351277716e-02
-3.848699008062127225e-02
-3.849715572553967513e-02
-3.850731754831621112e-02
-3.851747554899934145e-02
-3.852762972763772858e-02
-3.853778008428026397e-02
-3.854792661897606110e-02
-3.855806933177442775e-02
-3.856820822272485905e-02
-3.857834329187704442e-02
-3.858847453928088839e-02
-3.859860196498651058e-02
-3.860872556904423186e-02
-3.861884535150458819e-02
-3.862896131241828901e-02
-3.863907345183623804e-02
-3.864918176980957493e-02
-3.865928626638966137e-02
-3.866938694162803253e-02
-3.867948379557644561e-02
-3.868957682828684519e-02
-3.869966603981134928e-02
-3.870975143020228409e-02
-3.871983299951215624e-02
-3.872991074779368742e-02
-3.873998467509982141e-02
-3.875005478148369625e-02
-3.876012106699863735e-02
-3.877018353169819215e-02
-3.878024217563608850e-02
-3.879029699886625548e-02
-3.880034800144279566e-02
-3.881039518342001282e-02
-3.882043854485239809e-02
-3.883047808579461607e-02
-3.884051380630154648e-02
-3.885054570642827720e-02
-3.886057378623006264e-02
-3.887059804576235844e-02
-3.888061848508080065e-02
-3.889063510424123349e-02
-3.890064790329971628e-02
-3.891065688231246100e-02
-3.892066204133586005e-02
-3.893066338042650010e-02
-3.894066089964115518e-02
-3.895065459903680055e-02
-3.896064447867057801e-02
-3.897063053859980974e-02
-3.898061277888201226e-02
-3.899059119957489633e-02
-3.900056580073636703e-02
-3.901053658242449595e-02
-3.902050354469754206e-02
-3.903046668761395166e-02
-3.904042601123235146e-02
-3.905038151561152776e-02
-3.906033320081043342e-02
-3.907028106688818087e-02
-3.908022511390404907e-02
-3.909016534191749048e-02
-3.910010175098811019e-02
-3.911003434117566596e-02
-3.911996311254006820e-02
-3.912988806514139384e-02
-3.913980919903987249e-02
-3.914972651429592110e-02
-3.915964001097013009e-02
-3.916954968912324947e-02
-3.917945554881620274e-02
-3.918935759011007991e-02
-3.919925581306613060e-02
-3.920915021774573628e-02
-3.921904080421044492e-02
-3.922892757252196411e-02
-3.923881052274214715e-02
-3.924868965493304163e-02
-3.925856496915685473e-02
-3.926843646547591854e-02
-3.927830414395273168e-02
-3.928816800464995929e-02
-3.929802804763042612e-02
-3.930788427295714427e-02
-3.931773668069327848e-02
-3.932758527090211842e-02
-3.933743004364709250e-02
-3.934727099899176794e-02
-3.935710813699985766e-02
-3.936694145773522030e-02
-3.937677096126189491e-02
-3.938659664764405932e-02
-3.939641851694603014e-02
-3.940623656923225582e-02
-3.941605080456733051e-02
-3.942586122301600104e-02
-3.943566782464315995e-02
-3.944547060951383854e-02
-3.945526957769320692e-02
-3.946506472924658088e-02
-3.947485606423940807e-02
-3.948464358273726105e-02
-3.949442728480583031e-02
-3.950420717051097985e-02
-3.951398323991871242e-02
-3.952375549309512792e-02
-3.953352393010645116e-02
-3.954328855101902490e-02
-3.955304935589930987e-02
-3.956280634481392638e-02
-3.957255951782961967e-02
-3.958230887501328066e-02
-3.959205441643196682e-02
-3.960179614215286747e-02
-3.961153405224330376e-02
-3.962126814677073561e-02
-3.963099842580275478e-02
-3.964072488940705019e-02
-3.965044753765141483e-02
-3.966016637060378741e-02
-3.966988138833222460e-02
-3.967959259090491492e-02
-3.968929997839018564e-02
-3.969900355085649590e-02
-3.970870330837244361e-02
-3.971839925100676544e-02
-3.972809137882832992e-02
-3.973777969190610965e-02
-3.974746419030920214e-02
-3.975714487410683673e-02
-3.976682174336836767e-02
-3.977649479816326022e-02
-3.978616403856109762e-02
-3.979582946463158105e-02
-3.980549107644453660e-02
-3.981514887406993608e-02
-3.982480285757785538e-02
-3.983445302703849528e-02
-3.984409938252217454e-02
-3.985374192409934374e-02
-3.986338065184057838e-02
-3.987301556581658579e-02
-3.988264666609819820e-02
-3.989227395275636578e-02
-3.990189742586214283e-02
-3.991151708548669463e-02
-3.992113293170133220e-02
-3.993074496457747063e-02
-3.994035318418660829e-02
-3.994995759060034068e-02
-3.995955818389036046e-02
-3.996915496412847130e-02
-3.997874793138658789e-02
-3.998833708573673595e-02
-3.999792242725105224e-02
-4.000750395600178450e-02
-4.001708167206131928e-02
-4.002665557550215414e-02
-4.003622566639691155e-02
-4.004579194481831111e-02
-4.005535441083920428e-02
-4.006491306453253964e-02
-4.007446790597137681e-02
-4.008401893522888643e-02
-4.009356615237835014e-02
-4.010310955749314676e-02
-4.011264915064676612e-02
-4.012218493191278129e-02
-4.013171690136486947e-02
-4.014124505907683965e-02
-4.015076940512258413e-02
-4.016028993957612703e-02
-4.016980666251159654e-02
-4.017931957400321802e-02
-4.018882867412532089e-02
-4.019833396295233868e-02
-4.020783544055880204e-02
-4.021733310701935266e-02
-4.022682696240872935e-02
-4.023631700680178891e-02
-4.024580324027349915e-02
-4.025528566289893195e-02
-4.026476427475327718e-02
-4.027423907591182184e-02
-4.028371006644995700e-02
-4.029317724644319865e-02
-4.030264061596715991e-02
-4.031210017509752330e-02
-4.032155592391004073e-02
-4.033100786248057512e-02
-4.034045599088510736e-02
-4.034990030919970161e-02
-4.035934081750048447e-02
-4.036877751586366581e-02
-4.037821040436555264e-02
-4.038763948308254914e-02
-4.039706475209116354e-02
-4.040648621146798736e-02
-4.041590386128968843e-02
-4.042531770163303173e-02
-4.043472773257490022e-02
-4.044413395419226009e-02
-4.045353636656214696e-02
-4.046293496976168663e-02
-4.047232976386808123e-02
-4.048172074895861616e-02
-4.049110792511065315e-02
-4.050049129240165802e-02
-4.050987085090921452e-02
-4.051924660071102441e-02
-4.052861854188486573e-02
-4.053798667450859983e-02
-4.054735099866020598e-02
-4.055671151441774674e-02
-4.056606822185936101e-02
-4.057542112106327092e-02
-4.058477021210777497e-02
-4.059411549507124101e-02
-4.060345697003210630e-02
-4.061279463706891218e-02
-4.062212849626031103e-02
-4.063145854768503845e-02
-4.064078479142189948e-02
-4.065010722754980321e-02
-4.065942585614774896e-02
-4.066874067729478459e-02
-4.067805169107002738e-02
-4.068735889755266399e-02
-4.069666229682193659e-02
-4.070596188895716366e-02
-4.071525767403775392e-02
-4.072454965214317157e-02
-4.073383782335294329e-02
-4.074312218774665817e-02
-4.075240274540397473e-02
-4.076167949640464166e-02
-4.077095244082844933e-02
-4.078022157875525050e-02
-4.078948691026500900e-02
-4.079874843543776497e-02
-4.080800615435362794e-02
-4.081726006709278376e-02
-4.082651017373550156e-02
-4.083575647436214068e-02
-4.084499896905310207e-02
-4.085423765788889078e-02
-4.086347254095007431e-02
-4.087270361831728260e-02
-4.088193089007122194e-02
-4.089115435629265410e-02
-4.090037401706241721e-02
-4.090958987246140488e-02
-4.091880192257058707e-02
-4.092801016747101006e-02
-4.093721460724380340e-02
-4.094641524197017296e-02
-4.095561207173140095e-02
-4.096480509660883895e-02
-4.097399431668388714e-02
-4.098317973203798731e-02
-4.099236134275264370e-02
-4.100153914890944384e-02
-4.101071315059006545e-02
-4.101988334787624868e-02
-4.102904974084982392e-02
-4.103821232959268400e-02
-4.104737111418678419e-02
-4.105652609471416997e-02
-4.106567727125696315e-02
-4.107482464389732024e-02
-4.108396821271744631e-02
-4.109310797779960889e-02
-4.110224393922615183e-02
-4.111137609707948143e-02
-4.112050445144205257e-02
-4.112962900239638953e-02
-4.113874975002507206e-02
-4.114786669441074934e-02
-4.115697983563612605e-02
-4.116608917378397625e-02
-4.117519470893715033e-02
-4.118429644117856114e-02
-4.119339437059116316e-02
-4.120248849725798024e-02
-4.121157882126211952e-02
-4.122066534268673671e-02
-4.122974806161504996e-02
-4.123882697813034681e-02
-4.124790209231594951e-02
-4.125697340425522885e-02
-4.126604091403163893e-02
-4.127510462172870320e-02
-4.128416452743001452e-02
-4.129322063121918657e-02
-4.130227293317990239e-02
-4.131132143339590751e-02
-4.132036613195099600e-02
-4.132940702892901746e-02
-4.133844412441386312e-02
-4.134747741848950053e-02
-4.135650691123995276e-02
-4.136553260274927757e-02
-4.137455449310156047e-02
-4.138357258238097025e-02
-4.139258687067173814e-02
-4.140159735805815783e-02
-4.141060404462456462e-02
-4.141960693045534936e-02
-4.142860601563495143e-02
-4.143760130024787963e-02
-4.144659278437871214e-02
-4.145558046811207570e-02
-4.146456435153265258e-02
-4.147354443472518748e-02
-4.148252071777449451e-02
-4.149149320076545022e-02
-4.150046188378295892e-02
-4.150942676691195959e-02
-4.151838785023746065e-02
-4.152734513384452597e-02
-4.153629861781828886e-02
-4.154524830224392423e-02
-4.155419418720667640e-02
-4.156313627279183825e-02
-4.157207455908479288e-02
-4.158100904617099969e-02
-4.158993973413597361e-02
-4.159886662306526428e-02
-4.160778971304449764e-02
-4.161670900415932739e-02
-4.162562449649547663e-02
-4.163453619013872398e-02
-4.164344408517490354e-02
-4.165234818168991188e-02
-4.166124847976969414e-02
-4.167014497950020935e-02
-4.167903768096750672e-02
-4.168792658425770487e-02
-4.169681168945695710e-02
-4.170569299665147223e-02
-4.171457050592749377e-02
-4.172344421737129994e-02
-4.173231413106919668e-02
-4.174118024710755243e-02
-4.175004256557277721e-02
-4.175890108655134353e-02
-4.176775581012977939e-02
-4.177660673639461975e-02
-4.178545386543246198e-02
-4.179429719732996595e-02
-4.180313673217385395e-02
-4.181197247005093154e-02
-4.182080441104806673e-02
-4.182963255525221774e-02
-4.183845690275037749e-02
-4.184727745362957357e-02
-4.185609420797691688e-02
-4.186490716587958072e-02
-4.187371632742483557e-02
-4.188252169270001435e-02
-4.189132326179250548e-02
-4.190012103478978761e-02
-4.190891501177942957e-02
-4.191770519284905572e-02
-4.192649157808634591e-02
-4.193527416757907023e-02
-4.194405296141504036e-02
-4.195282795968210271e-02
-4.196159916246813143e-02
-4.197036656986109088e-02
-4.197913018194898011e-02
-4.198788999881988143e-02
-4.199664602056188412e-02
-4.200539824726311905e-02
-4.201414667901180733e-02
-4.202289131589625332e-02
-4.203163215800482383e-02
-4.204036920542592037e-02
-4.204910245824799997e-02
-4.205783191655960290e-02
-4.206655758044935967e-02
-4.207527945000594238e-02
-4.208399752531808563e-02
-4.209271180647457949e-02
-4.210142229356427651e-02
-4.211012898667606391e-02
-4.211883188589888444e-02
-4.212753099132168777e-02
-4.213622630303348604e-02
-4.214491782112332607e-02
-4.215360554568031715e-02
-4.216228947679359629e-02
-4.217096961455236298e-02
-4.217964595904588609e-02
-4.218831851036346919e-02
-4.219698726859447135e-02
-4.220565223382830716e-02
-4.221431340615444672e-02
-4.222297078566242950e-02
-4.223162437244183665e-02
-4.224027416658227702e-02
-4.224892016817339419e-02
-4.225756237730486642e-02
-4.226620079406642749e-02
-4.227483541854787363e-02
-4.228346625083906352e-02
-4.229209329102991133e-02
-4.230071653921039371e-02
-4.230933599547052198e-02
-4.231795165990034219e-02
-4.232656353258994197e-02
-4.233517161362949921e-02
-4.234377590310921952e-02
-4.235237640111936402e-02
-4.236097310775028407e-02
-4.236956602309234488e-02
-4.237815514723600185e-02
-4.238674048027179370e-02
-4.239532202229031460e-02
-4.240389977338222122e-02
-4.241247373363826734e-02
-4.242104390314924145e-02
-4.242961028200601531e-02
-4.243817287029952312e-02
-4.244673166812076154e-02
-4.245528667556081048e-02
-4.246383789271081233e-02
-4.247238531966197883e-02
-4.248092895650556339e-02
-4.248946880333284715e-02
-4.249800486023515983e-02
-4.250653712730390055e-02
-4.251506560463048229e-02
-4.252359029230637355e-02
-4.253211119042307753e-02
-4.254062829907215987e-02
-4.254914161834519315e-02
-4.255765114833379159e-02
-4.256615688912963186e-02
-4.257465884082447388e-02
-4.258315700351013311e-02
-4.259165137727845968e-02
-4.260014196222134536e-02
-4.260862875843071662e-02
-4.261711176599859013e-02
-4.262559098501701726e-02
-4.263406641557813265e-02
-4.264253805777411255e-02
-4.265100591169717487e-02
-4.265946997743956526e-02
-4.266793025509356407e-02
-4.267638674475154187e-02
-4.268483944650589695e-02
-4.269328836044909009e-02
-4.270173348667365143e-02
-4.271017482527214582e-02
-4.271861237633717279e-02
-4.272704613996140127e-02
-4.273547611623756265e-02
-4.274390230525841605e-02
-4.275232470711678306e-02
-4.276074332190552690e-02
-4.276915814971760099e-02
-4.277756919064604202e-02
-4.278597644478392137e-02
-4.279437991222437981e-02
-4.280277959306062752e-02
-4.281117548738593709e-02
-4.281956759529366441e-02
-4.282795591687720005e-02
-4.283634045223000397e-02
-4.284472120144560553e-02
-4.285309816461762428e-02
-4.286147134183973528e-02
-4.286984073320570382e-02
-4.287820633880933680e-02
-4.288656815874453132e-02
-4.289492619310524696e-02
-4.290328044198554042e-02
-4.291163090547953085e-02
-4.291997758368137211e-02
-4.292832047668528744e-02
-4.293665958458556253e-02
-4.294499490747653858e-02
-4.295332644545261924e-02
-4.296165419860827756e-02
-4.296997816703805595e-02
-4.297829835083653849e-02
-4.298661475009839944e-02
-4.299492736491837552e-02
-4.300323619539124509e-02
-4.301154124161182118e-02
-4.301984250367497237e-02
-4.302813998167565740e-02
-4.303643367570888362e-02
-4.304472358586972774e-02
-4.305300971225332202e-02
-4.306129205495486806e-02
-4.306957061406964382e-02
-4.307784538969301746e-02
-4.308611638192044041e-02
-4.309438359084742654e-02
-4.310264701656955910e-02
-4.311090665918249076e-02
-4.311916251878194356e-02
-4.312741459546370199e-02
-4.313566288932364073e-02
-4.314390740045770389e-02
-4.315214812896187718e-02
-4.316038507493221571e-02
-4.316861823846480928e-02
-4.317684761965578238e-02
-4.318507321860130116e-02
-4.319329503539760112e-02
-4.320151307014101494e-02
-4.320972732292793772e-02
-4.321793779385485479e-02
-4.322614448301829310e-02
-4.323434739051484899e-02
-4.324254651644121594e-02
-4.325074186089414990e-02
-4.325893342397044150e-02
-4.326712120576692994e-02
-4.327530520638055156e-02
-4.328348542590830517e-02
-4.329166186444721037e-02
-4.329983452209435618e-02
-4.330800339894691486e-02
-4.331616849510212114e-02
-4.332432981065728606e-02
-4.333248734570982474e-02
-4.334064110035722173e-02
-4.334879107469705867e-02
-4.335693726882700744e-02
-4.336507968284477460e-02
-4.337321831684816387e-02
-4.338135317093504834e-02
-4.338948424520332192e-02
-4.339761153975092017e-02
-4.340573505467584109e-02
-4.341385479007615900e-02
-4.342197074605001761e-02
-4.343008292269562309e-02
-4.343819132011125100e-02
-4.344629593839521853e-02
-4.345439677764586367e-02
-4.346249383796160076e-02
-4.347058711944087883e-02
-4.347867662218223711e-02
-4.348676234628429116e-02
-4.349484429184570511e-02
-4.350292245896521248e-02
-4.351099684774158843e-02
-4.351906745827367751e-02
-4.352713429066039363e-02
-4.353519734500069238e-02
-4.354325662139354319e-02
-4.355131211993795715e-02
-4.355936384073299389e-02
-4.356741178387778940e-02
-4.357545594947154904e-02
-4.358349633761354758e-02
-4.359153294840315690e-02
-4.359956578193979748e-02
-4.360759483832296612e-02
-4.361562011765222902e-02
-4.362364162002722173e-02
-4.363165934554764924e-02
-4.363967329431331366e-02
-4.364768346642409341e-02
-4.365568986197994328e-02
-4.366369248108088741e-02
-4.367169132382699853e-02
-4.367968639031839795e-02
-4.368767768065524859e-02
-4.369566519493775503e-02
-4.370364893326617040e-02
-4.371162889574082416e-02
-4.371960508246214294e-02
-4.372757749353059498e-02
-4.373554612904672484e-02
-4.374351098911116037e-02
-4.375147207382459880e-02
-4.375942938328780674e-02
-4.376738291760160632e-02
-4.377533267686688906e-02
-4.378327866118458811e-02
-4.379122087065566438e-02
-4.379915930538112734e-02
-4.380709396546202811e-02
-4.381502485099949412e-02
-4.382295196209473609e-02
-4.383087529884903411e-02
-4.383879486136373765e-02
-4.384671064974027949e-02
-4.385462266408014093e-02
-4.386253090448487268e-02
-4.387043537105607405e-02
-4.387833606389542757e-02
-4.388623298310469212e-02
-4.389412612878570291e-02
-4.390201550104034373e-02
-4.390990109997053997e-02
-4.391778292567830033e-02
-4.392566097826568899e-02
-4.393353525783483954e-02
-4.394140576448793412e-02
-4.394927249832726590e-02
-4.395713545945521133e-02
-4.396499464797424400e-02
-4.397285006398693463e-02
-4.398070170759597192e-02
-4.398854957890407230e-02
-4.399639367801402162e-02
-4.400423400502868204e-02
-4.401207056005097124e-02
-4.401990334318389014e-02
-4.402773235453048828e-02
-4.403555759419389148e-02
-4.404337906227730887e-02
-4.405119675888399811e-02
-4.405901068411734872e-02
-4.406682083808080574e-02
-4.407462722087786972e-02
-4.408242983261212444e-02
-4.409022867338728557e-02
-4.409802374330714508e-02
-4.410581504247555046e-02
-4.411360257099642551e-02
-4.412138632897374957e-02
-4.412916631651159216e-02
-4.413694253371409915e-02
-4.414471498068549271e-02
-4.415248365753005055e-02
-4.416024856435213364e-02
-4.416800970125618619e-02
-4.417576706834673572e-02
-4.418352066572836523e-02
-4.419127049350571323e-02
-4.419901655178350153e-02
-4.420675884066650047e-02
-4.421449736025958449e-02
-4.422223211066771825e-02
-4.422996309199595660e-02
-4.423769030434940991e-02
-4.424541374783332037e-02
-4.425313342255297877e-02
-4.426084932861376608e-02
-4.426856146612115350e-02
-4.427626983518066772e-02
-4.428397443589791871e-02
-4.429167526837859969e-02
-4.429937233272849412e-02
-4.430706562905344786e-02
-4.431475515745941091e-02
-4.432244091805240954e-02
-4.433012291093856028e-02
-4.433780113622406982e-02
-4.434547559401522815e-02
-4.435314628441835993e-02
-4.436081320753985230e-02
-4.436847636348614787e-02
-4.437613575236377256e-02
-4.438379137427930776e-02
-4.439144322933942510e-02
-4.439909131765083089e-02
-4.440673563932031470e-02
-4.441437619445475632e-02
-4.442201298316112573e-02
-4.442964600554647620e-02
-4.443727526171797199e-02
-4.444490075178289534e-02
-4.445252247584859789e-02
-4.446014043402251453e-02
-4.446775462641219118e-02
-4.447536505312524313e-02
-4.448297171426939672e-02
-4.449057460995243379e-02
-4.449817374028223332e-02
-4.450576910536671593e-02
-4.451336070531389244e-02
-4.452094854023185694e-02
-4.452853261022879372e-02
-4.453611291541300504e-02
-4.454368945589288337e-02
-4.455126223177689054e-02
-4.455883124317363414e-02
-4.456639649019183275e-02
-4.457395797294029516e-02
-4.458151569152792731e-02
-4.458906964606369761e-02
-4.459661983665666463e-02
-4.460416626341595636e-02
-4.461170892645079100e-02
-4.461924782587044919e-02
-4.462678296178428095e-02
-4.463431433430172651e-02
-4.464184194353231633e-02
-4.464936578958562247e-02
-4.465688587257127945e-02
-4.466440219259898425e-02
-4.467191474977853793e-02
-4.467942354421983869e-02
-4.468692857603286800e-02
-4.469442984532770446e-02
-4.470192735221450303e-02
-4.470942109680350884e-02
-4.471691107920508501e-02
-4.472439729952966403e-02
-4.473187975788780330e-02
-4.473935845439012959e-02
-4.474683338914735992e-02
-4.475430456227028064e-02
-4.476177197386972673e-02
-4.476923562405665108e-02
-4.477669551294207601e-02
-4.478415164063712789e-02
-4.479160400725302332e-02
-4.479905261290104135e-02
-4.480649745769253733e-02
-4.481393854173897073e-02
-4.482137586515189814e-02
-4.482880942804300106e-02
-4.483623923052403037e-02
-4.484366527270683411e-02
-4.485108755470335745e-02
-4.485850607662562189e-02
-4.486592083858572527e-02
-4.487333184069585562e-02
-4.488073908306832588e-02
-4.488814256581553225e-02
-4.489554228904996808e-02
-4.490293825288421692e-02
-4.491033045743096641e-02
-4.491771890280301521e-02
-4.492510358911323831e-02
-4.493248451647458008e-02
-4.493986168500005429e-02
-4.494723509480277185e-02
-4.495460474599594775e-02
-4.496197063869290106e-02
-4.496933277300705495e-02
-4.497669114905191584e-02
-4.498404576694108731e-02
-4.499139662678827006e-02
-4.499874372870727585e-02
-4.500608707281198578e-02
-4.501342665921637815e-02
-4.502076248803451447e-02
-4.502809455938053262e-02
-4.503542287336867456e-02
-4.504274743011329324e-02
-4.505006822972879021e-02
-4.505738527232964336e-02
-4.506469855803044156e-02
-4.507200808694590555e-02
-4.507931385919082545e-02
-4.508661587488006772e-02
-4.509391413412860983e-02
-4.510120863705150557e-02
-4.510849938376394058e-02
-4.511578637438118378e-02
-4.512306960901858732e-02
-4.513034908779158666e-02
-4.513762481081572131e-02
-4.514489677820663488e-02
-4.515216499008005424e-02
-4.515942944655181035e-02
-4.516669014773781049e-02
-4.517394709375407297e-02
-4.518120028471672711e-02
-4.518844972074195776e-02
-4.519569540194603302e-02
-4.520293732844530427e-02
-4.521017550035617838e-02
-4.521740991779517327e-02
-4.522464058087891092e-02
-4.523186748972414517e-02
-4.523909064444774780e-02
-4.524631004516668081e-02
-4.525352569199801028e-02
-4.526073758505896188e-02
-4.526794572446685150e-02
-4.527515011033908521e-02
-4.528235074279320788e-02
-4.528954762194684763e-02
-4.529674074791774363e-02
-4.530393012082371829e-02
-4.531111574078267729e-02
-4.531829760791260958e-02
-4.532547572233158739e-02
-4.533265008415782865e-02
-4.533982069350966926e-02
-4.534698755050552837e-02
-4.535415065526388761e-02
-4.536131000790336737e-02
-4.536846560854271987e-02
-4.537561745730079449e-02
-4.538276555429653775e-02
-4.538990989964897249e-02
-4.539705049347728810e-02
-4.540418733590079886e-02
-4.541132042703888150e-02
-4.541844976701102377e-02
-4.542557535593682444e-02
-4.543269719393602801e-02
-4.543981528112850388e-02
-4.544692961763418387e-02
-4.545404020357311087e-02
-4.546114703906544569e-02
-4.546825012423147405e-02
-4.547534945919159965e-02
-4.548244504406633720e-02
-4.548953687897631243e-02
-4.549662496404226902e-02
-4.550370929938504783e-02
-4.551078988512561457e-02
-4.551786672138505990e-02
-4.552493980828464792e-02
-4.553200914594578153e-02
-4.553907473448995380e-02
-4.554613657403875498e-02
-4.555319466471389328e-02
-4.556024900663722260e-02
-4.556729959993072177e-02
-4.557434644471648755e-02
-4.558138954111670693e-02
-4.558842888925369180e-02
-4.559546448924987894e-02
-4.560249634122780227e-02
-4.560952444531014144e-02
-4.561654880161963854e-02
-4.562356941027916057e-02
-4.563058627141167167e-02
-4.563759938514023312e-02
-4.564460875158800335e-02
-4.565161437087823793e-02
-4.565861624313431039e-02
-4.566561436847971223e-02
-4.567260874703803208e-02
-4.567959937893298350e-02
-4.568658626428838410e-02
-4.569356940322818333e-02
-4.570054879587642088e-02
-4.570752444235728212e-02
-4.571449634279507734e-02
-4.572146449731421397e-02
-4.572842890603917576e-02
-4.573538956909457831e-02
-4.574234648660515518e-02
-4.574929965869573012e-02
-4.575624908549123099e-02
-4.576319476711668971e-02
-4.577013670369726311e-02
-4.577707489535823987e-02
-4.578400934222501273e-02
-4.579094004442309240e-02
-4.579786700207808675e-02
-4.580479021531574241e-02
-4.581170968426195866e-02
-4.581862540904275277e-02
-4.582553738978427382e-02
-4.583244562661280969e-02
-4.583935011965475231e-02
-4.584625086903664631e-02
-4.585314787488513344e-02
-4.586004113732695259e-02
-4.586693065648894674e-02
-4.587381643249809765e-02
-4.588069846548151892e-02
-4.588757675556647680e-02
-4.589445130288034164e-02
-4.590132210755061559e-02
-4.590818916970492575e-02
-4.591505248947103102e-02
-4.592191206697680134e-02
-4.592876790235021073e-02
-4.593561999571936505e-02
-4.594246834721250894e-02
-4.594931295695798418e-02
-4.595615382508425745e-02
-4.596299095171987870e-02
-4.596982433699350890e-02
-4.597665398103394779e-02
-4.598347988397009922e-02
-4.599030204593096416e-02
-4.599712046704564766e-02
-4.600393514744339357e-02
-4.601074608725357756e-02
-4.601755328660567940e-02
-4.602435674562931761e-02
-4.603115646445422177e-02
-4.603795244321020469e-02
-4.604474468202721799e-02
-4.605153318103534510e-02
-4.605831794036480131e-02
-4.606509896014596844e-02
-4.607187624050933239e-02
-4.607864978158551089e-02
-4.608541958350526740e-02
-4.609218564639945559e-02
-4.609894797039908870e-02
-4.610570655563531184e-02
-4.611246140223938111e-02
-4.611921251034266367e-02
-4.612595988007666542e-02
-4.613270351157303106e-02
-4.613944340496351632e-02
-4.614617956038004343e-02
-4.615291197795467343e-02
-4.615964065781960612e-02
-4.616636560010720786e-02
-4.617308680494998374e-02
-4.617980427248057768e-02
-4.618651800283174458e-02
-4.619322799613635039e-02
-4.619993425252743452e-02
-4.620663677213815435e-02
-4.621333555510180602e-02
-4.622003060155179671e-02
-4.622672191162167238e-02
-4.623340948544509693e-02
-4.624009332315590776e-02
-4.624677342488805326e-02
-4.625344979077559288e-02
-4.626012242095275256e-02
-4.626679131555393176e-02
-4.627345647471364787e-02
-4.628011789856655706e-02
-4.628677558724743346e-02
-4.629342954089116918e-02
-4.630007975963279510e-02
-4.630672624360743228e-02
-4.631336899295038223e-02
-4.632000800779703664e-02
-4.632664328828295375e-02
-4.633327483454383056e-02
-4.633990264671548204e-02
-4.634652672493386888e-02
-4.635314706933512524e-02
-4.635976368005553794e-02
-4.636637655723153950e-02
-4.637298570099970124e-02
-4.637959111149674019e-02
-4.638619278885952601e-02
-4.639279073322507413e-02
-4.639938494473054564e-02
-4.640597542351324739e-02
-4.641256216971065968e-02
-4.641914518346035995e-02
-4.642572446490012689e-02
-4.643230001416791264e-02
-4.643887183140179425e-02
-4.644543991673999450e-02
-4.645200427032090962e-02
-4.645856489228308850e-02
-4.646512178276522576e-02
-4.647167494190613396e-02
-4.647822436984477834e-02
-4.648477006672027678e-02
-4.649131203267189982e-02
-4.649785026783904290e-02
-4.650438477236124718e-02
-4.651091554637819953e-02
-4.651744259002974641e-02
-4.652396590345588695e-02
-4.653048548679678681e-02
-4.653700134019276430e-02
-4.654351346378426957e-02
-4.655002185771189849e-02
-4.655652652211637182e-02
-4.656302745713854219e-02
-4.656952466291943565e-02
-4.657601813960025178e-02
-4.658250788732234970e-02
-4.658899390622727593e-02
-4.659547619645669492e-02
-4.660195475815245153e-02
-4.660842959145655023e-02
-4.661490069651114815e-02
-4.662136807345855505e-02
-4.662783172244123336e-02
-4.663429164360180512e-02
-4.664074783708307276e-02
-4.664720030302795667e-02
-4.665364904157948134e-02
-4.666009405288080308e-02
-4.666653533707517537e-02
-4.667297289430601126e-02
-4.667940672471688340e-02
-4.668583682845151711e-02
-4.669226320565381810e-02
-4.669868585646784476e-02
-4.670510478103784280e-02
-4.671151997950821755e-02
-4.671793145202349923e-02
-4.672433919872834990e-02
-4.673074321976756346e-02
-4.673714351528609340e-02
-4.674354008542905281e-02
-4.674993293034173519e-02
-4.675632205016959364e-02
-4.676270744505824084e-02
-4.676908911515344908e-02
-4.677546706060112247e-02
-4.678184128154729698e-02
-4.678821177813817511e-02
-4.679457855052011200e-02
-4.680094159883961547e-02
-4.680730092324335984e-02
-4.681365652387817905e-02
-4.682000840089109439e-02
-4.682635655442932143e-02
-4.683270098464023534e-02
-4.683904169167136394e-02
-4.684537867567036690e-02
-4.685171193678504264e-02
-4.685804147516335616e-02
-4.686436729095341119e-02
-4.687068938430344334e-02
-4.687700775536181308e-02
-4.688332240427701275e-02
-4.688963333119765264e-02
-4.689594053627245407e-02
-4.690224401965029100e-02
-4.690854378148020393e-02
-4.691483982191137908e-02
-4.692113214109316227e-02
-4.692742073917505891e-02
-4.693370561630674093e-02
-4.693998677263803987e-02
-4.694626420831892605e-02
-4.695253792349957100e-02
-4.695880791833030588e-02
-4.696507419296162139e-02
-4.697133674754414706e-02
-4.697759558222870668e-02
-4.698385069716626283e-02
-4.699010209250794462e-02
-4.699634976840501993e-02
-4.700259372500889543e-02
-4.700883396247111656e-02
-4.701507048094337449e-02
-4.702130328057750608e-02
-4.702753236152550781e-02
-4.703375772393950799e-02
-4.703997936797182922e-02
-4.704619729377493981e-02
-4.705241150150142604e-02
-4.705862199130403378e-02
-4.706482876333564769e-02
-4.707103181774933282e-02
-4.707723115469826525e-02
-4.708342677433578066e-02
-4.708961867681538821e-02
-4.709580686229077051e-02
-4.710199133091577672e-02
-4.710817208284440172e-02
-4.711434911823081384e-02
-4.712052243722932021e-02
-4.712669203999440143e-02
-4.713285792668071156e-02
-4.713902009744312671e-02
-4.714517855243668953e-02
-4.715133329181661614e-02
-4.715748431573826838e-02
-4.716363162435720235e-02
-4.716977521782914767e-02
-4.717591509631001434e-02
-4.718205125995583032e-02
-4.718818370892279013e-02
-4.719431244336720621e-02
-4.720043746344559227e-02
-4.720655876931463546e-02
-4.721267636113116867e-02
-4.721879023905216355e-02
-4.722490040323477217e-02
-4.723100685383632702e-02
-4.723710959101432710e-02
-4.724320861492644491e-02
-4.724930392573053334e-02
-4.725539552358459794e-02
-4.726148340864684549e-02
-4.726756758107564932e-02
-4.727364804102955620e-02
-4.727972478866729333e-02
-4.728579782414778915e-02
-4.729186714763009003e-02
-4.729793275927339502e-02
-4.730399465923708358e-02
-4.731005284768068780e-02
-4.731610732476391329e-02
-4.732215809064666684e-02
-4.732820514548903568e-02
-4.733424848945131519e-02
-4.734028812269391873e-02
-4.734632404537746087e-02
-4.735235625766274353e-02
-4.735838475971074907e-02
-4.736440955168262634e-02
-4.737043063373973240e-02
-4.737644800604361162e-02
-4.738246166875600962e-02
-4.738847162203888019e-02
-4.739447786605436447e-02
-4.740048040096480481e-02
-4.740647922693277255e-02
-4.741247434412102640e-02
-4.741846575269248465e-02
-4.742445345281026681e-02
-4.743043744463766587e-02
-4.743641772833816217e-02
-4.744239430407539565e-02
-4.744836717201315196e-02
-4.745433633231536941e-02
-4.746030178514614589e-02
-4.746626353066975973e-02
-4.747222156905067658e-02
-4.747817590045357028e-02
-4.748412652504328813e-02
-4.749007344298489253e-02
-4.749601665444363324e-02
-4.750195615958494044e-02
-4.750789195857440389e-02
-4.751382405157780070e-02
-4.751975243876108146e-02
-4.752567712029037716e-02
-4.753159809633198535e-02
-4.753751536705236314e-02
-4.754342893261814806e-02
-4.754933879319615808e-02
-4.755524494895339849e-02
-4.756114740005706193e-02
-4.756704614667449371e-02
-4.757294118897319873e-02
-4.757883252712084843e-02
-4.758472016128524607e-02
-4.759060409163440308e-02
-4.759648431833654603e-02
-4.760236084156008879e-02
-4.760823366147365343e-02
-4.761410277824604936e-02
-4.761996819204630804e-02
-4.762582990304362052e-02
-4.763168791140733049e-02
-4.763754221730696903e-02
-4.764339282091226146e-02
-4.764923972239312744e-02
-4.765508292191964618e-02
-4.766092241966210508e-02
-4.766675821579097888e-02
-4.767259031047690887e-02
-4.767841870389070286e-02
-4.768424339620332825e-02
-4.769006438758593980e-02
-4.769588167820991431e-02
-4.770169526824681594e-02
-4.770750515786839618e-02
-4.771331134724657308e-02
-4.771911383655347977e-02
-4.772491262596140899e-02
-4.773070771564282000e-02
-4.773649910577036637e-02
-4.774228679651689594e-02
-4.774807078805541616e-02
-4.775385108055907324e-02
-4.775962767420118688e-02
-4.776540056915523635e-02
-4.777116976559494382e-02
-4.777693526369425348e-02
-4.778269706362730379e-02
-4.778845516556842754e-02
-4.779420956969217954e-02
-4.779996027617325338e-02
-4.780570728518656470e-02
-4.781145059690722343e-02
-4.781719021151056154e-02
-4.782292612917210528e-02
-4.782865835006760297e-02
-4.783438687437296943e-02
-4.784011170226428605e-02
-4.784583283391777991e-02
-4.785155026950982382e-02
-4.785726400921701262e-02
-4.786297405321610771e-02
-4.786868040168406474e-02
-4.787438305479801287e-02
-4.788008201273527553e-02
-4.788577727567337045e-02
-4.789146884379002350e-02
-4.789715671726315488e-02
-4.790284089627089986e-02
-4.790852138099156721e-02
-4.791419817160364608e-02
-4.791987126828582688e-02
-4.792554067121702205e-02
-4.793120638057633831e-02
-4.793686839654311138e-02
-4.794252671929688514e-02
-4.794818134901740470e-02
-4.795383228588460944e-02
-4.795947953007861225e-02
-4.796512308177973416e-02
-4.797076294116846967e-02
-4.797639910842550759e-02
-4.798203158373173793e-02
-4.798766036726822420e-02
-4.799328545921623113e-02
-4.799890685975720384e-02
-4.800452456907278870e-02
-4.801013858734480555e-02
-4.801574891475528239e-02
-4.802135555148645540e-02
-4.802695849772078973e-02
-4.803255775364095176e-02
-4.803815331942981603e-02
-4.804374519527045834e-02
-4.804933338134612791e-02
-4.805491787784028218e-02
-4.806049868493657978e-02
-4.806607580281891529e-02
-4.807164923167139836e-02
-4.807721897167833991e-02
-4.808278502302425206e-02
-4.808834738589382735e-02
-4.809390606047197342e-02
-4.809946104694375058e-02
-4.810501234549442034e-02
-4.811055995630943161e-02
-4.811610387957446916e-02
-4.812164411547536352e-02
-4.812718066419815338e-02
-4.813271352592908559e-02
-4.813824270085462209e-02
-4.814376818916143996e-02
-4.814928999103641749e-02
-4.815480810666666889e-02
-4.816032253623953041e-02
-4.816583327994251873e-02
-4.817134033796335174e-02
-4.817684371048993469e-02
-4.818234339771038793e-02
-4.818783939981303999e-02
-4.819333171698637897e-02
-4.819882034941911503e-02
-4.820430529730017344e-02
-4.820978656081865293e-02
-4.821526414016386042e-02
-4.822073803552532484e-02
-4.822620824709279025e-02
-4.823167477505616030e-02
-4.823713761960555374e-02
-4.824259678093126974e-02
-4.824805225922379481e-02
-4.825350405467383752e-02
-4.825895216747229377e-02
-4.826439659781024683e-02
-4.826983734587900199e-02
-4.827527441187010743e-02
-4.828070779597532641e-02
-4.828613749838663732e-02
-4.829156351929626140e-02
-4.829698585889664192e-02
-4.830240451738040952e-02
-4.830781949494044464e-02
-4.831323079176982893e-02
-4.831863840806185917e-02
-4.832404234401006804e-02
-4.832944259980823110e-02
-4.833483917565032512e-02
-4.834023207173055586e-02
-4.834562128824332339e-02
-4.835100682538327060e-02
-4.835638868334525553e-02
-4.836176686232436517e-02
-4.836714136251590856e-02
-4.837251218411540987e-02
-4.837787932731859447e-02
-4.838324279232138897e-02
-4.838860257931994202e-02
-4.839395868851067983e-02
-4.839931112009025066e-02
-4.840465987425549704e-02
-4.841000495120345581e-02
-4.841534635113139279e-02
-4.842068407423680276e-02
-4.842601812071740258e-02
-4.843134849077116583e-02
-4.843667518459626731e-02
-4.844199820239107612e-02
-4.844731754435419036e-02
-4.845263321068440932e-02
-4.845794520158075436e-02
-4.846325351724244807e-02
-4.846855815786894200e-02
-4.847385912365991673e-02
-4.847915641481526094e-02
-4.848445003153509236e-02
-4.848973997401975072e-02
-4.849502624246980476e-02
-4.850030883708605911e-02
-4.850558775806958212e-02
-4.851086300562164333e-02
-4.851613457994370660e-02
-4.852140248123747168e-02
-4.852666670970488122e-02
-4.853192726554807906e-02
-4.853718414896943112e-02
-4.854243736017150451e-02
-4.854768689935710924e-02
-4.855293276672932590e-02
-4.855817496249149184e-02
-4.856341348684717341e-02
-4.856864834000011732e-02
-4.857387952215430627e-02
-4.857910703351395881e-02
-4.858433087428350172e-02
-4.858955104466757685e-02
-4.859476754487106892e-02
-4.859998037509911939e-02
-4.860518953555707095e-02
-4.861039502645053689e-02
-4.861559684798537340e-02
-4.862079500036764479e-02
-4.862598948380365133e-02
-4.863118029849992918e-02
-4.863636744466322964e-02
-4.864155092250057461e-02
-4.864673073221922189e-02
-4.865190687402667219e-02
-4.865707934813067598e-02
-4.866224815473919885e-02
-4.866741329406044231e-02
-4.867257476630281604e-02
-4.867773257167500034e-02
-4.868288671038589754e-02
-4.868803718264468061e-02
-4.869318398866073760e-02
-4.869832712864369945e-02
-4.870346660280343992e-02
-4.870860241135005486e-02
-4.871373455449385520e-02
-4.871886303244542249e-02
-4.872398784541558808e-02
-4.872910899361539844e-02
-4.873422647725617063e-02
-4.873934029654947153e-02
-4.874445045170711782e-02
-4.874955694294117597e-02
-4.875465977046395533e-02
-4.875975893448801501e-02
-4.876485443522611540e-02
-4.876994627289123196e-02
-4.877503444769658997e-02
-4.878011895985564367e-02
-4.878519980958211794e-02
-4.879027699708995969e-02
-4.879535052259331707e-02
-4.880042038630658802e-02
-4.880548658844445498e-02
-4.881054912922182937e-02
-4.881560800885386547e-02
-4.882066322755599513e-02
-4.882571478554388611e-02
-4.883076268303348372e-02
-4.883580692024103859e-02
-4.884084749738303727e-02
-4.884588441467622305e-02
-4.885091767233758903e-02
-4.885594727058435033e-02
-4.886097320963395108e-02
-4.886599548970407131e-02
-4.887101411101267556e-02
-4.887602907377801287e-02
-4.888104037821862369e-02
-4.888604802455330522e-02
-4.889105201300110448e-02
-4.889605234378132520e-02
-4.890104901711351398e-02
-4.890604203321745336e-02
-4.891103139231320340e-02
-4.891601709462111564e-02
-4.892099914036181219e-02
-4.892597752975614417e-02
-4.893095226302521944e-02
-4.893592334039040953e-02
-4.894089076207334965e-02
-4.894585452829596645e-02
-4.895081463928042248e-02
-4.895577109524912318e-02
-4.896072389642474459e-02
-4.896567304303024726e-02
-4.897061853528887621e-02
-4.897556037342417484e-02
-4.898049855765992944e-02
-4.898543308822018993e-02
-4.899036396532926996e-02
-4.899529118921172599e-02
-4.900021476009239207e-02
-4.900513467819636593e-02
-4.901005094374902976e-02
-4.901496355697606416e-02
-4.901987251810342727e-02
-4.902477782735734785e-02
-4.902967948496432526e-02
-4.903457749115110870e-02
-4.903947184614471794e-02
-4.904436255017246421e-02
-4.904924960346195711e-02
-4.905413300624108380e-02
-4.905901275873802980e-02
-4.906388886118127901e-02
-4.906876131379956513e-02
-4.907363011682189941e-02
-4.907849527047756372e-02
-4.908335677499613831e-02
-4.908821463060743240e-02
-4.909306883754156053e-02
-4.909791939602890787e-02
-4.910276630630010936e-02
-4.910760956858604975e-02
-4.911244918311787055e-02
-4.911728515012701857e-02
-4.912211746984521121e-02
-4.912694614250442265e-02
-4.913177116833691155e-02
-4.913659254757521411e-02
-4.914141028045219961e-02
-4.914622436720101489e-02
-4.915103480805511210e-02
-4.915584160324820012e-02
-4.916064475301427927e-02
-4.916544425758763437e-02
-4.917024011720285553e-02
-4.917503233209481739e-02
-4.917982090249865129e-02
-4.918460582864973840e-02
-4.918938711078375131e-02
-4.919416474913662629e-02
-4.919893874394457717e-02
-4.920370909544413002e-02
-4.920847580387207459e-02
-4.921323886946546433e-02
-4.921799829246163716e-02
-4.922275407309824324e-02
-4.922750621161319645e-02
-4.923225470824470207e-02
-4.923699956323122906e-02
-4.924174077681153783e-02
-4.924647834922470796e-02
-4.925121228071007579e-02
-4.925594257150728988e-02
-4.926066922185629721e-02
-4.926539223199731532e-02
-4.927011160217085323e-02
-4.927482733261771136e-02
-4.927953942357898159e-02
-4.928424787529602641e-02
-4.928895268801050666e-02
-4.929365386196440241e-02
-4.929835139739996430e-02
-4.930304529455976914e-02
-4.930773555368674066e-02
-4.931242217502407321e-02
-4.931710515881525952e-02
-4.932178450530411151e-02
-4.932646021473473946e-02
-4.933113228735155897e-02
-4.933580072339926320e-02
-4.934046552312287143e-02
-4.934512668676772212e-02
-4.934978421457945214e-02
-4.935443810680397586e-02
-4.935908836368751301e-02
-4.936373498547656086e-02
-4.936837797241786646e-02
-4.937301732475848220e-02
-4.937765304274575884e-02
-4.938228512662740100e-02
-4.938691357665139781e-02
-4.939153839306607147e-02
-4.939615957612001479e-02
-4.940077712606213284e-02
-4.940539104314164293e-02
-4.941000132760806768e-02
-4.941460797971123503e-02
-4.941921099970130599e-02
-4.942381038782875380e-02
-4.942840614434436397e-02
-4.943299826949925507e-02
-4.943758676354488568e-02
-4.944217162673305438e-02
-4.944675285931589281e-02
-4.945133046154587264e-02
-4.945590443367575695e-02
-4.946047477595864883e-02
-4.946504148864798445e-02
-4.946960457199751221e-02
-4.947416402626127196e-02
-4.947871985169362274e-02
-4.948327204854924277e-02
-4.948782061708309477e-02
-4.949236555755045369e-02
-4.949690687020694146e-02
-4.950144455530849918e-02
-4.950597861311141490e-02
-4.951050904387231666e-02
-4.951503584784817946e-02
-4.951955902529633219e-02
-4.952407857647441597e-02
-4.952859450164036337e-02
-4.953310680105246083e-02
-4.953761547496931400e-02
-4.954212052364985464e-02
-4.954662194735331288e-02
-4.955111974633926580e-02
-4.955561392086755418e-02
-4.956010447119834489e-02
-4.956459139759216564e-02
-4.956907470030991886e-02
-4.957355437961285388e-02
-4.957803043576252539e-02
-4.958250286902081416e-02
-4.958697167964992714e-02
-4.959143686791239736e-02
-4.959589843407113952e-02
-4.960035637838942912e-02
-4.960481070113086782e-02
-4.960926140255938338e-02
-4.961370848293923663e-02
-4.961815194253502148e-02
-4.962259178161166490e-02
-4.962702800043442691e-02
-4.963146059926892839e-02
-4.963588957838115101e-02
-4.964031493803743728e-02
-4.964473667850443500e-02
-4.964915480004909731e-02
-4.965356930293868265e-02
-4.965798018744084497e-02
-4.966238745382360598e-02
-4.966679110235534822e-02
-4.967119113330481506e-02
-4.967558754694105516e-02
-4.967998034353346415e-02
-4.968436952335178458e-02
-4.968875508666609209e-02
-4.969313703374679536e-02
-4.969751536486467086e-02
-4.970189008029086974e-02
-4.970626118029691093e-02
-4.971062866515465334e-02
-4.971499253513630284e-02
-4.971935279051438450e-02
-4.972370943156176337e-02
-4.972806245855167229e-02
-4.973241187175774652e-02
-4.973675767145393362e-02
-4.974109985791454885e-02
-4.974543843141426142e-02
-4.974977339222812212e-02
-4.975410474063149402e-02
-4.975843247690008714e-02
-4.976275660130996537e-02
-4.976707711413756036e-02
-4.977139401565967847e-02
-4.977570730615345218e-02
-4.978001698589636093e-02
-4.978432305516626577e-02
-4.978862551424135391e-02
-4.979292436340018724e-02
-4.979721960292165378e-02
-4.980151123308499544e-02
-4.980579925416982884e-02
-4.981008366645612445e-02
-4.981436447022420666e-02
-4.981864166575480229e-02
-4.982291525332901982e-02
-4.982718523322830079e-02
-4.983145160573446836e-02
-4.983571437112975511e-02
-4.983997352969672667e-02
-4.984422908171830258e-02
-4.984848102747780479e-02
-4.985272936725893694e-02
-4.985697410134574264e-02
-4.986121523002259859e-02
-4.986545275357428392e-02
-4.986968667228593166e-02
-4.987391698644300791e-02
-4.987814369633133960e-02
-4.988236680223714220e-02
-4.988658630444699205e-02
-4.989080220324779852e-02
-4.989501449892680407e-02
-4.989922319177161197e-02
-4.990342828207018633e-02
-4.990762977011090756e-02
-4.991182765618253775e-02
-4.991602194057419284e-02
-4.992021262357535655e-02
-4.992439970547590811e-02
-4.992858318656608757e-02
-4.993276306713652357e-02
-4.993693934747821250e-02
-4.994111202788254628e-02
-4.994528110864129844e-02
-4.994944659004660337e-02
-4.995360847239099789e-02
-4.995776675596737965e-02
-4.996192144106900018e-02
-4.996607252798950655e-02
-4.997022001702292049e-02
-4.997436390846368703e-02
-4.997850420260663284e-02
-4.998264089974697316e-02
-4.998677400018032568e-02
-4.999090350420267587e-02
-4.999502941211040469e-02
-4.999915172420026088e-02
-5.000327044076938177e-02
-5.000738556211527241e-02
-5.001149708853580567e-02
-5.001560502032922212e-02
-5.001970935779413013e-02
-5.002381010122952665e-02
-5.002790725093478330e-02
-5.003200080720964643e-02
-5.003609077035422320e-02
-5.004017714066901629e-02
-5.004425991845492389e-02
-5.004833910401323971e-02
-5.005241469764563217e-02
-5.005648669965416520e-02
-5.006055511034129823e-02
-5.006461993000986543e-02
-5.006868115896306870e-02
-5.007273879750449852e-02
-5.007679284593816865e-02
-5.008084330456852307e-02
-5.008489017370038043e-02
-5.008893345363890637e-02
-5.009297314468966200e-02
-5.009700924715856929e-02
-5.010104176135197346e-02
-5.010507068757660137e-02
-5.010909602613955460e-02
-5.011311777734829553e-02
-5.011713594151065432e-02
-5.012115051893486356e-02
-5.012516150992958608e-02
-5.012916891480388715e-02
-5.013317273386720674e-02
-5.013717296742938034e-02
-5.014116961580061121e-02
-5.014516267929153281e-02
-5.014915215821317412e-02
-5.015313805287698740e-02
-5.015712036359485509e-02
-5.016109909067902745e-02
-5.016507423444215019e-02
-5.016904579519725071e-02
-5.017301377325773110e-02
-5.017697816893738894e-02
-5.018093898255039653e-02
-5.018489621441134946e-02
-5.018884986483523880e-02
-5.019279993413743035e-02
-5.019674642263369235e-02
-5.020068933064019551e-02
-5.020462865847351297e-02
-5.020856440645064117e-02
-5.021249657488899981e-02
-5.021642516410635554e-02
-5.022035017442084276e-02
-5.022427160615104691e-02
-5.022818945961593506e-02
-5.023210373513487675e-02
-5.023601443302765784e-02
-5.023992155361443890e-02
-5.024382509721576212e-02
-5.024772506415256523e-02
-5.025162145474615372e-02
-5.025551426931820775e-02
-5.025940350819077529e-02
-5.026328917168627203e-02
-5.026717126012751613e-02
-5.027104977383778373e-02
-5.027492471314074646e-02
-5.027879607836044373e-02
-5.028266386982128966e-02
-5.028652808784812162e-02
-5.029038873276620719e-02
-5.029424580490118868e-02
-5.029809930457912470e-02
-5.030194923212644859e-02
-5.030579558787000305e-02
-5.030963837213702633e-02
-5.031347758525511749e-02
-5.031731322755227109e-02
-5.032114529935682867e-02
-5.032497380099752726e-02
-5.032879873280349942e-02
-5.033262009510425239e-02
-5.033643788822968895e-02
-5.034025211251013515e-02
-5.034406276827629173e-02
-5.034786985585925495e-02
-5.035167337559053741e-02
-5.035547332780207497e-02
-5.035926971282620596e-02
-5.036306253099569197e-02
-5.036685178264369012e-02
-5.037063746810375303e-02
-5.037441958770979417e-02
-5.037819814179610167e-02
-5.038197313069736616e-02
-5.038574455474866681e-02
-5.038951241428547834e-02
-5.039327670964367095e-02
-5.039703744115947570e-02
-5.040079460916953996e-02
-5.040454821401087887e-02
-5.040829825602091002e-02
-5.041204473553741877e-02
-5.041578765289857905e-02
-5.041952700844298113e-02
-5.042326280250963855e-02
-5.042699503543796036e-02
-5.043072370756771644e-02
-5.043444881923904444e-02
-5.043817037079247750e-02
-5.044188836256890962e-02
-5.044560279490965110e-02
-5.044931366815640084e-02
-5.045302098265127405e-02
-5.045672473873677455e-02
-5.046042493675577389e-02
-5.046412157705153917e-02
-5.046781465996771909e-02
-5.047150418584837872e-02
-5.047519015503797862e-02
-5.047887256788136101e-02
-5.048255142472375667e-02
-5.048622672591079191e-02
-5.048989847178844692e-02
-5.049356666270303495e-02
-5.049723129900126478e-02
-5.050089238103025457e-02
-5.050454990913750414e-02
-5.050820388367090186e-02
-5.051185430497874551e-02
-5.051550117340974227e-02
-5.051914448931296708e-02
-5.052278425303785570e-02
-5.052642046493421857e-02
-5.053005312535227556e-02
-5.053368223464257958e-02
-5.053730779315607213e-02
-5.054092980124407636e-02
-5.054454825925826233e-02
-5.054816316755070954e-02
-5.055177452647391378e-02
-5.055538233638078027e-02
-5.055898659762456115e-02
-5.056258731055886246e-02
-5.056618447553769963e-02
-5.056977809291544196e-02
-5.057336816304684041e-02
-5.057695468628702062e-02
-5.058053766299146214e-02
-5.058411709351599145e-02
-5.058769297821680971e-02
-5.059126531745050670e-02
-5.059483411157407462e-02
-5.059839936094490120e-02
-5.060196106592074888e-02
-5.060551922685972703e-02
-5.060907384412032667e-02
-5.061262491806144820e-02
-5.061617244904235979e-02
-5.061971643742266963e-02
-5.062325688356236059e-02
-5.062679378782176248e-02
-5.063032715056152433e-02
-5.063385697214264208e-02
-5.063738325292648640e-02
-5.064090599327479569e-02
-5.064442519354969696e-02
-5.064794085411368496e-02
-5.065145297532960139e-02
-5.065496155756066265e-02
-5.065846660117045291e-02
-5.066196810652291715e-02
-5.066546607398236812e-02
-5.066896050391352102e-02
-5.067245139668145881e-02
-5.067593875265162529e-02
-5.067942257218983199e-02
-5.068290285566225822e-02
-5.068637960343544413e-02
-5.068985281587631841e-02
-5.069332249335219837e-02
-5.069678863623078985e-02
-5.070025124488018731e-02
-5.070371031966885295e-02
-5.070716586096561673e-02
-5.071061786913969027e-02
-5.071406634456063905e-02
-5.071751128759838939e-02
-5.072095269862322842e-02
-5.072439057800580409e-02
-5.072782492611712518e-02
-5.073125574332855436e-02
-5.073468303001180818e-02
-5.073810678653896400e-02
-5.074152701328245307e-02
-5.074494371061502584e-02
-5.074835687890981439e-02
-5.075176651854033938e-02
-5.075517262988047534e-02
-5.075857521330447153e-02
-5.076197426918697964e-02
-5.076536979790303300e-02
-5.076876179982799109e-02
-5.077215027533758807e-02
-5.077553522480788423e-02
-5.077891664861531457e-02
-5.078229454713670959e-02
-5.078566892074922595e-02
-5.078903976983036722e-02
-5.079240709475797699e-02
-5.079577089591024580e-02
-5.079913117366571113e-02
-5.080248792840322963e-02
-5.080584116050199800e-02
-5.080919087034158066e-02
-5.081253705830188899e-02
-5.081587972476320214e-02
-5.081921887010616007e-02
-5.082255449471177050e-02
-5.082588659896138811e-02
-5.082921518323672838e-02
-5.083254024791986070e-02
-5.083586179339322914e-02
-5.083917982003962471e-02
-5.084249432824216458e-02
-5.084580531838429895e-02
-5.084911279084984581e-02
-5.085241674602297701e-02
-5.085571718428819055e-02
-5.085901410603032441e-02
-5.086230751163461211e-02
-5.086559740148661329e-02
-5.086888377597217903e-02
-5.087216663547748652e-02
-5.087544598038907379e-02
-5.087872181109383274e-02
-5.088199412797895366e-02
-5.088526293143195989e-02
-5.088852822184070090e-02
-5.089178999959337313e-02
-5.089504826507855462e-02
-5.089830301868517731e-02
-5.090155426080251316e-02
-5.090480199182014637e-02
-5.090804621212793174e-02
-5.091128692211605022e-02
-5.091452412217500195e-02
-5.091775781269563400e-02
-5.092098799406910570e-02
-5.092421466668691638e-02
-5.092743783094085680e-02
-5.093065748722300917e-02
-5.093387363592576794e-02
-5.093708627744186063e-02
-5.094029541216432699e-02
-5.094350104048649824e-02
-5.094670316280199007e-02
-5.094990177950475124e-02
-5.095309689098906358e-02
-5.095628849764951424e-02
-5.095947659988100259e-02
-5.096266119807874029e-02
-5.096584229263823734e-02
-5.096901988395530214e-02
-5.097219397242604838e-02
-5.097536455844689507e-02
-5.097853164241456653e-02
-5.098169522472605769e-02
-5.098485530577868963e-02
-5.098801188597013728e-02
-5.099116496569836704e-02
-5.099431454536161590e-02
-5.099746062535839841e-02
-5.100060320608752751e-02
-5.100374228794816306e-02
-5.100687787133975637e-02
-5.101000995666205018e-02
-5.101313854431507866e-02
-5.101626363469916048e-02
-5.101938522821489880e-02
-5.102250332526319515e-02
-5.102561792624524944e-02
-5.102872903156254608e-02
-5.103183664161684702e-02
-5.103494075681019870e-02
-5.103804137754490433e-02
-5.104113850422354465e-02
-5.104423213724898489e-02
-5.104732227702435399e-02
-5.105040892395309310e-02
-5.105349207843896953e-02
-5.105657174088607669e-02
-5.105964791169875783e-02
-5.106272059128164065e-02
-5.106578978003963737e-02
-5.106885547837795164e-02
-5.107191768670210630e-02
-5.107497640541792949e-02
-5.107803163493149917e-02
-5.108108337564919166e-02
-5.108413162797767471e-02
-5.108717639232394220e-02
-5.109021766909523088e-02
-5.109325545869904117e-02
-5.109628976154319269e-02
-5.109932057803576871e-02
-5.110234790858511622e-02
-5.110537175359984585e-02
-5.110839211348883193e-02
-5.111140898866120552e-02
-5.111442237952638218e-02
-5.111743228649406889e-02
-5.112043870997422940e-02
-5.112344165037713273e-02
-5.112644110811332548e-02
-5.112943708359363876e-02
-5.113242957722916038e-02
-5.113541858943120022e-02
-5.113840412061129020e-02
-5.114138617118121205e-02
-5.114436474155299728e-02
-5.114733983213892721e-02
-5.115031144335156071e-02
-5.115327957560372729e-02
-5.115624422930849236e-02
-5.115920540487916418e-02
-5.116216310272926615e-02
-5.116511732327258533e-02
-5.116806806692315163e-02
-5.117101533409521008e-02
-5.117395912520321388e-02
-5.117689944066187990e-02
-5.117983628088618869e-02
-5.118276964629135672e-02
-5.118569953729288496e-02
-5.118862595430653112e-02
-5.119154889774826106e-02
-5.119446836803429740e-02
-5.119738436558111255e-02
-5.120029689080543567e-02
-5.120320594412416937e-02
-5.120611152595443832e-02
-5.120901363671361700e-02
-5.121191227681932967e-02
-5.121480744668942958e-02
-5.121769914674204754e-02
-5.122058737739555723e-02
-5.122347213906855434e-02
-5.122635343217987747e-02
-5.122923125714860804e-02
-5.123210561439404953e-02
-5.123497650433574829e-02
-5.123784392739348659e-02
-5.124070788398725484e-02
-5.124356837453725166e-02
-5.124642539946389075e-02
-5.124927895918777315e-02
-5.125212905412968034e-02
-5.125497568471062970e-02
-5.125781885135183985e-02
-5.126065855447473063e-02
-5.126349479450093005e-02
-5.126632757185227429e-02
-5.126915688695083545e-02
-5.127198274021891461e-02
-5.127480513207906265e-02
-5.127762406295408026e-02
-5.128043953326696242e-02
-5.128325154344090531e-02
-5.128606009389930637e-02
-5.128886518506577813e-02
-5.129166681736418293e-02
-5.129446499121858433e-02
-5.129725970705326099e-02
-5.130005096529267894e-02
-5.130283876636152623e-02
-5.130562311068471298e-02
-5.130840399868733664e-02
-5.131118143079470978e-02
-5.131395540743236006e-02
-5.131672592902596780e-02
-5.131949299600140069e-02
-5.132225660878476925e-02
-5.132501676780239219e-02
-5.132777347348078945e-02
-5.133052672624666135e-02
-5.133327652652686784e-02
-5.133602287474847009e-02
-5.133876577133868191e-02
-5.134150521672489753e-02
-5.134424121133471242e-02
-5.134697375559590243e-02
-5.134970284993640999e-02
-5.135242849478434402e-02
-5.135515069056799387e-02
-5.135786943771582236e-02
-5.136058473665648660e-02
-5.136329658781884494e-02
-5.136600499163195693e-02
-5.136870994852509725e-02
-5.137141145892773486e-02
-5.137410952326948443e-02
-5.137680414198014800e-02
-5.137949531548971493e-02
-5.138218304422836891e-02
-5.138486732862651563e-02
-5.138754816911472040e-02
-5.139022556612370118e-02
-5.139289952008433554e-02
-5.139557003142772307e-02
-5.139823710058512296e-02
-5.140090072798794707e-02
-5.140356091406776684e-02
-5.140621765925628556e-02
-5.140887096398540773e-02
-5.141152082868718359e-02
-5.141416725379382296e-02
-5.141681023973769527e-02
-5.141944978695134338e-02
-5.142208589586745593e-02
-5.142471856691890192e-02
-5.142734780053873078e-02
-5.142997359716010991e-02
-5.143259595721631772e-02
-5.143521488114075058e-02
-5.143783036936698527e-02
-5.144044242232874431e-02
-5.144305104045988897e-02
-5.144565622419445400e-02
-5.144825797396661987e-02
-5.145085629021070583e-02
-5.145345117336116991e-02
-5.145604262385260197e-02
-5.145863064211969595e-02
-5.146121522859731928e-02
-5.146379638372051285e-02
-5.146637410792442163e-02
-5.146894840164435020e-02
-5.147151926531574190e-02
-5.147408669937417192e-02
-5.147665070425537504e-02
-5.147921128039524563e-02
-5.148176842822980298e-02
-5.148432214819519820e-02
-5.148687244072769342e-02
-5.148941930626368263e-02
-5.149196274523967776e-02
-5.149450275809231564e-02
-5.149703934525836496e-02
-5.149957250717469154e-02
-5.150210224427828609e-02
-5.150462855700631976e-02
-5.150715144579608856e-02
-5.150967091108503426e-02
-5.151218695331072350e-02
-5.151469957291082008e-02
-5.151720877032312657e-02
-5.151971454598554268e-02
-5.152221690033603752e-02
-5.152471583381271897e-02
-5.152721134685378512e-02
-5.152970343989757979e-02
-5.153219211338258554e-02
-5.153467736774740293e-02
-5.153715920343077822e-02
-5.153963762087159645e-02
-5.154211262050883285e-02
-5.154458420278157371e-02
-5.154705236812906488e-02
-5.154951711699066325e-02
-5.155197844980583671e-02
-5.155443636701416421e-02
-5.155689086905536345e-02
-5.155934195636926315e-02
-5.156178962939579613e-02
-5.156423388857497153e-02
-5.156667473434693727e-02
-5.156911216715191759e-02
-5.157154618743026164e-02
-5.157397679562242265e-02
-5.157640399216896487e-02
-5.157882777751055664e-02
-5.158124815208796343e-02
-5.158366511634202706e-02
-5.158607867071369341e-02
-5.158848881564399858e-02
-5.159089555157407581e-02
-5.159329887894516242e-02
-5.159569879819862065e-02
-5.159809530977590986e-02
-5.160048841411860737e-02
-5.160287811166838767e-02
-5.160526440286702932e-02
-5.160764728815640107e-02
-5.161002676797846189e-02
-5.161240284277521240e-02
-5.161477551298875033e-02
-5.161714477906129139e-02
-5.161951064143513457e-02
-5.162187310055269679e-02
-5.162423215685649214e-02
-5.162658781078906939e-02
-5.162894006279308834e-02
-5.163128891331124348e-02
-5.163363436278631952e-02
-5.163597641166118440e-02
-5.163831506037878938e-02
-5.164065030938220363e-02
-5.164298215911455880e-02
-5.164531061001906287e-02
-5.164763566253897931e-02
-5.164995731711766180e-02
-5.165227557419854038e-02
-5.165459043422515606e-02
-5.165690189764108459e-02
-5.165920996489000577e-02
-5.166151463641570352e-02
-5.166381591266206580e-02
-5.166611379407305693e-02
-5.166840828109272449e-02
-5.167069937416519237e-02
-5.167298707373466082e-02
-5.167527138024541333e-02
-5.167755229414186524e-02
-5.167982981586844576e-02
-5.168210394586966044e-02
-5.168437468459009809e-02
-5.168664203247442385e-02
-5.168890598996739305e-02
-5.169116655751385819e-02
-5.169342373555878278e-02
-5.169567752454722748e-02
-5.169792792492431538e-02
-5.170017493713527368e-02
-5.170241856162540589e-02
-5.170465879884007798e-02
-5.170689564922477388e-02
-5.170912911322504690e-02
-5.171135919128651975e-02
-5.171358588385489147e-02
-5.171580919137590271e-02
-5.171802911429534966e-02
-5.172024565305909788e-02
-5.172245880811311008e-02
-5.172466857990343225e-02
-5.172687496887615199e-02
-5.172907797547742631e-02
-5.173127760015346771e-02
-5.173347384335052340e-02
-5.173566670551487529e-02
-5.173785618709286771e-02
-5.174004228853091442e-02
-5.174222501027543608e-02
-5.174440435277293665e-02
-5.174658031647000334e-02
-5.174875290181325110e-02
-5.175092210924932962e-02
-5.175308793922495099e-02
-5.175525039218693835e-02
-5.175740946858217034e-02
-5.175956516885760889e-02
-5.176171749346025058e-02
-5.176386644283717531e-02
-5.176601201743551151e-02
-5.176815421770247089e-02
-5.177029304408534843e-02
-5.177242849703150157e-02
-5.177456057698834324e-02
-5.177668928440338353e-02
-5.177881461972415333e-02
-5.178093658339827376e-02
-5.178305517587342144e-02
-5.178517039759731461e-02
-5.178728224901772703e-02
-5.178939073058248799e-02
-5.179149584273946838e-02
-5.179359758593661545e-02
-5.179569596062195969e-02
-5.179779096724358711e-02
-5.179988260624966007e-02
-5.180197087808832701e-02
-5.180405578320777804e-02
-5.180613732205625183e-02
-5.180821549508207030e-02
-5.181029030273359703e-02
-5.181236174545923723e-02
-5.181442982370747241e-02
-5.181649453792682575e-02
-5.181855588856584122e-02
-5.182061387607311137e-02
-5.182266850089727039e-02
-5.182471976348702186e-02
-5.182676766429113874e-02
-5.182881220375840786e-02
-5.183085338233763689e-02
-5.183289120047765430e-02
-5.183492565862735102e-02
-5.183695675723568042e-02
-5.183898449675163750e-02
-5.184100887762420340e-02
-5.184302990030242864e-02
-5.184504756523540536e-02
-5.184706187287229512e-02
-5.184907282366230108e-02
-5.185108041805460560e-02
-5.185308465649842574e-02
-5.185508553944302018e-02
-5.185708306733773781e-02
-5.185907724063196222e-02
-5.186106805977511863e-02
-5.186305552521667389e-02
-5.186503963740615730e-02
-5.186702039679316062e-02
-5.186899780382731029e-02
-5.187097185895826051e-02
-5.187294256263570713e-02
-5.187490991530938761e-02
-5.187687391742903942e-02
-5.187883456944443472e-02
-5.188079187180538038e-02
-5.188274582496171100e-02
-5.188469642936329590e-02
-5.188664368546001826e-02
-5.188858759370181678e-02
-5.189052815453867873e-02
-5.189246536842060525e-02
-5.189439923579763914e-02
-5.189632975711987173e-02
-5.189825693283742214e-02
-5.190018076340044417e-02
-5.190210124925911939e-02
-5.190401839086366403e-02
-5.190593218866432906e-02
-5.190784264311142093e-02
-5.190974975465526692e-02
-5.191165352374627062e-02
-5.191355395083484259e-02
-5.191545103637145581e-02
-5.191734478080661103e-02
-5.191923518459086451e-02
-5.192112224817480026e-02
-5.192300597200905782e-02
-5.192488635654427670e-02
-5.192676340223106868e-02
-5.192863710952007328e-02
-5.193050747886198554e-02
-5.193237451070750049e-02
-5.193423820550733400e-02
-5.193609856371222272e-02
-5.193795558577290333e-02
-5.193980927214016802e-02
-5.194165962326483671e-02
-5.194350663959775016e-02
-5.194535032158976995e-02
-5.194719066969172988e-02
-5.194902768435449153e-02
-5.195086136602894422e-02
-5.195269171516597034e-02
-5.195451873221646616e-02
-5.195634241763134875e-02
-5.195816277186156296e-02
-5.195997979535808137e-02
-5.196179348857187658e-02
-5.196360385195391424e-02
-5.196541088595517388e-02
-5.196721459102665586e-02
-5.196901496761941602e-02
-5.197081201618453106e-02
-5.197260573717312621e-02
-5.197439613103635447e-02
-5.197618319822535499e-02
-5.197796693919128075e-02
-5.197974735438531252e-02
-5.198152444425862412e-02
-5.198329820926238243e-02
-5.198506864984771964e-02
-5.198683576646580956e-02
-5.198859955956781909e-02
-5.199036002960494285e-02
-5.199211717702842406e-02
-5.199387100228951980e-02
-5.199562150583947329e-02
-5.199736868812954854e-02
-5.199911254961100959e-02
-5.200085309073513434e-02
-5.200259031195324233e-02
-5.200432421371664615e-02
-5.200605479647670004e-02
-5.200778206068477905e-02
-5.200950600679227903e-02
-5.201122663525061668e-02
-5.201294394651117398e-02
-5.201465794102534679e-02
-5.201636861924454486e-02
-5.201807598162019181e-02
-5.201978002860370431e-02
-5.202148076064651988e-02
-5.202317817820006213e-02
-5.202487228171576855e-02
-5.202656307164506277e-02
-5.202825054843938923e-02
-5.202993471255021318e-02
-5.203161556442904151e-02
-5.203329310452739498e-02
-5.203496733329680823e-02
-5.203663825118880898e-02
-5.203830585865494573e-02
-5.203997015614675314e-02
-5.204163114411577973e-02
-5.204328882301361564e-02
-5.204494319329183716e-02
-5.204659425540200668e-02
-5.204824200979573517e-02
-5.204988645692465443e-02
-5.205152759724041012e-02
-5.205316543119468953e-02
-5.205479995923922160e-02
-5.205643118182577689e-02
-5.205805909940613985e-02
-5.205968371243213655e-02
-5.206130502135557919e-02
-5.206292302662829385e-02
-5.206453772870214824e-02
-5.206614912802903089e-02
-5.206775722506085113e-02
-5.206936202024949750e-02
-5.207096351404686546e-02
-5.207256170690487129e-02
-5.207415659927545210e-02
-5.207574819161053109e-02
-5.207733648436204538e-02
-5.207892147798197369e-02
-5.208050317292233639e-02
-5.208208156963516772e-02
-5.208365666857257131e-02
-5.208522847018666468e-02
-5.208679697492957922e-02
-5.208836218325346018e-02
-5.208992409561043896e-02
-5.209148271245268857e-02
-5.209303803423242368e-02
-5.209459006140184506e-02
-5.209613879441313961e-02
-5.209768423371850810e-02
-5.209922637977010967e-02
-5.210076523302011736e-02
-5.210230079392072500e-02
-5.210383306292409172e-02
-5.210536204048235587e-02
-5.210688772704766270e-02
-5.210841012307214359e-02
-5.210992922900791607e-02
-5.211144504530714622e-02
-5.211295757242198623e-02
-5.211446681080459525e-02
-5.211597276090715325e-02
-5.211747542318185406e-02
-5.211897479808087069e-02
-5.212047088605639700e-02
-5.212196368756061293e-02
-5.212345320304567764e-02
-5.212493943296377108e-02
-5.212642237776711485e-02
-5.212790203790788196e-02
-5.212937841383821075e-02
-5.213085150601019790e-02
-5.213232131487594706e-02
-5.213378784088755491e-02
-5.213525108449713202e-02
-5.213671104615676816e-02
-5.213816772631857388e-02
-5.213962112543464589e-02
-5.214107124395708781e-02
-5.214251808233805185e-02
-5.214396164102967635e-02
-5.214540192048410655e-02
-5.214683892115353631e-02
-5.214827264349014557e-02
-5.214970308794612125e-02
-5.215113025497364330e-02
-5.215255414502493331e-02
-5.215397475855221981e-02
-5.215539209600774523e-02
-5.215680615784373808e-02
-5.215821694451241997e-02
-5.215962445646600554e-02
-5.216102869415671639e-02
-5.216242965803678105e-02
-5.216382734855842113e-02
-5.216522176617384432e-02
-5.216661291133526529e-02
-5.216800078449494726e-02
-5.216938538610516735e-02
-5.217076671661818182e-02
-5.217214477648624005e-02
-5.217351956616158443e-02
-5.217489108609643655e-02
-5.217625933674305272e-02
-5.217762431855373778e-02
-5.217898603198081742e-02
-5.218034447747662424e-02
-5.218169965549352557e-02
-5.218305156648388177e-02
-5.218440021090007402e-02
-5.218574558919449047e-02
-5.218708770181953310e-02
-5.218842654922759700e-02
-5.218976213187111191e-02
-5.219109445020249372e-02
-5.219242350467417912e-02
-5.219374929573864647e-02
-5.219507182384836019e-02
-5.219639108945579864e-02
-5.219770709301342626e-02
-5.219901983497369363e-02
-5.220032931578906521e-02
-5.220163553591201933e-02
-5.220293849579505513e-02
-5.220423819589066483e-02
-5.220553463665131982e-02
-5.220682781852949844e-02
-5.220811774197764432e-02
-5.220940440744819416e-02
-5.221068781539353609e-02
-5.221196796626603742e-02
-5.221324486051808628e-02
-5.221451849860209160e-02
-5.221578888097044846e-02
-5.221705600807557274e-02
-5.221831988036989419e-02
-5.221958049830584953e-02
-5.222083786233589625e-02
-5.222209197291250576e-02
-5.222334283048819109e-02
-5.222459043551548608e-02
-5.222583478844693150e-02
-5.222707588973508203e-02
-5.222831373983249231e-02
-5.222954833919171008e-02
-5.223077968826529000e-02
-5.223200778750579365e-02
-5.223323263736577571e-02
-5.223445423829778389e-02
-5.223567259075437980e-02
-5.223688769518811115e-02
-5.223809955205156730e-02
-5.223930816179738618e-02
-5.224051352487819877e-02
-5.224171564174664301e-02
-5.224291451285531518e-02
-5.224411013865678383e-02
-5.224530251960357585e-02
-5.224649165614819735e-02
-5.224767754874317521e-02
-5.224886019784102942e-02
-5.225003960389432156e-02
-5.225121576735557855e-02
-5.225238868867732034e-02
-5.225355836831204609e-02
-5.225472480671224107e-02
-5.225588800433039055e-02
-5.225704796161893817e-02
-5.225820467903036226e-02
-5.225935815701713422e-02
-5.226050839603172543e-02
-5.226165539652660036e-02
-5.226279915895423039e-02
-5.226393968376712856e-02
-5.226507697141780789e-02
-5.226621102235882305e-02
-5.226734183704271480e-02
-5.226846941592201701e-02
-5.226959375944927738e-02
-5.227071486807706446e-02
-5.227183274225793985e-02
-5.227294738244448596e-02
-5.227405878908925052e-02
-5.227516696264482288e-02
-5.227627190356377851e-02
-5.227737361229867902e-02
-5.227847208930213457e-02
-5.227956733502675535e-02
-5.228065934992514457e-02
-5.228174813444994712e-02
-5.228283368905382172e-02
-5.228391601418942020e-02
-5.228499511030936658e-02
-5.228607097786629881e-02
-5.228714361731284094e-02
-5.228821302910158925e-02
-5.228927921368515391e-02
-5.229034217151618674e-02
-5.229140190304736729e-02
-5.229245840873136819e-02
-5.229351168902085512e-02
-5.229456174436848681e-02
-5.229560857522693590e-02
-5.229665218204889582e-02
-5.229769256528702531e-02
-5.229872972539400394e-02
-5.229976366282251127e-02
-5.230079437802524767e-02
-5.230182187145492739e-02
-5.230284614356422307e-02
-5.230386719480582813e-02
-5.230488502563240827e-02
-5.230589963649665691e-02
-5.230691102785128832e-02
-5.230791920014900287e-02
-5.230892415384249400e-02
-5.230992588938448290e-02
-5.231092440722771159e-02
-5.231191970782493594e-02
-5.231291179162887717e-02
-5.231390065909228421e-02
-5.231488631066793377e-02
-5.231586874680859561e-02
-5.231684796796702563e-02
-5.231782397459597972e-02
-5.231879676714818600e-02
-5.231976634607641424e-02
-5.232073271183343421e-02
-5.232169586487201568e-02
-5.232265580564491453e-02
-5.232361253460490746e-02
-5.232456605220477119e-02
-5.232551635889733793e-02
-5.232646345513543296e-02
-5.232740734137193012e-02
-5.232834801805970326e-02
-5.232928548565161930e-02
-5.233021974460053821e-02
-5.233115079535931996e-02
-5.233207863838082452e-02
-5.233300327411787717e-02
-5.233392470302332400e-02
-5.233484292554998335e-02
-5.233575794215070132e-02
-5.233666975327835175e-02
-5.233757835938580155e-02
-5.233848376092591070e-02
-5.233938595835156693e-02
-5.234028495211565796e-02
-5.234118074267107151e-02
-5.234207333047068839e-02
-5.234296271596738243e-02
-5.234384889961406218e-02
-5.234473188186360842e-02
-5.234561166316886727e-02
-5.234648824398268480e-02
-5.234736162475790711e-02
-5.234823180594738029e-02
-5.234909878800397126e-02
-5.234996257138057468e-02
-5.235082315653009216e-02
-5.235168054390541836e-02
-5.235253473395944795e-02
-5.235338572714511030e-02
-5.235423352391532781e-02
-5.235507812472302291e-02
-5.235591953002115273e-02
-5.235675774026266743e-02
-5.235759275590054496e-02
-5.235842457738777017e-02
-5.235925320517729326e-02
-5.236007863972203663e-02
-5.236090088147492966e-02
-5.236171993088890170e-02
-5.236253578841691680e-02
-5.236334845451193903e-02
-5.236415792962689775e-02
-5.236496421421470149e-02
-5.236576730872826574e-02
-5.236656721362050598e-02
-5.236736392934436546e-02
-5.236815745635281516e-02
-5.236894779509885384e-02
-5.236973494603548718e-02
-5.237051890961570005e-02
-5.237129968629244958e-02
-5.237207727651866512e-02
-5.237285168074733155e-02
-5.237362289943144067e-02
-5.237439093302399123e-02
-5.237515578197798893e-02
-5.237591744674641864e-02
-5.237667592778226522e-02
-5.237743122553846498e-02
-5.237818334046798890e-02
-5.237893227302380800e-02
-5.237967802365889325e-02
-5.238042059282625035e-02
-5.238115998097889192e-02
-5.238189618856985835e-02
-5.238262921605222472e-02
-5.238335906387907998e-02
-5.238408573250349226e-02
-5.238480922237855747e-02
-5.238552953395737843e-02
-5.238624666769309268e-02
-5.238696062403884468e-02
-5.238767140344778583e-02
-5.238837900637306755e-02
-5.238908343326782735e-02
-5.238978468458524440e-02
-5.239048276077852562e-02
-5.239117766230091261e-02
-5.239186938960566087e-02
-5.239255794314600506e-02
-5.239324332337515905e-02
-5.239392553074635056e-02
-5.239460456571284203e-02
-5.239528042872795138e-02
-5.239595312024500351e-02
-5.239662264071730940e-02
-5.239728899059815925e-02
-5.239795217034085711e-02
-5.239861218039872787e-02
-5.239926902122513108e-02
-5.239992269327345409e-02
-5.240057319699709115e-02
-5.240122053284945042e-02
-5.240186470128395391e-02
-5.240250570275400976e-02
-5.240314353771300532e-02
-5.240377820661436259e-02
-5.240440970991148972e-02
-5.240503804805783650e-02
-5.240566322150686657e-02
-5.240628523071200195e-02
-5.240690407612667856e-02
-5.240751975820431147e-02
-5.240813227739832270e-02
-5.240874163416212733e-02
-5.240934782894918903e-02
-5.240995086221297838e-02
-5.241055073440700068e-02
-5.241114744598475428e-02
-5.241174099739977915e-02
-5.241233138910564998e-02
-5.241291862155599002e-02
-5.241350269520443639e-02
-5.241408361050463316e-02
-5.241466136791021746e-02
-5.241523596787484723e-02
-5.241580741085219430e-02
-5.241637569729594437e-02
-5.241694082765982476e-02
-5.241750280239757670e-02
-5.241806162196292751e-02
-5.241861728680962534e-02
-5.241916979739143917e-02
-5.241971915416215183e-02
-5.242026535757556699e-02
-5.242080840808548137e-02
-5.242134830614569863e-02
-5.242188505221006406e-02
-5.242241864673242296e-02
-5.242294909016664145e-02
-5.242347638296662726e-02
-5.242400052558632978e-02
-5.242452151847971920e-02
-5.242503936210078652e-02
-5.242555405690353665e-02
-5.242606560334196752e-02
-5.242657400187010486e-02
-5.242707925294199517e-02
-5.242758135701169886e-02
-5.242808031453326939e-02
-5.242857612596075328e-02
-5.242906879174821788e-02
-5.242955831234973052e-02
-5.243004468821937936e-02
-5.243052791981123867e-02
-5.243100800757940355e-02
-5.243148495197802461e-02
-5.243195875346127327e-02
-5.243242941248336952e-02
-5.243289692949853337e-02
-5.243336130496097786e-02
-5.243382253932492992e-02
-5.243428063304464426e-02
-5.243473558657438249e-02
-5.243518740036842707e-02
-5.243563607488107431e-02
-5.243608161056664135e-02
-5.243652400787948004e-02
-5.243696326727399770e-02
-5.243739938920467802e-02
-5.243783237412600468e-02
-5.243826222249248215e-02
-5.243868893475861492e-02
-5.243911251137896995e-02
-5.243953295280810722e-02
-5.243995025950060757e-02
-5.244036443191107955e-02
-5.244077547049418725e-02
-5.244118337570462252e-02
-5.244158814799710494e-02
-5.244198978782635412e-02
-5.244238829564708965e-02
-5.244278367191405887e-02
-5.244317591708200915e-02
-5.244356503160575028e-02
-5.244395101594012676e-02
-5.244433387054000389e-02
-5.244471359586027476e-02
-5.244509019235581160e-02
-5.244546366048154218e-02
-5.244583400069244977e-02
-5.244620121344348990e-02
-5.244656529918962501e-02
-5.244692625838585226e-02
-5.244728409148722431e-02
-5.244763879894887709e-02
-5.244799038122600898e-02
-5.244833883877385305e-02
-5.244868417204764238e-02
-5.244902638150261698e-02
-5.244936546759402379e-02
-5.244970143077717223e-02
-5.245003427150740638e-02
-5.245036399024012586e-02
-5.245069058743076496e-02
-5.245101406353476492e-02
-5.245133441900762944e-02
-5.245165165430493159e-02
-5.245196576988230691e-02
-5.245227676619541868e-02
-5.245258464369999263e-02
-5.245288940285179613e-02
-5.245319104410665900e-02
-5.245348956792044576e-02
-5.245378497474903479e-02
-5.245407726504836693e-02
-5.245436643927441078e-02
-5.245465249788322515e-02
-5.245493544133088964e-02
-5.245521527007352552e-02
-5.245549198456733730e-02
-5.245576558526854338e-02
-5.245603607263338297e-02
-5.245630344711812998e-02
-5.245656770917909301e-02
-5.245682885927262229e-02
-5.245708689785510970e-02
-5.245734182538298873e-02
-5.245759364231272759e-02
-5.245784234910078059e-02
-5.245808794620362286e-02
-5.245833043407776425e-02
-5.245856981317975620e-02
-5.245880608396617101e-02
-5.245903924689358788e-02
-5.245926930241864850e-02
-5.245949625099804309e-02
-5.245972009308848272e-02
-5.245994082914674783e-02
-5.246015845962966051e-02
-5.246037298499411222e-02
-5.246058440569701525e-02
-5.246079272219530271e-02
-5.246099793494594932e-02
-5.246120004440594370e-02
-5.246139905103228834e-02
-5.246159495528203431e-02
-5.246178775761228125e-02
-5.246197745848014266e-02
-5.246216405834280144e-02
-5.246234755765751684e-02
-5.246252795688160359e-02
-5.246270525647241806e-02
-5.246287945688735826e-02
-5.246305055858387772e-02
-5.246321856201947853e-02
-5.246338346765173216e-02
-5.246354527593823092e-02
-5.246370398733659485e-02
-5.246385960230443707e-02
-5.246401212129946784e-02
-5.246416154477944599e-02
-5.246430787320213035e-02
-5.246445110702532832e-02
-5.246459124670692364e-02
-5.246472829270482086e-02
-5.246486224547694532e-02
-5.246499310548127792e-02
-5.246512087317584810e-02
-5.246524554901873388e-02
-5.246536713346804104e-02
-5.246548562698193086e-02
-5.246560103001862013e-02
-5.246571334303637424e-02
-5.246582256649353487e-02
-5.246592870084852700e-02
-5.246603174655982416e-02
-5.246613170408595539e-02
-5.246622857388553995e-02
-5.246632235641727343e-02
-5.246641305213992773e-02
-5.246650066151235803e-02
-5.246658518499347501e-02
-5.246666662304221712e-02
-5.246674497611755056e-02
-5.246682024467844152e-02
-5.246689242918389090e-02
-5.246696153009296204e-02
-5.246702754786476686e-02
-5.246709048295843808e-02
-5.246715033583313620e-02
-5.246720710694808415e-02
-5.246726079676256732e-02
-5.246731140573595437e-02
-5.246735893432769721e-02
-5.246740338299727552e-02
-5.246744475220420367e-02
-5.246748304240805155e-02
-5.246751825406844455e-02
-5.246755038764507745e-02
-5.246757944359767278e-02
-5.246760542238600861e-02
-5.246762832446992542e-02
-5.246764815030931922e-02
-5.246766490036414848e-02
-5.246767857509440636e-02
-5.246768917496014845e-02
-5.246769670042149281e-02
-5.246770115193864076e-02
-5.246770252997185607e-02
-5.246770083498144416e-02
-5.246769606742774511e-02
-5.246768822777115454e-02
-5.246767731647213051e-02
-5.246766333399114496e-02
-5.246764628078873227e-02
-5.246762615732545459e-02
-5.246760296406191570e-02
-5.246757670145876101e-02
-5.246754736997669144e-02
-5.246751497007641485e-02
-5.246747950221870849e-02
-5.246744096686439124e-02
-5.246739936447431668e-02
-5.246735469550940084e-02
-5.246730696043062914e-02
-5.246725615969902168e-02
-5.246720229377568878e-02
-5.246714536312175464e-02
-5.246708536819841284e-02
-5.246702230946687084e-02
-5.246695618738839856e-02
-5.246688700242435610e-02
-5.246681475503615216e-02
-5.246673944568524400e-02
-5.246666107483315133e-02
-5.246657964294148407e-02
-5.246649515047189377e-02
-5.246640759788610137e-02
-5.246631698564589719e-02
-5.246622331421316870e-02
-5.246612658404984503e-02
-5.246602679561792465e-02
-5.246592394937950321e-02
-5.246581804579677349e-02
-5.246570908533194216e-02
-5.246559706844725751e-02
-5.246548199560501641e-02
-5.246536386726759205e-02
-5.246524268389742701e-02
-5.246511844595700552e-02
-5.246499115390885343e-02
-5.246486080821554515e-02
-5.246472740933970369e-02
-5.246459095774399367e-02
-5.246445145389115605e-02
-5.246430889824398036e-02
-5.246416329126529082e-02
-5.246401463341792554e-02
-5.246386292516475036e-02
-5.246370816696867972e-02
-5.246355035929266969e-02
-5.246338950259978040e-02
-5.246322559735312752e-02
-5.246305864401586833e-02
-5.246288864305122951e-02
-5.246271559492252101e-02
-5.246253950009315686e-02
-5.246236035902659273e-02
-5.246217817218630508e-02
-5.246199294003582592e-02
-5.246180466303876355e-02
-5.246161334165877488e-02
-5.246141897635953760e-02
-5.246122156760477800e-02
-5.246102111585827787e-02
-5.246081762158392309e-02
-5.246061108524567584e-02
-5.246040150730752610e-02
-5.246018888823354015e-02
-5.245997322848783284e-02
-5.245975452853460230e-02
-5.245953278883812299e-02
-5.245930800986271791e-02
-5.245908019207279338e-02
-5.245884933593283894e-02
-5.245861544190739967e-02
-5.245837851046106920e-02
-5.245813854205848975e-02
-5.245789553716433823e-02
-5.245764949624334705e-02
-5.245740041976032497e-02
-5.245714830818013624e-02
-5.245689316196769370e-02
-5.245663498158796567e-02
-5.245637376750598296e-02
-5.245610952018685269e-02
-5.245584224009568197e-02
-5.245557192769769589e-02
-5.245529858345817503e-02
-5.245502220784242775e-02
-5.245474280131584566e-02
-5.245446036434387588e-02
-5.245417489739204880e-02
-5.245388640092595034e-02
-5.245359487541124965e-02
-5.245330032131370612e-02
-5.245300273909914157e-02
-5.245270212923346109e-02
-5.245239849218262529e-02
-5.245209182841262252e-02
-5.245178213838952441e-02
-5.245146942257952055e-02
-5.245115368144889767e-02
-5.245083491546399801e-02
-5.245051312509118463e-02
-5.245018831079691080e-02
-5.244986047304772692e-02
-5.244952961231027361e-02
-5.244919572905127475e-02
-5.244885882373748198e-02
-5.244851889683568164e-02
-5.244817594881275719e-02
-5.244782998013564762e-02
-5.244748099127137519e-02
-5.244712898268703155e-02
-5.244677395484977078e-02
-5.244641590822686494e-02
-5.244605484328567629e-02
-5.244569076049362261e-02
-5.244532366031819104e-02
-5.244495354322691039e-02
-5.244458040968736495e-02
-5.244420426016720149e-02
-5.244382509513410839e-02
-5.244344291505584343e-02
-5.244305772040019908e-02
-5.244266951163502333e-02
-5.244227828922822660e-02
-5.244188405364778871e-02
-5.244148680536178664e-02
-5.244108654483836673e-02
-5.244068327254573780e-02
-5.244027698895214334e-02
-5.243986769452589625e-02
-5.243945538973539960e-02
-5.243904007504911896e-02
-5.243862175093559619e-02
-5.243820041786344255e-02
-5.243777607630133175e-02
-5.243734872671803465e-02
-5.243691836958241231e-02
-5.243648500536336743e-02
-5.243604863452990678e-02
-5.243560925755109958e-02
-5.243516687489607753e-02
-5.243472148703402086e-02
-5.243427309443415840e-02
-5.243382169756580918e-02
-5.243336729689841019e-02
-5.243290989290147475e-02
-5.243244948604459249e-02
-5.243198607679745021e-02
-5.243151966562977634e-02
-5.243105025301142419e-02
-5.243057783941234423e-02
-5.243010242530255632e-02
-5.242962401115214971e-02
-5.242914259743131078e-02
-5.242865818461027450e-02
-5.242817077315935215e-02
-5.242768036354892441e-02
-5.242718695624947606e-02
-5.242669055173154041e-02
-5.242619115046576878e-02
-5.242568875292288183e-02
-5.242518335957365577e-02
-5.242467497088897088e-02
-5.242416358733974907e-02
-5.242364920939700940e-02
-5.242313183753184724e-02
-5.242261147221546208e-02
-5.242208811391915052e-02
-5.242156176311428550e-02
-5.242103242027232324e-02
-5.242050008586482401e-02
-5.241996476036341751e-02
-5.241942644423983749e-02
-5.241888513796589405e-02
-5.241834084201352217e-02
-5.241779355685473318e-02
-5.241724328296164942e-02
-5.241669002080644874e-02
-5.241613377086138531e-02
-5.241557453359878271e-02
-5.241501230949104084e-02
-5.241444709901064286e-02
-5.241387890263012744e-02
-5.241330772082210959e-02
-5.241273355405930146e-02
-5.241215640281449151e-02
-5.241157626756052373e-02
-5.241099314877029763e-02
-5.241040704691676821e-02
-5.240981796247299457e-02
-5.240922589591216763e-02
-5.240863084770756158e-02
-5.240803281833255473e-02
-5.240743180826060166e-02
-5.240682781796524026e-02
-5.240622084792011942e-02
-5.240561089859897131e-02
-5.240499797047561137e-02
-5.240438206402395910e-02
-5.240376317971803810e-02
-5.240314131803196218e-02
-5.240251647943992841e-02
-5.240188866441621018e-02
-5.240125787343513641e-02
-5.240062410697117479e-02
-5.239998736549890401e-02
-5.239934764949298607e-02
-5.239870495942816619e-02
-5.239805929577927290e-02
-5.239741065902121797e-02
-5.239675904962899644e-02
-5.239610446807772132e-02
-5.239544691484261663e-02
-5.239478639039898272e-02
-5.239412289522221017e-02
-5.239345642978777973e-02
-5.239278699457128319e-02
-5.239211459004836785e-02
-5.239143921669476428e-02
-5.239076087498631407e-02
-5.239007956539896982e-02
-5.238939528840877435e-02
-5.238870804449188845e-02
-5.238801783412458390e-02
-5.238732465778322273e-02
-5.238662851594425712e-02
-5.238592940908422257e-02
-5.238522733767979334e-02
-5.238452230220773387e-02
-5.238381430314495435e-02
-5.238310334096847598e-02
-5.238238941615541017e-02
-5.238167252918295852e-02
-5.238095268052838510e-02
-5.238022987066902336e-02
-5.237950410008229002e-02
-5.237877536924567812e-02
-5.237804367863680560e-02
-5.237730902873335981e-02
-5.237657142001313909e-02
-5.237583085295405977e-02
-5.237508732803410061e-02
-5.237434084573135834e-02
-5.237359140652402684e-02
-5.237283901089041793e-02
-5.237208365930898224e-02
-5.237132535225826058e-02
-5.237056409021691866e-02
-5.236979987366371242e-02
-5.236903270307746022e-02
-5.236826257893704983e-02
-5.236748950172145922e-02
-5.236671347190975656e-02
-5.236593448998107941e-02
-5.236515255641462779e-02
-5.236436767168966416e-02
-5.236357983628554813e-02
-5.236278905068173645e-02
-5.236199531535781077e-02
-5.236119863079349845e-02
-5.236039899746861709e-02
-5.235959641586308139e-02
-5.235879088645695179e-02
-5.235798240973043444e-02
-5.235717098616381182e-02
-5.235635661623740805e-02
-5.235553930043163745e-02
-5.235471903922703923e-02
-5.235389583310424283e-02
-5.235306968254400256e-02
-5.235224058802717684e-02
-5.235140855003469346e-02
-5.235057356904754960e-02
-5.234973564554686043e-02
-5.234889478001385904e-02
-5.234805097292988263e-02
-5.234720422477637247e-02
-5.234635453603486699e-02
-5.234550190718700174e-02
-5.234464633871450251e-02
-5.234378783109924771e-02
-5.234292638482321985e-02
-5.234206200036849860e-02
-5.234119467821729543e-02
-5.234032441885194675e-02
-5.233945122275490691e-02
-5.233857509040873435e-02
-5.233769602229609158e-02
-5.233681401889973828e-02
-5.233592908070255900e-02
-5.233504120818753547e-02
-5.233415040183780897e-02
-5.233325666213662491e-02
-5.233235998956732582e-02
-5.233146038461333055e-02
-5.233055784775816205e-02
-5.232965237948546816e-02
-5.232874398027899387e-02
-5.232783265062258132e-02
-5.232691839100014897e-02
-5.232600120189572629e-02
-5.232508108379341910e-02
-5.232415803717745811e-02
-5.232323206253217812e-02
-5.232230316034201800e-02
-5.232137133109154153e-02
-5.232043657526541658e-02
-5.231949889334841508e-02
-5.231855828582541307e-02
-5.231761475318142535e-02
-5.231666829590157081e-02
-5.231571891447109324e-02
-5.231476660937536133e-02
-5.231381138109987561e-02
-5.231285323013021987e-02
-5.231189215695211669e-02
-5.231092816205139273e-02
-5.230996124591400648e-02
-5.230899140902602745e-02
-5.230801865187362926e-02
-5.230704297494308264e-02
-5.230606437872079018e-02
-5.230508286369326548e-02
-5.230409843034716094e-02
-5.230311107916918445e-02
-5.230212081064614799e-02
-5.230112762526496761e-02
-5.230013152351271899e-02
-5.229913250587663737e-02
-5.229813057284406902e-02
-5.229712572490252676e-02
-5.229611796253963441e-02
-5.229510728624311988e-02
-5.229409369650079437e-02
-5.229307719380055924e-02
-5.229205777863044774e-02
-5.229103545147862492e-02
-5.229001021283336686e-02
-5.228898206318308844e-02
-5.228795100301631554e-02
-5.228691703282171283e-02
-5.228588015308805598e-02
-5.228484036430425946e-02
-5.228379766695934877e-02
-5.228275206154246041e-02
-5.228170354854286966e-02
-5.228065212844999060e-02
-5.227959780175337606e-02
-5.227854056894271767e-02
-5.227748043050784582e-02
-5.227641738693876439e-02
-5.227535143872556744e-02
-5.227428258635845315e-02
-5.227321083032770294e-02
-5.227213617112372313e-02
-5.227105860923705882e-02
-5.226997814515835922e-02
-5.226889477937841921e-02
-5.226780851238815861e-02
-5.226671934467858743e-02
-5.226562727674082670e-02
-5.226453230906610847e-02
-5.226343444214580358e-02
-5.226233367647140082e-02
-5.226123001253454164e-02
-5.226012345082698546e-02
-5.225901399184063045e-02
-5.225790163606746502e-02
-5.225678638399959552e-02
-5.225566823612927403e-02
-5.225454719294887057e-02
-5.225342325495089396e-02
-5.225229642262797791e-02
-5.225116669647288103e-02
-5.225003407697847296e-02
-5.224889856463774129e-02
-5.224776015994379852e-02
-5.224661886338988204e-02
-5.224547467546934720e-02
-5.224432759667566040e-02
-5.224317762750240596e-02
-5.224202476844329313e-02
-5.224086901999215604e-02
-5.223971038264295375e-02
-5.223854885688977018e-02
-5.223738444322677948e-02
-5.223621714214827377e-02
-5.223504695414869781e-02
-5.223387387972261431e-02
-5.223269791936473866e-02
-5.223151907356989032e-02
-5.223033734283298590e-02
-5.222915272764909467e-02
-5.222796522851340384e-02
-5.222677484592124636e-02
-5.222558158036811476e-02
-5.222438543234963343e-02
-5.222318640236160020e-02
-5.222198449089995864e-02
-5.222077969846078416e-02
-5.221957202554031174e-02
-5.221836147263492905e-02
-5.221714804024118334e-02
-5.221593172885572592e-02
-5.221471253897535386e-02
-5.221349047109701685e-02
-5.221226552571777563e-02
-5.221103770333487132e-02
-5.220980700444569078e-02
-5.220857342954775271e-02
-5.220733697913877008e-02
-5.220609765371661548e-02
-5.220485545377931413e-02
-5.220361037982502311e-02
-5.220236243235203133e-02
-5.220111161185880810e-02
-5.219985791884395460e-02
-5.219860135380621075e-02
-5.219734191724442057e-02
-5.219607960965758769e-02
-5.219481443154479899e-02
-5.219354638340527319e-02
-5.219227546573835391e-02
-5.219100167904348886e-02
-5.218972502382026452e-02
-5.218844550056837145e-02
-5.218716310978763206e-02
-5.218587785197797979e-02
-5.218458972763945908e-02
-5.218329873727228091e-02
-5.218200488137676035e-02
-5.218070816045337207e-02
-5.217940857500276419e-02
-5.217810612552572364e-02
-5.217680081252313445e-02
-5.217549263649604724e-02
-5.217418159794568605e-02
-5.217286769737341373e-02
-5.217155093528073190e-02
-5.217023131216930870e-02
-5.216890882854095107e-02
-5.216758348489763247e-02
-5.216625528174143739e-02
-5.216492421957461684e-02
-5.216359029889956755e-02
-5.216225352021885975e-02
-5.216091388403520240e-02
-5.215957139085141553e-02
-5.215822604117045791e-02
-5.215687783549545486e-02
-5.215552677432967743e-02
-5.215417285817654930e-02
-5.215281608753963988e-02
-5.215145646292271286e-02
-5.215009398482967073e-02
-5.214872865376456168e-02
-5.214736047023158655e-02
-5.214598943473506415e-02
-5.214461554777947982e-02
-5.214323880986949239e-02
-5.214185922150994107e-02
-5.214047678320583856e-02
-5.213909149546237104e-02
-5.213770335878490508e-02
-5.213631237367900850e-02
-5.213491854065039482e-02
-5.213352186020490248e-02
-5.213212233284848784e-02
-5.213071995908725303e-02
-5.212931473942745281e-02
-5.212790667437543907e-02
-5.212649576443768862e-02
-5.212508201012080317e-02
-5.212366541193156483e-02
-5.212224597037693613e-02
-5.212082368596400450e-02
-5.211939855920005860e-02
-5.211797059059253279e-02
-5.211653978064902104e-02
-5.211510612987727692e-02
-5.211366963878520664e-02
-5.211223030788087601e-02
-5.211078813767253820e-02
-5.210934312866859208e-02
-5.210789528137761695e-02
-5.210644459630835168e-02
-5.210499107396966006e-02
-5.210353471487056548e-02
-5.210207551952025090e-02
-5.210061348842803114e-02
-5.209914862210340836e-02
-5.209768092105606513e-02
-5.209621038579584362e-02
-5.209473701683269703e-02
-5.209326081467673814e-02
-5.209178177983823238e-02
-5.209029991282760480e-02
-5.208881521415544696e-02
-5.208732768433251004e-02
-5.208583732386967702e-02
-5.208434413327799745e-02
-5.208284811306868045e-02
-5.208134926375312251e-02
-5.207984758584288665e-02
-5.207834307984970240e-02
-5.207683574628549361e-02
-5.207532558566232289e-02
-5.207381259849244715e-02
-5.207229678528831757e-02
-5.207077814656257270e-02
-5.206925668282801067e-02
-5.206773239459757535e-02
-5.206620528238435630e-02
-5.206467534670160963e-02
-5.206314258806275796e-02
-5.206160700698141824e-02
-5.206006860397137392e-02
-5.205852737954660275e-02
-5.205698333422122820e-02
-5.205543646850954720e-02
-5.205388678292599547e-02
-5.205233427798515444e-02
-5.205077895420180678e-02
-5.204922081209088086e-02
-5.204765985216745078e-02
-5.204609607494675716e-02
-5.204452948094421411e-02
-5.204296007067541613e-02
-5.204138784465611040e-02
-5.203981280340224530e-02
-5.203823494742993577e-02
-5.203665427725547021e-02
-5.203507079339534519e-02
-5.203348449636623074e-02
-5.203189538668499814e-02
-5.203030346486869906e-02
-5.202870873143453784e-02
-5.202711118689987146e-02
-5.202551083178223734e-02
-5.202390766659935328e-02
-5.202230169186913833e-02
-5.202069290810968499e-02
-5.201908131583927314e-02
-5.201746691557634222e-02
-5.201584970783951212e-02
-5.201422969314755534e-02
-5.201260687201942484e-02
-5.201098124497422620e-02
-5.200935281253124542e-02
-5.200772157520998362e-02
-5.200608753353013619e-02
-5.200445068801158588e-02
-5.200281103917441666e-02
-5.200116858753892068e-02
-5.199952333362558438e-02
-5.199787527795505376e-02
-5.199622442104816222e-02
-5.199457076342595824e-02
-5.199291430560967070e-02
-5.199125504812072279e-02
-5.198959299148075974e-02
-5.198792813621160719e-02
-5.198626048283528506e-02
-5.198459003187403532e-02
-5.198291678385028730e-02
-5.198124073928663685e-02
-5.197956189870586718e-02
-5.197788026263092803e-02
-5.197619583158499812e-02
-5.197450860609144352e-02
-5.197281858667381765e-02
-5.197112577385586824e-02
-5.196943016816150951e-02
-5.196773177011485695e-02
-5.196603058024022725e-02
-5.196432659906213142e-02
-5.196261982710527472e-02
-5.196091026489461223e-02
-5.195919791295530027e-02
-5.195748277181272412e-02
-5.195576484199246337e-02
-5.195404412402031963e-02
-5.195232061842229576e-02
-5.195059432572457503e-02
-5.194886524645354192e-02
-5.194713338113577522e-02
-5.194539873029808269e-02
-5.194366129446745250e-02
-5.194192107417107407e-02
-5.194017806993636577e-02
-5.193843228229092640e-02
-5.193668371176252824e-02
-5.193493235887914478e-02
-5.193317822416892993e-02
-5.193142130816027352e-02
-5.192966161138174580e-02
-5.192789913436212518e-02
-5.192613387763042598e-02
-5.192436584171591929e-02
-5.192259502714810515e-02
-5.192082143445672648e-02
-5.191904506417176907e-02
-5.191726591682342684e-02
-5.191548399294210886e-02
-5.191369929305843928e-02
-5.191191181770324348e-02
-5.191012156740755501e-02
-5.190832854270262947e-02
-5.190653274411993062e-02
-5.190473417219110264e-02
-5.190293282744798398e-02
-5.190112871042262821e-02
-5.189932182164733176e-02
-5.189751216165460618e-02
-5.189569973097717809e-02
-5.189388453014799618e-02
-5.189206655970022425e-02
-5.189024582016729670e-02
-5.188842231208286998e-02
-5.188659603598082259e-02
-5.188476699239527590e-02
-5.188293518186059411e-02
-5.188110060491133574e-02
-5.187926326208228134e-02
-5.187742315390841269e-02
-5.187558028092493362e-02
-5.187373464366723530e-02
-5.187188624267096565e-02
-5.187003507847202238e-02
-5.186818115160654608e-02
-5.186632446261088547e-02
-5.186446501202162523e-02
-5.186260280037556514e-02
-5.186073782820969924e-02
-5.185887009606125753e-02
-5.185699960446769896e-02
-5.185512635396667680e-02
-5.185325034509603859e-02
-5.185137157839386085e-02
-5.184949005439848380e-02
-5.184760577364842804e-02
-5.184571873668245012e-02
-5.184382894403953557e-02
-5.184193639625887112e-02
-5.184004109387990722e-02
-5.183814303744235102e-02
-5.183624222748616645e-02
-5.183433866455152556e-02
-5.183243234917886411e-02
-5.183052328190886071e-02
-5.182861146328242991e-02
-5.182669689384068745e-02
-5.182477957412499198e-02
-5.182285950467694496e-02
-5.182093668603835607e-02
-5.181901111875129862e-02
-5.181708280335810962e-02
-5.181515174040136895e-02
-5.181321793042390628e-02
-5.181128137396878719e-02
-5.180934207157934096e-02
-5.180740002379911890e-02
-5.180545523117188744e-02
-5.180350769424168361e-02
-5.180155741355275956e-02
-5.179960438964963804e-02
-5.179764862307711937e-02
-5.179569011438027448e-02
-5.179372886410438942e-02
-5.179176487279500002e-02
-5.178979814099789192e-02
-5.178782866925910056e-02
-5.178585645812491117e-02
-5.178388150814188656e-02
-5.178190381985683932e-02
-5.177992339381683878e-02
-5.177794023056918327e-02
-5.177595433066144170e-02
-5.177396569464142589e-02
-5.177197432305717661e-02
-5.176998021645702608e-02
-5.176798337538959099e-02
-5.176598380040371011e-02
-5.176398149204847199e-02
-5.176197645087324967e-02
-5.175996867742765212e-02
-5.175795817226154505e-02
-5.175594493592505091e-02
-5.175392896896852807e-02
-5.175191027194256388e-02
-5.174988884539800243e-02
-5.174786468988597926e-02
-5.174583780595788662e-02
-5.174380819416540128e-02
-5.174177585506049837e-02
-5.173974078919541669e-02
-5.173770299712267956e-02
-5.173566247939505314e-02
-5.173361923656562972e-02
-5.173157326918776527e-02
-5.172952457781507946e-02
-5.172747316300145559e-02
-5.172541902530106844e-02
-5.172336216526833563e-02
-5.172130258345794540e-02
-5.171924028042484967e-02
-5.171717525672427096e-02
-5.171510751291170938e-02
-5.171303704954297031e-02
-5.171096386717410204e-02
-5.170888796636138873e-02
-5.170680934766138520e-02
-5.170472801163095156e-02
-5.170264395882719771e-02
-5.170055718980753889e-02
-5.169846770512968870e-02
-5.169637550535165910e-02
-5.169428059103177431e-02
-5.169218296272860835e-02
-5.169008262100097811e-02
-5.168797956640795721e-02
-5.168587379950895927e-02
-5.168376532086364078e-02
-5.168165413103190109e-02
-5.167954023057395874e-02
-5.167742362005032369e-02
-5.167530430002177655e-02
-5.167318227104940320e-02
-5.167105753369458099e-02
-5.166893008851897173e-02
-5.166679993608452176e-02
-5.166466707695348964e-02
-5.166253151168841151e-02
-5.166039324085210799e-02
-5.165825226500771888e-02
-5.165610858471870320e-02
-5.165396220054883220e-02
-5.165181311306216161e-02
-5.164966132282301087e-02
-5.164750683039601165e-02
-5.164534963634610787e-02
-5.164318974123856959e-02
-5.164102714563893748e-02
-5.163886185011306446e-02
-5.163669385522706018e-02
-5.163452316154732574e-02
-5.163234976964060918e-02
-5.163017368007395691e-02
-5.162799489341474146e-02
-5.162581341023061987e-02
-5.162362923108953366e-02
-5.162144235655969499e-02
-5.161925278720959354e-02
-5.161706052360798963e-02
-5.161486556632393502e-02
-5.161266791592680064e-02
-5.161046757298624887e-02
-5.160826453807224046e-02
-5.160605881175506920e-02
-5.160385039460535506e-02
-5.160163928719400939e-02
-5.159942549009226970e-02
-5.159720900387170656e-02
-5.159498982910421666e-02
-5.159276796636198814e-02
-5.159054341621747974e-02
-5.158831617924345553e-02
-5.158608625601298486e-02
-5.158385364709944243e-02
-5.158161835307650128e-02
-5.157938037451813285e-02
-5.157713971199858610e-02
-5.157489636609243616e-02
-5.157265033737461202e-02
-5.157040162642032022e-02
-5.156815023380504487e-02
-5.156589616010457539e-02
-5.156363940589500650e-02
-5.156137997175268273e-02
-5.155911785825422616e-02
-5.155685306597653644e-02
-5.155458559549679076e-02
-5.155231544739247163e-02
-5.155004262224136685e-02
-5.154776712062156957e-02
-5.154548894311145046e-02
-5.154320809028969247e-02
-5.154092456273531853e-02
-5.153863836102767770e-02
-5.153634948574642438e-02
-5.153405793747153213e-02
-5.153176371678327983e-02
-5.152946682426224473e-02
-5.152716726048931634e-02
-5.152486502604567559e-02
-5.152256012151281567e-02
-5.152025254747256283e-02
-5.151794230450702089e-02
-5.151562939319859896e-02
-5.151331381412999066e-02
-5.151099556788420880e-02
-5.150867465504457843e-02
-5.150635107619472991e-02
-5.150402483191857811e-02
-5.150169592280037789e-02
-5.149936434942475189e-02
-5.149703011237666272e-02
-5.149469321224143387e-02
-5.149235364960472877e-02
-5.149001142505253009e-02
-5.148766653917116742e-02
-5.148531899254728261e-02
-5.148296878576787833e-02
-5.148061591942029724e-02
-5.147826039409220122e-02
-5.147590221037159214e-02
-5.147354136884678411e-02
-5.147117787010638268e-02
-5.146881171473930566e-02
-5.146644290333480393e-02
-5.146407143648249610e-02
-5.146169731477229226e-02
-5.145932053879442164e-02
-5.145694110913946046e-02
-5.145455902639829715e-02
-5.145217429116216018e-02
-5.144978690402259719e-02
-5.144739686557144032e-02
-5.144500417640088946e-02
-5.144260883710349147e-02
-5.144021084827208462e-02
-5.143781021049982638e-02
-5.143540692438021422e-02
-5.143300099050708563e-02
-5.143059240947459726e-02
-5.142818118187719029e-02
-5.142576730830961812e-02
-5.142335078936698112e-02
-5.142093162564472658e-02
-5.141850981773864876e-02
-5.141608536624488884e-02
-5.141365827175987252e-02
-5.141122853488033773e-02
-5.140879615620331383e-02
-5.140636113632620491e-02
-5.140392347584673421e-02
-5.140148317536296502e-02
-5.139904023547330753e-02
-5.139659465677649114e-02
-5.139414643987155751e-02
-5.139169558535789523e-02
-5.138924209383523289e-02
-5.138678596590356279e-02
-5.138432720216323107e-02
-5.138186580321489616e-02
-5.137940176965952871e-02
-5.137693510209844633e-02
-5.137446580113331357e-02
-5.137199386736614193e-02
-5.136951930139928291e-02
-5.136704210383542801e-02
-5.136456227527761570e-02
-5.136207981632920361e-02
-5.135959472759384081e-02
-5.135710700967546782e-02
-5.135461666317833740e-02
-5.135212368870701455e-02
-5.134962808686639041e-02
-5.134712985826167531e-02
-5.134462900349841263e-02
-5.134212552318245804e-02
-5.133961941791996553e-02
-5.133711068831743607e-02
-5.133459933498167593e-02
-5.133208535851978283e-02
-5.132956875953923609e-02
-5.132704953864779956e-02
-5.132452769645357710e-02
-5.132200323356496396e-02
-5.131947615059066770e-02
-5.131694644813973583e-02
-5.131441412682153508e-02
-5.131187918724575137e-02
-5.130934163002238979e-02
-5.130680145576179546e-02
-5.130425866507462573e-02
-5.130171325857182940e-02
-5.129916523686466751e-02
-5.129661460056476191e-02
-5.129406135028410224e-02
-5.129150548663497650e-02
-5.128894701022999186e-02
-5.128638592168208860e-02
-5.128382222160449144e-02
-5.128125591061077210e-02
-5.127868698931481450e-02
-5.127611545833080792e-02
-5.127354131827326078e-02
-5.127096456975700073e-02
-5.126838521339718846e-02
-5.126580324980929693e-02
-5.126321867960909051e-02
-5.126063150341264585e-02
-5.125804172183634488e-02
-5.125544933549688181e-02
-5.125285434501129084e-02
-5.125025675099689065e-02
-5.124765655407131915e-02
-5.124505375485255421e-02
-5.124244835395893455e-02
-5.123984035200913195e-02
-5.123722974962212351e-02
-5.123461654741719856e-02
-5.123200074601393789e-02
-5.122938234603226226e-02
-5.122676134809242554e-02
-5.122413775281498688e-02
-5.122151156082078299e-02
-5.121888277273099060e-02
-5.121625138916704317e-02
-5.121361741075067947e-02
-5.121098083810391582e-02
-5.120834167184910163e-02
-5.120569991260889853e-02
-5.120305556100628042e-02
-5.120040861766455426e-02
-5.119775908320733232e-02
-5.119510695825855301e-02
-5.119245224344248085e-02
-5.118979493938369263e-02
-5.118713504670710512e-02
-5.118447256603791268e-02
-5.118180749800164270e-02
-5.117913984322412790e-02
-5.117646960233155490e-02
-5.117379677595046417e-02
-5.117112136470773620e-02
-5.116844336923052905e-02
-5.116576279014631995e-02
-5.116307962808291226e-02
-5.116039388366842161e-02
-5.115770555753124116e-02
-5.115501465030008327e-02
-5.115232116260396561e-02
-5.114962509507221117e-02
-5.114692644833443436e-02
-5.114422522302057572e-02
-5.114152141976090887e-02
-5.113881503918597804e-02
-5.113610608192662582e-02
-5.113339454861402095e-02
-5.113068043987965133e-02
-5.112796375635527552e-02
-5.112524449867295040e-02
-5.112252266746500351e-02
-5.111979826336406074e-02
-5.111707128700301167e-02
-5.111434173901504424e-02
-5.111160962003361702e-02
-5.110887493069248000e-02
-5.110613767162567461e-02
-5.110339784346756148e-02
-5.110065544685279265e-02
-5.109791048241636713e-02
-5.109516295079355452e-02
-5.109241285261995058e-02
-5.108966018853146329e-02
-5.108690495916425739e-02
-5.108414716515481679e-02
-5.108138680713991686e-02
-5.107862388575665213e-02
-5.107585840164243635e-02
-5.107309035543494691e-02
-5.107031974777217348e-02
-5.106754657929241104e-02
-5.106477085063423904e-02
-5.106199256243653534e-02
-5.105921171533849695e-02
-5.105642830997962622e-02
-5.105364234699970999e-02
-5.105085382703884733e-02
-5.104806275073744959e-02
-5.104526911873621259e-02
-5.104247293167610972e-02
-5.103967419019842661e-02
-5.103687289494473339e-02
-5.103406904655690551e-02
-5.103126264567715148e-02
-5.102845369294793654e-02
-5.102564218901198267e-02
-5.102282813451226168e-02
-5.102001153009205064e-02
-5.101719237639492505e-02
-5.101437067406473791e-02
-5.101154642374562675e-02
-5.100871962608197890e-02
-5.100589028171843148e-02
-5.100305839129991997e-02
-5.100022395547165049e-02
-5.099738697487913447e-02
-5.099454745016818169e-02
-5.099170538198490032e-02
-5.098886077097564834e-02
-5.098601361778705432e-02
-5.098316392306603828e-02
-5.098031168745981861e-02
-5.097745691161589127e-02
-5.097459959618205055e-02
-5.097173974180638223e-02
-5.096887734913726348e-02
-5.096601241882331434e-02
-5.096314495151345325e-02
-5.096027494785686229e-02
-5.095740240850301500e-02
-5.095452733410167634e-02
-5.095164972530290270e-02
-5.094876958275698642e-02
-5.094588690711445572e-02
-5.094300169902612335e-02
-5.094011395914308654e-02
-5.093722368811671314e-02
-5.093433088659863467e-02
-5.093143555524073246e-02
-5.092853769469511682e-02
-5.092563730561413399e-02
-5.092273438865039387e-02
-5.091982894445679086e-02
-5.091692097368649694e-02
-5.091401047699290611e-02
-5.091109745502966910e-02
-5.090818190845072116e-02
-5.090526383791024734e-02
-5.090234324406271021e-02
-5.089942012756282219e-02
-5.089649448906552465e-02
-5.089356632922601570e-02
-5.089063564869973633e-02
-5.088770244814237037e-02
-5.088476672820985147e-02
-5.088182848955841858e-02
-5.087888773284458821e-02
-5.087594445872511972e-02
-5.087299866785704311e-02
-5.087005036089765897e-02
-5.086709953850453853e-02
-5.086414620133553055e-02
-5.086119035004874750e-02
-5.085823198530256550e-02
-5.085527110775557580e-02
-5.085230771806657779e-02
-5.084934181689461374e-02
-5.084637340489896878e-02
-5.084340248273916396e-02
-5.084042905107500482e-02
-5.083745311056653282e-02
-5.083447466187400454e-02
-5.083149370565793329e-02
-5.082851024257906136e-02
-5.082552427329836697e-02
-5.082253579847705732e-02
-5.081954481877656860e-02
-5.081655133485860065e-02
-5.081355534738508234e-02
-5.081055685701816454e-02
-5.080755586442024796e-02
-5.080455237025399001e-02
-5.080154637518227712e-02
-5.079853787986824548e-02
-5.079552688497528806e-02
-5.079251339116705455e-02
-5.078949739910743749e-02
-5.078647890946054455e-02
-5.078345792289073318e-02
-5.078043444006258289e-02
-5.077740846164088828e-02
-5.077437998829068683e-02
-5.077134902067726580e-02
-5.076831555946618307e-02
-5.076527960532323941e-02
-5.076224115891445066e-02
-5.075920022090609635e-02
-5.075615679196469193e-02
-5.075311087275696798e-02
-5.075006246394987014e-02
-5.074701156621054532e-02
-5.074395818020640408e-02
-5.074090230660507211e-02
-5.073784394607438325e-02
-5.073478309928235175e-02
-5.073171976689722085e-02
-5.072865394958742807e-02
-5.072558564802158443e-02
-5.072251486286848132e-02
-5.071944159479713915e-02
-5.071636584447677953e-02
-5.071328761257685308e-02
-5.071020689976703244e-02
-5.070712370671718455e-02
-5.070403803409739840e-02
-5.070094988257796420e-02
-5.069785925282939421e-02
-5.069476614552244353e-02
-5.069167056132806159e-02
-5.068857250091738514e-02
-5.068547196496173829e-02
-5.068236895413263943e-02
-5.067926346910177349e-02
-5.067615551054101275e-02
-5.067304507912246542e-02
-5.066993217551844786e-02
-5.066681680040151237e-02
-5.066369895444439858e-02
-5.066057863832006125e-02
-5.065745585270163553e-02
-5.065433059826243700e-02
-5.065120287567598939e-02
-5.064807268561598991e-02
-5.064494002875633699e-02
-5.064180490577108174e-02
-5.063866731733444870e-02
-5.063552726412083593e-02
-5.063238474680481493e-02
-5.062923976606112375e-02
-5.062609232256470165e-02
-5.062294241699068914e-02
-5.061979005001442100e-02
-5.061663522231134305e-02
-5.061347793455706762e-02
-5.061031818742740135e-02
-5.060715598159831047e-02
-5.060399131774592080e-02
-5.060082419654652469e-02
-5.059765461867660880e-02
-5.059448258481279853e-02
-5.059130809563187892e-02
-5.058813115181081538e-02
-5.058495175402669825e-02
-5.058176990295677744e-02
-5.057858559927846248e-02
-5.057539884366934330e-02
-5.057220963680714165e-02
-5.056901797936973197e-02
-5.056582387203516216e-02
-5.056262731548163275e-02
-5.055942831038752472e-02
-5.055622685743139250e-02
-5.055302295729196399e-02
-5.054981661064809201e-02
-5.054660781817877507e-02
-5.054339658056315743e-02
-5.054018289848052903e-02
-5.053696677261034637e-02
-5.053374820363226716e-02
-5.053052719222603933e-02
-5.052730373907154959e-02
-5.052407784484885117e-02
-5.052084951023816384e-02
-5.051761873591984614e-02
-5.051438552257438847e-02
-5.051114987088241998e-02
-5.050791178152471556e-02
-5.050467125518223743e-02
-5.050142829253607274e-02
-5.049818289426746820e-02
-5.049493506105778157e-02
-5.049168479358853018e-02
-5.048843209254139097e-02
-5.048517695859817273e-02
-5.048191939244080217e-02
-5.047865939475133096e-02
-5.047539696621197725e-02
-5.047213210750508411e-02
-5.046886481931311258e-02
-5.046559510231862083e-02
-5.046232295720431971e-02
-5.045904838465307268e-02
-5.045577138534783346e-02
-5.045249195997170144e-02
-5.044921010920792870e-02
-5.044592583373988526e-02
-5.044263913425105911e-02
-5.043935001142506314e-02
-5.043605846594562819e-02
-5.043276449849656839e-02
-5.042946810976183664e-02
-5.042616930042549683e-02
-5.042286807117177944e-02
-5.041956442268506061e-02
-5.041625835564983449e-02
-5.041294987075072703e-02
-5.040963896867249605e-02
-5.040632565010001037e-02
-5.040300991571824984e-02
-5.039969176621233310e-02
-5.039637120226746203e-02
-5.039304822456891486e-02
-5.038972283380204614e-02
-5.038639503065234920e-02
-5.038306481580541452e-02
-5.037973218994698521e-02
-5.037639715376288768e-02
-5.037305970793904547e-02
-5.036971985316147232e-02
-5.036637759011625831e-02
-5.036303291948956984e-02
-5.035968584196767045e-02
-5.035633635823692777e-02
-5.035298446898380659e-02
-5.034963017489486187e-02
-5.034627347665671798e-02
-5.034291437495608951e-02
-5.033955287047976040e-02
-5.033618896391461178e-02
-5.033282265594763577e-02
-5.032945394726588695e-02
-5.032608283855648929e-02
-5.032270933050669165e-02
-5.031933342380385393e-02
-5.031595511913544011e-02
-5.031257441718898354e-02
-5.030919131865211474e-02
-5.030580582421256830e-02
-5.030241793455818983e-02
-5.029902765037691514e-02
-5.029563497235679109e-02
-5.029223990118597554e-02
-5.028884243755273736e-02
-5.028544258214542872e-02
-5.028204033565247810e-02
-5.027863569876242500e-02
-5.027522867216389912e-02
-5.027181925654557182e-02
-5.026840745259618382e-02
-5.026499326100459381e-02
-5.026157668245977150e-02
-5.025815771765075601e-02
-5.025473636726662807e-02
-5.025131263199654474e-02
-5.024788651252977412e-02
-5.024445800955568836e-02
-5.024102712376375679e-02
-5.023759385584354586e-02
-5.023415820648466368e-02
-5.023072017637678771e-02
-5.022727976620967177e-02
-5.022383697667317376e-02
-5.022039180845724177e-02
-5.021694426225194186e-02
-5.021349433874741641e-02
-5.021004203863390497e-02
-5.020658736260173727e-02
-5.020313031134128468e-02
-5.019967088554298101e-02
-5.019620908589735031e-02
-5.019274491309495823e-02
-5.018927836782641205e-02
-5.018580945078238154e-02
-5.018233816265359193e-02
-5.017886450413082400e-02
-5.017538847590489320e-02
-5.017191007866671215e-02
-5.016842931310725590e-02
-5.016494617991755500e-02
-5.016146067978872330e-02
-5.015797281341193015e-02
-5.015448258147840038e-02
-5.015098998467942132e-02
-5.014749502370634271e-02
-5.014399769925053513e-02
-5.014049801200342465e-02
-5.013699596265649983e-02
-5.013349155190129774e-02
-5.012998478042943185e-02
-5.012647564893257107e-02
-5.012296415810246764e-02
-5.011945030863090150e-02
-5.011593410120972897e-02
-5.011241553653085490e-02
-5.010889461528618416e-02
-5.010537133816767019e-02
-5.010184570586730807e-02
-5.009831771907714143e-02
-5.009478737848929719e-02
-5.009125468479599941e-02
-5.008771963868951377e-02
-5.008418224086216147e-02
-5.008064249200634005e-02
-5.007710039281451642e-02
-5.007355594397922688e-02
-5.007000914619307713e-02
-5.006646000014874226e-02
-5.006290850653891816e-02
-5.005935466605634931e-02
-5.005579847939387733e-02
-5.005223994724438547e-02
-5.004867907030081942e-02
-5.004511584925615958e-02
-5.004155028480346268e-02
-5.003798237763579931e-02
-5.003441212844630254e-02
-5.003083953792817479e-02
-5.002726460677468096e-02
-5.002368733567909287e-02
-5.002010772533472399e-02
-5.001652577643495717e-02
-5.001294148967318220e-02
-5.000935486574287908e-02
-5.000576590533753474e-02
-5.000217460915066386e-02
-4.999858097787581585e-02
-4.999498501220655394e-02
-4.999138671283644836e-02
-4.998778608045912480e-02
-4.998418311576821593e-02
-4.998057781945741684e-02
-4.997697019222045040e-02
-4.997336023475106720e-02
-4.996974794774305256e-02
-4.996613333189019873e-02
-4.996251638788634652e-02
-4.995889711642539227e-02
-4.995527551820126699e-02
-4.995165159390792947e-02
-4.994802534423933849e-02
-4.994439676988948057e-02
-4.994076587155237001e-02
-4.993713264992204887e-02
-4.993349710569258693e-02
-4.992985923955810257e-02
-4.992621905221267947e-02
-4.992257654435042907e-02
-4.991893171666549056e-02
-4.991528456985197537e-02
-4.991163510460402269e-02
-4.990798332161576478e-02
-4.990432922158134776e-02
-4.990067280519491083e-02
-4.989701407315062093e-02
-4.989335302614270051e-02
-4.988968966486539286e-02
-4.988602399001295512e-02
-4.988235600227963751e-02
-4.987868570235971799e-02
-4.987501309094746760e-02
-4.987133816873717124e-02
-4.986766093642310688e-02
-4.986398139469957330e-02
-4.986029954426088318e-02
-4.985661538580136304e-02
-4.985292892001538800e-02
-4.984924014759735400e-02
-4.984554906924161533e-02
-4.984185568564257485e-02
-4.983815999749465625e-02
-4.983446200549226934e-02
-4.983076171032980312e-02
-4.982705911270166044e-02
-4.982335421330223724e-02
-4.981964701282591557e-02
-4.981593751196711911e-02
-4.981222571142028543e-02
-4.980851161187987292e-02
-4.980479521404035381e-02
-4.980107651859620038e-02
-4.979735552624192652e-02
-4.979363223767203916e-02
-4.978990665358107998e-02
-4.978617877466359753e-02
-4.978244860161415430e-02
-4.977871613512732663e-02
-4.977498137589767696e-02
-4.977124432461983716e-02
-4.976750498198841827e-02
-4.976376334869803825e-02
-4.976001942544330120e-02
-4.975627321291881816e-02
-4.975252471181920710e-02
-4.974877392283912764e-02
-4.974502084667324631e-02
-4.974126548401620190e-02
-4.973750783556261240e-02
-4.973374790200708190e-02
-4.972998568404416592e-02
-4.972622118236842692e-02
-4.972245439767441350e-02
-4.971868533065670892e-02
-4.971491398200992423e-02
-4.971114035242864271e-02
-4.970736444260742681e-02
-4.970358625324082513e-02
-4.969980578502339319e-02
-4.969602303864968651e-02
-4.969223801481426062e-02
-4.968845071421170573e-02
-4.968466113753661900e-02
-4.968086928548359760e-02
-4.967707515874727336e-02
-4.967327875802231285e-02
-4.966948008400335485e-02
-4.966567913738498957e-02
-4.966187591886181418e-02
-4.965807042912844665e-02
-4.965426266887947720e-02
-4.965045263880950993e-02
-4.964664033961314893e-02
-4.964282577198501911e-02
-4.963900893661978009e-02
-4.963518983421212616e-02
-4.963136846545671693e-02
-4.962754483104823283e-02
-4.962371893168133347e-02
-4.961989076805068538e-02
-4.961606034085095512e-02
-4.961222765077678148e-02
-4.960839269852274774e-02
-4.960455548478343718e-02
-4.960071601025340532e-02
-4.959687427562717993e-02
-4.959303028159923327e-02
-4.958918402886400983e-02
-4.958533551811595413e-02
-4.958148475004950373e-02
-4.957763172535908924e-02
-4.957377644473914824e-02
-4.956991890888415297e-02
-4.956605911848854101e-02
-4.956219707424677073e-02
-4.955833277685324501e-02
-4.955446622700235976e-02
-4.955059742538851092e-02
-4.954672637270610136e-02
-4.954285306964952701e-02
-4.953897751691317686e-02
-4.953509971519146765e-02
-4.953121966517878144e-02
-4.952733736756949334e-02
-4.952345282305795071e-02
-4.951956603233847315e-02
-4.951567699610535250e-02
-4.951178571505287368e-02
-4.950789218987531465e-02
-4.950399642126695338e-02
-4.950009840992206783e-02
-4.949619815653495680e-02
-4.949229566179990519e-02
-4.948839092641117016e-02
-4.948448395106298803e-02
-4.948057473644958820e-02
-4.947666328326518620e-02
-4.947274959220401835e-02
-4.946883366396029325e-02
-4.946491549922821945e-02
-4.946099509870197780e-02
-4.945707246307573524e-02
-4.945314759304364483e-02
-4.944922048929983882e-02
-4.944529115253842172e-02
-4.944135958345348414e-02
-4.943742578273916527e-02
-4.943348975108957655e-02
-4.942955148919885022e-02
-4.942561099776111161e-02
-4.942166827747048602e-02
-4.941772332902109183e-02
-4.941377615310700577e-02
-4.940982675042232541e-02
-4.940587512166112055e-02
-4.940192126751745405e-02
-4.939796518868535408e-02
-4.939400688585884880e-02
-4.939004635973193169e-02
-4.938608361099855459e-02
-4.938211864035263465e-02
-4.937815144848808901e-02
-4.937418203609883482e-02
-4.937021040387881005e-02
-4.936623655252196652e-02
-4.936226048272222139e-02
-4.935828219517346405e-02
-4.935430169056952837e-02
-4.935031896960424130e-02
-4.934633403297141591e-02
-4.934234688136485830e-02
-4.933835751547836768e-02
-4.933436593600573628e-02
-4.933037214364075634e-02
-4.932637613907718543e-02
-4.932237792300877416e-02
-4.931837749612926619e-02
-4.931437485913236357e-02
-4.931037001271167813e-02
-4.930636295756082171e-02
-4.930235369437337839e-02
-4.929834222384286979e-02
-4.929432854666281061e-02
-4.929031266352668778e-02
-4.928629457512797435e-02
-4.928227428216015726e-02
-4.927825178531669570e-02
-4.927422708529102108e-02
-4.927020018277650931e-02
-4.926617107846652244e-02
-4.926213977305443636e-02
-4.925810626723359925e-02
-4.925407056169732456e-02
-4.925003265713889106e-02
-4.924599255425154976e-02
-4.924195025372852391e-02
-4.923790575626302984e-02
-4.923385906254826999e-02
-4.922981017327741210e-02
-4.922575908914359616e-02
-4.922170581083996216e-02
-4.921765033905961539e-02
-4.921359267449565422e-02
-4.920953281784117700e-02
-4.920547076978924739e-02
-4.920140653103292211e-02
-4.919734010226522319e-02
-4.919327148417916573e-02
-4.918920067746770930e-02
-4.918512768282377878e-02
-4.918105250094026437e-02
-4.917697513251005625e-02
-4.917289557822598911e-02
-4.916881383878089762e-02
-4.916472991486760952e-02
-4.916064380717891785e-02
-4.915655551640758791e-02
-4.915246504324637805e-02
-4.914837238838801192e-02
-4.914427755252521318e-02
-4.914018053635067773e-02
-4.913608134055709453e-02
-4.913197996583714561e-02
-4.912787641288348522e-02
-4.912377068238873989e-02
