1.325808119012266339e-03
2.969245039482903189e-03
5.810101508430085167e-03
4.907805584725475831e-03
5.494446360644516039e-03
7.112801128959917590e-03
3.168582610094306320e-03
-2.727350186732791903e-03
-4.371641894230714545e-03
-5.157993088674324433e-03
-6.158953150581667792e-03
-7.638508081892026597e-03
-8.891025461408616493e-03
-7.475109002706625469e-03
-3.488881168510721536e-03
1.489408665415285380e-03
3.625973520044488158e-03
5.665444374536011095e-03
5.622771050196445457e-03
4.091648981956241826e-03
4.231294161699288535e-03
4.585373293210203739e-03
3.349559642361357465e-03
3.406769415056013026e-03
3.481538733697091964e-03
-7.834208625256222722e-04
-3.388029444341105877e-03
-2.915130518784048424e-03
-2.669442099743939405e-03
-3.188094986563335623e-03
-3.908695756376067906e-03
-4.230263122578533860e-03
-5.493563383152826225e-03
-4.268150065524264902e-03
-1.360084866460163503e-03
1.078596951243584578e-03
3.353183119825625148e-03
4.398294826236609154e-03
4.206764524972835158e-03
1.528104160669380976e-03
4.197515712343932292e-04
1.542908420602050320e-03
3.530883969512354798e-03
4.667624070027659444e-03
1.974608400221937714e-03
-1.764420752642168041e-03
-2.877506785450482593e-03
-4.566144382579389888e-04
7.549766184859632665e-04
-4.707620584283929866e-04
-1.571599906589188616e-04
-9.955981404806045975e-05
-2.669770847449485281e-03
-4.402300025467213024e-03
-6.368628738671401265e-03
-7.617523662597824007e-03
-5.638945901827599819e-03
4.231336415730310458e-04
3.959947455008171885e-03
5.380643320372161149e-03
5.843063306383111492e-03
5.869228605810145744e-03
6.405621755825296679e-03
7.446501097842500062e-03
5.746516969967937691e-03
9.304912798650687069e-04
-4.954192862959581889e-03
-6.509126452996240840e-03
-4.584031463856086050e-03
-3.516936387312430846e-03
-2.273121464240085519e-03
-2.677118895122237215e-03
-2.237345628479368333e-03
-3.301841191754987127e-03
-6.501467405417630380e-03
-5.265589198718547900e-03
1.196707320727420946e-03
8.034679401308492813e-03
9.624696511168108135e-03
5.354061915409841915e-03
6.776202519954037991e-04
-1.588458907771870101e-03
-5.109171713790490959e-05
1.291394448696760481e-03
-2.356383386230740079e-04
4.311526325319102806e-04
1.299117235970472786e-03
4.315992461908301804e-03
3.479398110075938248e-03
-8.068270980472063997e-04
-2.329672156073795894e-03
-2.634199115849280085e-03
-4.755926984400122778e-03
-5.277282933931988496e-03
-4.698170153130435192e-03
-5.755959625508316746e-03
-3.663507051157276640e-03
4.565619694951153409e-04
2.765060361125955702e-03
4.170186615593702087e-03
3.294568049949364846e-03
1.649680611204283739e-03
1.182610795177295926e-03
3.503860662067649102e-03
5.303825570413552189e-03
3.996368814608679265e-03
1.840435243694754771e-03
9.101230793022139793e-04
1.272426358831891180e-03
8.456435047573950415e-04
-2.146718623092586358e-03
-4.738473300745397326e-03
-5.465701647491008619e-03
-6.341725169264090037e-03
-7.206267178798761094e-03
-4.656615746015239400e-03
-1.511587731843581613e-03
8.100084575522936616e-04
2.736876994957046505e-03
4.243553819998964298e-03
6.211112187065343654e-03
5.533414293323563743e-03
3.805277227858487859e-03
2.892298509873052811e-03
2.182212955494285036e-03
1.791781358292921693e-03
1.293058099157981880e-04
-4.113247832322551589e-03
-5.848992463771717117e-03
-5.183490428190387460e-03
-3.134730037690360450e-03
-1.168894762175362286e-03
4.824466620512140713e-04
2.214508909536634824e-03
3.524379071867886001e-03
4.384278930210146891e-03
1.731406709191043785e-03
-3.819183360912688490e-03
-4.618875057691519681e-03
-2.924516711925718299e-03
-1.135289126963947215e-03
1.103195116131459657e-03
1.554384533992125275e-03
1.642663353484187820e-03
2.024380662986928914e-03
1.821684249880990312e-03
1.824736029712531894e-03
6.761653454171964207e-04
3.648806690938197813e-04
-1.809377778809158691e-04
-3.607995447722492561e-04
-3.399859528524005027e-04
-5.882115147088628213e-04
-1.113296711398225431e-03
-1.153178921580542927e-03
-1.462850670294864016e-03
-1.261803484390280417e-03
-1.286390454640831595e-03
-1.502905108218232462e-03
-1.568556103775127844e-03
-9.883927474707739080e-04
-3.574850910078410305e-05
8.527850694812644933e-04
2.445845973462923862e-03
3.203948460769598123e-03
4.770494092403935321e-03
5.258038898735373050e-03
3.218214088090462065e-03
8.513110696223510649e-04
-1.021806119046547029e-03
-1.882829874819244749e-03
-1.964699115441571973e-03
-4.989927837954219805e-03
-8.551351652438487355e-03
-7.312829776379545579e-03
-3.232906479443219735e-03
2.301905708552672621e-04
2.536369751796334077e-03
3.461171787624261684e-03
4.611549152813537375e-03
5.144119008596838467e-03
4.961790937768383557e-03
1.809353392095414603e-03
1.214147271758499305e-04
-1.156791064403958326e-04
2.132887178130557591e-03
1.631915364902205732e-03
-6.043349639747798733e-04
-1.729326368645539005e-03
-3.617816297959757389e-03
-6.297962032343384746e-03
-6.726089904920857197e-03
-3.972741408612862415e-03
-9.022322886857979136e-04
8.588902589864867276e-04
2.746983403588035971e-03
5.439319517520811546e-03
4.879804447553306654e-03
3.564081578129419964e-03
1.990233291254948651e-03
6.404003414175187762e-04
1.333477573393162825e-04
-7.573218477736260758e-04
-1.132126147128048902e-03
-1.623860095693195962e-03
-1.951597921020152516e-03
-1.832332744714064822e-03
-2.046138325023572589e-03
-1.534988886266082158e-03
-1.064799387592957900e-03
-7.848665426601955913e-04
-3.827178336638094010e-04
3.023727113850765221e-04
1.428456154065823941e-03
2.231891189749862260e-03
3.160975721038699997e-03
4.500910145310116697e-03
5.610634862038343246e-03
1.720050665386620463e-03
-7.217137694901607815e-03
-8.585395993212422902e-03
-4.721861338932534756e-03
-9.618027776696977534e-05
2.353691170081894084e-03
2.595117590500590349e-03
1.517737276701805905e-03
1.848709496830396514e-03
2.812455022529244258e-03
2.420660276800916649e-03
1.898951307814015013e-03
6.539272090154146788e-04
-1.129978700280431748e-03
-2.030142407241368636e-03
-3.809467922838025156e-03
-5.464886578754802292e-03
-7.197047894340193736e-03
-5.226875952164799013e-03
7.205123685339266584e-04
4.506906240030209010e-03
5.015357225619318168e-03
2.324328718425164482e-03
1.361605187425056701e-03
3.504727249522947459e-03
4.136511645996598929e-03
5.005105216918636843e-03
4.004221470857342348e-03
3.689174894411643198e-04
-2.261673598026802626e-03
-8.673522888100108994e-04
-5.096479068916386166e-04
-3.637302896318590772e-03
-5.649310512813338070e-03
-6.024652865288126873e-03
-6.638397559297052122e-03
-5.808991018284091583e-03
3.251394812669387412e-04
4.982123218936637676e-03
5.985630089269411772e-03
3.312680167172403229e-03
6.082647831755787129e-04
-3.182536514909370482e-04
1.718672305544157114e-03
2.543657624306692663e-03
8.554332605193975658e-04
3.606544825956309579e-04
1.381535194322320529e-03
2.078605873016278489e-03
2.856503138843117487e-04
-1.144266259628724455e-03
-1.656717663370336135e-03
-1.615919476468647689e-03
-1.535339044670773522e-03
-1.156549992333193904e-03
-1.123340506778476187e-03
-9.952213436101272400e-04
-6.196177257286642707e-04
-1.200611199637349052e-03
-8.760848378219620453e-04
-5.198543171805853312e-04
-2.369933525796906080e-04
-5.901937166359367149e-04
-1.188267065689781514e-05
4.596905290379668749e-04
1.600320373151538876e-03
2.486364153488052585e-03
3.697036149330352236e-03
4.720577144912894291e-03
3.804500420482147954e-03
3.606750308874867236e-03
2.811201180015051627e-03
-8.110498971287615714e-04
-5.661329562948470492e-03
-8.745453736327422900e-03
-9.327838793940317758e-03
-6.639441887912627370e-03
-3.081257493272119338e-03
5.009993914500789677e-04
9.943691281136103708e-04
2.468412920910871989e-03
6.092492065616869276e-03
7.682864443212470383e-03
3.643833873556193061e-03
1.161024138030687089e-04
9.188691524532053342e-04
2.362084307772229982e-03
1.947659265077880458e-03
1.580540327719049884e-03
2.237318880643651611e-03
-7.531285726962451800e-04
-3.202301617728394757e-03
-2.274235873014571977e-03
-4.715674398227580680e-03
-7.775642414368556105e-03
-6.831402242804133010e-03
-2.408167289163554766e-03
1.952019298470847796e-03
3.039242253406956602e-03
2.083282920142983177e-03
3.162205052468544230e-04
-5.838424660093513314e-04
-3.179276297660930413e-05
7.912366074363227431e-05
1.013774044732214082e-03
3.983723715568353481e-03
6.786877958525030369e-03
1.037043622265735286e-02
8.613086369301053979e-03
-2.203594817862784567e-04
-4.766296809672333247e-03
-4.501394631519529087e-03
-3.162345667318656062e-03
-2.624507173117969928e-03
-5.022687731306626005e-03
-7.551515628517173166e-03
-6.579246410115336188e-03
-5.428941113371823710e-03
-4.465238656569702098e-03
-1.104663564441756658e-03
1.777007589317921438e-03
4.677838505992246501e-03
7.331181838927866394e-03
7.773127902307006357e-03
7.211069133619613276e-03
4.978241910938591488e-03
1.122927375604641917e-03
7.095909610402359317e-05
1.323042722935381015e-03
5.319535097328001796e-04
-5.672391440685487386e-04
-1.010162010066281571e-03
-3.946855162046743193e-03
-8.084118795922773382e-03
-8.439158910666629335e-03
-5.488444489006077259e-03
-2.724581613167275426e-03
5.133308876947319504e-04
4.455688591247442681e-03
4.773776321474678015e-03
3.556516222109881286e-03
2.585907560008540978e-03
4.288791329283383243e-04
-2.461596790888471390e-04
-1.517988486138186193e-04
-1.809922875295967484e-04
1.796120692581401742e-03
3.150718738940511045e-03
2.754276660992358450e-03
2.356492806279903048e-03
1.098688139671889948e-03
-1.732215034463432165e-03
-5.474769058092176892e-03
-5.033728743827474775e-03
-3.538455650810309102e-03
-1.657346787250505967e-03
2.679597285085691307e-04
1.459360672750813432e-03
1.310268122539140359e-03
-1.076070596310205576e-03
-1.398386535123366785e-03
5.292588383435090950e-04
1.614349691001278498e-04
5.757394924742727585e-04
1.787281347184642736e-03
2.576718504032747808e-03
3.846042999345432398e-03
4.347209295205238175e-03
4.958039237843783753e-03
3.500038128459672607e-03
-5.237613043294734889e-04
-4.546765801992721720e-03
-6.134588454299979426e-03
-6.945098837090614950e-03
-7.536089222984205041e-03
-5.228179270987388244e-03
-2.805812713662306310e-03
-4.373461576920275370e-04
4.314452164698585369e-03
6.561416950253176963e-03
3.690258262367364459e-03
1.148864789476382797e-03
8.392312202548368998e-04
2.179143177872231840e-03
4.539416522925393202e-03
3.887629205470180451e-03
1.946959942834523838e-03
1.167991546970497709e-03
-6.013231070504207899e-04
-2.169103555823910252e-03
-9.695634845093570060e-04
-1.289602482926585159e-03
-3.575523161082649545e-03
-3.660233585088996065e-03
-2.522054983113569855e-03
-5.976411697361139370e-03
-7.739571653890305394e-03
-2.861574791392087688e-03
2.347210792418589695e-03
4.799914263370435447e-03
3.399623260435618004e-03
1.772743025904303027e-03
4.289978275238489833e-03
6.138977061426904684e-03
5.525680789855245273e-03
2.451992797888003558e-03
-5.188771247840279991e-04
1.286038868273916506e-03
7.731376626323432227e-04
-1.985605453306486193e-03
-3.097642027438729517e-03
-2.467598878425528598e-03
-2.719195200455775448e-03
-4.457713072047705775e-03
-6.418797109255818326e-03
-6.689440138710610328e-03
-3.780678621255262502e-03
4.648085830185140401e-04
3.149508043400218397e-03
5.495149444029125488e-03
5.046541268910646229e-03
9.987126980536117828e-04
-7.791927088340938005e-04
2.330089891798683543e-03
6.178108194436350564e-03
5.649609356730600669e-03
4.126797166333905607e-03
4.801624093714355716e-03
2.295205938638471884e-03
-2.524871633949291646e-03
-4.053672963555882136e-03
-6.885962059371180527e-03
-7.643635881580419962e-03
-7.629811038825292172e-03
-8.398522683365066202e-03
-7.634711051223004759e-03
-2.212847083428240002e-03
3.246949261835432952e-03
6.129255709368733145e-03
6.264037678121812253e-03
5.604598840179961759e-03
4.703477811863909612e-03
4.074859125500341142e-03
4.188550083776096389e-03
3.790709190609922990e-03
3.112616968590618208e-03
3.117102278195069479e-03
2.765088842097486541e-03
7.100237759580857108e-04
-4.379881937731479671e-03
-9.532884988926340272e-03
-1.127467372297818321e-02
-9.128779762307972015e-03
-7.596884218883087798e-03
-5.633662386621925665e-03
-3.065257905624247953e-03
2.905128483304680875e-03
6.997267399387131596e-03
7.735498184959239271e-03
8.345232556165052551e-03
8.649600708674128405e-03
5.669214770837057923e-03
3.534764285489559645e-03
3.265002777533179256e-03
1.247574781964958272e-03
-2.051553804980139634e-03
-4.363026319460800578e-03
-5.106202676426816259e-03
-6.747414125807047261e-03
-5.629679542242346790e-03
-3.864349093712082361e-03
-1.846260305321021896e-03
-5.402631210287940026e-04
8.070139328658308946e-04
1.000453043156507770e-03
1.467610400179776304e-03
1.519657050205742337e-03
1.546781541081082611e-03
1.177851566828887154e-03
1.408407298926440216e-03
7.785188494220383112e-04
5.556995449431153655e-04
7.637359111376292985e-04
1.249381215173531266e-03
1.377762739230400674e-03
1.408464612784880244e-03
2.042352719204156182e-03
2.138893945165070126e-03
1.165454484612767029e-03
-7.944365693495505053e-04
-1.506796742636489330e-03
-3.598477106828942926e-03
-5.853740265332980919e-03
-5.652213522239518673e-03
-5.224727798050207705e-03
-2.958965213527729385e-03
9.480248411177195304e-04
1.429337919983602895e-03
4.558807636631159038e-03
5.109129488659190817e-03
3.632152822565821917e-03
1.261769566773108522e-03
1.692482977310113624e-03
3.852777807582819132e-03
3.737083439152206338e-03
1.123741786786906609e-03
1.107727749379661380e-03
-2.217999844263712772e-03
-6.068499857420535382e-03
-5.824237147679600657e-03
-4.025305084441818844e-03
-2.430745855173857290e-03
-9.467001834770783376e-04
8.487574619537175801e-04
1.873397675327544056e-03
2.437244457119386049e-03
2.865495792670336942e-03
2.578899971752275817e-03
3.950020417827118224e-04
-3.796809660133342468e-03
-1.408841505918808235e-03
2.106926920640301258e-03
1.905325855538523520e-03
6.129774090406639800e-04
-1.285797586769725455e-03
-1.939959713301800436e-03
-4.206949331732152356e-04
9.900710824746522445e-04
1.072673666948351047e-03
1.043843471041902126e-03
7.433417250087737300e-04
3.140031794111117084e-04
5.116067472672974052e-05
-2.055563609712422583e-04
-3.071125660092275615e-04
-4.035178095917768028e-04
-9.424209689003521136e-04
-1.447715266707715834e-03
-1.740578231281421969e-03
-1.330426361485821099e-03
-1.553659239351975509e-03
-9.996026070395334830e-04
-8.553774877061808262e-04
-2.799949665655996153e-05
8.835957297109744112e-04
2.330943616856515771e-03
3.524350926959952685e-03
4.873275644724648498e-03
6.004037697643843999e-03
4.238058046336133124e-03
1.312256329297508675e-03
-4.268987636481074138e-04
-1.523100114780460415e-03
-6.010811440507864145e-03
-1.072615695965427676e-02
-1.109979964717099608e-02
-7.717114471268781556e-03
-1.438797759065402236e-03
3.234929509294352020e-03
6.545928123485526828e-03
7.667891340152781406e-03
6.678413608835616702e-03
5.159944904942704615e-03
4.972907436051303941e-03
2.607803405743069469e-03
-2.573338728399388649e-03
-4.669793442298404706e-03
-2.373500499195587820e-03
-2.827579452768900510e-05
-1.436846263677610865e-04
-9.446297490766995385e-04
1.195109824002066638e-03
9.257271258580896788e-04
-6.628627294689480934e-04
-5.498731600652921256e-03
-8.153030370503248220e-03
-5.608755410606922585e-03
-1.692872452021945912e-03
2.221920069230039294e-03
3.848202598697995479e-03
2.259114188713507061e-03
1.843413128320150638e-03
3.748229674962895962e-03
3.582082071090568216e-03
1.937667454603339253e-03
1.948859281615837472e-03
4.867950950315387375e-03
3.664192320359086191e-03
-1.816243574019758746e-04
7.423097940501093266e-04
3.620474203296578184e-03
2.140334636164877968e-03
-5.099091500030533512e-03
-1.152093735483044647e-02
-1.476743028277259333e-02
-1.257369503005918362e-02
-5.057358020757877701e-03
3.444040203075168002e-03
8.328459208990323173e-03
8.529267675987937600e-03
7.109198004971990434e-03
5.294300930911084377e-03
3.376952957134444957e-03
1.927623293411890757e-03
5.691783208844984881e-04
-6.510329407731195190e-04
-1.411805493419224017e-03
-1.418893575423085546e-03
-2.077521009901862458e-03
-1.908127632933437129e-03
-1.575091763247422330e-03
-1.134110716781984050e-03
-1.095211019369597303e-03
-5.879493377369097735e-04
-1.054518863524897939e-04
-1.299042096350748379e-04
-6.446875480280255639e-05
3.925850805300855123e-04
4.832282215267962987e-04
6.602819967623710493e-05
5.292897838040367103e-04
2.109146383019371105e-04
4.997055529309015051e-04
3.494846837884886033e-05
3.506623383773119131e-04
2.286941927609026067e-04
4.284964067039144682e-04
3.302252858820806125e-04
3.768521419498408278e-04
5.494972841685521071e-04
6.743426939070419363e-04
2.721701345426959587e-04
2.392274420341026044e-04
-4.955167118724939534e-05
-4.494535959809634138e-04
-1.112328697908647641e-03
-1.570006997693990667e-03
-2.107570775307728624e-03
-3.154169437691974314e-03
-2.386312384748856281e-03
-6.825568350127052090e-04
8.057007605460965132e-06
1.848808074524134872e-03
4.243860855954483847e-03
3.071229912508772076e-03
1.056314253170882950e-03
1.210252311003807979e-03
3.169965711765359174e-03
4.575941824918167665e-03
3.978273716969843790e-03
1.303046763413071019e-03
-1.832705652921750097e-03
-5.925824577774385302e-03
-7.169621400007961803e-03
-7.671096096543980787e-03
-6.293066915041673447e-03
-3.691309108404939362e-03
8.839856748339232264e-04
3.169016804901417413e-03
3.029620724468522729e-03
2.005454338261480288e-03
8.540481457289135752e-04
4.537056676551128303e-04
1.029380051871415245e-03
2.297371344291569088e-03
4.681945170429348442e-03
7.636842805281358545e-03
1.102346556704907575e-02
8.406594666829978260e-03
-2.098483665709147909e-03
-6.364230905932400512e-03
-8.870533949335063575e-03
-1.010398366936557726e-02
-9.747991343418983476e-03
-8.961905000502888574e-03
-5.952465543579065974e-03
-8.592170729254321963e-04
4.695333402456572727e-03
6.678662943417065095e-03
6.415913072148126534e-03
5.846049551874326483e-03
4.610315084259557043e-03
3.247338130885373073e-03
2.424486109018099671e-03
6.471621014463551768e-04
-8.568479915345499857e-04
-1.947628438122124160e-03
-3.261626173495293327e-03
-2.694664824247987398e-03
6.383957691791749319e-04
2.138306745042718466e-03
2.408681383486439408e-03
-1.131716475294653303e-03
-6.616726662654379143e-03
-8.647708399781486172e-03
-6.077629514554320350e-03
-4.900858117847493606e-04
3.183006980828149111e-03
3.670615463792952730e-03
3.353160647956863940e-03
3.827277734069461489e-03
4.067619176930391094e-03
4.389050970912904137e-03
3.545501119563768989e-03
2.574379998607982233e-04
-2.213287447033736397e-04
1.848719953258371731e-03
-3.654703980724496870e-04
-5.000391664265645825e-03
-5.300890831510880058e-03
-3.954275044421771100e-03
-2.402464783112560464e-03
-1.143079750225920637e-03
-1.859679013494653244e-04
6.400712709559990433e-04
1.073022095959654800e-03
1.174870365301384362e-03
1.172038382359105345e-03
3.795300910954420553e-04
-2.501767613773007905e-03
-2.831645867933240725e-03
-1.787160979267112372e-03
3.447796080067438290e-04
3.094179946591262692e-03
3.516064435518904529e-03
4.887599881650993815e-03
7.555952934146720375e-03
8.334840004261186500e-03
7.381931157854793903e-03
3.940816385506291583e-03
-1.811222570248675239e-03
-1.027158441407587976e-02
-1.659832242849704556e-02
-1.695484632221832058e-02
-1.308163529582927198e-02
-5.585431572098160588e-03
4.830735757546235007e-03
1.185796490184078990e-02
9.359156833918580443e-03
5.385554515599714695e-03
2.776098733436622914e-03
3.607114459114200890e-04
-9.513565335974698018e-04
-6.231404138947835725e-04
1.047198706282803128e-03
3.383504271528094565e-03
6.861275886973192822e-03
1.098072961853304406e-02
8.176458431708838112e-03
-3.194521564155994135e-03
-5.710269684486684802e-03
-7.265576740928627632e-03
-1.053449733853991516e-02
-1.249612921092376448e-02
-9.153448297546426526e-03
-1.327253366216871741e-03
3.358830841260161942e-03
1.456969376544315709e-03
7.022494355908542440e-04
3.823697170320415790e-03
6.392427673869076864e-03
5.046410418150540540e-03
1.597254934104277426e-03
7.312786191533031995e-04
2.220940008220448434e-03
2.600396398632407076e-03
8.119498547775681318e-04
1.567034923546872576e-03
3.298626436394014923e-03
1.984892650096522874e-03
-1.821473668069946471e-03
-4.966442634622887826e-03
-6.567879347130933798e-03
-8.008246620989027675e-03
-7.284748474774326368e-03
-3.128990726138685969e-03
1.021957614898103125e-03
3.427227808647368822e-03
4.795319464968815330e-03
3.238295713091632593e-03
1.891087556792179483e-03
1.273284039773285537e-03
2.944849396278313367e-03
4.314505156555428073e-03
4.438050190001003453e-03
2.189633904592150175e-03
1.150502541048925792e-03
-1.674693479716904106e-03
-5.625053121386794364e-03
-5.306344990812832119e-03
-4.162316600816813941e-03
-2.871646185352468451e-03
-1.632615431690571982e-03
-3.144561614761636707e-04
4.733688749140342860e-04
1.208707865422065228e-03
2.231202377780189348e-03
2.668438311240873325e-03
2.566294976837935407e-03
2.894404017467608250e-04
-2.753188768090057432e-03
-3.333070701105647973e-03
-1.745632797564419672e-03
1.086862300445834081e-03
3.919506878516046920e-03
5.490415389822533854e-03
3.607472167334977928e-03
2.171663068686835191e-03
2.943736961280175434e-03
1.432386662002565732e-03
-1.957723588620773406e-03
-4.358368201905363573e-03
-6.991131141493862888e-03
-7.074816906146525267e-03
-6.826128013203560524e-03
-4.153796488304599410e-03
-1.416406201468006169e-04
2.467565779444834319e-03
5.210686388772358887e-03
5.803106256114687334e-03
1.635441518889076953e-03
-1.541049313918325643e-03
-1.221039984801501133e-03
2.917117359948437263e-03
6.566885169398036133e-03
5.676679616898110299e-03
3.931735228344513007e-03
2.539108165082465049e-03
-6.760648989710816952e-04
-3.626727991635115764e-03
-2.695345540417453875e-03
-2.179196820361873049e-03
-5.732183680991338910e-03
-7.809812227462921939e-03
-7.243336599992662717e-03
-3.118273571554855492e-03
-1.183343858698123488e-04
1.995842276781810854e-03
3.951220401678165635e-03
3.287833365348190491e-03
2.738322023759929853e-03
3.959974490934711072e-03
3.709978913583435959e-03
8.571285336546146088e-04
-2.657221433174183998e-04
2.507690550798022128e-03
2.006929894736264423e-03
3.942638450475914618e-05
-1.148315837575879109e-03
-6.944695479584506084e-04
-4.871160514394754035e-04
-4.262699132228469062e-04
-2.536854872551816669e-03
-7.148785675309353958e-03
-8.621526205498431655e-03
-4.041175918989141878e-03
2.046987367348891435e-03
7.704887710306824317e-03
1.054401920792712513e-02
6.804200768579987679e-03
-8.699707195899341553e-04
-6.789084874182088614e-03
-7.105162570574093117e-03
-4.543007454496246142e-03
-1.077875462795496427e-03
4.046631735884873189e-03
6.993412003616733714e-03
5.129103005370409286e-03
6.873912513647715324e-04
-1.437931128467093232e-04
1.490185264204460600e-03
7.786007182301713609e-04
-2.661178503768706158e-03
-4.319616656269502364e-03
-5.165409528246919443e-03
-2.028436545279523572e-03
5.004530651718070659e-04
1.400939070609950963e-04
-1.252225377190075003e-03
-1.652077786849335530e-03
-7.043415797920962078e-04
-9.501395983209062930e-04
7.115956238201016741e-04
4.168036378090751379e-03
5.782424413449601362e-03
6.630941420054875871e-03
5.788456134502781292e-03
3.308847084534311585e-04
-3.063260411635339037e-03
-2.449519347725435080e-03
-3.661848924976505212e-03
-4.894346011193853943e-03
-6.003781093239486145e-03
-5.454879269945291966e-03
-2.456374027154515065e-03
-1.542613689334564904e-05
3.449850403546680846e-03
4.490806602690283929e-03
4.997620553215319401e-03
4.258905556546409982e-03
2.772018502549691756e-03
1.325324473400736917e-03
3.881286465552025600e-04
-9.553800554004461976e-04
-1.188001615755894134e-03
-2.000298430151747301e-03
-2.183099022925624483e-03
-2.048512366034742176e-03
-2.359112688255966556e-03
-2.342984503477144303e-03
-1.830716934870428060e-03
-1.410320241070638775e-03
-4.472187130568497718e-04
7.745309197957885245e-04
1.962615655519753081e-03
3.727164628334638918e-03
5.287916917454223847e-03
7.676712079657982066e-03
3.666428237857783171e-03
-5.594442686094476189e-03
-7.220926596419896884e-03
-6.035851639428684544e-03
-4.270319496950910829e-03
1.196033173037995681e-04
6.437976466068121364e-03
8.658765780195851192e-03
5.500083827694209407e-03
4.285696792826335696e-04
-3.524468263964447307e-03
-6.200013822133591118e-03
-6.035369359843406438e-03
-3.114280321594680660e-03
-3.883897594105548915e-04
-1.712805440688156076e-04
-1.703448028158317243e-03
-1.923459348613396590e-03
-5.135587882305382452e-04
1.462651000674148813e-03
4.906751458105949003e-03
5.655626652500455979e-03
3.324770675751470301e-03
-9.868873514666568706e-04
-8.841267154885092041e-04
2.355226620513380022e-03
3.903886776703322393e-03
1.037095112545107596e-03
-1.670905331559319586e-03
-2.560230496728502225e-03
-1.653678004801513142e-03
5.749933783183809512e-04
1.685498329167934997e-03
1.094862162521148064e-03
-3.272248107615182994e-03
-7.806909644476024528e-03
-8.096909831046071593e-03
-3.352907451760225171e-03
1.298245597993131746e-03
2.892779429808880597e-03
3.519694585327061854e-03
3.138435979738852296e-03
3.841074111493093714e-03
1.908676444730057894e-03
9.270109803674005718e-04
1.101006398920629679e-03
2.457435307893914792e-03
2.862336253851904388e-03
1.533904865113600328e-03
-1.562371640485443226e-03
-2.960339097180007730e-03
-1.789163047523709008e-03
-2.238301524508390112e-04
3.359603003540931072e-04
-3.170858547854620967e-03
-7.376792066467020327e-03
-7.215736648431679383e-03
-8.079885989776324027e-04
4.583939906528022336e-03
5.977041684436185456e-03
3.439270698836116059e-03
9.983368860829141319e-04
-7.823531161686043402e-05
-2.197392710774346333e-04
1.497241593138600802e-03
2.923186527563558738e-03
9.728796334837455564e-04
7.834206152169381071e-04
2.444563788776611159e-03
-6.480487252925724471e-05
-3.610893394149896751e-03
-3.833693795197240083e-03
-3.075949002440095132e-03
-1.986841491850272791e-03
-1.351050956933040744e-03
-7.151544882593740843e-04
-2.206717988309191397e-04
4.606576371324085225e-04
5.962244660870297730e-04
6.762659967305567101e-04
1.340314006909307330e-03
1.235918083126277909e-03
1.440132916790350451e-03
1.489373305066921376e-03
1.667531711996542111e-03
1.786125248267126644e-03
1.644896527456159337e-03
1.494138825694703255e-03
1.430253152576773301e-03
7.922788906482907886e-04
-1.220360347290696612e-03
-2.641803160159515718e-03
-4.074808014451242362e-03
-5.940565579832439089e-03
-6.189209159973525082e-03
-4.727442536771279437e-03
-3.119405975579164769e-03
1.202705819275457248e-03
4.704271099409280607e-03
5.518367992460989843e-03
6.334116663364053670e-03
4.774235176942412048e-03
3.003093535142800381e-03
3.451387198913389003e-03
3.173147340755196923e-03
7.174404891685600034e-04
-2.184581607839510171e-03
-3.356128610030195952e-03
-4.741656024518809201e-03
-5.377165902280874737e-03
-4.892458924805467152e-03
-3.199469371565486202e-03
-1.558403655288340172e-03
-2.894560320733979755e-04
1.376632446795048471e-03
2.241411351831478459e-03
3.252764346992240065e-03
3.683696941883351887e-03
4.331505200432673314e-03
4.766950241770614646e-03
2.416593984387548338e-03
-3.470607960016953205e-03
-5.719037062825102491e-03
-7.383059450145461680e-03
-4.808535413923029599e-03
9.236421269221207261e-04
2.929234047717743563e-03
3.626098255384127382e-03
3.442174333354482141e-03
2.036358693471112830e-03
2.877760449788378024e-03
2.567731618393752618e-03
2.136089862875699581e-03
9.436299364837346087e-04
-1.068193521858386334e-04
-1.920742477295713391e-03
-4.002146619044998251e-03
-6.128574107170319842e-03
-8.045710174556719094e-03
-1.023387469983945940e-02
-7.659755161019653202e-03
1.209187561301984298e-03
4.471564611201383696e-03
6.683583040386653976e-03
9.311913603079442076e-03
1.011122887660458047e-02
8.609600979053638747e-03
7.479789774690523245e-03
4.915250393776687821e-03
-4.773059008990941741e-04
-6.152128984062124953e-03
-7.590230506972430943e-03
-6.062221204303617876e-03
-4.490926581707365556e-03
-5.300931314614293864e-03
-5.526265883181498244e-03
-3.977187368884789985e-03
-2.615081107300543019e-03
-9.121643609200796605e-04
1.238979167345334500e-03
3.512196153375699275e-03
4.065101265848200876e-03
3.033975518935965333e-03
2.978273219811599076e-03
4.292345577869717717e-03
4.282701053726544783e-03
1.284598046471968928e-03
7.663979335269775501e-04
2.364298949654145606e-03
1.568963140641574383e-03
1.790742918424189029e-03
1.249737747938997742e-03
-1.822998440333977116e-03
-4.137368863719986800e-03
-7.404297328636057392e-03
-9.935904155888257774e-03
-9.694175024970488538e-03
-3.224841852031674807e-03
1.365579233794406806e-03
2.250832050340794820e-03
3.718210655977007093e-03
4.555086587009321217e-03
4.137452194204480418e-03
3.636849445909546858e-03
3.567959664882071596e-03
4.851357628191681551e-03
3.623331832971960972e-03
3.140971342678138250e-03
2.498719587981029690e-03
-9.192660804577491504e-04
-3.184924227665370932e-03
-2.050563975941126996e-03
-2.579026533010257780e-03
-4.007066724011374391e-03
-4.006377714891848178e-03
-6.763176618235882710e-03
-8.173784524987981817e-03
-4.849187394880729272e-03
6.913937348589705486e-04
5.197973280563632920e-03
6.203624085255919109e-03
4.909962922145405528e-03
3.580205598491397866e-03
2.476325308001735368e-03
1.529106538919004386e-03
4.854313673394161904e-04
-2.575809269174238349e-05
-1.711556509013431159e-04
-7.571846356569160398e-04
-1.088391158133548541e-03
-3.337615822383681059e-04
2.481362302929147456e-03
2.990878627207871343e-03
1.415200117663389587e-03
-1.854894677286749631e-03
-2.282855495084055216e-03
-2.318614830711843156e-03
-3.154340348821731317e-03
-4.417825596219128979e-03
-6.005378343476384072e-03
-4.883156194248907365e-03
-3.641358146703148682e-03
-1.503745250495805213e-03
3.521896196340230153e-03
6.693727516383659801e-03
7.813576249464703263e-03
7.553307423227374577e-03
5.006257392829162496e-03
3.635432303144359948e-03
1.205540333233367503e-03
-1.511195109931951245e-03
-1.181998334066856719e-03
1.235432796370710328e-03
2.644626438478851066e-03
-6.471995268577622733e-04
-7.116143410000184098e-03
-1.275580940204913173e-02
-1.076430055922435701e-02
-6.036478928964737235e-03
-1.281595959976234095e-03
4.037317478050801538e-03
5.146458558442593839e-03
3.085848947553984038e-03
2.863250210446863838e-03
3.979931737995120664e-03
5.759849090939922304e-03
5.510872611931595666e-03
3.556630010348214768e-03
9.485562009707690281e-04
8.138750339535732526e-05
8.870623885780519902e-04
1.914057039998283373e-03
-1.178097597521676282e-04
-3.895979355632909775e-03
-7.318576763443889084e-03
-9.621913474581260742e-03
-8.171496354357760464e-03
-5.938895697476821549e-03
-2.046347735095533065e-03
3.187987229270623519e-03
6.253615124142957761e-03
4.552576596386180910e-03
2.792950265923319162e-03
3.821220367061154647e-03
3.422753693656438011e-03
2.370963277950895610e-03
3.219747740518337422e-03
3.744841952780188568e-03
3.816385507401939305e-03
2.052495011474876705e-03
-1.574578022851262421e-03
-2.518521180775841039e-03
-3.699154553394629671e-03
-6.333120189044014192e-03
-9.465076871596388164e-03
-8.892455349269056883e-03
-2.808642623376678919e-03
2.243890291017740842e-03
2.048067580437578413e-03
1.111301085739104487e-03
4.108956168690135191e-03
5.343979469590613360e-03
4.452624660037255398e-03
3.496547739891272839e-03
2.226696332996051537e-03
9.797635209597887942e-04
2.207894997738899055e-04
-5.219047753942760316e-04
-1.735986823114448038e-03
-3.003143567284819598e-03
-2.686892768802177922e-03
5.484945985326148115e-04
1.793189786096785693e-03
8.832681956804676934e-04
-1.410235929668765499e-03
-4.599819658251827828e-03
-4.971551264671250463e-03
-4.693291871128801949e-04
3.045230990721997395e-03
1.858900728766650461e-03
3.504156459667089139e-04
-1.070803134059379212e-03
-1.394857021046348256e-03
-1.765788061864661520e-03
-1.521143633372252406e-03
2.757228099322891514e-04
1.778731343789047552e-03
4.002365308661784415e-03
7.006459692372790649e-03
1.005191719013435840e-02
8.250747001605281128e-03
-2.518493827096456115e-04
-3.430316371995070692e-03
-4.660199019548739649e-03
-6.986548449560451776e-03
-1.005906946417313777e-02
-9.665090753660801615e-03
-7.338080211667875365e-03
-2.577720770857964191e-03
2.260907210628779977e-03
3.786628211123667809e-03
3.508781625917166067e-03
2.938814416843589256e-03
4.185747691042934759e-03
5.671013213832601721e-03
5.628698843849262723e-03
5.457558772365716897e-03
2.243945094274821684e-03
-1.773279736930619176e-03
4.279076762011536184e-05
3.632657277447178586e-03
2.341197648490749104e-03
-2.234169780429182042e-03
-6.943748125232121135e-03
-7.836997955929474527e-03
-8.699772579458659588e-03
-8.386665764342911625e-03
-5.706791436443901105e-03
-1.415843169833278696e-03
2.227789665405822440e-03
3.887151080569020353e-03
3.738276071718054250e-03
3.451073491863547536e-03
2.967844205439787875e-03
5.831521599510209805e-03
6.970483063266791519e-03
6.429897774946210023e-03
7.850832593441667631e-03
8.563604595634531982e-03
6.319701656304628316e-03
-1.449474286502961404e-03
-7.994096023387541050e-03
-1.324276734956581804e-02
-1.630404833555896063e-02
-1.453435192200745220e-02
-9.785716363940193813e-03
-3.676665841571921060e-03
1.636466621873439295e-03
5.731217312149821871e-03
6.846386422147941048e-03
6.893797194357802541e-03
6.857707315078303070e-03
6.316970133913352506e-03
4.802752943763161780e-03
3.772270520429566506e-03
3.095407906417479375e-03
2.945105778617439132e-04
-9.037722324408067887e-04
4.413599179176211449e-04
5.833786111108227502e-05
-7.571003847541979556e-05
-1.178145928828689759e-03
-4.440300575878866618e-03
-6.283398651941917053e-03
-6.740791737408529521e-03
-6.553464828182329303e-03
-5.186415550736797088e-03
-3.275729483452882555e-03
-1.113552132360675012e-03
2.863250972685633770e-03
5.494063843862294697e-03
3.911483363092549403e-03
2.085617285745515036e-03
4.095045065482396697e-03
7.249352916014787165e-03
6.355780193386841373e-03
3.331207425530242645e-03
1.560852226729129771e-03
-3.479728197811943115e-04
-7.376816592009858069e-06
-1.456165878726785280e-03
-3.392789716892876447e-03
-2.514948922019529225e-03
-4.490355197174709413e-03
-5.633659080714053559e-03
-6.783666704248621920e-03
-5.822940027461108448e-03
-4.240562234732582134e-03
7.953230967246577039e-04
4.372854423495780782e-03
3.130521286907142833e-03
2.108689662752426686e-03
3.443269832620187310e-03
2.690329517486376217e-03
2.090531886965278207e-03
4.610910212326982567e-03
4.786110492678760306e-03
1.994297975509414910e-03
1.224615653919686490e-03
1.946456168129923016e-03
5.616923502748127645e-04
-2.563918090826883874e-03
-4.918954251188116002e-03
-4.581157433691552053e-03
-4.938150286494951552e-03
-6.899369075430203564e-03
-6.147437517962353951e-03
-1.380312622828180598e-03
2.630332436529219872e-03
3.116773606038282692e-03
4.185809120954300799e-03
2.767831589314264599e-03
-5.617143907865375114e-04
-1.288260905075337649e-03
1.827278324665743397e-04
4.623645217125917951e-03
6.351855364131491453e-03
5.285433227467104152e-03
3.590463532857935194e-03
2.485101249908500988e-03
-3.733488837732217095e-05
-2.786398980477543599e-03
-4.411063842818259417e-03
-4.606536915824571178e-03
-5.017672784231699476e-03
-6.788884381170826043e-03
-7.966057307078418595e-03
-4.564582558398548942e-03
-3.408804878979158643e-04
2.964643973260379720e-03
4.547185961402431219e-03
5.439948633383113324e-03
6.365106441617958931e-03
6.197011882004035445e-03
3.632761177800987885e-03
-3.706424913786680268e-04
-2.749601810640990487e-03
-2.298559465224227997e-03
-1.495892015455830811e-03
5.221897362229258825e-04
4.917983094587123627e-03
6.142283952735567640e-03
6.406816567882303972e-04
-6.424273109253142433e-03
-9.252573036223924949e-03
-8.421556917522634439e-03
-4.933491684757665419e-03
-2.201699997869776496e-03
-8.698204180462071246e-04
1.636834138361046350e-03
6.520790874762124982e-03
7.038799093291457122e-03
3.595759908801080419e-03
-1.148252371787111510e-03
-1.522023485294045570e-03
6.241499729480082422e-04
2.631735595096367213e-03
5.461878572037445062e-03
7.598505539701132933e-03
4.752341053113751448e-03
-2.649828209333394708e-03
-5.483918457654608607e-03
-4.071659301819092330e-03
-3.436771609473602152e-03
-4.291009746237702850e-03
-7.604408381715377190e-03
-9.261616697360549808e-03
-3.725919659931587521e-03
2.221084960706346412e-03
4.880602013069447812e-03
4.691281136638991191e-03
4.078958090065186795e-03
2.865302870536495013e-03
2.375912094318110169e-03
1.769065217588910435e-03
1.539521290664915823e-03
1.074837086185864580e-03
9.454859319906190433e-04
1.383518695617473810e-03
1.221910233517247736e-03
1.566601602693522407e-03
1.535634867523441452e-03
7.132609013199588382e-04
-2.269124107613549549e-04
-1.493704102594841038e-03
-3.405551566413668723e-03
-6.231245643442180453e-03
-8.356533577390114209e-03
-1.162749530793783653e-02
-1.464519792856360317e-02
-8.354733934140502402e-03
1.035581613696421460e-02
1.711946199311311159e-02
1.530539586118581478e-02
1.036715395665698848e-02
4.641429073968958430e-03
1.615695932812596372e-03
1.352727414406217207e-03
1.872427828356629459e-03
8.175594336129507857e-05
-3.019267248399134986e-03
-4.301545925155841193e-03
-5.353623097706302313e-03
-6.665763146171361370e-03
-6.852771060885192410e-03
-6.154680616691193817e-03
-5.059842131191739922e-03
-4.154511843759682403e-03
1.417927095635096880e-04
4.578658111973887834e-03
4.705578216718778531e-03
4.469821349246997332e-03
5.062783512197965852e-03
5.212899990736759998e-03
3.618108160127327718e-03
1.535110319625379886e-03
1.558107969393238623e-03
2.129298847796664857e-03
9.028035622261604666e-04
-9.730923944407145199e-04
-2.201585600144759670e-03
-1.172860912021991527e-03
-2.209132446172802633e-03
-4.263846536717275613e-03
-7.629181616023447167e-03
-8.592777698990675464e-03
-4.779735508618892029e-03
1.332051346483772774e-03
6.065079783142296802e-03
5.903636677313619553e-03
2.516060289443182180e-03
-1.225007591898204457e-03
-2.321808507257634626e-03
2.186386993146125033e-03
6.672128117816904062e-03
4.240877708289320092e-03
3.110083717782704833e-04
1.174155740964997119e-03
3.320976386123860539e-03
3.827744025247638727e-03
5.217298234163933023e-04
-1.748942951717178448e-03
-3.307771096770468090e-03
-5.822206473030753365e-03
-7.867932845899816563e-03
-8.736793792133363754e-03
-7.214042765187688756e-03
-2.344220302267941303e-03
2.441796066795624571e-03
5.723952013687951847e-03
5.028045017153032550e-03
2.915434053052677870e-03
3.155814948756074847e-03
4.766169751082427811e-03
5.818868298412774136e-03
3.438844961077667465e-03
2.136373301175537639e-04
3.835670053910782314e-04
-2.210843422411831196e-04
-1.658028463430775501e-03
-4.287410565783559072e-03
-3.878710300054276187e-03
-3.656662008910396919e-03
-3.308712999886255068e-03
-2.949401627458890767e-03
-3.731126841712329584e-03
-1.439292136963751323e-03
2.361743622053132010e-03
4.287335201794456770e-03
4.950271264361745614e-04
-1.119019541321409532e-03
-3.090546622561108573e-04
3.140943266134148780e-03
4.069710864523862909e-03
2.767880439596007939e-03
1.009162134499732829e-03
2.357796283735216422e-03
3.781087361240566356e-03
3.439368661390090204e-03
3.918972768410397219e-04
-3.102025631246984813e-03
-3.706122271011486752e-03
-1.419237988602957802e-03
-3.073649325371246785e-03
-5.389280278107743197e-03
-5.802146967105004799e-03
-4.904889355338270043e-03
-2.482620852190703473e-03
1.717809863254624080e-03
2.331360791842389171e-03
2.553801628506944914e-03
2.837300187024122382e-03
4.235108233440936301e-03
4.271048164294536688e-03
3.187575556503639395e-03
2.262188747827542559e-03
1.435606179055884998e-04
-1.043688864326118787e-03
-1.493427660790301028e-03
-2.033623959085988173e-03
-6.096337623067722266e-04
9.434463901940584802e-05
2.926436883348294393e-04
5.119225068847064585e-04
3.775758838997259840e-04
-1.594482673119331905e-04
-8.177986917109925265e-04
-1.592845894211823146e-03
-3.060676904009288456e-03
-4.395687407483360974e-03
-4.442373731957819337e-03
-3.857932291045207580e-03
-2.984644374165744667e-03
3.785195122853365814e-03
8.314969721390882973e-03
4.276359537337675633e-03
5.687237818495537774e-04
3.002580802755023398e-03
6.820258168273773437e-03
4.937401900022249553e-03
1.550724401046357000e-04
-1.392702102576426956e-03
6.309520176255492908e-06
-5.613855808358635975e-05
-5.366189289781689471e-03
-9.311227601154038053e-03
-8.604371099316963922e-03
-2.516672590592641378e-03
3.003811550840316830e-03
1.127068143322492279e-03
-2.285143418215784816e-03
-1.963665913982101663e-03
1.962301111039478022e-04
2.447879068585919089e-03
3.793203042133369476e-03
4.126619125863564136e-03
6.060291877975099509e-03
9.123771050339188685e-03
9.308610967213793580e-03
3.499573990591070289e-03
-3.342790200825518972e-03
-7.325065589278144038e-03
-9.727082751048169579e-03
-8.139737494231979315e-03
-5.458692170880622384e-03
-5.760153820316805430e-03
-6.519721065229060891e-03
-1.364813795591962630e-03
4.656233041942491220e-03
6.505519314884055000e-03
7.380132736827846318e-03
4.966134621350840224e-03
1.236899296850558962e-04
-5.280912544898925479e-04
1.651232253595219133e-03
3.119005271053945563e-03
1.204042576563473617e-03
1.435651568797137239e-03
2.293031719035260648e-03
7.091015339218949363e-04
4.752048144980819486e-04
-1.173505863463409097e-03
-2.253672196565836925e-03
-3.956717775486734076e-03
-6.062083731357286592e-03
-6.779033823822635391e-03
-7.017183100659018201e-03
-4.133883907927965104e-03
7.351862199665752055e-04
4.190493549427940639e-03
5.134063482243706247e-03
5.823870505103045415e-03
4.384579956068594513e-03
1.968811993451717157e-03
1.224096135056245522e-03
9.486769644513070882e-04
2.113060874698281192e-04
1.864256036665341018e-03
3.699631372879345990e-03
2.578222660653158721e-03
2.386899224475514400e-04
-1.268180252456766475e-03
-2.619394268920118962e-03
-5.377994117153965872e-03
-5.728753687254218435e-03
-6.833082113523644349e-03
-7.689741526287914228e-03
-3.902218424341237328e-03
1.326301783782066158e-03
4.656920160323565344e-03
3.973384422066694038e-03
1.265629412849648234e-03
2.004200165555189168e-03
1.852202452047234339e-03
3.134895602273127593e-03
6.136887534467420566e-03
8.032950517455606648e-03
5.638986679701015435e-03
2.287072561870556395e-03
-9.476289262026745344e-05
-1.119112375957994785e-03
-3.598669617343313275e-03
-7.272016897531665379e-03
-8.024770990112431793e-03
-7.337162361169761136e-03
-8.310189534906331846e-03
-6.356349186063864690e-03
-1.869259589815018075e-03
2.512868457469167281e-03
5.707617110180957139e-03
7.256559980047143366e-03
4.714701790379967165e-03
2.027812021627628438e-03
2.043630166450668192e-03
4.367581814896310741e-03
5.359157075247821672e-03
2.710514728625901173e-03
-5.809542700365725922e-04
1.049845503688125051e-03
1.556916504150425385e-03
-6.814686001244930295e-04
-3.459190852280119317e-03
-5.154362731204441619e-03
-6.855044560269467346e-03
-7.164432581714695603e-03
-6.928835282553546908e-03
-4.357797624584198656e-03
8.501087264297322308e-05
3.212297678422711914e-03
3.217190811224917516e-03
2.251265860004504366e-03
2.287789485954241833e-03
3.123669805381235152e-03
3.131332812092690095e-03
5.354478670788751123e-03
7.892988403308267079e-03
7.263021042396518301e-03
6.187419757888112937e-03
1.402009085753092629e-03
-5.493376613177644412e-03
-9.541655817164032202e-03
-8.360206932139121333e-03
-6.091288327623806814e-03
-3.622978371664890927e-03
-1.938517038757498140e-03
-1.655807251688790277e-03
-1.809533422898407587e-03
-2.910952814987268714e-03
-3.755115964773486636e-03
-1.893715697746929704e-03
5.433298040979530133e-03
7.853321016373282851e-03
8.243926998775560899e-03
7.462419119818584391e-03
4.186081973652846198e-03
2.234442295084680761e-03
8.069513003491127472e-04
2.892182732212511195e-04
-1.397573854752293511e-03
-1.153473144194050058e-03
-1.366387689483358802e-03
-2.879110899792869816e-03
-5.740518092331335295e-03
-8.281599463205488454e-03
-8.789949570576991930e-03
-6.884146550139740028e-03
-3.062277809992969366e-03
5.241253804130470515e-04
4.633735742378076485e-03
9.409322218011913555e-03
9.022285653186313745e-03
5.392360035907990679e-03
4.515982987547803064e-03
5.170966002850306727e-03
2.274197401743317370e-03
-1.363421973361785564e-03
-1.283621796794906077e-03
-2.507861364767694900e-03
-5.791085836008977826e-03
-6.083320068960951232e-03
-4.725717117594974495e-03
-2.881072611669927095e-03
-1.223735536377797530e-03
2.145040769723010558e-04
9.747349984803881009e-04
1.540199148106343721e-03
2.262397843022505729e-03
1.675961331540992911e-03
1.527100633197351958e-03
1.579074812027663399e-03
5.218696253893268053e-04
-9.808460321701379259e-04
-1.516217419706104115e-03
-1.671428738531055514e-03
-8.310576197167805594e-04
1.754193186348036856e-03
2.542997516225220089e-03
1.487186377785041681e-03
2.492847910606462488e-03
2.133809118423747337e-03
2.017696302643888495e-03
4.978989041653902187e-03
3.338320261529638313e-03
-3.083584039688111629e-03
-9.704852284591307041e-03
-1.099168555196785267e-02
-8.238383083280670718e-03
-6.060092995630477798e-03
-3.453858863185536258e-04
4.184831865087760075e-03
5.560401228891814762e-03
4.393206650146147182e-03
2.031752518806376282e-03
1.463790598834987860e-03
4.101912162710347892e-03
5.353664174441634914e-03
4.691123577875558337e-03
5.196942878624965720e-03
5.029006193499493266e-03
-1.262163771198346676e-04
-3.151727252672614169e-03
-3.488030741508456236e-03
-5.742699453674158551e-03
-8.383552488079046641e-03
-8.762800989251494366e-03
-6.466846048547944363e-03
-3.468337092282283100e-03
2.947204568227964391e-04
3.094982961286719091e-03
3.386556129010027689e-03
2.689437587467607364e-03
4.048522926266573570e-03
3.779892499612218324e-03
2.292978631406654162e-03
2.251101483013320890e-03
3.379006782028927229e-03
2.614881720789167391e-03
2.506098528155106895e-03
2.366233357029815573e-03
-3.652772210567961788e-05
-9.904362800868648630e-04
-5.927449631769772780e-04
-3.194685952181506011e-03
-6.403911277677603112e-03
-6.721917254627466677e-03
-7.931888701319786752e-03
-5.229602999665078009e-03
-1.819623113796999415e-04
1.552827621468235277e-03
2.419616077386456919e-03
3.186342182874042292e-03
2.928855067152757920e-03
2.832385820320288457e-03
3.280274537053924893e-03
5.372080293684889339e-03
4.205800508858905523e-03
4.289391725109560974e-03
4.134805582116605864e-03
1.607735576934505705e-03
-3.008606892169081275e-03
-3.489077565043595397e-03
-2.300134834491637369e-03
-4.482175937430995377e-03
-6.498945729851236634e-03
-7.368584928575661747e-03
-7.591587132510177645e-03
-6.100514809098336530e-03
-7.238539375983984395e-04
5.701278777092784814e-03
8.521225100168861380e-03
7.357134304875361484e-03
5.941204350527350478e-03
4.631728916351008848e-03
3.155256765482971227e-03
1.674294722176742451e-03
-1.248975181828832198e-04
-1.652720992860246593e-03
-3.696941521864869056e-03
-5.972470543796774660e-03
-5.892495861677329513e-03
-1.003299964553748752e-03
1.559480713630918272e-03
1.399414138156184493e-03
-7.876099396315740329e-04
-3.826811130496150185e-03
-4.239169427888976951e-03
-3.682951854497196371e-04
4.254083231142112044e-03
3.950631935082060849e-03
6.550962461962150842e-04
3.943379615969132366e-04
6.459029089464445396e-06
-1.724857580754027763e-03
2.029886739008626706e-03
3.563239671900752647e-03
1.690108724170118031e-03
2.668276475263261279e-03
5.405219576291082732e-03
1.925580943553369421e-03
8.827561196736552658e-04
4.110338907614889768e-04
-1.484501798845622080e-03
-7.983687461857283049e-03
-1.108169124651908928e-02
-8.062468471673503792e-03
-5.006748859736866002e-03
-6.220054418186661983e-04
1.237059723988933680e-03
2.084183369301790840e-03
4.209490859169700422e-03
6.086326202298602758e-03
4.950991175217214942e-03
3.504765338904106565e-03
2.428714117969190626e-03
8.371465799109016181e-04
1.465500681047266765e-03
2.739666278064681933e-03
2.445520845658217136e-03
9.435078173038046086e-04
4.179372541468391600e-04
-2.281493379126160043e-03
-4.640531457407793756e-03
-6.098626179529544229e-03
-7.125025711973527118e-03
-6.315221626720372849e-03
-2.679881814828301897e-03
-6.849767036199280647e-04
-1.897743306666773919e-04
2.472857109435772690e-03
4.564574775829462368e-03
3.793424532026347124e-03
1.352053905341627600e-03
1.754102401902023168e-03
4.127764578942352304e-03
3.889624295653188943e-03
1.136181144951660263e-03
-5.741840833258626386e-04
1.818262043814466338e-03
3.712899324867454526e-03
2.016616608969722894e-03
3.457029306523143591e-04
-1.487668851566545077e-03
-3.341200397790504862e-03
-6.255629838759336689e-03
-9.088356518912755339e-03
-9.576004943213393614e-03
-4.639602752010483881e-03
1.218470495236405630e-03
3.534024770488578947e-03
1.377767471807736987e-03
6.969260065549486970e-04
1.787573302408940320e-03
4.620899103384971084e-03
7.458125452736242070e-03
7.605446162066626693e-03
4.767556947156454880e-03
3.948455290758138940e-03
4.319111556617391545e-03
-9.243733434747293792e-04
-6.389217287213202860e-03
-6.830574397126667335e-03
-4.156324301157396199e-03
-3.905386802206263930e-03
-6.236717836317558737e-03
-7.298698441252400235e-03
-3.807859315793033026e-03
3.839843699308907992e-04
3.740194378047061608e-03
5.500939446251804435e-03
3.684398104909681389e-03
-1.112040738121439091e-03
-3.741866672951140067e-03
1.390443339472672516e-04
8.876570405020959773e-03
9.930825412775397959e-03
4.900808401137664305e-03
2.204301572161440279e-03
7.601101959672658913e-04
-1.148878659154728074e-03
-1.587608189246575126e-03
-3.650040044173275076e-03
-5.677216359272445681e-03
-4.905366649211103693e-03
-3.406137669477974413e-03
-5.638945194099999336e-03
-7.005500211615803448e-03
-2.398493005872927818e-03
1.582739452686115914e-03
3.710116514720591518e-03
3.839334132464141888e-03
1.062977563496520601e-03
-8.118320416522315387e-04
1.534658401797721122e-03
4.362345933215848459e-03
4.493031645076337594e-03
3.579516880714364753e-03
3.834526174383666788e-03
6.053546854897454838e-03
6.726909337096244682e-03
4.769108990187174643e-03
1.842665875077377372e-03
-2.351864818016329104e-03
-9.751066037916263085e-03
-1.674021358756833458e-02
-1.719364403616107859e-02
-1.269418848271784001e-02
-7.960127326447378679e-03
4.331605271935751785e-04
8.316582389983723581e-03
1.168448217280595135e-02
8.957315473585570481e-03
5.229830350623972113e-03
6.604882279009837223e-03
8.735907885895064992e-03
7.043734525573799171e-03
2.668236354415228547e-03
1.409328022397809141e-03
9.234168482015514589e-04
-3.611124287364901684e-03
-6.655508543059508036e-03
-5.563460211378765292e-03
-7.427740071679424932e-03
-6.480509637208333590e-03
-5.749365576806718045e-03
-2.860851299701301729e-03
-2.639019163856806422e-04
-1.998400911665501774e-04
-4.399074203770433032e-04
1.276647377243246085e-03
3.718139941013238331e-03
4.433975858325897926e-03
2.639689061373203579e-03
2.867133158992136738e-03
5.342901267899788885e-03
4.305116895161113094e-03
2.041112549137206935e-03
1.414302040015652561e-03
5.309791558821323970e-04
-5.355267534113868078e-04
2.671951609662921810e-04
-1.866669231258299240e-03
-4.703698484434328669e-03
-5.827507345107991663e-03
-5.683492646433805848e-03
-7.118105869214590500e-03
-4.851787882354378564e-03
-1.659354471627090934e-03
1.995559591586422259e-03
3.980561893668664759e-03
4.446199072926573272e-03
2.760538062224463744e-03
6.994545573289956322e-04
3.046870745549355459e-03
6.754176552103765239e-03
5.362970917091262196e-03
3.655355407603996017e-03
3.775743900588818605e-03
2.189406720742301856e-03
-4.046706185689982228e-03
-5.519046544936531337e-03
-4.092249397941200885e-03
-2.365770755086063232e-03
-4.424731863378857447e-03
-6.219102181109603666e-03
-7.766796584855892305e-03
-5.068679162284863912e-03
-3.378861388042360327e-04
3.330129604448600796e-03
6.064497551805457520e-03
5.406103112240095467e-03
3.465281463911981923e-03
2.637325425742932054e-03
8.631770074668295833e-04
1.999936476065145973e-03
4.680256921272565873e-03
5.671563479709890859e-03
2.170619935157924556e-03
-2.541975080993648991e-03
-3.821146731741653473e-03
-2.817207596514674419e-03
-2.649850216002266456e-03
-4.736433436923429691e-03
-6.496236596614558823e-03
-7.145387002794335515e-03
-4.492811190857155801e-03
3.835028970591765254e-03
1.016406728654310407e-02
7.444365437707005720e-03
-7.746375683896830069e-05
-1.750549150273056917e-03
-2.195847874091375138e-03
-2.696651533630972306e-03
-2.426081129461272936e-03
-1.808918864637697448e-03
-2.367595339852143505e-04
2.403349617996390977e-03
4.660001939590364267e-03
7.181681171106666685e-03
1.043274299448503431e-02
9.666350911923173028e-03
-4.858795014780761205e-04
-7.536905548129354399e-03
-9.662618066402247838e-03
-9.584450212610355971e-03
-9.369839601543151694e-03
-6.611279563942325417e-03
-2.664851217320410564e-03
1.923561971777394295e-03
4.204797347470339529e-03
3.697319063565989404e-03
3.594152187144935163e-03
4.035237502349509758e-03
3.010398773722915231e-03
1.231741746751647019e-03
-1.230711406417476063e-03
2.345242559048039185e-04
2.724817476347059925e-03
3.149580621818947809e-03
2.202457348532250048e-03
2.080070003744514517e-03
8.460452826862428170e-04
-1.148934398462036046e-03
-2.018138793341651104e-03
-1.989200954706719492e-03
-2.173325620082317781e-03
-3.184252119376468609e-03
-3.913324644933987434e-03
-5.801605397435198944e-03
-8.113870484585205753e-03
-6.268823783578811835e-03
-2.991054019065594091e-03
8.287588663944797825e-04
6.420576902213679521e-03
1.147216964354993811e-02
1.087732649578126813e-02
8.016233858913668700e-03
4.528082809331706801e-03
3.821969443627186349e-03
1.778180650026741283e-03
-2.687015559753243603e-04
-1.462619827320930368e-03
-2.474783201273447492e-03
-5.636420238469520665e-03
-1.003862326630393202e-02
-1.426589569495152580e-02
-1.226793115045299656e-02
-3.430234658089405340e-03
4.827296684803604465e-03
7.414988957435340172e-03
4.457999862015928939e-03
2.348054679542013832e-03
3.351524863985677529e-03
5.137774803606545357e-03
5.651358713003238471e-03
3.563260905586010645e-03
1.778462290875833371e-03
1.487439038866544003e-03
1.409864380188068566e-03
1.313848971853638420e-03
4.439387066725659410e-05
-2.480054958945161325e-03
-5.712756502323775715e-03
-7.247238561095280945e-03
-6.929562646227819742e-03
-6.244467306579225621e-03
-4.349390102596087729e-03
-2.810766213142157702e-03
1.405177376434767764e-03
6.306150033144005719e-03
7.300970892313966149e-03
4.662752807626962745e-03
1.075100244457238797e-03
1.471478372603233662e-03
4.484781664737645321e-03
5.499009337507657254e-03
3.518719101810510556e-03
3.008015957995856856e-03
-2.898241447398567597e-04
-5.607057673522277373e-03
-7.900818696832973692e-03
-6.691163588519027754e-03
-4.677582839534659247e-03
-2.696991101171265521e-03
-9.415317716592104969e-04
5.826825372432793259e-04
8.307059204374310762e-04
1.526742868278895817e-03
1.662819575734889076e-03
2.067673383803505377e-03
1.583556276662611726e-03
1.941709613758210934e-03
1.958166298807022861e-03
1.344829218420945252e-03
1.318281872023017521e-03
1.243776365085010657e-03
7.745031386154397181e-04
6.195130107002210125e-04
-3.489707490623785184e-04
-1.273450625960919139e-03
-2.187921172250777233e-04
2.478421909345120654e-03
1.012254999890437133e-03
-2.917313172988959466e-03
-7.578061425500591010e-03
-9.374063515566858490e-03
-6.205491493567515462e-03
-2.215351362480461831e-04
4.916520563750165218e-03
4.023616843269781952e-03
3.805787447695821533e-03
2.706131725708038008e-03
8.124263269414942670e-04
2.748244482432078608e-03
3.934986477566401915e-03
2.034843647466586577e-03
-3.004321087541758032e-04
1.219271486642982275e-03
2.765246118407998534e-03
1.556996008707949670e-03
-5.762052875273696366e-06
-1.653390152445476406e-03
-2.944356970086457748e-03
-4.168874995695273991e-03
-6.492084150066540320e-03
-6.607704565493558932e-03
-4.060301986097220907e-03
-2.315979641692741606e-03
1.607048104206374025e-03
3.395407660273077992e-03
2.567828204180987953e-03
1.699205936510288879e-03
1.372912395539427821e-03
2.611346863953215459e-03
5.494386189170258859e-03
3.203197389948779939e-03
1.092093401050646178e-03
1.736905640723892088e-03
3.109397365553288450e-03
3.163570577315445980e-03
3.050147970727589471e-03
-9.578982326711520893e-04
-6.467516247526419043e-03
-8.311913046581858797e-03
-9.834452544079911804e-03
-1.006801111880517401e-02
-6.636024611448090860e-03
4.255431869170619216e-04
3.316105206478473389e-03
5.528653539308574921e-03
5.812433394360860470e-03
3.955298936452504403e-03
3.060218590526719937e-03
5.569486231019664564e-03
9.598932364809473552e-03
1.016065484380108963e-02
3.748569200773334362e-03
-1.425274855415652403e-03
-6.776972303175325153e-03
-1.051496778423883192e-02
-8.995728351457949259e-03
-6.169156727577364968e-03
-3.344452108524220788e-03
-1.320724863125805970e-03
-5.394024722701602857e-04
-1.394073853023521841e-03
-1.797913558833566603e-03
5.155874067212646000e-04
4.011729482162020716e-03
5.934413846310679017e-03
4.276441652642772907e-03
2.956315509875971029e-03
1.891718305558772210e-03
1.114677478530793448e-03
6.178769800826613545e-04
9.675270086146189278e-04
8.675208145046358179e-04
8.297588332352736316e-04
8.954724612080229660e-04
6.466882080105481028e-04
1.335658885146565836e-04
-2.097877472517691369e-03
-3.655260234923629181e-03
-5.311383585110882738e-03
-6.880126517681516007e-03
-7.216311588716449281e-03
-2.846482649077095896e-03
1.341346183704620948e-03
2.767652929860513894e-03
3.587626120441893014e-03
2.132444581917774650e-03
2.181159308767431550e-04
2.522866861353337958e-03
6.506754203007559557e-03
6.067437415657970026e-03
3.288502147910579189e-03
9.650912341477161423e-04
2.916877360304131594e-03
1.639676111973210502e-03
-1.691456092175908869e-03
-1.936339991203575193e-03
-2.486109218174859057e-03
-5.329980298532314975e-03
-6.007729835139688154e-03
-6.113212739782616922e-03
-6.730024266619210466e-03
-5.533075020095031687e-03
-1.067840863904764371e-03
2.508723758462979084e-03
5.027545793625095780e-03
6.477480461470966344e-03
3.633536004479076108e-03
1.945706887417239473e-03
3.016841769706728616e-03
4.596561746601867879e-03
4.088995931406554096e-03
2.827754246642254395e-03
5.892452462109693239e-04
-1.498326489888109373e-03
-1.400639127857903048e-03
-1.199316163538074976e-03
-1.280547538971536824e-03
-3.222531987130835673e-03
-5.208815293776671712e-03
-7.363347687851178915e-03
-8.392355567053408349e-03
-4.367171237758035902e-03
5.862200053302361793e-04
3.735837219387221596e-03
3.423778888766750884e-03
3.017309176341298037e-03
3.416866109416471283e-03
4.416421867314028991e-03
5.150997407784295087e-03
4.701189624451814625e-03
7.184873318573038650e-04
-3.477601043442920137e-04
2.566640657960915593e-03
3.625860122604446407e-03
3.319848656155241495e-04
-1.576655904870225564e-03
-2.910290495930775885e-03
-3.382902974939591429e-03
-5.871797882368551269e-03
-9.694287149179772051e-03
-9.382220950015304414e-03
-4.143261847529834153e-03
1.218264992770708459e-03
6.209356717287062288e-03
5.479512596021954632e-03
3.759734128837275303e-03
2.114924814232014508e-03
8.299990745598221763e-04
4.673139257013933772e-04
6.385423336120836773e-04
3.052327462906305380e-03
6.173356045925770634e-03
5.530830453155972416e-03
2.117749086113573671e-03
-6.508373896340511819e-04
-2.113487398801501636e-03
-2.517909153922943868e-03
-3.465684969476229022e-03
-4.086247098353389118e-03
-5.758893936593386352e-03
-9.209506405564067688e-03
-8.865460598543322898e-03
-3.542428465771989363e-03
2.629761897416104093e-03
6.755129953478805800e-03
5.934577814456462250e-03
3.965167304951368321e-03
5.222324756736194083e-03
6.257550136269317623e-03
3.726771227363383145e-03
1.255562735864380495e-03
-1.805482457913695234e-05
1.767726464727119263e-03
-2.513288746079829234e-04
-2.579770365705144879e-03
-2.793017213018702573e-03
-2.881626714500996975e-03
-3.899481874652434028e-03
-5.344859241282773690e-03
-6.070839686824860623e-03
-7.946126219151684184e-03
-4.871558723768791219e-03
3.786567586453193097e-03
1.059371756299537504e-02
1.224541219412472737e-02
9.711353165832698961e-03
3.194065502534710731e-03
-3.601760093846272191e-03
-6.673678096750792002e-03
-7.061084340582961597e-03
-5.501054003915606568e-03
-1.053667382349537983e-03
2.186368449496603732e-03
2.872399301052124942e-03
3.321743996957002027e-03
4.022733728587963957e-03
2.262383972622121053e-03
3.671905367920501404e-04
-7.042683942894885103e-04
-2.732206807005495026e-03
-5.047472997240036972e-03
-6.514692431305013284e-03
-4.924233083792053239e-03
-4.733669739757506175e-05
2.543145059473587207e-03
3.367995797983735443e-03
2.473054310753633033e-03
1.558900128281379876e-03
3.518395032801990407e-03
2.515255504159129036e-03
1.379579629382733782e-03
2.759997187712405660e-03
4.704458736939020128e-03
3.109327989324534025e-03
-1.709619732901845662e-03
-6.684840671162668897e-03
-6.444593686030600579e-03
-4.595261667301074431e-03
-2.575875508984927596e-03
-1.333107559129021119e-03
-2.530345326983648741e-04
2.418173381759892385e-04
3.653042205211062560e-04
3.496796927621760587e-04
-1.735393238692410026e-04
1.058843048764993494e-04
2.489581160273367753e-03
2.311595016174520546e-03
1.444353732260198224e-03
2.191155426697665668e-03
3.165047895812888538e-03
5.241360766078864870e-03
3.933088840282943435e-03
1.605247364903704226e-03
-1.518143037970256289e-03
-4.138813873795061347e-03
-3.568122924868362411e-03
-3.041421923831863321e-03
-4.691654775836490501e-03
-6.646052949451997441e-03
-5.162325208015130021e-03
-3.177620005512657528e-03
3.648704515912691484e-04
4.095625349759450876e-03
3.748620009338825103e-03
3.285926250713003521e-03
2.678141057680926643e-03
1.818406821241823953e-04
1.944546746576319768e-03
3.842002281356583608e-03
4.294214370613884391e-03
3.810904877605312147e-03
1.641165651507774581e-03
9.710101195887471236e-04
8.671990971922774493e-05
-1.507792396155193922e-03
-3.381342220855994805e-03
-3.246213409349860395e-03
-4.728696675654845555e-03
-8.968620742858897724e-03
-8.665096095961655892e-03
-4.098744855015958727e-03
8.291606525183444886e-04
4.233151123299019533e-03
5.315355143912781771e-03
6.793462152681860322e-03
4.054026291381097706e-03
1.315814090313631576e-03
3.302220265324572451e-04
2.055097505955469014e-03
2.533674752847021785e-03
3.120131494205514999e-03
1.939855090504975137e-03
-1.519565225011953796e-04
-2.154946330809699110e-03
-3.218603696111031667e-03
-1.411691969282984896e-03
-3.021579566822103075e-03
-6.068596103204026808e-03
-5.795897531679618242e-03
-3.672376019893223119e-03
8.039779753137692717e-05
1.751352780761286426e-03
2.675506482687575044e-03
2.967553499913488154e-03
2.121646042939117141e-03
9.855015931828677977e-04
2.515699092420040951e-03
2.616598309745402431e-03
3.260797829756854546e-03
3.639334086296753309e-03
2.606491542201674460e-03
2.043225234498895638e-03
-2.289898546039981740e-03
-6.094959033809543326e-03
-5.986777463590381779e-03
-4.062272705916579116e-03
-2.247443780899195578e-03
-4.024661679248117329e-06
7.898669283125925571e-04
1.637981149356451194e-03
2.236186772913058458e-03
2.300552362311968167e-03
2.021528409212025677e-03
1.297124759963514838e-03
-1.186565576593567048e-03
-6.738691961555370695e-03
-5.986775964832608508e-03
-1.006444110276237796e-03
2.455659445005615484e-03
3.827409308913468523e-03
3.587318524595214855e-03
5.246393993583573293e-03
7.566138306397580948e-03
5.782326886659413384e-03
1.682424138579933408e-03
-1.574829130330973907e-03
-4.942323637065708548e-03
