Control Box No.76(Oxy),CH1,CH2,CH3,CH4,CH5,CH6,CH7,CH8,CH9,CH10,CH11,CH12,CH13,CH14,CH15,CH16,CH17,CH18,CH19,CH20,CH21,CH22,Mark,Time,PreScan,HbOffset
1,0.00000000,0.00000000,0.00000000,0.05708541,0.10179254,0.06975872,0.03323786,0.19023652,-0.01789969,-0.00042839,0.04949145,0.00882853,0.00939450,0.14238645,0.01271617,0.04719026,0.01585799,0.05201001,-0.01079827,0.00000000,0.00000000,0.00000000,0,16:49:38.0,0,0
2,0.00000000,0.00000000,0.00000000,0.00690072,0.00073563,0.04898003,0.01127650,0.11228190,-0.01116288,-0.02417439,0.03156474,-0.00763515,0.00307777,0.07600625,0.03536066,0.01644263,-0.06724208,0.03563121,-0.00602239,0.00000000,0.00000000,0.00000000,0,16:49:38.0,0,0
3,0.00000000,0.00000000,0.00000000,-0.02738202,-0.09973177,0.03674267,-0.01049891,0.03362731,-0.00134831,-0.02338106,0.00962497,-0.04045365,-0.00910376,0.01595199,-0.00697448,-0.02531096,-0.15399012,0.01875357,-0.02480325,0.00000000,0.00000000,0.00000000,0,16:49:38.0,0,0
4,0.00000000,0.00000000,0.00000000,-0.07817569,-0.17096613,0.01273734,-0.02797998,-0.03379253,0.00680274,-0.02922553,-0.01039234,-0.03507167,-0.00258846,0.01852022,0.02271282,-0.00780959,-0.05130328,0.02924436,-0.04919000,0.00000000,0.00000000,0.00000000,0,16:49:38.0,0,0
5,0.00000000,0.00000000,0.00000000,-0.04191968,0.03256065,0.04860963,-0.00814082,0.15016766,0.00440794,-0.05487607,-0.02108298,-0.05433337,-0.00698531,0.11505537,-0.00320788,0.00246396,-0.05565171,0.04500777,-0.03076066,0.00000000,0.00000000,0.00000000,0,16:49:39.0,0,0
6,0.00000000,0.00000000,0.00000000,-0.10132424,-0.02883081,0.03856683,-0.02953530,0.10699813,0.01557117,-0.08276200,-0.03712827,-0.08903971,-0.01375252,0.07218975,-0.01155876,-0.03162355,-0.12087428,0.04009032,-0.04461778,0.00000000,0.00000000,0.00000000,0,16:49:39.0,0,0
7,0.00000000,0.00000000,0.00000000,-0.12824026,-0.12843138,0.02547647,-0.04694452,0.02530202,0.03814745,-0.10132112,-0.05621898,-0.09733415,-0.03536176,0.00293735,-0.03590737,-0.07583530,-0.19344665,0.00463468,-0.06045521,0.00000000,0.00000000,0.00000000,0,16:49:39.0,0,0
8,0.00000000,0.00000000,0.00000000,-0.15856232,-0.22677767,0.00499890,-0.06878968,-0.05884877,0.04945045,-0.11770816,-0.07179860,-0.12914532,-0.04306251,-0.05572206,-0.06445446,-0.11827121,-0.26899180,0.00225249,-0.06978677,0.00000000,0.00000000,0.00000000,0,16:49:39.0,0,0
9,0.00000000,0.00000000,0.00000000,-0.14254202,-0.12851940,0.00050819,-0.08066684,-0.01018393,0.05467558,-0.12807935,-0.11507118,-0.12996668,-0.04997252,0.01453341,-0.06435310,-0.08997905,-0.11352719,0.00084378,-0.08740692,0.00000000,0.00000000,0.00000000,0,16:49:39.0,0,0
10,0.00000000,0.00000000,0.00000000,-0.11613871,-0.07788549,0.00526525,-0.06080968,0.05714075,0.05731488,-0.11155144,-0.09453201,-0.12002536,-0.03380428,0.01976811,-0.06186993,-0.09192900,-0.15086095,0.01360053,-0.06256799,0.00000000,0.00000000,0.00000000,0,16:49:40.0,0,0
11,0.00000000,0.00000000,0.00000000,-0.12859866,-0.13495849,-0.00032582,-0.06325681,0.01256806,0.04629545,-0.11542550,-0.09341679,-0.11654738,-0.03829968,-0.01744684,-0.06612726,-0.10379539,-0.20077138,-0.00184254,-0.06682843,0.00000000,0.00000000,0.00000000,0,16:49:40.0,0,0
12,0.00000000,0.00000000,0.00000000,-0.15727936,-0.22885512,-0.00880755,-0.07615064,-0.06203813,0.05264270,-0.12621672,-0.11086291,-0.13085045,-0.04776129,-0.07941835,-0.07617374,-0.12961775,-0.27620730,0.00520833,-0.07479876,0.00000000,0.00000000,0.00000000,0,16:49:40.0,0,0
13,0.00000000,0.00000000,0.00000000,-0.20392255,-0.34247598,-0.02730491,-0.09982670,-0.14799474,0.06173902,-0.13269153,-0.14676701,-0.15497628,-0.05920249,-0.14305401,-0.06520852,-0.14901717,-0.34662598,0.00174985,-0.07734559,0.00000000,0.00000000,0.00000000,0,16:49:40.0,0,0
14,0.00000000,0.00000000,0.00000000,-0.15308440,-0.13045000,-0.01161468,-0.07542848,0.02346509,0.04877312,-0.12660332,-0.13020587,-0.13293229,-0.04425408,-0.00816177,-0.05194954,-0.10234071,-0.17369229,0.01173605,-0.07254012,0.00000000,0.00000000,0.00000000,0,16:49:40.0,0,0
15,0.00000000,0.00000000,0.00000000,-0.15474567,-0.15125524,-0.01459195,-0.06356832,0.00601027,0.05672062,-0.12767237,-0.11090266,-0.12096313,-0.04285431,-0.02579578,-0.06337193,-0.11028077,-0.21016201,0.00331248,-0.06320271,0.00000000,0.00000000,0.00000000,0,16:49:41.0,0,0
16,0.00000000,0.00000000,0.00000000,-0.16916433,-0.23868339,-0.02778239,-0.08620480,-0.06603344,0.04859474,-0.14111796,-0.13236982,-0.15135068,-0.05705163,-0.09015960,-0.07834933,-0.12928724,-0.28301960,-0.00864059,-0.06189642,0.00000000,0.00000000,0.00000000,0,16:49:41.0,0,0
17,0.00000000,0.00000000,0.00000000,-0.18731967,-0.32128829,-0.04516079,-0.10537956,-0.13732810,0.05361338,-0.14149164,-0.13532069,-0.16500066,-0.06189703,-0.13870382,-0.08839548,-0.15670392,-0.35643280,-0.02925834,-0.07986823,0.00000000,0.00000000,0.00000000,0,16:49:41.0,0,0
18,0.00000000,0.00000000,0.00000000,-0.21402779,-0.37436798,-0.06653669,-0.12025218,-0.19167325,0.06013407,-0.14060184,-0.14009283,-0.15683316,-0.05507621,-0.13206488,-0.07465596,-0.14083478,-0.24938372,-0.01378663,-0.08820449,0.00000000,0.00000000,0.00000000,0,16:49:41.0,0,0
19,0.00000000,0.00000000,0.00000000,-0.13546774,-0.13703837,-0.03611079,-0.08524369,0.00767587,0.05053662,-0.12580131,-0.12886241,-0.14040990,-0.04231543,-0.03026178,-0.07442609,-0.10902226,-0.20914516,0.00411847,-0.05407886,0.00000000,0.00000000,0.00000000,0,16:49:41.0,0,0
20,0.00000000,0.00000000,0.00000000,-0.12694238,-0.16031401,-0.02981479,-0.07650359,-0.01112197,0.04469242,-0.13049690,-0.12954296,-0.13455200,-0.04552453,-0.05922956,-0.07468205,-0.11532760,-0.24635503,-0.00665017,-0.06101615,0.00000000,0.00000000,0.00000000,0,16:49:42.0,0,0
21,0.00000000,0.00000000,0.00000000,-0.14579323,-0.25170279,-0.03860211,-0.08586030,-0.08580713,0.04426550,-0.13102129,-0.12006224,-0.14196682,-0.05559575,-0.10921524,-0.08295421,-0.12934411,-0.31337360,-0.01197285,-0.06882224,0.00000000,0.00000000,0.00000000,0,16:49:42.0,0,0
22,0.00000000,0.00000000,0.00000000,-0.16884032,-0.34861913,-0.04829296,-0.10015792,-0.16433956,0.03958861,-0.13354471,-0.13120243,-0.14018117,-0.07491594,-0.16902444,-0.08401954,-0.15687713,-0.37364310,-0.03935979,-0.09155884,0.00000000,0.00000000,0.00000000,0,16:49:42.0,0,0
23,0.00000000,0.00000000,0.00000000,-0.12296868,-0.16120775,-0.03759142,-0.07991813,-0.03034011,0.02058846,-0.11978097,-0.14220355,-0.11458507,-0.06470006,-0.05144463,-0.03638121,-0.10317213,-0.19759838,-0.01914709,-0.08132400,0.00000000,0.00000000,0.00000000,0,16:49:42.0,0,0
24,0.00000000,0.00000000,0.00000000,-0.11334117,-0.15998463,-0.02703100,-0.05708890,-0.00978434,0.01901008,-0.10604495,-0.10571822,-0.10512242,-0.05215776,-0.05071346,-0.03508684,-0.09799712,-0.21694323,-0.01465108,-0.07483410,0.00000000,0.00000000,0.00000000,0,16:49:42.0,0,0
25,0.00000000,0.00000000,0.00000000,-0.11398202,-0.20251921,-0.02583749,-0.05422634,-0.04123357,0.01363531,-0.10904520,-0.09940188,-0.11322933,-0.05635951,-0.08062381,-0.03853659,-0.11248063,-0.26107523,-0.02196146,-0.07747751,0.00000000,0.00000000,0.00000000,0,16:49:43.0,0,0
26,0.00000000,0.00000000,0.00000000,-0.13800943,-0.28246507,-0.03739987,-0.07812107,-0.10587071,0.01843651,-0.12079031,-0.11744127,-0.11456946,-0.06935529,-0.12390043,-0.05009517,-0.13556136,-0.31252620,-0.02832561,-0.08425710,0.00000000,0.00000000,0.00000000,0,16:49:43.0,0,0
27,0.00000000,0.00000000,0.00000000,-0.16778903,-0.32484701,-0.04767518,-0.08091604,-0.14606725,0.02858833,-0.11481638,-0.13123244,-0.12597331,-0.07127896,-0.11456747,-0.04950610,-0.12067534,-0.21759447,-0.02899224,-0.10775194,0.00000000,0.00000000,0.00000000,0,16:49:43.0,0,0
28,0.00000000,0.00000000,0.00000000,-0.09753807,-0.12851332,-0.01810134,-0.04797695,0.02059777,0.02307490,-0.10530619,-0.10685440,-0.09554742,-0.05262446,-0.02825899,-0.04602409,-0.08801034,-0.19792899,-0.01459348,-0.07638723,0.00000000,0.00000000,0.00000000,0,16:49:43.0,0,0
29,0.00000000,0.00000000,0.00000000,-0.10144594,-0.15712598,-0.02000186,-0.05179992,0.00129509,0.01685210,-0.12013657,-0.09402588,-0.12085091,-0.05073280,-0.04329354,-0.03886024,-0.09420384,-0.22177908,-0.01550461,-0.07707582,0.00000000,0.00000000,0.00000000,0,16:49:43.0,0,0
30,0.00000000,0.00000000,0.00000000,-0.11854235,-0.24539489,-0.02314102,-0.06408285,-0.07004528,0.01853516,-0.12238138,-0.10336880,-0.11958341,-0.06037489,-0.09415624,-0.04722802,-0.11767513,-0.27809289,-0.02118740,-0.09164969,0.00000000,0.00000000,0.00000000,0,16:49:44.0,0,0
31,0.00000000,0.00000000,0.00000000,-0.14501213,-0.31887671,-0.03539483,-0.07812107,-0.12582834,0.02099157,-0.13316336,-0.12307185,-0.14367867,-0.07157239,-0.14440092,-0.05710813,-0.13542193,-0.31989425,-0.02642120,-0.09199548,0.00000000,0.00000000,0.00000000,0,16:49:44.0,0,0
32,0.00000000,0.00000000,0.00000000,-0.08132071,-0.08033612,-0.01161491,-0.04447370,0.07037747,0.02317405,-0.11122116,-0.11313906,-0.10331424,-0.04613531,0.02234319,-0.02057401,-0.06935662,-0.12953210,-0.00853907,-0.07698629,0.00000000,0.00000000,0.00000000,0,16:49:44.0,0,0
33,0.00000000,0.00000000,0.00000000,-0.07081179,-0.06952021,-0.00731823,-0.03741742,0.07638395,0.02495322,-0.10420531,-0.09909671,-0.10349911,-0.04131544,0.02362467,-0.02667620,-0.06556134,-0.14519511,-0.00670362,-0.07411658,0.00000000,0.00000000,0.00000000,0,16:49:44.0,0,0
34,0.00000000,0.00000000,0.00000000,-0.07703348,-0.12774490,-0.01049370,-0.04729309,0.02892048,0.01790752,-0.10941732,-0.10308878,-0.12193898,-0.05145366,-0.01999190,-0.02887605,-0.08699404,-0.20028426,-0.00929308,-0.07802009,0.00000000,0.00000000,0.00000000,0,16:49:44.0,0,0
35,0.00000000,0.00000000,0.00000000,-0.10265051,-0.19354329,-0.02165143,-0.06237406,-0.02742452,0.02181606,-0.11582477,-0.11459842,-0.11612765,-0.06550080,-0.06532845,-0.04084884,-0.11075684,-0.25847292,-0.01957393,-0.09121346,0.00000000,0.00000000,0.00000000,0,16:49:45.0,0,0
36,0.00000000,0.00000000,0.00000000,-0.05957565,-0.00421803,-0.01069588,-0.04946493,0.12371953,0.02329654,-0.10734131,-0.12517618,-0.10751835,-0.05157104,0.06803391,-0.03255195,-0.05513532,-0.09064801,-0.01116192,-0.08452162,0.00000000,0.00000000,0.00000000,0,16:49:45.0,0,0
37,0.00000000,0.00000000,0.00000000,-0.04766719,0.00857200,-0.00528032,-0.03185157,0.13335125,0.02136982,-0.09614883,-0.10258687,-0.09304203,-0.04221999,0.07224931,-0.02792320,-0.05773263,-0.10011029,-0.00309861,-0.07805609,0.00000000,0.00000000,0.00000000,0,16:49:45.0,0,0
38,0.00000000,0.00000000,0.00000000,-0.04469242,-0.02060810,-0.00817423,-0.03933776,0.10869364,0.02567846,-0.10403972,-0.10822026,-0.10578304,-0.05121031,0.04097681,-0.03108399,-0.06997509,-0.14677554,-0.01460770,-0.08946560,0.00000000,0.00000000,0.00000000,0,16:49:45.0,0,0
39,0.00000000,0.00000000,0.00000000,-0.06828829,-0.07703016,-0.02017710,-0.05524907,0.05729792,0.03104543,-0.11610691,-0.12027130,-0.12065390,-0.06208844,-0.00640759,-0.04360273,-0.08966232,-0.19756623,-0.01646107,-0.08840641,0.00000000,0.00000000,0.00000000,0,16:49:45.0,0,0
40,0.00000000,0.00000000,0.00000000,-0.08433713,-0.09644984,-0.03034824,-0.07197223,0.02490569,0.02931129,-0.10793314,-0.14201659,-0.11867578,-0.06576357,0.03007813,-0.03397158,-0.07651131,-0.09663174,-0.00984037,-0.10276070,0.00000000,0.00000000,0.00000000,0,16:49:46.0,0,0
41,0.00000000,0.00000000,0.00000000,-0.02449164,0.07296585,-0.00814577,-0.04793294,0.17053646,0.01660641,-0.11297468,-0.13650912,-0.13653116,-0.06563424,0.08620602,-0.02999145,-0.05693553,-0.09445675,-0.01990909,-0.08634291,0.00000000,0.00000000,0.00000000,0,16:49:46.0,0,0
42,0.00000000,0.00000000,0.00000000,-0.03263814,0.04661845,-0.01465944,-0.04727992,0.14520499,0.02972380,-0.11335796,-0.12918901,-0.11446732,-0.06470904,0.06286802,-0.04094676,-0.07504925,-0.12563919,-0.02172298,-0.09373682,0.00000000,0.00000000,0.00000000,0,16:49:46.0,0,0
43,0.00000000,0.00000000,0.00000000,-0.06083427,-0.01205397,-0.02603750,-0.06448006,0.09546611,0.02895907,-0.12056044,-0.14436702,-0.12558219,-0.07645360,0.01461262,-0.04256513,-0.09158798,-0.18241361,-0.02473063,-0.09970016,0.00000000,0.00000000,0.00000000,0,16:49:46.0,0,0
44,0.00000000,0.00000000,0.00000000,-0.08592065,-0.08824613,-0.03696243,-0.07672803,0.02919778,0.02968363,-0.13149454,-0.14653173,-0.12980683,-0.08217178,-0.03774390,-0.04662387,-0.10921181,-0.23158789,-0.03005966,-0.11296283,0.00000000,0.00000000,0.00000000,0,16:49:46.0,0,0
45,0.00000000,0.00000000,0.00000000,-0.03944957,0.09492020,-0.01105398,-0.04983783,0.17929117,0.01971314,-0.09937236,-0.15446916,-0.10734882,-0.06936698,0.11325037,-0.03401918,-0.05539397,-0.05930895,-0.02557663,-0.11795486,0.00000000,0.00000000,0.00000000,0,16:49:47.0,0,0
46,0.00000000,0.00000000,0.00000000,-0.04541010,0.08595422,-0.01224320,-0.04727992,0.17948551,0.01359376,-0.10860832,-0.14326517,-0.11885272,-0.07406655,0.10460370,-0.03696702,-0.06284313,-0.08961919,-0.02467662,-0.10985193,0.00000000,0.00000000,0.00000000,0,16:49:47.0,0,0
47,0.00000000,0.00000000,0.00000000,-0.06573728,0.02443146,-0.01774517,-0.05048519,0.13347106,0.01236743,-0.11427707,-0.14602707,-0.12679964,-0.08125959,0.05210660,-0.04364419,-0.08007824,-0.14656548,-0.02840245,-0.12409253,0.00000000,0.00000000,0.00000000,0,16:49:47.0,0,0
48,0.00000000,0.00000000,0.00000000,-0.10014325,-0.04916627,-0.02581738,-0.06756655,0.07333136,0.01773421,-0.13247870,-0.15712546,-0.14852645,-0.09270062,0.00034341,-0.04530196,-0.10629096,-0.20636249,-0.03673130,-0.12805709,0.00000000,0.00000000,0.00000000,0,16:49:47.0,0,0
49,0.00000000,0.00000000,0.00000000,-0.10910004,-0.03136528,-0.03624476,-0.08255596,0.07574077,0.02708805,-0.12594631,-0.17700712,-0.14753114,-0.09166632,0.06290092,-0.04590540,-0.07419275,-0.09154618,-0.03065575,-0.13005215,0.00000000,0.00000000,0.00000000,0,16:49:47.0,0,0
50,0.00000000,0.00000000,0.00000000,-0.04834380,0.11746944,-0.01533116,-0.06035259,0.20603585,0.02753868,-0.12718606,-0.14783777,-0.13339680,-0.07246120,0.12795511,-0.03584382,-0.04919232,-0.07882082,-0.02312723,-0.10438085,0.00000000,0.00000000,0.00000000,0,16:49:48.0,0,0
51,0.00000000,0.00000000,0.00000000,-0.05155123,0.08067252,-0.01323540,-0.05614603,0.18610914,0.02179300,-0.12200825,-0.13048835,-0.13913010,-0.06733585,0.10666338,-0.04105747,-0.05630913,-0.11213439,-0.02081990,-0.09966452,0.00000000,0.00000000,0.00000000,0,16:49:48.0,0,0
52,0.00000000,0.00000000,0.00000000,-0.07210378,0.00962727,-0.01870955,-0.06006390,0.13481477,0.02878090,-0.11801558,-0.12751628,-0.14539117,-0.06768207,0.06314124,-0.04544446,-0.07273772,-0.16388863,-0.02415989,-0.10289388,0.00000000,0.00000000,0.00000000,0,16:49:48.0,0,0
53,0.00000000,0.00000000,0.00000000,-0.09913441,-0.07093090,-0.02768400,-0.07687017,0.06832606,0.03572735,-0.12064426,-0.13986179,-0.15989125,-0.07440763,0.00849517,-0.05486584,-0.09607212,-0.22740757,-0.02602669,-0.11215725,0.00000000,0.00000000,0.00000000,0,16:49:48.0,0,0
54,0.00000000,0.00000000,0.00000000,-0.06842573,0.08579581,-0.02029217,-0.07475547,0.19468006,0.03457589,-0.11327391,-0.13711041,-0.14523035,-0.05227556,0.13446635,-0.04332940,-0.03537196,-0.08117669,-0.01087685,-0.09491810,0.00000000,0.00000000,0.00000000,0,16:49:48.0,0,0
55,0.00000000,0.00000000,0.00000000,-0.05716544,0.07760179,-0.00798874,-0.05078443,0.19457173,0.03326875,-0.09566639,-0.09709389,-0.11141554,-0.03174601,0.14108874,-0.02303929,-0.02258607,-0.08754303,-0.00138869,-0.08697343,0.00000000,0.00000000,0.00000000,0,16:49:49.0,0,0
56,0.00000000,0.00000000,0.00000000,-0.05269216,0.05137683,0.00832012,-0.04137698,0.16830841,0.02999577,-0.12557285,-0.11812969,-0.14854892,-0.04494455,0.11156398,-0.02853793,-0.04872626,-0.14820734,0.00209250,-0.08253478,0.00000000,0.00000000,0.00000000,0,16:49:49.0,0,0
57,0.00000000,0.00000000,0.00000000,-0.07356016,-0.03290718,-0.00713832,-0.06015961,0.11308034,0.03806684,-0.11538562,-0.10694579,-0.14191958,-0.04102862,0.06039495,-0.03203729,-0.05864999,-0.18998612,0.00061304,-0.08905695,0.00000000,0.00000000,0.00000000,0,16:49:49.0,0,0
58,0.00000000,0.00000000,0.00000000,-0.10189647,-0.12282943,-0.01143254,-0.08303875,0.02769645,0.04205053,-0.12703578,-0.12146986,-0.16021933,-0.04829563,0.01089589,-0.03535939,-0.07179067,-0.19963941,-0.00168196,-0.09794737,0.00000000,0.00000000,0.00000000,0,16:49:49.0,0,0
59,0.00000000,0.00000000,0.00000000,-0.04742933,0.09433635,0.01382630,-0.04669194,0.21276140,0.04514588,-0.09690647,-0.10040866,-0.11951349,-0.01444419,0.17564134,-0.00179172,-0.00854239,-0.06366742,0.01784771,-0.07536776,0.00000000,0.00000000,0.00000000,0,16:49:49.0,0,0
60,0.00000000,0.00000000,0.00000000,-0.03967925,0.08240768,0.01311010,-0.03722618,0.21250530,0.03641118,-0.08725863,-0.07544509,-0.10934515,-0.00368565,0.15846658,-0.00895228,-0.00552206,-0.10522968,0.01860726,-0.06424067,0.00000000,0.00000000,0.00000000,0,16:49:50.0,0,0
61,0.00000000,0.00000000,0.00000000,-0.05156988,0.00295410,0.00526764,-0.04765171,0.15507166,0.03407938,-0.09320655,-0.07038387,-0.10751835,-0.01513993,0.10075635,-0.01554140,-0.02782936,-0.16524285,0.01171902,-0.08555892,0.00000000,0.00000000,0.00000000,0,16:49:50.0,0,0
62,0.00000000,0.00000000,0.00000000,-0.07975522,-0.08533160,-0.00288906,-0.06328131,0.07998358,0.03335759,-0.09408639,-0.08061122,-0.12026172,-0.02107367,0.04310107,-0.02123793,-0.05886461,-0.23103750,0.00902041,-0.09901863,0.00000000,0.00000000,0.00000000,0,16:49:50.0,0,0
63,0.00000000,0.00000000,0.00000000,-0.09982061,-0.06660536,-0.00910367,-0.06225133,0.06998190,0.03427162,-0.07409248,-0.10345057,-0.07672566,-0.00703159,0.08894304,-0.01256775,-0.02860828,-0.11820432,0.02628297,-0.09202976,0.00000000,0.00000000,0.00000000,0,16:49:50.0,0,0
64,0.00000000,0.00000000,0.00000000,-0.02739017,0.12829246,0.02705309,-0.01286901,0.25168234,0.02840872,-0.01513368,-0.04346142,0.01428864,0.04859517,0.18538277,0.05726806,0.02451275,-0.07436112,0.07451443,-0.05226331,0.00000000,0.00000000,0.00000000,0,16:49:50.0,0,0
65,0.00000000,0.00000000,0.00000000,-0.01756199,0.08600295,0.02823128,-0.02439359,0.21663187,-0.00127892,-0.04341352,-0.06335118,-0.05310372,0.02771804,0.16341154,0.01954107,0.01307858,-0.10351691,0.06400661,-0.05659018,0.00000000,0.00000000,0.00000000,0,16:49:51.0,0,0
66,0.00000000,0.00000000,0.00000000,-0.03616632,-0.00485114,0.01748923,-0.01778078,0.14536862,0.00001340,-0.02601977,-0.05625676,-0.03788244,0.02426008,0.08302116,0.02173056,-0.00982555,-0.18014617,0.06040306,-0.07341271,0.00000000,0.00000000,0.00000000,0,16:49:51.0,0,0
67,0.00000000,0.00000000,0.00000000,-0.07763978,-0.12491857,0.00409284,-0.04685937,0.04272230,0.01093586,-0.05951702,-0.08353979,-0.06113434,0.00819247,0.00400640,0.01737130,-0.04007756,-0.26424855,0.05846623,-0.07947563,0.00000000,0.00000000,0.00000000,0,16:49:51.0,0,0
68,0.00000000,0.00000000,0.00000000,-0.03380184,0.04653629,0.01321889,-0.03633257,0.18865392,-0.00451348,-0.04625151,-0.09075946,-0.04632081,0.01615714,0.12703949,0.01279316,0.00900656,-0.10977664,0.05454902,-0.08021455,0.00000000,0.00000000,0.00000000,0,16:49:51.0,0,0
69,0.00000000,0.00000000,0.00000000,-0.03892063,0.01972605,0.01100877,-0.03510159,0.16275428,-0.00177878,-0.04522892,-0.09493513,-0.03163417,0.00803046,0.10037988,0.01277610,0.00395571,-0.14167006,0.05187161,-0.08137248,0.00000000,0.00000000,0.00000000,0,16:49:51.0,0,0
70,0.00000000,0.00000000,0.00000000,-0.05536336,-0.05450748,-0.00020766,-0.04459673,0.10381431,0.00447159,-0.06054328,-0.10730568,-0.08021847,-0.00599622,0.04450657,0.01355249,-0.02543703,-0.21085273,0.04028878,-0.09060971,0.00000000,0.00000000,0.00000000,0,16:49:52.0,0,0
71,0.00000000,0.00000000,0.00000000,-0.08767200,-0.14033175,-0.01943940,-0.07221817,0.02968407,0.00985595,-0.08644427,-0.11678702,-0.09294727,-0.02130365,-0.01291697,0.00105028,-0.04645143,-0.27278638,0.03027595,-0.09826594,0.00000000,0.00000000,0.00000000,0,16:49:52.0,0,0
72,0.00000000,0.00000000,0.00000000,-0.05125293,0.01159996,-0.00583918,-0.05738773,0.16373743,0.00562551,-0.07536561,-0.12701388,-0.07017302,-0.01200904,0.08904723,0.01859525,-0.00077179,-0.13997357,0.04500078,-0.09519645,0.00000000,0.00000000,0.00000000,0,16:49:52.0,0,0
73,0.00000000,0.00000000,0.00000000,-0.05465483,-0.02191292,-0.00912836,-0.04906818,0.13322589,0.01173681,-0.06518624,-0.11445940,-0.06807717,-0.01157957,0.06244689,0.01741128,-0.01490753,-0.17676188,0.03840324,-0.09445228,0.00000000,0.00000000,0.00000000,0,16:49:52.0,0,0
74,0.00000000,0.00000000,0.00000000,-0.07799512,-0.10825106,-0.01945548,-0.06465938,0.06389628,0.00801027,-0.07788417,-0.12090790,-0.08593176,-0.02747859,-0.00139731,-0.00395214,-0.04414962,-0.25298321,0.02726523,-0.10406566,0.00000000,0.00000000,0.00000000,0,16:49:52.0,0,0
75,0.00000000,0.00000000,0.00000000,-0.11011555,-0.20207779,-0.03289660,-0.08588032,-0.01309593,0.01328291,-0.10318844,-0.14413302,-0.10114869,-0.04130899,-0.06156171,-0.00572729,-0.07026571,-0.31357399,0.01300448,-0.11228278,0.00000000,0.00000000,0.00000000,0,16:49:53.0,0,0
76,0.00000000,0.00000000,0.00000000,-0.06205265,-0.01903333,-0.01579331,-0.06957266,0.14570871,0.01293019,-0.07825980,-0.13722987,-0.08323716,-0.02587928,0.06412440,0.01256668,-0.01442907,-0.15193334,0.03114415,-0.10292943,0.00000000,0.00000000,0.00000000,0,16:49:53.0,0,0
77,0.00000000,0.00000000,0.00000000,-0.05915137,-0.03959496,-0.01326917,-0.05747395,0.12789190,0.01149606,-0.07597262,-0.13444759,-0.08721551,-0.02868819,0.04934778,0.00444568,-0.02475167,-0.18552874,0.02497366,-0.09484851,0.00000000,0.00000000,0.00000000,0,16:49:53.0,0,0
78,0.00000000,0.00000000,0.00000000,-0.07555000,-0.11152807,-0.01896891,-0.06717762,0.06955630,0.01426693,-0.09594022,-0.13497138,-0.11099959,-0.03914303,-0.01095480,-0.00932271,-0.05390812,-0.25694823,0.01732175,-0.10031002,0.00000000,0.00000000,0.00000000,0,16:49:53.0,0,0
79,0.00000000,0.00000000,0.00000000,-0.10668262,-0.20841008,-0.03422748,-0.08966199,-0.01307661,0.01461906,-0.09841869,-0.15841810,-0.12538996,-0.05647544,-0.07639658,-0.01715170,-0.07839281,-0.32111219,-0.00221616,-0.11668925,0.00000000,0.00000000,0.00000000,0,16:49:53.0,0,0
80,0.00000000,0.00000000,0.00000000,-0.07591509,-0.04488624,-0.02789453,-0.09388299,0.12619422,0.01136122,-0.09336737,-0.16499588,-0.11883521,-0.04472553,0.04739627,-0.00620962,-0.03418151,-0.16821435,0.01234871,-0.09562885,0.00000000,0.00000000,0.00000000,0,16:49:54.0,0,0
81,0.00000000,0.00000000,0.00000000,-0.06816971,-0.06229974,-0.02148546,-0.06649753,0.11636126,0.00354639,-0.07577377,-0.13159479,-0.10632522,-0.02666156,0.03419929,0.00496027,-0.03295926,-0.19127646,0.01504617,-0.09519645,0.00000000,0.00000000,0.00000000,0,16:49:54.0,0,0
82,0.00000000,0.00000000,0.00000000,-0.07759858,-0.11716910,-0.02372135,-0.07239493,0.07387520,0.00900200,-0.09392662,-0.13230230,-0.11313898,-0.03663716,-0.00820178,-0.00906894,-0.05627194,-0.25297332,0.00765614,-0.09108263,0.00000000,0.00000000,0.00000000,0,16:49:54.0,0,0
83,0.00000000,0.00000000,0.00000000,-0.11014664,-0.21357973,-0.03980374,-0.09667297,-0.00898944,0.01565406,-0.10231211,-0.14263691,-0.13810308,-0.04466116,-0.06491473,-0.02662358,-0.07690340,-0.32049248,-0.00028303,-0.10504393,0.00000000,0.00000000,0.00000000,0,16:49:54.0,0,0
84,0.00000000,0.00000000,0.00000000,-0.14342508,-0.26353401,-0.05508642,-0.10775810,-0.06396034,0.02284624,-0.09885347,-0.14847662,-0.12644129,-0.04439404,-0.05706934,-0.01082185,-0.06640094,-0.23959126,0.00663263,-0.11456922,0.00000000,0.00000000,0.00000000,0,16:49:54.0,0,0
85,0.00000000,0.00000000,0.00000000,-0.07899881,-0.08153290,-0.02587043,-0.07847764,0.10742454,0.01770729,-0.08600310,-0.13170512,-0.11313681,-0.03199863,0.01669003,-0.00700100,-0.04695114,-0.23158810,0.01041728,-0.09313686,0.00000000,0.00000000,0.00000000,0,16:49:55.0,0,0
86,0.00000000,0.00000000,0.00000000,-0.08279311,-0.12579696,-0.02530169,-0.07696123,0.07415766,0.01579589,-0.08306167,-0.12091444,-0.11269193,-0.03656704,-0.01606389,-0.00464245,-0.06143000,-0.26849520,0.00550674,-0.10090449,0.00000000,0.00000000,0.00000000,0,16:49:55.0,0,0
87,0.00000000,0.00000000,0.00000000,-0.11189319,-0.22708164,-0.03363159,-0.09663828,-0.01690162,0.01238498,-0.10246518,-0.12960145,-0.13416995,-0.04424337,-0.07672150,-0.01650266,-0.08916903,-0.33543643,-0.00754145,-0.10963085,0.00000000,0.00000000,0.00000000,0,16:49:55.0,0,0
88,0.00000000,0.00000000,0.00000000,-0.14828604,-0.29285088,-0.05152137,-0.11460708,-0.07971325,0.01896137,-0.10331302,-0.14056632,-0.12483274,-0.04179921,-0.08052648,-0.01045826,-0.08058748,-0.26408488,-0.00402034,-0.11602490,0.00000000,0.00000000,0.00000000,0,16:49:55.0,0,0
89,0.00000000,0.00000000,0.00000000,-0.08486069,-0.10031229,-0.02571601,-0.08429628,0.09375226,0.01539985,-0.07736696,-0.11807899,-0.10497735,-0.02287775,0.01532497,-0.00980472,-0.05174447,-0.24087143,0.01280309,-0.09162261,0.00000000,0.00000000,0.00000000,0,16:49:55.0,0,0
90,0.00000000,0.00000000,0.00000000,-0.09045450,-0.13994552,-0.02673011,-0.07627948,0.05975612,0.01378538,-0.08076245,-0.10948574,-0.11375257,-0.02067364,-0.01639563,-0.01215797,-0.07060501,-0.28468913,0.00583427,-0.10896493,0.00000000,0.00000000,0.00000000,0,16:49:56.0,0,0
91,0.00000000,0.00000000,0.00000000,-0.11360831,-0.23773773,-0.03401881,-0.09974386,-0.02781070,0.01529198,-0.10339634,-0.13582540,-0.11680928,-0.03579148,-0.07973877,-0.02569837,-0.10183025,-0.35260540,-0.00062070,-0.11843541,0.00000000,0.00000000,0.00000000,0,16:49:56.0,0,0
92,0.00000000,0.00000000,0.00000000,-0.14347088,-0.33860806,-0.04437305,-0.12182242,-0.11140443,0.01901008,-0.11446097,-0.14633097,-0.14048323,-0.04816864,-0.14074104,-0.02353845,-0.11686878,-0.36450255,-0.00516726,-0.12018745,0.00000000,0.00000000,0.00000000,0,16:49:56.0,0,0
93,0.00000000,0.00000000,0.00000000,-0.09079598,-0.10490389,-0.02369156,-0.09157075,0.08292593,0.01316838,-0.08732465,-0.14114267,-0.10046522,-0.02046143,0.01909277,-0.00189822,-0.05605482,-0.21739408,0.02083570,-0.09776170,0.00000000,0.00000000,0.00000000,0,16:49:56.0,0,0
94,0.00000000,0.00000000,0.00000000,-0.08142758,-0.12325221,-0.02475637,-0.08804236,0.06354942,0.01339222,-0.08127220,-0.12025713,-0.07784077,-0.01551209,0.00267446,-0.00897545,-0.06220966,-0.25814569,0.01387596,-0.10272238,0.00000000,0.00000000,0.00000000,0,16:49:56.0,0,0
95,0.00000000,0.00000000,0.00000000,-0.10186432,-0.20526955,-0.03280203,-0.09841082,-0.01006039,0.01564432,-0.09540903,-0.13234825,-0.10552295,-0.02636487,-0.05794389,-0.03033047,-0.08983699,-0.32983214,0.00507405,-0.11324631,0.00000000,0.00000000,0.00000000,0,16:49:57.0,0,0
96,0.00000000,0.00000000,0.00000000,-0.12871875,-0.30151772,-0.03905922,-0.11837585,-0.09155146,0.01757956,-0.10289377,-0.15217002,-0.10553174,-0.04405656,-0.11956690,-0.03917973,-0.12312718,-0.39396444,-0.00753084,-0.12980440,0.00000000,0.00000000,0.00000000,0,16:49:57.0,0,0
97,0.00000000,0.00000000,0.00000000,-0.08459254,-0.10513046,-0.03035958,-0.10942882,0.07011977,0.00842288,-0.08952692,-0.15564719,-0.09194726,-0.02820542,0.00813619,-0.00350718,-0.06075954,-0.22330400,0.00666600,-0.10471541,0.00000000,0.00000000,0.00000000,0,16:49:57.0,0,0
98,0.00000000,0.00000000,0.00000000,-0.07967263,-0.12089967,-0.02791479,-0.08778480,0.05398585,0.00823772,-0.07630099,-0.13974157,-0.07312962,-0.01693373,-0.00069829,-0.00208104,-0.06125610,-0.24613041,0.01966015,-0.10397624,0.00000000,0.00000000,0.00000000,0,16:49:57.0,0,0
99,0.00000000,0.00000000,0.00000000,-0.08455389,-0.17052618,-0.02488285,-0.09085157,0.00655925,0.01235125,-0.08872809,-0.16538039,-0.08087132,-0.03642286,-0.04645848,-0.03088723,-0.09059050,-0.31600985,0.00391405,-0.10429561,0.00000000,0.00000000,0.00000000,0,16:49:57.0,0,0
100,0.00000000,0.00000000,0.00000000,-0.10738367,-0.25543356,-0.03351512,-0.11426397,-0.06861880,0.02534872,-0.10075526,-0.17901790,-0.11469743,-0.05313516,-0.10032364,-0.05677021,-0.11961685,-0.36705294,-0.00395080,-0.12179763,0.00000000,0.00000000,0.00000000,0,16:49:58.0,0,0
101,0.00000000,0.00000000,0.00000000,-0.07695783,-0.08805991,-0.02476163,-0.11910756,0.05465199,0.02681547,-0.11254182,-0.21588497,-0.12415735,-0.04214311,0.01559492,-0.01883395,-0.07069033,-0.22425880,0.01516221,-0.10319005,0.00000000,0.00000000,0.00000000,0,16:49:58.0,0,0
102,0.00000000,0.00000000,0.00000000,-0.07758591,-0.10786074,-0.02195399,-0.09303888,0.04264499,0.03661645,-0.08222952,-0.19510272,-0.09551656,-0.02947018,0.00168559,-0.02823814,-0.07714869,-0.25100207,0.01200986,-0.10897494,0.00000000,0.00000000,0.00000000,0,16:49:58.0,0,0
103,0.00000000,0.00000000,0.00000000,-0.08456429,-0.16282333,-0.01478599,-0.09717222,-0.01030972,0.04087326,-0.07686922,-0.22060277,-0.11745359,-0.04074920,-0.04777031,-0.05076234,-0.10683160,-0.30443752,0.01419343,-0.12479588,0.00000000,0.00000000,0.00000000,0,16:49:58.0,0,0
104,0.00000000,0.00000000,0.00000000,-0.11499421,-0.23574102,-0.01473111,-0.12154703,-0.08945081,0.04314263,-0.09428161,-0.28611159,-0.19213358,-0.06161568,-0.09613562,-0.06961813,-0.12770359,-0.37520811,0.03508291,-0.10401680,0.00000000,0.00000000,0.00000000,0,16:49:58.0,0,0
105,0.00000000,0.00000000,0.00000000,-0.08500063,-0.07021342,0.00165085,-0.11233943,0.03613442,0.06708225,-0.04130963,-0.31821880,-0.19217314,-0.03097741,0.03421304,0.00441484,-0.08940870,-0.19964433,0.07840850,-0.12708801,0.00000000,0.00000000,0.00000000,0,16:49:59.0,0,0
106,0.00000000,0.00000000,0.00000000,-0.05431492,-0.05167929,0.01542537,-0.08399652,0.05353537,0.05847638,-0.03175692,-0.30990955,-0.19571391,-0.03206909,0.03381765,-0.01728284,-0.07041845,-0.21830231,0.10141045,-0.07693078,0.00000000,0.00000000,0.00000000,0,16:49:59.0,0,0
107,0.00000000,0.00000000,0.00000000,-0.06338931,-0.09437446,0.01319707,-0.09164830,0.01201036,0.06591485,-0.02583885,-0.30788928,-0.19590341,-0.03163595,0.00234844,-0.02055328,-0.07203221,-0.25509253,0.11118823,-0.08385154,0.00000000,0.00000000,0.00000000,0,16:49:59.0,0,0
108,0.00000000,0.00000000,0.00000000,-0.10531283,-0.17653756,0.01367720,-0.09063678,-0.05681836,0.06894188,-0.03212328,-0.33083144,-0.21463363,-0.04307199,-0.04087591,-0.04171973,-0.09813016,-0.31316891,0.10531933,-0.10249998,0.00000000,0.00000000,0.00000000,0,16:49:59.0,0,0
109,0.00000000,0.00000000,0.00000000,-0.10435937,-0.12114248,0.00480316,-0.11432438,-0.03470523,0.07289069,-0.02403589,-0.34363508,-0.21496202,-0.03927358,0.02470352,-0.03526387,-0.06754622,-0.18137619,0.10416117,-0.09986234,0.00000000,0.00000000,0.00000000,0,16:49:59.0,0,0
110,0.00000000,0.00000000,0.00000000,-0.04579226,0.01044032,0.01407627,-0.09105535,0.09498565,0.06933796,-0.01633534,-0.31426972,-0.21310991,-0.02707216,0.08962380,-0.02040305,-0.03853071,-0.15404700,0.11351942,-0.07810865,0.00000000,0.00000000,0.00000000,0,16:50:00.0,0,0
111,0.00000000,0.00000000,0.00000000,-0.04192933,-0.01434221,0.00664454,-0.09599363,0.06976495,0.07640071,-0.00924465,-0.29962006,-0.19809647,-0.01647975,0.07030305,-0.02954691,-0.04463179,-0.19753525,0.11587606,-0.06805725,0.00000000,0.00000000,0.00000000,0,16:50:00.0,0,0
112,0.00000000,0.00000000,0.00000000,-0.05902266,-0.08027667,-0.00790796,-0.12386370,0.00378005,0.07619499,-0.03923519,-0.31778708,-0.23142752,-0.03618830,0.01532489,-0.03826995,-0.05937416,-0.25010425,0.11472349,-0.06334452,0.00000000,0.00000000,0.00000000,0,16:50:00.0,0,0
113,0.00000000,0.00000000,0.00000000,-0.09500187,-0.14045551,-0.02179936,-0.13489264,-0.05704351,0.08603466,-0.03675110,-0.31743556,-0.21787892,-0.02695109,0.01524266,-0.02119625,-0.04382275,-0.17628488,0.12338252,-0.07948396,0.00000000,0.00000000,0.00000000,0,16:50:00.0,0,0
114,0.00000000,0.00000000,0.00000000,-0.05657294,0.02477192,0.03590770,-0.08560838,0.10466047,0.06742480,-0.03541407,-0.33778131,-0.23811209,-0.03549200,0.12500213,-0.02575933,-0.03884137,-0.15167595,0.13719019,-0.08119190,0.00000000,0.00000000,0.00000000,0,16:50:00.0,0,0
115,0.00000000,0.00000000,0.00000000,-0.10333968,0.00990373,0.03267550,-0.09199321,0.07720724,0.05562856,-0.01388226,-0.31094623,-0.19578660,-0.02017332,0.09088022,-0.01184120,-0.03903909,-0.18413456,0.13336988,-0.07293969,0.00000000,0.00000000,0.00000000,0,16:50:01.0,0,0
116,0.00000000,0.00000000,0.00000000,-0.12942766,-0.07346042,0.01403412,-0.09448601,0.01365797,0.05159562,0.00628599,-0.27734801,-0.16490416,-0.00762703,0.03706501,0.01540024,-0.04648105,-0.24541712,0.13966283,-0.08523384,0.00000000,0.00000000,0.00000000,0,16:50:01.0,0,0
117,0.00000000,0.00000000,0.00000000,-0.16067195,-0.13705441,0.00699914,-0.11746099,-0.04412904,0.05784911,-0.00245888,-0.30137050,-0.17931002,-0.02011334,0.00804551,0.00506744,-0.05406324,-0.20508182,0.13729571,-0.09820245,0.00000000,0.00000000,0.00000000,0,16:50:01.0,0,0
118,0.00000000,0.00000000,0.00000000,-0.08801789,0.05674909,0.01760311,-0.11968373,0.12436238,0.04950867,-0.02236150,-0.30351579,-0.21800968,-0.02124799,0.14682086,-0.00581650,-0.02757798,-0.13406549,0.13335824,-0.09401553,0.00000000,0.00000000,0.00000000,0,16:50:01.0,0,0
119,0.00000000,0.00000000,0.00000000,-0.10445352,0.03183489,0.00963219,-0.11124439,0.11044752,0.06532947,-0.01479109,-0.29959413,-0.20581943,-0.02784231,0.11292046,-0.03282311,-0.05498333,-0.17747988,0.10889115,-0.09661274,0.00000000,0.00000000,0.00000000,0,16:50:01.0,0,0
120,0.00000000,0.00000000,0.00000000,-0.13008900,-0.06359885,0.00260426,-0.12656429,0.04152920,0.06593586,-0.04054111,-0.30791259,-0.23765849,-0.04851548,0.04623657,-0.03405086,-0.08148079,-0.23552437,0.10184806,-0.10223715,0.00000000,0.00000000,0.00000000,0,16:50:02.0,0,0
121,0.00000000,0.00000000,0.00000000,-0.15760972,-0.13986327,-0.03627587,-0.15968525,-0.02758559,0.07725642,-0.03065389,-0.28944677,-0.23479222,-0.03815834,-0.00923213,-0.03869060,-0.08087980,-0.30407435,0.08772610,-0.10353297,0.00000000,0.00000000,0.00000000,0,16:50:02.0,0,0
122,0.00000000,0.00000000,0.00000000,-0.03815328,0.09310961,-0.05333376,-0.09940679,0.13333094,0.05528232,0.16741259,-0.17584956,-0.03128513,0.06411329,0.12486999,0.07104964,-0.02460329,-0.05009656,-0.04405864,-0.22173247,0.00000000,0.00000000,0.00000000,0,16:50:02.0,0,0
123,0.00000000,0.00000000,0.00000000,-0.02904814,0.12536184,-0.01992227,-0.03356502,0.12838493,-0.07749593,0.24422333,-0.12942122,0.07300993,0.08467897,0.13907167,0.07486559,-0.01814137,-0.00238807,-0.06827409,-0.16243573,0.00000000,0.00000000,0.00000000,0,16:50:02.0,0,0
124,0.00000000,0.00000000,0.00000000,-0.04067393,0.12645045,-0.01882875,-0.02165418,0.10234232,-0.10592338,0.23694228,-0.11473669,0.06560919,0.07180838,0.09912189,0.05445448,-0.04223466,-0.02454578,-0.09223913,-0.18511367,0.00000000,0.00000000,0.00000000,0,16:50:02.0,0,0
125,0.00000000,0.00000000,0.00000000,-0.07203471,0.02295440,-0.02771090,-0.06801962,0.03376898,-0.10278377,0.15474258,-0.17475668,-0.05037852,0.02646393,0.04202578,0.00223196,-0.05147477,-0.11176787,-0.05319944,-0.13357350,0.00000000,0.00000000,0.00000000,0,16:50:03.0,0,0
126,0.00000000,0.00000000,0.00000000,-0.10598211,-0.10608138,-0.03056040,-0.11545232,-0.05284602,-0.05331565,0.08918697,-0.24115558,-0.14800709,-0.00891504,-0.01732903,0.01262009,-0.05394055,-0.18514813,0.03769320,-0.09926207,0.00000000,0.00000000,0.00000000,0,16:50:03.0,0,0
127,0.00000000,0.00000000,0.00000000,-0.03292760,0.11133861,-0.00661678,-0.09076998,0.13396959,-0.01556624,0.10508057,-0.23074925,-0.12231250,0.01269757,0.14151989,0.02630377,0.00690515,-0.06401150,0.06553011,-0.07448377,0.00000000,0.00000000,0.00000000,0,16:50:03.0,0,0
128,0.00000000,0.00000000,0.00000000,-0.03464954,0.09605658,-0.00401489,-0.07977683,0.11946519,-0.01564710,0.11525626,-0.22133417,-0.11862490,0.02048271,0.11631159,0.01262512,-0.00717785,-0.12189007,0.06865361,-0.08054765,0.00000000,0.00000000,0.00000000,0,16:50:03.0,0,0
129,0.00000000,0.00000000,0.00000000,-0.05070632,0.00915698,-0.00689777,-0.09172183,0.04771350,-0.02055984,0.10605146,-0.22386396,-0.12758927,0.00660225,0.04520176,0.00943129,-0.02858599,-0.18138023,0.05633596,-0.08659299,0.00000000,0.00000000,0.00000000,0,16:50:03.0,0,0
130,0.00000000,0.00000000,0.00000000,-0.08246670,-0.07628497,-0.01768726,-0.09837995,-0.02220201,-0.00625014,0.11566006,-0.22400458,-0.11576464,0.01018166,-0.00249232,0.01142242,-0.03390717,-0.19821404,0.05978072,-0.09802432,0.00000000,0.00000000,0.00000000,0,16:50:04.0,0,0
131,0.00000000,0.00000000,0.00000000,-0.02681214,0.09856196,0.00554258,-0.07137924,0.13261336,-0.01447535,0.12137368,-0.22032431,-0.09483965,0.02347021,0.13221881,0.03078196,0.01560804,-0.09836923,0.06947199,-0.06417888,0.00000000,0.00000000,0.00000000,0,16:50:04.0,0,0
132,0.00000000,0.00000000,0.00000000,-0.03134869,0.07236713,0.00562610,-0.06128341,0.11616835,-0.02064962,0.14043799,-0.20354849,-0.08874483,0.03170761,0.10245532,0.01927398,-0.00463990,-0.15495965,0.06947569,-0.07500235,0.00000000,0.00000000,0.00000000,0,16:50:04.0,0,0
133,0.00000000,0.00000000,0.00000000,-0.05486135,-0.01692682,-0.00155152,-0.08132876,0.03467572,-0.02369829,0.12292127,-0.21563697,-0.11714581,0.01702271,0.03698369,0.01322423,-0.01497388,-0.21159154,0.07259340,-0.07101250,0.00000000,0.00000000,0.00000000,0,16:50:04.0,0,0
134,0.00000000,0.00000000,0.00000000,-0.07653641,-0.03860025,-0.01205499,-0.08481806,0.00714391,-0.00891859,0.13679838,-0.21959653,-0.09457088,0.02583243,0.06348067,0.02944543,-0.00271462,-0.14205945,0.07643891,-0.07572877,0.00000000,0.00000000,0.00000000,0,16:50:04.0,0,0
135,0.00000000,0.00000000,0.00000000,-0.01642832,0.08698896,0.01398068,-0.06494788,0.13246238,-0.02044230,0.14537685,-0.19625737,-0.08253814,0.04622993,0.12396073,0.04655106,0.02587896,-0.13832922,0.09784414,-0.04544291,0.00000000,0.00000000,0.00000000,0,16:50:05.0,0,0
136,0.00000000,0.00000000,0.00000000,-0.02382923,0.04699852,0.01485043,-0.05307882,0.09917219,-0.02100658,0.15026793,-0.19422066,-0.07652338,0.04124450,0.08422947,0.02741686,0.00786161,-0.18880115,0.07882161,-0.05720674,0.00000000,0.00000000,0.00000000,0,16:50:05.0,0,0
137,0.00000000,0.00000000,0.00000000,-0.05450746,-0.04935358,0.00026668,-0.07567026,0.01107917,-0.02260473,0.14054084,-0.19547978,-0.09526029,0.03678734,0.02578013,0.03731470,-0.00010368,-0.24954942,0.09083305,-0.05869008,0.00000000,0.00000000,0.00000000,0,16:50:05.0,0,0
138,0.00000000,0.00000000,0.00000000,-0.07583659,-0.14194500,-0.00257433,-0.07846025,-0.06499510,-0.01440959,0.15836333,-0.19109730,-0.08006892,0.03419113,-0.03008533,0.03865341,-0.01220649,-0.23816630,0.08499378,-0.06739998,0.00000000,0.00000000,0.00000000,0,16:50:05.0,0,0
139,0.00000000,0.00000000,0.00000000,-0.01960686,0.05971536,0.01149869,-0.06104875,0.11305395,-0.01087432,0.16869377,-0.18105628,-0.06166625,0.06159995,0.12876964,0.05399724,0.04616654,-0.16143106,0.10447966,-0.04485695,0.00000000,0.00000000,0.00000000,0,16:50:05.0,0,0
140,0.00000000,0.00000000,0.00000000,-0.01210711,0.03474113,0.01860902,-0.05529865,0.09193558,-0.02405526,0.17055321,-0.16799788,-0.06720746,0.06067314,0.09285852,0.03996002,0.03396111,-0.19351609,0.10102198,-0.04496429,0.00000000,0.00000000,0.00000000,0,16:50:06.0,0,0
141,0.00000000,0.00000000,0.00000000,-0.04039223,-0.05272392,0.00355073,-0.06581166,0.01442067,-0.01993557,0.16574614,-0.15903841,-0.06783126,0.05922673,0.03296823,0.04670781,0.01247558,-0.26485756,0.10022452,-0.05874341,0.00000000,0.00000000,0.00000000,0,16:50:06.0,0,0
142,0.00000000,0.00000000,0.00000000,-0.06328093,-0.12451418,-0.00152428,-0.07103890,-0.05204120,-0.01837612,0.16838540,-0.17633978,-0.06716267,0.05807923,0.01690058,0.04964234,0.02017759,-0.20421781,0.10760328,-0.05615231,0.00000000,0.00000000,0.00000000,0,16:50:06.0,0,0
143,0.00000000,0.00000000,0.00000000,0.01282338,0.08503298,0.02334227,-0.04311570,0.13667692,-0.01854841,0.19320859,-0.14800626,-0.04854291,0.08618861,0.14760599,0.05922008,0.06243747,-0.15972395,0.11630061,-0.03758248,0.00000000,0.00000000,0.00000000,0,16:50:06.0,0,0
144,0.00000000,0.00000000,0.00000000,0.01503075,0.04015752,0.02165644,-0.04504180,0.09801141,-0.02805479,0.19721845,-0.12701419,-0.03801763,0.08897077,0.11324046,0.05950155,0.06038426,-0.19047806,0.12295540,-0.03734098,0.00000000,0.00000000,0.00000000,0,16:50:06.0,0,0
145,0.00000000,0.00000000,0.00000000,0.00110167,-0.04328663,0.02145052,-0.04543560,0.02157865,-0.02565338,0.19597186,-0.12405194,-0.05477213,0.07854941,0.04609929,0.04861301,0.03626418,-0.24995886,0.11547869,-0.04481718,0.00000000,0.00000000,0.00000000,0,16:50:07.0,0,0
146,0.00000000,0.00000000,0.00000000,-0.03335571,-0.10918585,0.00175301,-0.05461257,-0.04602049,-0.01863617,0.20960176,-0.12995574,-0.04353297,0.08815041,0.05038935,0.06791569,0.04885884,-0.18711653,0.11507484,-0.05796113,0.00000000,0.00000000,0.00000000,0,16:50:07.0,0,0
147,0.00000000,0.00000000,0.00000000,0.06505500,0.11651769,0.04143472,-0.02364394,0.15999530,-0.03363031,0.22396471,-0.11005931,-0.03802033,0.10567687,0.18288261,0.07935942,0.09792392,-0.11369471,0.13638657,-0.02602476,0.00000000,0.00000000,0.00000000,0,16:50:07.0,0,0
148,0.00000000,0.00000000,0.00000000,0.06259482,0.08277027,0.03542018,-0.01226638,0.13102572,-0.03419370,0.23419818,-0.08515225,-0.02121680,0.10776071,0.14613082,0.07065128,0.07997704,-0.16178636,0.12537540,-0.03776009,0.00000000,0.00000000,0.00000000,0,16:50:07.0,0,0
149,0.00000000,0.00000000,0.00000000,0.03765057,-0.02298451,0.03003328,-0.02418480,0.04055256,-0.03789121,0.22286458,-0.08153666,-0.05692121,0.10121595,0.08240692,0.06137505,0.06425792,-0.21808049,0.11866950,-0.04577962,0.00000000,0.00000000,0.00000000,0,16:50:07.0,0,0
150,0.00000000,0.00000000,0.00000000,0.01391434,-0.11570996,0.02278981,-0.03687770,-0.03550031,-0.03227463,0.21577618,-0.10231997,-0.06065118,0.08731495,0.00645322,0.05463392,0.03722878,-0.28110182,0.11432482,-0.04372562,0.00000000,0.00000000,0.00000000,0,16:50:08.0,0,0
151,0.00000000,0.00000000,0.00000000,0.06814819,0.08927172,0.03652783,-0.01756174,0.14802511,-0.02290265,0.24421270,-0.08680742,-0.02775856,0.11085881,0.18705784,0.07836615,0.11018256,-0.09683705,0.13596186,-0.03290164,0.00000000,0.00000000,0.00000000,0,16:50:08.0,0,0
152,0.00000000,0.00000000,0.00000000,0.08531182,0.07765454,0.04600174,-0.01007684,0.13133690,-0.03060531,0.22921301,-0.08465236,-0.03353625,0.10628023,0.16600840,0.08292340,0.10651695,-0.12149313,0.13560115,-0.02696023,0.00000000,0.00000000,0.00000000,0,16:50:08.0,0,0
153,0.00000000,0.00000000,0.00000000,0.06421878,0.00672524,0.03769067,-0.02002249,0.06967398,-0.03055941,0.22671252,-0.09799153,-0.05740271,0.09198693,0.09124747,0.06843747,0.07417594,-0.21040753,0.16161644,-0.00973121,0.00000000,0.00000000,0.00000000,0,16:50:08.0,0,0
154,0.00000000,0.00000000,0.00000000,0.02023533,-0.08730750,0.01222298,-0.05644702,-0.01934602,-0.01363820,0.18811616,-0.11778683,-0.08767794,0.07998416,0.03207445,0.03776260,0.04125272,-0.30217096,0.16737191,-0.01445924,0.00000000,0.00000000,0.00000000,0,16:50:08.0,0,0
155,0.00000000,0.00000000,0.00000000,-0.00690802,-0.10894677,-0.00387197,-0.08063377,-0.05757828,-0.00616813,0.17888148,-0.14639665,-0.11255980,0.07345670,0.04663489,0.05329649,0.06049415,-0.20464167,0.18336919,-0.02282742,0.00000000,0.00000000,0.00000000,0,16:50:09.0,0,0
156,0.00000000,0.00000000,0.00000000,0.06372198,0.09168784,0.02067282,-0.05765697,0.13678950,0.00067686,0.16477180,-0.15193693,-0.11975818,0.07199211,0.12910725,0.04216465,0.07355611,-0.19718124,0.18873878,0.00605915,0.00000000,0.00000000,0.00000000,0,16:50:09.0,0,0
157,0.00000000,0.00000000,0.00000000,0.04933995,0.03148974,0.01343860,-0.04618603,0.08494563,0.01087924,0.20539042,-0.10792049,-0.06496021,0.10085221,0.08825853,0.07023624,0.05985891,-0.25081304,0.18033966,-0.00820196,0.00000000,0.00000000,0.00000000,0,16:50:09.0,0,0
158,0.00000000,0.00000000,0.00000000,0.01959408,-0.07448774,0.00286047,-0.07099558,-0.00984213,-0.00654614,0.18147373,-0.13927901,-0.12037840,0.07685473,0.00136728,0.04961609,0.03506973,-0.32546541,0.16780323,-0.01411032,0.00000000,0.00000000,0.00000000,0,16:50:09.0,0,0
159,0.00000000,0.00000000,0.00000000,-0.01350493,-0.16943784,-0.01002796,-0.07125021,-0.09595805,-0.01166424,0.21328092,-0.14776902,-0.10502842,0.07410302,-0.08574799,0.05047315,0.00707283,-0.41421542,0.15788388,-0.00808726,0.00000000,0.00000000,0.00000000,0,16:50:09.0,0,0
160,0.00000000,0.00000000,0.00000000,0.02592544,0.02462230,0.00385233,-0.06901503,0.06647940,-0.01798656,0.21083735,-0.17174271,-0.10839634,0.07525675,0.05294972,0.07011829,0.04742110,-0.24935193,0.15389323,-0.00791053,0.00000000,0.00000000,0.00000000,0,16:50:10.0,0,0
161,0.00000000,0.00000000,0.00000000,0.02666561,-0.01618514,0.00801375,-0.05786548,0.03510664,-0.02716880,0.20096684,-0.16343416,-0.10593157,0.07142093,0.03139876,0.07324065,0.04370500,-0.27285978,0.15426452,-0.00043017,0.00000000,0.00000000,0.00000000,0,16:50:10.0,0,0
162,0.00000000,0.00000000,0.00000000,0.01943859,-0.07040359,0.01299263,-0.05966737,-0.01070467,-0.02044292,0.19837619,-0.16280001,-0.12238840,0.05887741,-0.02440657,0.06003309,0.00696503,-0.33899936,0.14162281,-0.01614305,0.00000000,0.00000000,0.00000000,0,16:50:10.0,0,0
163,0.00000000,0.00000000,0.00000000,-0.01955554,-0.16581658,-0.00751358,-0.07048048,-0.09638902,-0.01529057,0.20359936,-0.17836447,-0.13160053,0.05256792,-0.09432202,0.04838512,-0.02210344,-0.42281020,0.13333523,-0.02183988,0.00000000,0.00000000,0.00000000,0,16:50:10.0,0,0
164,0.00000000,0.00000000,0.00000000,-0.06719905,-0.25949687,-0.02564373,-0.09786689,-0.18395360,-0.01579965,0.19436082,-0.18954796,-0.13627075,0.05475090,-0.10662628,0.06782529,-0.01368575,-0.35809740,0.13794665,-0.03127246,0.00000000,0.00000000,0.00000000,0,16:50:10.0,0,0
165,0.00000000,0.00000000,0.00000000,0.00895798,-0.03330255,0.00369593,-0.07630509,0.01792907,-0.02535825,0.19874778,-0.19655544,-0.12409256,0.05942616,0.00168879,0.07453960,0.02558360,-0.29629502,0.14669557,0.00447810,0.00000000,0.00000000,0.00000000,0,16:50:11.0,0,0
166,0.00000000,0.00000000,0.00000000,0.00575438,-0.06446650,0.00408813,-0.06796533,-0.01083716,-0.02872057,0.20156601,-0.19251531,-0.12324543,0.05355650,-0.04595634,0.06601592,0.00313545,-0.34628022,0.14080216,-0.00640456,0.00000000,0.00000000,0.00000000,0,16:50:11.0,0,0
167,0.00000000,0.00000000,0.00000000,-0.03231187,-0.17022339,-0.00976419,-0.08184222,-0.10300659,-0.02109797,0.20071867,-0.19686195,-0.12530880,0.04604757,-0.10585365,0.07537324,-0.02462657,-0.42663687,0.13012722,-0.02370609,0.00000000,0.00000000,0.00000000,0,16:50:11.0,0,0
168,0.00000000,0.00000000,0.00000000,-0.06830825,-0.26849625,-0.02401534,-0.11027751,-0.18704352,-0.01703448,0.16272219,-0.21492897,-0.16125125,0.03216477,-0.16282789,0.07060990,-0.05432292,-0.49999759,0.12063240,-0.02759653,0.00000000,0.00000000,0.00000000,0,16:50:11.0,0,0
169,0.00000000,0.00000000,0.00000000,-0.01228810,-0.05433159,-0.00387402,-0.09302702,-0.00660528,-0.01970589,0.18430039,-0.21723855,-0.12589039,0.04623203,-0.03715622,0.09563707,0.00591718,-0.31588495,0.14500304,-0.00501400,0.00000000,0.00000000,0.00000000,0,16:50:11.0,0,0
170,0.00000000,0.00000000,0.00000000,-0.00605534,-0.07283037,0.00359309,-0.07157662,-0.02460070,-0.01629800,0.20047621,-0.20326518,-0.10702862,0.05488231,-0.04625411,0.09423366,-0.00219875,-0.33736506,0.14310311,-0.00092604,0.00000000,0.00000000,0.00000000,0,16:50:12.0,0,0
171,0.00000000,0.00000000,0.00000000,-0.02368180,-0.13815479,-0.00868758,-0.08019006,-0.08434047,-0.01493381,0.19513597,-0.20607749,-0.12641054,0.05220484,-0.09126404,0.08362036,-0.02255908,-0.40933344,0.13599156,-0.01524858,0.00000000,0.00000000,0.00000000,0,16:50:12.0,0,0
172,0.00000000,0.00000000,0.00000000,-0.05100570,-0.22424732,-0.01720277,-0.10549536,-0.16015998,-0.00941796,0.19196963,-0.20338245,-0.13407858,0.04580107,-0.13962317,0.08821405,-0.04318129,-0.46699968,0.13356864,-0.02677791,0.00000000,0.00000000,0.00000000,0,16:50:12.0,0,0
173,0.00000000,0.00000000,0.00000000,-0.01526145,-0.05118015,-0.00499792,-0.09683831,-0.01925122,-0.02029083,0.19082291,-0.21737385,-0.12441123,0.05843474,-0.02050442,0.10333495,0.00950980,-0.30323103,0.14386176,-0.00187644,0.00000000,0.00000000,0.00000000,0,16:50:12.0,0,0
174,0.00000000,0.00000000,0.00000000,0.00329213,-0.04868246,0.00940040,-0.06871071,-0.00801667,-0.02136054,0.20920746,-0.18825752,-0.11169509,0.06648316,-0.02709897,0.10568415,0.00747847,-0.31371337,0.14739771,0.00274864,0.00000000,0.00000000,0.00000000,0,16:50:12.0,0,0
175,0.00000000,0.00000000,0.00000000,-0.00307766,-0.08960441,0.00678230,-0.06657910,-0.04673779,-0.01870028,0.21046358,-0.18538257,-0.10324788,0.06131605,-0.06400444,0.09131519,-0.01388697,-0.37228912,0.14189412,-0.00648735,0.00000000,0.00000000,0.00000000,0,16:50:13.0,0,0
176,0.00000000,0.00000000,0.00000000,-0.03853090,-0.17635539,-0.00976419,-0.08571737,-0.12130575,-0.01174533,0.21130009,-0.17439638,-0.11668998,0.06298447,-0.10905933,0.09743000,-0.02334937,-0.43330586,0.13629512,-0.01757784,0.00000000,0.00000000,0.00000000,0,16:50:13.0,0,0
177,0.00000000,0.00000000,0.00000000,-0.07235688,-0.26224393,-0.02034501,-0.11239636,-0.19707575,-0.01609456,0.19856484,-0.18319474,-0.13311979,0.06573352,-0.12070893,0.11429728,-0.01162289,-0.36065480,0.14534031,-0.01789387,0.00000000,0.00000000,0.00000000,0,16:50:13.0,0,0
178,0.00000000,0.00000000,0.00000000,0.01558387,-0.00496295,0.01041773,-0.07809497,0.03122428,-0.02470622,0.21130109,-0.18678348,-0.09766645,0.07695381,0.01724142,0.11021407,0.03530732,-0.27920493,0.15836172,0.01568984,0.00000000,0.00000000,0.00000000,0,16:50:13.0,0,0
179,0.00000000,0.00000000,0.00000000,0.02057878,-0.02313541,0.01510683,-0.06764522,0.01442067,-0.02464377,0.21538362,-0.17144218,-0.10066153,0.07520038,-0.01594076,0.10752121,0.02263580,-0.31523213,0.15049089,0.00418712,0.00000000,0.00000000,0.00000000,0,16:50:13.0,0,0
180,0.00000000,0.00000000,0.00000000,-0.00898168,-0.10438489,0.00050819,-0.07984369,-0.05880747,-0.01999895,0.21020687,-0.17266339,-0.10648401,0.06467370,-0.07430593,0.10483536,-0.00328006,-0.38378969,0.14338185,-0.00406924,0.00000000,0.00000000,0.00000000,0,16:50:14.0,0,0
181,0.00000000,0.00000000,0.00000000,-0.04297627,-0.19237024,-0.01383506,-0.09484570,-0.13280372,-0.01810420,0.20353630,-0.17337967,-0.11747427,0.05807389,-0.12507831,0.10128029,-0.02759518,-0.45835689,0.12921247,-0.02314659,0.00000000,0.00000000,0.00000000,0,16:50:14.0,0,0
182,0.00000000,0.00000000,0.00000000,-0.00245142,0.00410445,-0.00658717,-0.09479257,0.03490184,-0.01600605,0.21068239,-0.18947065,-0.10313261,0.07713264,0.01785302,0.11904102,0.03758849,-0.27478880,0.15080211,-0.00213516,0.00000000,0.00000000,0.00000000,0,16:50:14.0,0,0
183,0.00000000,0.00000000,0.00000000,0.01064188,-0.00035239,0.00547559,-0.07431489,0.03500209,-0.02986616,0.22996201,-0.16141999,-0.08651965,0.09040297,0.01626106,0.12040757,0.04484907,-0.28210908,0.15998109,0.01027577,0.00000000,0.00000000,0.00000000,0,16:50:14.0,0,0
184,0.00000000,0.00000000,0.00000000,0.00912615,-0.04906107,0.00704366,-0.07354643,-0.00613887,-0.02962295,0.21745248,-0.15488793,-0.10593233,0.08472012,-0.02303347,0.10364483,0.02851334,-0.33870459,0.15206246,0.00376854,0.00000000,0.00000000,0.00000000,0,16:50:14.0,0,0
185,0.00000000,0.00000000,0.00000000,-0.01595717,-0.12916118,-0.00463092,-0.09200798,-0.07758762,-0.02689676,0.20586975,-0.17181638,-0.11695027,0.06235757,-0.08949839,0.10316479,0.00744784,-0.40072802,0.14456066,-0.00566667,0.00000000,0.00000000,0.00000000,0,16:50:15.0,0,0
186,0.00000000,0.00000000,0.00000000,-0.05468261,-0.22321618,-0.02128671,-0.11905651,-0.14969231,-0.01426732,0.17946593,-0.19755846,-0.15432177,0.04131280,-0.14760639,0.08835538,-0.02242947,-0.41189548,0.13232030,-0.02011400,0.00000000,0.00000000,0.00000000,0,16:50:15.0,0,0
187,0.00000000,0.00000000,0.00000000,0.00467241,0.01441100,-0.00098050,-0.09306116,0.05380195,0.00428349,0.16825491,-0.20974442,-0.14450291,0.05111452,0.02057736,0.09375188,0.01442217,-0.26557577,0.12602945,-0.02496219,0.00000000,0.00000000,0.00000000,0,16:50:15.0,0,0
188,0.00000000,0.00000000,0.00000000,0.00930561,-0.01347382,0.00914032,-0.08804448,0.04100522,0.00405455,0.15982002,-0.20327415,-0.17008391,0.04741875,0.01213676,0.08487663,0.00599121,-0.29934150,0.11692999,-0.03089149,0.00000000,0.00000000,0.00000000,0,16:50:15.0,0,0
189,0.00000000,0.00000000,0.00000000,-0.01971294,-0.09958149,-0.00389573,-0.10461647,-0.03297628,0.01499465,0.14555888,-0.21060455,-0.19258629,0.04235039,-0.03713993,0.07033033,-0.01345018,-0.35955369,0.12150747,-0.03795136,0.00000000,0.00000000,0.00000000,0,16:50:15.0,0,0
190,0.00000000,0.00000000,0.00000000,-0.05258632,-0.19517037,-0.02215643,-0.12153995,-0.10553477,0.01981604,0.13181180,-0.20461515,-0.19357976,0.03599094,-0.09275084,0.08015542,-0.02506903,-0.41975734,0.11324071,-0.04110889,0.00000000,0.00000000,0.00000000,0,16:50:16.0,0,0
191,0.00000000,0.00000000,0.00000000,-0.01369590,-0.02092502,-0.01349227,-0.12153166,0.03477921,0.01673201,0.12718879,-0.22617427,-0.19188643,0.04779276,0.03022161,0.09187577,0.02291455,-0.25526342,0.13111760,-0.01881792,0.00000000,0.00000000,0.00000000,0,16:50:16.0,0,0
192,0.00000000,0.00000000,0.00000000,-0.00168385,-0.03051669,-0.00228373,-0.10259269,0.03826540,0.01379816,0.14266489,-0.20153072,-0.17836823,0.05714433,0.02336252,0.09779435,0.02865473,-0.26908699,0.13318709,-0.01133789,0.00000000,0.00000000,0.00000000,0,16:50:16.0,0,0
193,0.00000000,0.00000000,0.00000000,-0.00217470,-0.07969357,0.00035363,-0.10220873,0.00154557,0.01565406,0.13014489,-0.20077662,-0.18765934,0.04360173,-0.02167615,0.07422928,0.01170805,-0.32039753,0.12497129,-0.01388501,0.00000000,0.00000000,0.00000000,0,16:50:16.0,0,0
194,0.00000000,0.00000000,0.00000000,-0.03607174,-0.16699518,-0.01012742,-0.11465830,-0.07167632,0.01911370,0.12814909,-0.20760655,-0.20751119,0.03169707,-0.08088389,0.07012099,-0.01480988,-0.38305977,0.11787222,-0.02525620,0.00000000,0.00000000,0.00000000,0,16:50:16.0,0,0
195,0.00000000,0.00000000,0.00000000,-0.07382665,-0.27507940,-0.02320913,-0.13389443,-0.15901020,0.02784860,0.11927041,-0.22527319,-0.21746124,0.02210310,-0.14242242,0.06694786,-0.03289068,-0.39712042,0.11054042,-0.03852658,0.00000000,0.00000000,0.00000000,0,16:50:17.0,0,0
196,0.00000000,0.00000000,0.00000000,-0.00620530,-0.02742930,-0.00017151,-0.09857237,0.05677920,0.02141847,0.13256505,-0.20856707,-0.18357857,0.04888905,0.03416041,0.07997715,0.03069417,-0.24029155,0.12109696,-0.01247542,0.00000000,0.00000000,0.00000000,0,16:50:17.0,0,0
197,0.00000000,0.00000000,0.00000000,0.00028075,-0.04301636,0.00461032,-0.08953375,0.04441152,0.02294556,0.14909105,-0.20379068,-0.18138407,0.05129262,0.01592479,0.07791124,0.02209882,-0.27689624,0.12031519,-0.01177933,0.00000000,0.00000000,0.00000000,0,16:50:17.0,0,0
198,0.00000000,0.00000000,0.00000000,-0.02830294,-0.13443387,-0.00609578,-0.10220212,-0.03652338,0.02021682,0.13810079,-0.20602190,-0.20198889,0.03835546,-0.04687457,0.06991048,-0.00493833,-0.34839860,0.11436940,-0.02386481,0.00000000,0.00000000,0.00000000,0,16:50:17.0,0,0
199,0.00000000,0.00000000,0.00000000,-0.06306758,-0.23457238,-0.01954185,-0.11568305,-0.11887475,0.03634666,0.12932509,-0.20918040,-0.21025829,0.03008573,-0.10833605,0.05728367,-0.03052668,-0.41917402,0.10891621,-0.03444473,0.00000000,0.00000000,0.00000000,0,16:50:17.0,0,0
200,0.00000000,0.00000000,0.00000000,-0.08421692,-0.22617243,-0.02732451,-0.12907751,-0.14105645,0.03307490,0.13426441,-0.22789754,-0.20370537,0.03837675,-0.05790010,0.06950225,-0.00712017,-0.28816313,0.11666980,-0.03060404,0.00000000,0.00000000,0.00000000,0,16:50:18.0,0,0
201,0.00000000,0.00000000,0.00000000,-0.01336829,-0.04449842,-0.00181686,-0.09945169,0.04507334,0.02915454,0.14485382,-0.20909534,-0.19519167,0.05449919,0.02098603,0.07716560,0.01886344,-0.27268171,0.13036276,-0.00927186,0.00000000,0.00000000,0.00000000,0,16:50:18.0,0,0
202,0.00000000,0.00000000,0.00000000,-0.02578224,-0.08593087,-0.00286615,-0.10016119,0.00439029,0.03235212,0.14490342,-0.19336779,-0.19307838,0.05896972,-0.01187942,0.07814638,0.00999609,-0.31460747,0.11629239,-0.01699138,0.00000000,0.00000000,0.00000000,0,16:50:18.0,0,0
203,0.00000000,0.00000000,0.00000000,-0.05738569,-0.18878978,-0.01449840,-0.11704376,-0.08545948,0.02808022,0.13226010,-0.20079981,-0.19997244,0.04377646,-0.07657491,0.06326478,-0.01240501,-0.38410753,0.10654123,-0.02873895,0.00000000,0.00000000,0.00000000,0,16:50:18.0,0,0
204,0.00000000,0.00000000,0.00000000,-0.09465240,-0.30060637,-0.02767388,-0.13764961,-0.17570449,0.03200232,0.12325791,-0.21633179,-0.21726567,0.02969042,-0.14442547,0.05505966,-0.04910297,-0.45983875,0.09758481,-0.03719307,0.00000000,0.00000000,0.00000000,0,16:50:18.0,0,0
205,0.00000000,0.00000000,0.00000000,-0.05744055,-0.10739832,-0.02275088,-0.13386807,-0.03381692,0.03184667,0.11812394,-0.24051580,-0.20286576,0.04068067,-0.01387386,0.07339557,0.00204368,-0.28194863,0.10912243,-0.02881277,0.00000000,0.00000000,0.00000000,0,16:50:19.0,0,0
206,0.00000000,0.00000000,0.00000000,-0.04415310,-0.10090649,-0.01261794,-0.11052402,-0.01014820,0.02784860,0.13531905,-0.20430194,-0.18326300,0.04706880,-0.02843216,0.08311126,0.00267640,-0.30227333,0.12554999,-0.01966705,0.00000000,0.00000000,0.00000000,0,16:50:19.0,0,0
207,0.00000000,0.00000000,0.00000000,-0.05040694,-0.15156771,-0.01298460,-0.11357243,-0.05415264,0.02499815,0.12997049,-0.20102639,-0.18142518,0.04035134,-0.06359029,0.06575433,-0.01754742,-0.35900494,0.11271500,-0.02951899,0.00000000,0.00000000,0.00000000,0,16:50:19.0,0,0
208,0.00000000,0.00000000,0.00000000,-0.08665814,-0.24661718,-0.02646339,-0.13386807,-0.13494807,0.02722503,0.12797138,-0.21412618,-0.19835705,0.02667759,-0.12381996,0.05968000,-0.04555080,-0.42331079,0.10642254,-0.04223454,0.00000000,0.00000000,0.00000000,0,16:50:19.0,0,0
209,0.00000000,0.00000000,0.00000000,-0.12607741,-0.35310304,-0.03992237,-0.15405433,-0.22185460,0.03326875,0.12797138,-0.22039367,-0.20651592,0.02179194,-0.17206351,0.05965663,-0.05578778,-0.39080518,0.10251371,-0.04835060,0.00000000,0.00000000,0.00000000,0,16:50:19.0,0,0
210,0.00000000,0.00000000,0.00000000,-0.05671585,-0.11519528,-0.01841859,-0.12187219,-0.02170204,0.03326875,0.13642535,-0.21783704,-0.18496372,0.03509504,-0.03647267,0.04990429,-0.01812319,-0.31358767,0.11037184,-0.02609722,0.00000000,0.00000000,0.00000000,0,16:50:20.0,0,0
211,0.00000000,0.00000000,0.00000000,-0.05700853,-0.13875611,-0.01981828,-0.12148419,-0.04532473,0.02579938,0.13499627,-0.20810850,-0.18103291,0.03225090,-0.06657517,0.04026056,-0.02974369,-0.34777999,0.09911454,-0.02964821,0.00000000,0.00000000,0.00000000,0,16:50:20.0,0,0
212,0.00000000,0.00000000,0.00000000,-0.08870145,-0.23644164,-0.03058692,-0.13524516,-0.13021566,0.03377440,0.12190162,-0.22478175,-0.19586045,0.01895197,-0.13007571,0.03513666,-0.05147561,-0.41804022,0.10056538,-0.04337338,0.00000000,0.00000000,0.00000000,0,16:50:20.0,0,0
213,0.00000000,0.00000000,0.00000000,-0.12196537,-0.32365733,-0.04104564,-0.14962347,-0.20250608,0.03342481,0.10598292,-0.24077605,-0.20711347,0.00203523,-0.18898192,0.02474643,-0.08358984,-0.48382092,0.08542895,-0.05896067,0.00000000,0.00000000,0.00000000,0,16:50:20.0,0,0
214,0.00000000,0.00000000,0.00000000,-0.06804770,-0.09531178,-0.02732656,-0.13495149,-0.01786170,0.02665457,0.12600502,-0.23932347,-0.18646985,0.02002325,-0.04759825,0.03361513,-0.02519861,-0.29741219,0.10089111,-0.04272074,0.00000000,0.00000000,0.00000000,0,16:50:20.0,0,0
215,0.00000000,0.00000000,0.00000000,-0.05802356,-0.12452204,-0.01823697,-0.11599680,-0.03790793,0.02985518,0.13503993,-0.21786085,-0.16625270,0.02781058,-0.05424945,0.04076846,-0.02948617,-0.31038502,0.10136361,-0.03325116,0.00000000,0.00000000,0.00000000,0,16:50:21.0,0,0
216,0.00000000,0.00000000,0.00000000,-0.07016049,-0.17072818,-0.02094665,-0.12424122,-0.08088887,0.02221971,0.13031490,-0.22206733,-0.17945158,0.02090675,-0.09719048,0.03256148,-0.05084264,-0.36728796,0.10050483,-0.03790497,0.00000000,0.00000000,0.00000000,0,16:50:21.0,0,0
217,0.00000000,0.00000000,0.00000000,-0.09367427,-0.24859534,-0.02685096,-0.13490120,-0.14992566,0.02892257,0.12166191,-0.23022123,-0.21058926,0.01128226,-0.15200882,0.03885594,-0.06867881,-0.42642352,0.08928946,-0.04193244,0.00000000,0.00000000,0.00000000,0,16:50:21.0,0,0
218,0.00000000,0.00000000,0.00000000,-0.13396381,-0.33892757,-0.04186247,-0.15713558,-0.23025608,0.02347172,0.12258948,-0.23970096,-0.20874867,0.00726199,-0.17757902,0.05248988,-0.06968840,-0.35707733,0.09847340,-0.05097701,0.00000000,0.00000000,0.00000000,0,16:50:21.0,0,0
219,0.00000000,0.00000000,0.00000000,-0.05107562,-0.06813821,-0.01000443,-0.11746725,-0.00013976,0.02409680,0.14379191,-0.22482939,-0.18723570,0.03487676,-0.01358200,0.05549065,-0.01592053,-0.26026973,0.10478711,-0.02117621,0.00000000,0.00000000,0.00000000,0,16:50:21.0,0,0
220,0.00000000,0.00000000,0.00000000,-0.04314045,-0.08240580,-0.00721974,-0.11912296,-0.01850316,0.02494091,0.14832236,-0.21242665,-0.18577333,0.04638769,-0.03213489,0.05853682,-0.01718840,-0.28995579,0.10745896,-0.02350903,0.00000000,0.00000000,0.00000000,0,16:50:22.0,0,0
221,0.00000000,0.00000000,0.00000000,-0.07040864,-0.16166763,-0.01800857,-0.12945917,-0.09096920,0.02681547,0.13497670,-0.21659493,-0.20044386,0.03576799,-0.08453342,0.04592624,-0.03495484,-0.35440838,0.10236374,-0.03101526,0.00000000,0.00000000,0.00000000,0,16:50:22.0,0,0
222,0.00000000,0.00000000,0.00000000,-0.10035120,-0.25445744,-0.02694167,-0.14416172,-0.16596158,0.03016595,0.11666080,-0.22291300,-0.21153797,0.02360217,-0.14184558,0.03584861,-0.06042237,-0.42212427,0.08881627,-0.05203813,0.00000000,0.00000000,0.00000000,0,16:50:22.0,0,0
223,0.00000000,0.00000000,0.00000000,-0.05135816,-0.03441123,-0.01933969,-0.13565528,0.01265743,0.03603083,0.13307188,-0.22453807,-0.19266863,0.04636718,0.00976130,0.05519599,0.00879567,-0.23730026,0.10887112,-0.02580147,0.00000000,0.00000000,0.00000000,0,16:50:22.0,0,0
224,0.00000000,0.00000000,0.00000000,-0.04562457,-0.05531661,-0.01181120,-0.11917306,-0.00377459,0.03591777,0.16134183,-0.19612648,-0.18017149,0.06529795,0.01524266,0.06825130,0.00771722,-0.24419299,0.12056078,-0.02208128,0.00000000,0.00000000,0.00000000,0,16:50:22.0,0,0
225,0.00000000,0.00000000,0.00000000,-0.05159671,-0.09906267,-0.01449675,-0.12496529,-0.03990315,0.03529824,0.14888017,-0.19409990,-0.19104224,0.05688634,-0.02132756,0.04728980,-0.00959335,-0.29933602,0.10512330,-0.03198944,0.00000000,0.00000000,0.00000000,0,16:50:23.0,0,0
226,0.00000000,0.00000000,0.00000000,-0.08229770,-0.17611547,-0.02455971,-0.13224886,-0.10687272,0.03955907,0.13803899,-0.19544972,-0.20293337,0.04314088,-0.07884961,0.03527983,-0.02690458,-0.35882157,0.09383990,-0.03722936,0.00000000,0.00000000,0.00000000,0,16:50:23.0,0,0
227,0.00000000,0.00000000,0.00000000,-0.11316511,-0.27624729,-0.03271826,-0.15410160,-0.18700382,0.03696558,0.12875228,-0.21291627,-0.21445817,0.03384154,-0.13591594,0.03590532,-0.03927805,-0.34147277,0.10111055,-0.04238230,0.00000000,0.00000000,0.00000000,0,16:50:23.0,0,0
228,0.00000000,0.00000000,0.00000000,-0.04495401,-0.02471901,-0.00890605,-0.12309363,0.02287745,0.03993734,0.15070404,-0.20629147,-0.17888078,0.06126748,0.03895728,0.05273104,0.02053685,-0.21042517,0.11473670,-0.01427979,0.00000000,0.00000000,0.00000000,0,16:50:23.0,0,0
229,0.00000000,0.00000000,0.00000000,-0.04004639,-0.03655745,-0.00424053,-0.12167186,0.01063528,0.02966087,0.15465155,-0.18996766,-0.18445323,0.06443524,0.02712801,0.05563933,0.01791690,-0.23407869,0.11714538,-0.01191995,0.00000000,0.00000000,0.00000000,0,16:50:23.0,0,0
230,0.00000000,0.00000000,0.00000000,-0.06417847,-0.11800509,-0.01190704,-0.13223338,-0.06059773,0.02958248,0.13602583,-0.19660644,-0.20400147,0.05805677,-0.02706940,0.05095040,0.00351486,-0.29737896,0.11979744,-0.01916227,0.00000000,0.00000000,0.00000000,0,16:50:24.0,0,0
231,0.00000000,0.00000000,0.00000000,-0.09448389,-0.19959685,-0.02082756,-0.14255406,-0.12711467,0.03038323,0.12413503,-0.20477435,-0.22102068,0.04575241,-0.07884994,0.03882116,-0.01380142,-0.36065882,0.10620394,-0.03772094,0.00000000,0.00000000,0.00000000,0,16:50:24.0,0,0
232,0.00000000,0.00000000,0.00000000,-0.04815479,0.00296206,-0.00973752,-0.13739306,0.04093153,0.03300842,0.14305502,-0.19984859,-0.20629756,0.07339218,0.06551679,0.05958402,0.04780389,-0.19058400,0.12448610,-0.01756472,0.00000000,0.00000000,0.00000000,0,16:50:24.0,0,0
233,0.00000000,0.00000000,0.00000000,-0.04581939,-0.02275787,-0.00294040,-0.11686514,0.02174771,0.03506259,0.16640072,-0.17106318,-0.17170614,0.08354182,0.06131459,0.05879089,0.04684404,-0.20072320,0.12841527,-0.01520382,0.00000000,0.00000000,0.00000000,0,16:50:24.0,0,0
234,0.00000000,0.00000000,0.00000000,-0.05789746,-0.06836247,-0.00433541,-0.11683380,-0.01738286,0.03434066,0.15603580,-0.16947827,-0.19014925,0.07103538,0.02024272,0.04826540,0.02616017,-0.25865123,0.11169410,-0.02537752,0.00000000,0.00000000,0.00000000,0,16:50:24.0,0,0
235,0.00000000,0.00000000,0.00000000,-0.08378355,-0.14430927,-0.01020148,-0.12812194,-0.08272706,0.03637980,0.14039046,-0.18047893,-0.19771686,0.05906470,-0.03715917,0.03929189,0.00731100,-0.31549907,0.11012498,-0.02494844,0.00000000,0.00000000,0.00000000,0,16:50:25.0,0,0
236,0.00000000,0.00000000,0.00000000,-0.11658869,-0.21822147,-0.02064371,-0.13878728,-0.15038773,0.03726584,0.13345771,-0.19176877,-0.20851362,0.05529539,-0.04921284,0.05178066,0.01453722,-0.22939029,0.11196275,-0.02502229,0.00000000,0.00000000,0.00000000,0,16:50:25.0,0,0
237,0.00000000,0.00000000,0.00000000,-0.02766825,0.04246264,0.02027843,-0.10593190,0.07468344,0.03480949,0.16145544,-0.17960542,-0.17745486,0.08246064,0.10634957,0.06163522,0.06512401,-0.14855637,0.12878947,-0.00727407,0.00000000,0.00000000,0.00000000,0,16:50:25.0,0,0
238,0.00000000,0.00000000,0.00000000,-0.02273553,0.02019590,0.02199421,-0.10543411,0.05445430,0.02840872,0.16770096,-0.15050302,-0.17773569,0.08410164,0.08332516,0.07085705,0.06622075,-0.18013872,0.13342986,-0.00522871,0.00000000,0.00000000,0.00000000,0,16:50:25.0,0,0
239,0.00000000,0.00000000,0.00000000,-0.04938336,-0.06576046,0.01616628,-0.11057816,-0.01794013,0.02552204,0.16216537,-0.15411671,-0.18865156,0.07392132,0.02603666,0.05567645,0.04497311,-0.24465026,0.12056078,-0.01962294,0.00000000,0.00000000,0.00000000,0,16:50:25.0,0,0
240,0.00000000,0.00000000,0.00000000,-0.08040098,-0.15319815,0.00340431,-0.12536255,-0.09113491,0.03875758,0.14599496,-0.16794497,-0.20511268,0.06452320,-0.03382708,0.03927486,0.01809539,-0.31129619,0.10734952,-0.03286526,0.00000000,0.00000000,0.00000000,0,16:50:26.0,0,0
241,0.00000000,0.00000000,0.00000000,-0.04635222,0.03496510,0.01343720,-0.12096444,0.05423478,0.04180690,0.15237392,-0.17535579,-0.17504989,0.07812990,0.09916534,0.05677588,0.07046755,-0.12783524,0.12094030,-0.02165479,0.00000000,0.00000000,0.00000000,0,16:50:26.0,0,0
242,0.00000000,0.00000000,0.00000000,-0.00947752,0.06932917,0.03873667,-0.08937028,0.09326507,0.03143165,0.17547153,-0.15001160,-0.16478693,0.08774799,0.11003304,0.07087204,0.07894918,-0.12851322,0.13457687,-0.00714179,0.00000000,0.00000000,0.00000000,0,16:50:26.0,0,0
243,0.00000000,0.00000000,0.00000000,-0.01306702,0.02341897,0.04184799,-0.08757100,0.05862494,0.03197204,0.17317662,-0.13898781,-0.15761566,0.07959991,0.07681301,0.06410377,0.07251488,-0.17417443,0.12792364,-0.01463377,0.00000000,0.00000000,0.00000000,0,16:50:26.0,0,0
244,0.00000000,0.00000000,0.00000000,-0.04260917,-0.05959728,0.02977450,-0.10309715,-0.01401582,0.03123790,0.16479325,-0.14900286,-0.17945158,0.06872933,0.01986586,0.05725460,0.05751688,-0.23717180,0.12442769,-0.02420313,0.00000000,0.00000000,0.00000000,0,16:50:26.0,0,0
245,0.00000000,0.00000000,0.00000000,-0.07812039,-0.16446422,0.01464562,-0.12505117,-0.09632798,0.03457589,0.16157961,-0.16606551,-0.19254006,0.05547868,-0.04554873,0.04283711,0.02584975,-0.31646943,0.11734752,-0.02818782,0.00000000,0.00000000,0.00000000,0,16:50:27.0,0,0
246,0.00000000,0.00000000,0.00000000,-0.01674482,0.08286744,0.03590101,-0.09999151,0.11394057,0.04124504,0.18102442,-0.15302318,-0.15649843,0.07845128,0.11305104,0.06331154,0.08611783,-0.11366308,0.12911299,-0.01234643,0.00000000,0.00000000,0.00000000,0,16:50:27.0,0,0
247,0.00000000,0.00000000,0.00000000,-0.00846493,0.06105978,0.04852599,-0.08142563,0.09306880,0.03250293,0.19047487,-0.14451565,-0.14577690,0.08270253,0.10093355,0.06310113,0.08748811,-0.12296676,0.13509743,-0.00469926,0.00000000,0.00000000,0.00000000,0,16:50:27.0,0,0
248,0.00000000,0.00000000,0.00000000,-0.01904468,-0.00166033,0.04492551,-0.09139984,0.04213479,0.02778758,0.18442340,-0.14152589,-0.15978713,0.07705370,0.04961332,0.06105870,0.07382112,-0.18924659,0.13459387,-0.01178255,0.00000000,0.00000000,0.00000000,0,16:50:27.0,0,0
249,0.00000000,0.00000000,0.00000000,-0.05688783,-0.08547180,0.02611080,-0.11112090,-0.02186663,0.03149693,0.16717397,-0.14295144,-0.17071903,0.06780088,-0.00085872,0.05526090,0.05136350,-0.25715992,0.12215377,-0.02165497,0.00000000,0.00000000,0.00000000,0,16:50:27.0,0,0
250,0.00000000,0.00000000,0.00000000,-0.09220793,-0.15437958,0.01063333,-0.12210439,-0.08533143,0.04309201,0.17020252,-0.16113415,-0.16241089,0.06867012,0.00204247,0.05328670,0.06156274,-0.16716559,0.12702177,-0.02822693,0.00000000,0.00000000,0.00000000,0,16:50:28.0,0,0
251,0.00000000,0.00000000,0.00000000,-0.01529020,0.07039879,0.04447027,-0.09019468,0.11423883,0.03353942,0.19231312,-0.14393613,-0.14253455,0.08081889,0.09637824,0.06604702,0.09163571,-0.13539143,0.12930910,-0.00150921,0.00000000,0.00000000,0.00000000,0,16:50:28.0,0,0
252,0.00000000,0.00000000,0.00000000,-0.01838636,0.03094799,0.04919744,-0.09115759,0.08123306,0.02636467,0.18021557,-0.13265547,-0.15206672,0.07839134,0.06679942,0.07474414,0.08348232,-0.16689107,0.13784684,-0.00412920,0.00000000,0.00000000,0.00000000,0,16:50:28.0,0,0
253,0.00000000,0.00000000,0.00000000,-0.05344328,-0.07261434,0.03398187,-0.10803425,-0.00218909,0.02739732,0.17133412,-0.12851684,-0.15184122,0.07831308,0.00700614,0.07538299,0.07165977,-0.23587014,0.12885492,-0.01511154,0.00000000,0.00000000,0.00000000,0,16:50:28.0,0,0
254,0.00000000,0.00000000,0.00000000,-0.09066796,-0.19385606,0.04455162,-0.09975090,-0.07614074,0.02665457,0.17779557,-0.16155818,-0.16707179,0.05164382,-0.05386415,0.03630400,0.03099408,-0.30645949,0.12170639,-0.05160372,0.00000000,0.00000000,0.00000000,0,16:50:28.0,0,0
255,0.00000000,0.00000000,0.00000000,-0.05470666,0.02571894,0.04962340,-0.10557722,0.09758283,0.03814745,0.15070404,-0.18119383,-0.18103252,0.06199682,0.09162131,0.04082200,0.08930916,-0.12255735,0.12253360,-0.02234020,0.00000000,0.00000000,0.00000000,0,16:50:29.0,0,0
256,0.00000000,0.00000000,0.00000000,-0.04241865,0.00237950,0.06142938,-0.08975077,0.09507925,0.02851054,0.17402229,-0.14722373,-0.15511757,0.08460703,0.09098029,0.07579078,0.09201138,-0.12856679,0.12918030,-0.02705581,0.00000000,0.00000000,0.00000000,0,16:50:29.0,0,0
257,0.00000000,0.00000000,0.00000000,-0.05168309,-0.05335199,0.05761771,-0.09173267,0.05306226,0.03221971,0.16531901,-0.14368168,-0.16842046,0.07834210,0.05447673,0.06435318,0.06752685,-0.18647560,0.12202121,-0.03681455,0.00000000,0.00000000,0.00000000,0,16:50:29.0,0,0
258,0.00000000,0.00000000,0.00000000,-0.07491963,-0.13788626,0.05048174,-0.10554387,-0.01752731,0.02732014,0.15407425,-0.16272151,-0.17232817,0.06196725,-0.00482406,0.04052495,0.04628379,-0.24205224,0.11359651,-0.04593970,0.00000000,0.00000000,0.00000000,0,16:50:29.0,0,0
259,0.00000000,0.00000000,0.00000000,-0.11015132,-0.24304405,0.04168808,-0.12593378,-0.10184022,0.03304236,0.13207655,-0.17316207,-0.20406429,0.04636381,-0.06923711,0.02334197,0.02227439,-0.31680673,0.10837919,-0.04263997,0.00000000,0.00000000,0.00000000,0,16:50:29.0,0,0
260,0.00000000,0.00000000,0.00000000,-0.05197202,0.01035479,0.05256594,-0.11934195,0.10647372,0.03841540,0.16124277,-0.16264120,-0.17233479,0.08320989,0.10129730,0.07070754,0.09468029,-0.11376422,0.12777448,-0.03105985,0.00000000,0.00000000,0.00000000,0,16:50:30.0,0,0
261,0.00000000,0.00000000,0.00000000,-0.04958104,0.00571207,0.05713125,-0.09748311,0.09917664,0.03193699,0.16706799,-0.15136406,-0.16380079,0.08602995,0.09800594,0.05344948,0.08028609,-0.12537736,0.12169719,-0.02523111,0.00000000,0.00000000,0.00000000,0,16:50:30.0,0,0
262,0.00000000,0.00000000,0.00000000,-0.05155592,-0.05478610,0.05179873,-0.10952181,0.04847917,0.03232101,0.15207499,-0.14864510,-0.16984361,0.07468468,0.04358955,0.06047918,0.07031846,-0.18646526,0.12012300,-0.02587054,0.00000000,0.00000000,0.00000000,0,16:50:30.0,0,0
263,0.00000000,0.00000000,0.00000000,-0.08215199,-0.13960040,0.03836431,-0.12567215,-0.02564279,0.04116777,0.14059186,-0.14701533,-0.19263113,0.07258528,-0.00718038,0.04792891,0.04839586,-0.25411537,0.10876141,-0.04226156,0.00000000,0.00000000,0.00000000,0,16:50:30.0,0,0
264,0.00000000,0.00000000,0.00000000,-0.12597018,-0.24030808,0.01580020,-0.14849901,-0.10975086,0.04335881,0.12946680,-0.16247222,-0.20145687,0.05694550,-0.07618216,0.03502038,0.01620589,-0.33316633,0.10099974,-0.04381829,0.00000000,0.00000000,0.00000000,0,16:50:30.0,0,0
265,0.00000000,0.00000000,0.00000000,-0.05596600,0.01435398,0.04361143,-0.12914407,0.10122260,0.04100904,0.14520949,-0.16844344,-0.18140997,0.07492202,0.07829028,0.06761716,0.08257093,-0.13128021,0.12089430,-0.02852329,0.00000000,0.00000000,0.00000000,0,16:50:31.0,0,0
266,0.00000000,0.00000000,0.00000000,-0.05970249,-0.00586763,0.04330769,-0.12576054,0.07857184,0.04525209,0.14553890,-0.14914174,-0.17071423,0.08094704,0.07651662,0.05898644,0.07726929,-0.15241374,0.11815825,-0.03742727,0.00000000,0.00000000,0.00000000,0,16:50:31.0,0,0
267,0.00000000,0.00000000,0.00000000,-0.07377852,-0.06536634,0.03514178,-0.13354808,0.03186834,0.04549396,0.14354520,-0.16076837,-0.17783725,0.06904598,0.02030697,0.04165112,0.04792971,-0.21826328,0.10415196,-0.04295264,0.00000000,0.00000000,0.00000000,0,16:50:31.0,0,0
268,0.00000000,0.00000000,0.00000000,-0.10086329,-0.13694392,0.02878279,-0.14252608,-0.02804470,0.04823538,0.12307590,-0.17508198,-0.20459826,0.05563056,-0.03781349,0.04249601,0.03190827,-0.27471685,0.09912066,-0.05030490,0.00000000,0.00000000,0.00000000,0,16:50:31.0,0,0
269,0.00000000,0.00000000,0.00000000,-0.13887297,-0.24498165,0.01547023,-0.16623484,-0.11701378,0.04947116,0.11873750,-0.17943452,-0.20843969,0.05283314,-0.09637255,0.04718531,0.01089931,-0.30105186,0.10251315,-0.05641803,0.00000000,0.00000000,0.00000000,0,16:50:31.0,0,0
270,0.00000000,0.00000000,0.00000000,-0.07971454,0.00127813,0.03067003,-0.14086206,0.08783334,0.05184121,0.14024480,-0.17984281,-0.18230848,0.06623174,0.06055597,0.05062421,0.06441813,-0.15726489,0.10535364,-0.04814496,0.00000000,0.00000000,0.00000000,0,16:50:32.0,0,0
271,0.00000000,0.00000000,0.00000000,-0.07765886,-0.01231797,0.03605511,-0.13814832,0.07557770,0.04364966,0.13015325,-0.17688064,-0.18311718,0.06089531,0.04081391,0.05193906,0.05793067,-0.18656072,0.11526018,-0.04372786,0.00000000,0.00000000,0.00000000,0,16:50:32.0,0,0
272,0.00000000,0.00000000,0.00000000,-0.10731632,-0.09793975,0.02140650,-0.15233423,0.00223333,0.04955469,0.12782215,-0.18100280,-0.20618017,0.05223995,-0.01866149,0.02897137,0.02782635,-0.25839633,0.09592602,-0.05472161,0.00000000,0.00000000,0.00000000,0,16:50:32.0,0,0
273,0.00000000,0.00000000,0.00000000,-0.13642956,-0.17670289,0.01016167,-0.16092500,-0.05952327,0.05346029,0.12063123,-0.20262748,-0.21828142,0.03368078,-0.08117346,0.02942428,0.00343010,-0.31741911,0.08857687,-0.06544145,0.00000000,0.00000000,0.00000000,0,16:50:32.0,0,0
274,0.00000000,0.00000000,0.00000000,-0.17414227,-0.28561565,-0.00267550,-0.18753080,-0.15010457,0.05572487,0.10249812,-0.20936945,-0.23886727,0.02915500,-0.13579059,0.02067023,-0.00731220,-0.31810638,0.08926927,-0.07334966,0.00000000,0.00000000,0.00000000,0,16:50:32.0,0,0
275,0.00000000,0.00000000,0.00000000,-0.11008887,-0.01729366,0.01555399,-0.15822423,0.07559872,0.05804437,0.12396474,-0.20271668,-0.20569797,0.04467629,0.03383663,0.03581411,0.04872538,-0.17535374,0.10201059,-0.05572491,0.00000000,0.00000000,0.00000000,0,16:50:33.0,0,0
276,0.00000000,0.00000000,0.00000000,-0.10626813,-0.02836537,0.02298065,-0.15243849,0.06878773,0.05159562,0.12091968,-0.20166449,-0.20871316,0.03863432,0.01457500,0.03241649,0.03887688,-0.20315979,0.09791455,-0.04982109,0.00000000,0.00000000,0.00000000,0,16:50:33.0,0,0
277,0.00000000,0.00000000,0.00000000,-0.13104028,-0.11569742,0.01561084,-0.16015099,-0.00478323,0.05275062,0.11894248,-0.19407201,-0.21996938,0.03546778,-0.04284392,0.03316212,0.01249676,-0.27473405,0.08965852,-0.05779048,0.00000000,0.00000000,0.00000000,0,16:50:33.0,0,0
278,0.00000000,0.00000000,0.00000000,-0.15766259,-0.19951795,0.00482113,-0.17035115,-0.07064705,0.06015341,0.10170956,-0.20581162,-0.23322585,0.02109490,-0.10334610,0.02036386,-0.00970586,-0.33701783,0.07926751,-0.07135860,0.00000000,0.00000000,0.00000000,0,16:50:33.0,0,0
279,0.00000000,0.00000000,0.00000000,-0.19149889,-0.31625324,-0.00883164,-0.19692998,-0.16260193,0.05819517,0.08951787,-0.22050691,-0.25221214,0.00760001,-0.16871653,0.00597245,-0.03047986,-0.40580469,0.07275343,-0.07577191,0.00000000,0.00000000,0.00000000,0,16:50:33.0,0,0
280,0.00000000,0.00000000,0.00000000,-0.13249227,-0.05583116,0.01358661,-0.16699916,0.06141419,0.06040378,0.12972328,-0.21195385,-0.21634750,0.02586493,-0.00995155,0.03850711,0.03111459,-0.20699964,0.09655424,-0.06324683,0.00000000,0.00000000,0.00000000,0,16:50:34.0,0,0
281,0.00000000,0.00000000,0.00000000,-0.12147467,-0.06969328,0.02498161,-0.14844443,0.04994207,0.05459025,0.12834562,-0.19840640,-0.20903729,0.03519144,-0.01526318,0.04125927,0.02901143,-0.22102807,0.09279236,-0.05170656,0.00000000,0.00000000,0.00000000,0,16:50:34.0,0,0
282,0.00000000,0.00000000,0.00000000,-0.14040837,-0.14606413,0.02112421,-0.15643242,-0.01076762,0.05626547,0.12470980,-0.19164337,-0.20965153,0.03110449,-0.06527312,0.03126534,0.01013271,-0.28705090,0.08845877,-0.06014645,0.00000000,0.00000000,0.00000000,0,16:50:34.0,0,0
283,0.00000000,0.00000000,0.00000000,-0.16231707,-0.22852384,0.01915577,-0.16323514,-0.07697752,0.05387458,0.11999260,-0.18784037,-0.22150066,0.02549418,-0.11126630,0.02212639,-0.00405855,-0.34208846,0.08657159,-0.06573736,0.00000000,0.00000000,0.00000000,0,16:50:34.0,0,0
284,0.00000000,0.00000000,0.00000000,-0.20139882,-0.33720240,0.00369626,-0.18043041,-0.16409695,0.05908329,0.12311016,-0.19989970,-0.22416477,0.01996149,-0.17624062,0.01551417,-0.02205677,-0.37133887,0.08722330,-0.07880383,0.00000000,0.00000000,0.00000000,0,16:50:34.0,0,0
285,0.00000000,0.00000000,0.00000000,-0.13297518,-0.10112964,0.03316677,-0.14327884,0.04208237,0.05195772,0.13951042,-0.19194812,-0.20281366,0.04040118,-0.03043758,0.04099448,0.03338080,-0.22505510,0.09817877,-0.05527058,0.00000000,0.00000000,0.00000000,0,16:50:35.0,0,0
286,0.00000000,0.00000000,0.00000000,-0.13461570,-0.12170924,0.03836431,-0.13836062,0.02378077,0.04875277,0.14710034,-0.17590360,-0.19084002,0.04939896,-0.03817534,0.03761751,0.02901143,-0.25382945,0.09782231,-0.05944787,0.00000000,0.00000000,0.00000000,0,16:50:35.0,0,0
287,0.00000000,0.00000000,0.00000000,-0.14838524,-0.20836382,0.03848220,-0.14510870,-0.04673779,0.04455615,0.13759553,-0.17593552,-0.20061570,0.04284725,-0.09590098,0.03505376,0.01254329,-0.31486440,0.09931681,-0.05238287,0.00000000,0.00000000,0.00000000,0,16:50:35.0,0,0
288,0.00000000,0.00000000,0.00000000,-0.17664699,-0.29402155,0.02754658,-0.15803130,-0.11536235,0.05077695,0.14021493,-0.18339932,-0.21340983,0.04308065,-0.13663672,0.02086213,-0.00551854,-0.37812540,0.08702341,-0.06957109,0.00000000,0.00000000,0.00000000,0,16:50:35.0,0,0
289,0.00000000,0.00000000,0.00000000,-0.16663396,-0.21074833,0.03062422,-0.15599537,-0.07627379,0.04950867,0.13593625,-0.19300480,-0.20296617,0.05119365,-0.05887031,0.02882430,0.03513870,-0.22343530,0.09666891,-0.05732965,0.00000000,0.00000000,0.00000000,0,16:50:35.0,0,0
290,0.00000000,0.00000000,0.00000000,-0.11789212,-0.11202139,0.05650738,-0.12941043,0.04706455,0.04453317,0.16424328,-0.16359872,-0.17256965,0.07487071,-0.02303549,0.05714202,0.05186258,-0.23705700,0.11412760,-0.04212019,0.00000000,0.00000000,0.00000000,0,16:50:36.0,0,0
291,0.00000000,0.00000000,0.00000000,-0.12052376,-0.14997493,0.05977124,-0.11843744,0.01609268,0.04314263,0.16333270,-0.15565963,-0.17688023,0.07231519,-0.04494395,0.04806922,0.04099154,-0.26749584,0.10957816,-0.04157214,0.00000000,0.00000000,0.00000000,0,16:50:36.0,0,0
292,0.00000000,0.00000000,0.00000000,-0.14564729,-0.24476999,0.05149230,-0.13613389,-0.06474917,0.04383754,0.15500700,-0.14934303,-0.18652287,0.07263773,-0.08764958,0.03029125,0.02558674,-0.32868221,0.10485986,-0.04919766,0.00000000,0.00000000,0.00000000,0,16:50:36.0,0,0
293,0.00000000,0.00000000,0.00000000,-0.17289935,-0.33269551,0.04528704,-0.14500581,-0.13858856,0.04823538,0.14465812,-0.17894450,-0.20425931,0.05849893,-0.14764209,0.01580461,-0.00405138,-0.39142901,0.09867982,-0.06253193,0.00000000,0.00000000,0.00000000,0,16:50:36.0,0,0
294,0.00000000,0.00000000,0.00000000,-0.12555192,-0.10546205,0.05131843,-0.13718851,0.04203380,0.04887995,0.15515739,-0.18145356,-0.18782021,0.08674801,0.00457488,0.04227568,0.06493571,-0.20419088,0.11917518,-0.04717324,0.00000000,0.00000000,0.00000000,0,16:50:36.0,0,0
295,0.00000000,0.00000000,0.00000000,-0.10786948,-0.10372051,0.06692218,-0.10159134,0.06414468,0.04314263,0.18395329,-0.14624123,-0.15786351,0.09191062,0.00031291,0.05045003,0.06745896,-0.20459923,0.12670173,-0.03246879,0.00000000,0.00000000,0.00000000,0,16:50:37.0,0,0
296,0.00000000,0.00000000,0.00000000,-0.10891828,-0.15493894,0.06956452,-0.10941724,0.02079926,0.03790239,0.17899555,-0.14742973,-0.17400041,0.09407448,-0.02237622,0.04113191,0.05558950,-0.25763932,0.12233461,-0.04384690,0.00000000,0.00000000,0.00000000,0,16:50:37.0,0,0
297,0.00000000,0.00000000,0.00000000,-0.13272607,-0.23301244,0.05912623,-0.11624680,-0.04633589,0.04751809,0.18006733,-0.15718861,-0.17742181,0.08100238,-0.07980706,0.03265408,0.04056116,-0.30871838,0.11462357,-0.04492734,0.00000000,0.00000000,0.00000000,0,16:50:37.0,0,0
298,0.00000000,0.00000000,0.00000000,-0.16650669,-0.33696193,0.04719027,-0.13918327,-0.13264693,0.05511697,0.16114613,-0.17324573,-0.20494407,0.06800208,-0.13871023,0.01924531,0.01175363,-0.38450310,0.10523170,-0.05669800,0.00000000,0.00000000,0.00000000,0,16:50:37.0,0,0
299,0.00000000,0.00000000,0.00000000,-0.11531281,-0.09340308,0.05813895,-0.12556140,0.06274607,0.04751809,0.17348634,-0.19006850,-0.18029259,0.08610150,0.01479783,0.03514610,0.07464655,-0.18693522,0.12499069,-0.03908256,0.00000000,0.00000000,0.00000000,0,16:50:37.0,0,0
300,0.00000000,0.00000000,0.00000000,-0.10749792,-0.10435074,0.06529191,-0.11157513,0.06797359,0.04407830,0.18972075,-0.15479256,-0.16819568,0.09848160,0.01121237,0.05373637,0.07105473,-0.19862553,0.13126872,-0.03524984,0.00000000,0.00000000,0.00000000,0,16:50:38.0,0,0
301,0.00000000,0.00000000,0.00000000,-0.11193495,-0.15091445,0.06615192,-0.11224726,0.03184330,0.04420872,0.18326813,-0.15704666,-0.17251419,0.08577957,-0.02918967,0.04883433,0.05884609,-0.24517173,0.12195382,-0.03851173,0.00000000,0.00000000,0.00000000,0,16:50:38.0,0,0
302,0.00000000,0.00000000,0.00000000,-0.14118503,-0.23923668,0.05237718,-0.12664470,-0.04549702,0.05301278,0.16816629,-0.17280176,-0.19331498,0.07371332,-0.07640941,0.02720096,0.03707076,-0.30806467,0.11412760,-0.05140753,0.00000000,0.00000000,0.00000000,0,16:50:38.0,0,0
303,0.00000000,0.00000000,0.00000000,-0.17225735,-0.33771315,0.03908437,-0.14949664,-0.12524767,0.04541082,0.14688395,-0.18873510,-0.22069652,0.05512809,-0.13991117,0.02144898,0.00938025,-0.37659901,0.10177422,-0.05966784,0.00000000,0.00000000,0.00000000,0,16:50:38.0,0,0
304,0.00000000,0.00000000,0.00000000,-0.11833847,-0.09168043,0.05021344,-0.13586424,0.08026174,0.04912373,0.16379257,-0.18832776,-0.18850513,0.07506405,0.00400712,0.03638378,0.06330287,-0.19723052,0.11759280,-0.04650486,0.00000000,0.00000000,0.00000000,0,16:50:38.0,0,0
305,0.00000000,0.00000000,0.00000000,-0.12012846,-0.12691811,0.05587040,-0.12268341,0.05056479,0.04877312,0.16571493,-0.17720941,-0.18249348,0.07737319,-0.00780853,0.05208213,0.06286211,-0.20793656,0.12113978,-0.03856417,0.00000000,0.00000000,0.00000000,0,16:50:39.0,0,0
306,0.00000000,0.00000000,0.00000000,-0.13165024,-0.18080181,0.04925944,-0.13149647,0.00880583,0.05090202,0.15470524,-0.18849115,-0.19871882,0.06392061,-0.05536962,0.03325597,0.04598159,-0.26419592,0.10914904,-0.04493297,0.00000000,0.00000000,0.00000000,0,16:50:39.0,0,0
307,0.00000000,0.00000000,0.00000000,-0.16144449,-0.26148719,0.03658770,-0.14751236,-0.06252018,0.05416186,0.14846039,-0.19068953,-0.20077343,0.05784797,-0.09857952,0.02395906,0.02304458,-0.32321328,0.10133710,-0.05976328,0.00000000,0.00000000,0.00000000,0,16:50:39.0,0,0
308,0.00000000,0.00000000,0.00000000,-0.19602425,-0.34453845,0.02302697,-0.16584969,-0.13550586,0.05582345,0.13979985,-0.20269109,-0.21749839,0.05114330,-0.12059514,0.02496721,0.02329677,-0.25243714,0.10352662,-0.06540908,0.00000000,0.00000000,0.00000000,0,16:50:39.0,0,0
309,0.00000000,0.00000000,0.00000000,-0.13268928,-0.11789198,0.04284723,-0.13673458,0.06168623,0.05767465,0.15413108,-0.19542374,-0.21630783,0.06516109,-0.00744452,0.03154596,0.05515081,-0.21194573,0.10946663,-0.04452492,0.00000000,0.00000000,0.00000000,0,16:50:39.0,0,0
310,0.00000000,0.00000000,0.00000000,-0.12793455,-0.13872252,0.04715579,-0.13296379,0.04276095,0.04346614,0.15196538,-0.19768237,-0.20514016,0.06446280,-0.02676087,0.03883527,0.05558581,-0.22847691,0.10523794,-0.04930873,0.00000000,0.00000000,0.00000000,0,16:50:40.0,0,0
311,0.00000000,0.00000000,0.00000000,-0.15704457,-0.22078928,0.03443548,-0.14618115,-0.02836212,0.05184121,0.14540248,-0.20065121,-0.22170731,0.05106731,-0.08361451,0.01141818,0.03656562,-0.28604674,0.10554644,-0.05199690,0.00000000,0.00000000,0.00000000,0,16:50:40.0,0,0
312,0.00000000,0.00000000,0.00000000,-0.18095012,-0.30400956,0.02799853,-0.15912493,-0.09493734,0.05919236,0.13879679,-0.20013900,-0.22870578,0.04912546,-0.12720473,0.01017532,0.01740873,-0.32738408,0.09774561,-0.05829991,0.00000000,0.00000000,0.00000000,0,16:50:40.0,0,0
313,0.00000000,0.00000000,0.00000000,-0.11773592,-0.07776236,0.05143569,-0.12870376,0.10348371,0.05749024,0.15932293,-0.19792300,-0.21298365,0.06516109,0.02176853,0.03737395,0.08411788,-0.15488696,0.11991900,-0.03584786,0.00000000,0.00000000,0.00000000,0,16:50:40.0,0,0
314,0.00000000,0.00000000,0.00000000,-0.11323914,-0.08254285,0.05428217,-0.12475073,0.09610628,0.05053662,0.16143727,-0.18152206,-0.20396048,0.07285421,0.02478923,0.03850887,0.08622399,-0.16972382,0.12074069,-0.03362558,0.00000000,0.00000000,0.00000000,0,16:50:40.0,0,0
315,0.00000000,0.00000000,0.00000000,-0.12382601,-0.15271378,0.05311520,-0.12918836,0.03938763,0.04525209,0.15957549,-0.17804679,-0.20949797,0.06931475,-0.02740016,0.02786441,0.07650832,-0.22849786,0.12094086,-0.03369529,0.00000000,0.00000000,0.00000000,0,16:50:41.0,0,0
316,0.00000000,0.00000000,0.00000000,-0.14826930,-0.22990945,0.04645235,-0.13702369,-0.02249491,0.05239686,0.15056789,-0.17758521,-0.22155927,0.05670027,-0.07159418,0.01492692,0.05188721,-0.28376764,0.11172927,-0.04387043,0.00000000,0.00000000,0.00000000,0,16:50:41.0,0,0
317,0.00000000,0.00000000,0.00000000,-0.10121454,-0.02955623,0.05728794,-0.12952858,0.14269501,0.05485546,0.16884294,-0.18393095,-0.19754960,0.07556891,0.08215099,0.03248896,0.12305406,-0.10320769,0.13565068,-0.02878575,0.00000000,0.00000000,0.00000000,0,16:50:41.0,0,0
318,0.00000000,0.00000000,0.00000000,-0.07306395,-0.00034092,0.07806743,-0.09167074,0.17677715,0.04844492,0.18480441,-0.13975173,-0.17704937,0.09788657,0.10127021,0.05585003,0.13991864,-0.08946434,0.14408052,-0.01946370,0.00000000,0.00000000,0.00000000,0,16:50:41.0,0,0
319,0.00000000,0.00000000,0.00000000,-0.07338407,-0.03467233,0.08194199,-0.08466205,0.15673271,0.04850920,0.18964365,-0.13287961,-0.17067091,0.09637841,0.08172456,0.05065538,0.13215692,-0.12870361,0.14474463,-0.02072950,0.00000000,0.00000000,0.00000000,0,16:50:41.0,0,0
320,0.00000000,0.00000000,0.00000000,-0.08998840,-0.11506979,0.07678474,-0.10072079,0.08765346,0.05008237,0.17873408,-0.12929565,-0.18228672,0.09091087,0.03157375,0.03983162,0.12350735,-0.18516506,0.14609602,-0.02274504,0.00000000,0.00000000,0.00000000,0,16:50:42.0,0,0
321,0.00000000,0.00000000,0.00000000,-0.12210012,-0.20487635,0.06732372,-0.11512803,0.01300097,0.05036334,0.16834858,-0.14181019,-0.20813234,0.07817389,-0.02405941,0.02213928,0.09832249,-0.23587364,0.13678382,-0.02674103,0.00000000,0.00000000,0.00000000,0,16:50:42.0,0,0
322,0.00000000,0.00000000,0.00000000,-0.04771126,0.05390031,0.09250437,-0.08023381,0.24057308,0.05184121,0.19923925,-0.13150251,-0.15040879,0.11011106,0.17303868,0.05624249,0.18138131,-0.02287756,0.15835810,-0.00559787,0.00000000,0.00000000,0.00000000,0,16:50:42.0,0,0
323,0.00000000,0.00000000,0.00000000,-0.02694320,0.06818574,0.10537458,-0.06129624,0.25282460,0.04469242,0.20787996,-0.10705880,-0.14291148,0.11956602,0.18746796,0.06403181,0.19051847,-0.03097896,0.16124873,-0.00050183,0.00000000,0.00000000,0.00000000,0,16:50:42.0,0,0
324,0.00000000,0.00000000,0.00000000,-0.03599721,0.00566438,0.10349751,-0.06283376,0.20401400,0.04562161,0.20345154,-0.10428390,-0.16676231,0.11027934,0.13644417,0.05375494,0.17455898,-0.08987246,0.16029161,-0.00457809,0.00000000,0.00000000,0.00000000,0,16:50:42.0,0,0
325,0.00000000,0.00000000,0.00000000,-0.06620517,-0.07884409,0.09301632,-0.08245229,0.13190944,0.05607124,0.19878305,-0.11180934,-0.17434050,0.10240187,0.08015109,0.03968097,0.14795129,-0.15824646,0.15463595,-0.02254229,0.00000000,0.00000000,0.00000000,0,16:50:43.0,0,0
326,0.00000000,0.00000000,0.00000000,-0.10437795,-0.18105738,0.08069726,-0.09849373,0.04478460,0.05079418,0.18956493,-0.12543513,-0.18846554,0.09229825,0.01708089,0.02287590,0.12614611,-0.22913691,0.15604350,-0.02334683,0.00000000,0.00000000,0.00000000,0,16:50:43.0,0,0
327,0.00000000,0.00000000,0.00000000,-0.03323480,0.08019986,0.10321576,-0.07506840,0.27408838,0.05046419,0.20170005,-0.12760440,-0.16421960,0.11522893,0.20347941,0.05184807,0.19942275,-0.01308741,0.16712207,-0.00750935,0.00000000,0.00000000,0.00000000,0,16:50:43.0,0,0
328,0.00000000,0.00000000,0.00000000,-0.02348396,0.08096896,0.11046040,-0.05585819,0.26870161,0.05090202,0.21408632,-0.11207163,-0.14118721,0.12046099,0.20413266,0.04734995,0.20045739,-0.02648661,0.16939604,-0.00677310,0.00000000,0.00000000,0.00000000,0,16:50:43.0,0,0
329,0.00000000,0.00000000,0.00000000,-0.03573336,0.01144119,0.10564470,-0.06508081,0.21591800,0.04816187,0.20042814,-0.10568071,-0.15683120,0.11807890,0.15913098,0.03314335,0.18109359,-0.09160235,0.16115628,-0.01410997,0.00000000,0.00000000,0.00000000,0,16:50:43.0,0,0
330,0.00000000,0.00000000,0.00000000,-0.06175976,-0.06712764,0.09694272,-0.07581725,0.14897591,0.05221916,0.19734006,-0.11565850,-0.18120416,0.10429945,0.09706424,0.02704060,0.16448680,-0.15518543,0.16258295,-0.01754412,0.00000000,0.00000000,0.00000000,0,16:50:44.0,0,0
331,0.00000000,0.00000000,0.00000000,-0.09963816,-0.16935340,0.08183909,-0.09201571,0.06352355,0.05642956,0.18868162,-0.13066073,-0.18906009,0.09257103,0.03284717,0.01454156,0.14250381,-0.17661868,0.15804924,-0.02951914,0.00000000,0.00000000,0.00000000,0,16:50:44.0,0,0
332,0.00000000,0.00000000,0.00000000,-0.03627651,0.06638088,0.10269741,-0.06819350,0.26597446,0.05819517,0.20284678,-0.12703693,-0.17253418,0.11309838,0.20921993,0.03530602,0.20324966,-0.03107158,0.16413853,-0.01767061,0.00000000,0.00000000,0.00000000,0,16:50:44.0,0,0
333,0.00000000,0.00000000,0.00000000,-0.03030396,0.05839332,0.10792629,-0.07010573,0.25613621,0.05081060,0.20323288,-0.12370085,-0.17120013,0.11617417,0.19419369,0.03749184,0.20318104,-0.05389650,0.16614521,-0.01024258,0.00000000,0.00000000,0.00000000,0,16:50:44.0,0,0
334,0.00000000,0.00000000,0.00000000,-0.05106910,-0.02432683,0.10006066,-0.07245062,0.18875119,0.05054853,0.18990864,-0.12482516,-0.17915303,0.10343117,0.13033742,0.02717994,0.17980008,-0.11879528,0.15786517,-0.01644660,0.00000000,0.00000000,0.00000000,0,16:50:44.0,0,0
335,0.00000000,0.00000000,0.00000000,-0.08152828,-0.10646299,0.08685345,-0.08524871,0.11936669,0.05768599,0.18986352,-0.13809246,-0.20804876,0.09175603,0.07802176,0.01024603,0.15730764,-0.18285450,0.14921118,-0.02709389,0.00000000,0.00000000,0.00000000,0,16:50:45.0,0,0
336,0.00000000,0.00000000,0.00000000,-0.05595366,0.02900000,0.09099672,-0.09419758,0.22054344,0.05372203,0.19433980,-0.15775621,-0.19941474,0.10191519,0.19303843,0.02490061,0.20634945,-0.03095102,0.16442730,-0.02045755,0.00000000,0.00000000,0.00000000,0,16:50:45.0,0,0
337,0.00000000,0.00000000,0.00000000,-0.02646487,0.06912407,0.11019351,-0.06926042,0.27230263,0.05072574,0.19632921,-0.12814119,-0.17933193,0.11423708,0.20260756,0.04585799,0.21105839,-0.04316369,0.16693717,-0.00580019,0.00000000,0.00000000,0.00000000,0,16:50:45.0,0,0
338,0.00000000,0.00000000,0.00000000,-0.03030396,0.02868749,0.11091845,-0.05987556,0.24125676,0.04751809,0.19695430,-0.12371957,-0.18614373,0.10784680,0.17139949,0.02840902,0.19992048,-0.08605329,0.16640699,-0.00632228,0.00000000,0.00000000,0.00000000,0,16:50:45.0,0,0
339,0.00000000,0.00000000,0.00000000,-0.05537406,-0.05668155,0.09774608,-0.07583772,0.16989486,0.05854118,0.19150296,-0.13228595,-0.19841528,0.09930038,0.11922207,0.02073677,0.18065917,-0.14574264,0.16084227,-0.01846692,0.00000000,0.00000000,0.00000000,0,16:50:45.0,0,0
340,0.00000000,0.00000000,0.00000000,-0.08809119,-0.15410754,0.08861512,-0.09334998,0.08913428,0.05361338,0.18022321,-0.14145422,-0.21964228,0.08891712,0.05532818,0.00588742,0.15672870,-0.21612918,0.15906981,-0.02389561,0.00000000,0.00000000,0.00000000,0,16:50:46.0,0,0
341,0.00000000,0.00000000,0.00000000,-0.01610317,0.09386660,0.11465741,-0.06786406,0.30740386,0.05477390,0.19721396,-0.13089460,-0.19456306,0.11297189,0.23493873,0.03715412,0.23249784,-0.00994387,0.18539660,-0.00384822,0.00000000,0.00000000,0.00000000,0,16:50:46.0,0,0
342,0.00000000,0.00000000,0.00000000,-0.00971881,0.09119419,0.12280423,-0.04784010,0.29890072,0.05036334,0.21574178,-0.11846000,-0.17043279,0.11866155,0.23439001,0.03581830,0.23775165,-0.02256983,0.18122315,0.00181608,0.00000000,0.00000000,0.00000000,0,16:50:46.0,0,0
343,0.00000000,0.00000000,0.00000000,-0.01856291,0.02056859,0.11796287,-0.05469215,0.24478173,0.05205008,0.20591500,-0.11207426,-0.18641783,0.11013779,0.18410392,0.02628209,0.21939869,-0.08679406,0.17396356,0.00266237,0.00000000,0.00000000,0.00000000,0,16:50:46.0,0,0
344,0.00000000,0.00000000,0.00000000,-0.04468871,-0.06292759,0.11113122,-0.06888925,0.17501926,0.05486969,0.19204602,-0.12121197,-0.21287732,0.09952522,0.12680887,0.01735559,0.20002821,-0.15065457,0.16654995,-0.01191208,0.00000000,0.00000000,0.00000000,0,16:50:46.0,0,0
345,0.00000000,0.00000000,0.00000000,-0.08638198,-0.14571166,0.09614590,-0.07827070,0.09659288,0.05795509,0.18917951,-0.13619377,-0.21151273,0.09602916,0.10528825,0.02064232,0.20636296,-0.07855576,0.17061557,-0.01784799,0.00000000,0.00000000,0.00000000,0,16:50:47.0,0,0
346,0.00000000,0.00000000,0.00000000,0.00266403,0.12870270,0.13073432,-0.03975132,0.34218186,0.06030162,0.22077757,-0.11679484,-0.17847969,0.11983586,0.27272013,0.04128708,0.26333496,0.00572832,0.18609239,0.00634127,0.00000000,0.00000000,0.00000000,0,16:50:47.0,0,0
347,0.00000000,0.00000000,0.00000000,0.00587358,0.10593007,0.13390538,-0.04365122,0.32438603,0.04832225,0.21104124,-0.10094418,-0.18809023,0.11773989,0.25044537,0.03629828,0.24978472,-0.02467297,0.17912142,0.00286120,0.00000000,0.00000000,0.00000000,0,16:50:47.0,0,0
348,0.00000000,0.00000000,0.00000000,-0.02134013,0.01844609,0.12669347,-0.05053210,0.24979340,0.05511697,0.20308100,-0.11401831,-0.20123845,0.10545933,0.18944244,0.02662781,0.22725441,-0.08840632,0.17458111,-0.00401175,0.00000000,0.00000000,0.00000000,0,16:50:47.0,0,0
349,0.00000000,0.00000000,0.00000000,-0.04677451,-0.06371249,0.11707988,-0.06072600,0.17920652,0.06015341,0.20009008,-0.11899166,-0.20745827,0.09720178,0.12927015,0.01683335,0.20525855,-0.15576640,0.16598445,-0.01568227,0.00000000,0.00000000,0.00000000,0,16:50:47.0,0,0
350,0.00000000,0.00000000,0.00000000,-0.01040891,0.12183918,0.12527181,-0.05603585,0.33714804,0.06090509,0.21166082,-0.14560896,-0.20396651,0.10716870,0.26081502,0.03496898,0.26321143,0.00107994,0.17967525,-0.01165002,0.00000000,0.00000000,0.00000000,0,16:50:48.0,0,0
351,0.00000000,0.00000000,0.00000000,-0.00098658,0.11436778,0.13542378,-0.03563370,0.33651960,0.05573731,0.21887527,-0.11040501,-0.18661976,0.11509424,0.25639850,0.03671345,0.25469682,-0.01262956,0.17790544,-0.00795206,0.00000000,0.00000000,0.00000000,0,16:50:48.0,0,0
352,0.00000000,0.00000000,0.00000000,-0.00637370,0.07152338,0.13540667,-0.04030744,0.30211258,0.05803223,0.20911616,-0.11929113,-0.19310898,0.10391038,0.22135246,0.02509410,0.23888782,-0.06198367,0.16468656,-0.01130567,0.00000000,0.00000000,0.00000000,0,16:50:48.0,0,0
353,0.00000000,0.00000000,0.00000000,-0.02946940,0.00102048,0.12293814,-0.05440500,0.24706158,0.06146442,0.19940358,-0.11983622,-0.20261757,0.09448536,0.16929550,0.01211688,0.21866527,-0.11791997,0.16957268,-0.01676376,0.00000000,0.00000000,0.00000000,0,16:50:48.0,0,0
354,0.00000000,0.00000000,0.00000000,-0.05897427,-0.04450395,0.11333759,-0.06611754,0.19262458,0.06542215,0.20403084,-0.14334442,-0.20560913,0.09552224,0.18892457,0.02236745,0.23543106,-0.03103866,0.17780046,-0.02866061,0.00000000,0.00000000,0.00000000,0,16:50:48.0,0,0
355,0.00000000,0.00000000,0.00000000,0.01635285,0.16164112,0.14212337,-0.03695215,0.38743901,0.05794586,0.21700038,-0.12424518,-0.18166977,0.11294330,0.28863254,0.03841788,0.26628768,-0.00590812,0.19028665,-0.00809949,0.00000000,0.00000000,0.00000000,0,16:50:49.0,0,0
356,0.00000000,0.00000000,0.00000000,0.01214127,0.12423019,0.14451894,-0.03709127,0.35794896,0.05528232,0.21376871,-0.12148751,-0.18597680,0.10842885,0.26105073,0.03222606,0.25424626,-0.03506788,0.18441300,-0.01283247,0.00000000,0.00000000,0.00000000,0,16:50:49.0,0,0
357,0.00000000,0.00000000,0.00000000,-0.01342604,0.03932072,0.13175580,-0.04712334,0.29001856,0.06075765,0.20262229,-0.12677130,-0.20804730,0.09861191,0.20011784,0.02038904,0.23469874,-0.09388907,0.17341898,-0.01688608,0.00000000,0.00000000,0.00000000,0,16:50:49.0,0,0
358,0.00000000,0.00000000,0.00000000,-0.04448138,-0.04213762,0.12240380,-0.05906966,0.22207798,0.06522258,0.20001639,-0.13258046,-0.22538441,0.08853846,0.13534985,0.01508646,0.21156353,-0.15979783,0.16214676,-0.02185624,0.00000000,0.00000000,0.00000000,0,16:50:49.0,0,0
359,0.00000000,0.00000000,0.00000000,0.02179172,0.17678514,0.14726485,-0.03763026,0.41942799,0.06241408,0.22023423,-0.12261718,-0.18199021,0.11826715,0.31360477,0.04509831,0.28587112,0.03273485,0.18673486,-0.00788168,0.00000000,0.00000000,0.00000000,0,16:50:49.0,0,0
360,0.00000000,0.00000000,0.00000000,0.03070339,0.17993222,0.15790778,-0.01961450,0.42489189,0.05699392,0.23915549,-0.10291709,-0.16444866,0.12524466,0.32170454,0.03232759,0.28371182,0.01962048,0.18385577,-0.00534167,0.00000000,0.00000000,0.00000000,0,16:50:50.0,0,0
361,0.00000000,0.00000000,0.00000000,0.02047261,0.11415251,0.15392120,-0.02341060,0.37631196,0.05627825,0.22804685,-0.10147967,-0.17941147,0.12045068,0.26745430,0.03506666,0.26741067,-0.04006685,0.18251701,-0.00484180,0.00000000,0.00000000,0.00000000,0,16:50:50.0,0,0
362,0.00000000,0.00000000,0.00000000,-0.00736241,0.03323498,0.14864789,-0.03454025,0.30874836,0.05689507,0.22159235,-0.09728638,-0.18406644,0.11476457,0.21171877,0.03841788,0.24822550,-0.09983590,0.18474428,-0.01774635,0.00000000,0.00000000,0.00000000,0,16:50:50.0,0,0
363,0.00000000,0.00000000,0.00000000,-0.05642835,-0.02792030,0.14967406,-0.02912771,0.25178063,0.04764418,0.23736501,-0.12151618,-0.17384183,0.11453944,0.22906627,0.03688226,0.27259237,0.00015635,0.19247982,-0.03255981,0.00000000,0.00000000,0.00000000,0,16:50:50.0,0,0
364,0.00000000,0.00000000,0.00000000,0.03284746,0.21088830,0.18167327,-0.00300369,0.48517731,0.04577902,0.24599598,-0.09762710,-0.15581170,0.13703862,0.37160045,0.04910579,0.31419843,0.04976585,0.19962248,-0.00733194,0.00000000,0.00000000,0.00000000,0,16:50:50.0,0,0
365,0.00000000,0.00000000,0.00000000,0.03395006,0.16958384,0.18408948,-0.00276181,0.46120492,0.04692694,0.25135732,-0.07190519,-0.14719886,0.14341965,0.34607744,0.05518640,0.31268454,0.02156098,0.19287227,-0.00973796,0.00000000,0.00000000,0.00000000,0,16:50:51.0,0,0
366,0.00000000,0.00000000,0.00000000,0.00858792,0.07673694,0.17712057,-0.00901614,0.38731667,0.04596885,0.24509832,-0.07689297,-0.16443807,0.13586898,0.28262988,0.04078831,0.29203743,-0.03539721,0.20049223,-0.01234913,0.00000000,0.00000000,0.00000000,0,16:50:51.0,0,0
367,0.00000000,0.00000000,0.00000000,-0.03810813,-0.03059233,0.17699806,-0.01843710,0.30588725,0.05441481,0.21861355,-0.09309116,-0.17203245,0.11976191,0.21476758,0.03249955,0.25951117,-0.11111835,0.19799997,-0.02273013,0.00000000,0.00000000,0.00000000,0,16:50:51.0,0,0
368,0.00000000,0.00000000,0.00000000,-0.02743185,0.15223949,0.18113200,-0.02430653,0.46923810,0.06416395,0.21865614,-0.11735380,-0.18604368,0.13283221,0.35705081,0.04635826,0.31910449,0.03248421,0.21611549,-0.02182830,0.00000000,0.00000000,0.00000000,0,16:50:51.0,0,0
369,0.00000000,0.00000000,0.00000000,-0.01574075,0.13228594,0.19092362,-0.00172366,0.46333092,0.06733847,0.22804685,-0.07786702,-0.16527921,0.15268122,0.35953611,0.04205306,0.32508665,0.02390870,0.22244138,-0.00414132,0.00000000,0.00000000,0.00000000,0,16:50:51.0,0,0
370,0.00000000,0.00000000,0.00000000,-0.01395461,0.08023590,0.19072370,-0.01041586,0.41989374,0.06891871,0.22293222,-0.07134841,-0.17664224,0.14526305,0.31485096,0.03692077,0.29879549,-0.03061037,0.20312700,-0.00986122,0.00000000,0.00000000,0.00000000,0,16:50:52.0,0,0
371,0.00000000,0.00000000,0.00000000,-0.03309116,-0.00268994,0.17808250,-0.02043813,0.34825984,0.07616439,0.21602127,-0.06628777,-0.18963517,0.13795280,0.25227177,0.02451884,0.28237122,-0.08766124,0.20378874,-0.00660752,0.00000000,0.00000000,0.00000000,0,16:50:52.0,0,0
372,0.00000000,0.00000000,0.00000000,-0.06747074,-0.09070024,0.16180883,-0.03288206,0.26234245,0.07293564,0.21964210,-0.07856586,-0.19662660,0.13824975,0.22558019,0.03259368,0.28576830,-0.03315819,0.19323350,-0.01586999,0.00000000,0.00000000,0.00000000,0,16:50:52.0,0,0
373,0.00000000,0.00000000,0.00000000,0.02405455,0.15068512,0.19082282,-0.00148134,0.48270041,0.07213464,0.24787185,-0.05064535,-0.16912436,0.16924033,0.37887320,0.05686039,0.33395657,0.03466317,0.20756805,0.01566605,0.00000000,0.00000000,0.00000000,0,16:50:52.0,0,0
374,0.00000000,0.00000000,0.00000000,0.03142712,0.12442723,0.19045463,-0.00359463,0.45804718,0.06968192,0.25033554,-0.04288311,-0.16822551,0.17041571,0.34364510,0.07023025,0.32689294,-0.00208500,0.20665017,0.01595099,0.00000000,0.00000000,0.00000000,0,16:50:52.0,0,0
375,0.00000000,0.00000000,0.00000000,0.00977822,0.03138894,0.18484157,-0.00748985,0.36962685,0.07022910,0.23610124,-0.05606836,-0.18599372,0.15455483,0.26792821,0.03928168,0.29815412,-0.07162076,0.20288530,0.00062754,0.00000000,0.00000000,0.00000000,0,16:50:53.0,0,0
376,0.00000000,0.00000000,0.00000000,-0.02156945,-0.07051089,0.17412642,-0.02093279,0.28010181,0.08131991,0.23202713,-0.06763924,-0.18935078,0.14031824,0.19486299,0.02957077,0.27457970,-0.14211224,0.19544409,-0.00467389,0.00000000,0.00000000,0.00000000,0,16:50:53.0,0,0
377,0.00000000,0.00000000,0.00000000,0.02014367,0.13395578,0.18395297,-0.01420083,0.46346042,0.07958245,0.24210674,-0.07912064,-0.17495421,0.15830761,0.34561902,0.05008718,0.33225474,0.02809505,0.20161976,0.00614126,0.00000000,0.00000000,0.00000000,0,16:50:53.0,0,0
378,0.00000000,0.00000000,0.00000000,0.03306967,0.13077949,0.19838712,0.01016682,0.45860749,0.06802782,0.26017517,-0.04325233,-0.14960864,0.17212959,0.34432817,0.06949345,0.33301544,0.01687445,0.21364203,0.01545113,0.00000000,0.00000000,0.00000000,0,16:50:53.0,0,0
379,0.00000000,0.00000000,0.00000000,0.02889427,0.07342175,0.20007004,0.00677040,0.40832332,0.06802782,0.25975531,-0.03832157,-0.15138929,0.16990189,0.29430994,0.06329453,0.31199628,-0.03990493,0.20588036,0.01082211,0.00000000,0.00000000,0.00000000,0,16:50:53.0,0,0
380,0.00000000,0.00000000,0.00000000,0.00113627,-0.01381365,0.18465132,-0.00454419,0.32361642,0.06874027,0.25079852,-0.03911955,-0.16926356,0.15656881,0.22208366,0.05257176,0.29140231,-0.11261662,0.20574142,0.00854872,0.00000000,0.00000000,0.00000000,0,16:50:54.0,0,0
381,0.00000000,0.00000000,0.00000000,-0.03916450,-0.13124664,0.17056650,-0.02789578,0.22178252,0.07243322,0.22190882,-0.06531192,-0.18953176,0.13919593,0.13856602,0.03752473,0.25692967,-0.19295265,0.19474199,0.00629417,0.00000000,0.00000000,0.00000000,0,16:50:54.0,0,0
382,0.00000000,0.00000000,0.00000000,0.02657264,0.11757838,0.19457598,-0.01045400,0.44799018,0.07268701,0.25302759,-0.06287707,-0.16040583,0.16346352,0.31989408,0.06392390,0.32833558,0.00944421,0.20738602,0.01172803,0.00000000,0.00000000,0.00000000,0,16:50:54.0,0,0
383,0.00000000,0.00000000,0.00000000,0.03012526,0.09989542,0.20257093,0.00920213,0.42358431,0.07014125,0.25903127,-0.04599499,-0.14954682,0.16526033,0.30740818,0.05946253,0.31931046,-0.01095476,0.21388131,0.01285097,0.00000000,0.00000000,0.00000000,0,16:50:54.0,0,0
384,0.00000000,0.00000000,0.00000000,0.01603567,0.02851131,0.19538465,-0.00254663,0.35487846,0.06648327,0.23912379,-0.04987590,-0.17146344,0.15249553,0.24012914,0.05196974,0.29333490,-0.08194190,0.20675419,0.01105122,0.00000000,0.00000000,0.00000000,0,16:50:54.0,0,0
385,0.00000000,0.00000000,0.00000000,-0.01557505,-0.05345726,0.18445845,-0.01083437,0.27802399,0.07348413,0.23544405,-0.05661994,-0.18514301,0.14281023,0.17073613,0.04627556,0.27048600,-0.14946218,0.19672981,0.00230283,0.00000000,0.00000000,0.00000000,0,16:50:55.0,0,0
386,0.00000000,0.00000000,0.00000000,-0.05209350,-0.13086705,0.16474771,-0.02860695,0.20041724,0.07593544,0.23617887,-0.08019927,-0.18288387,0.13973403,0.16992860,0.04491182,0.28143343,-0.06370059,0.19948092,-0.00718172,0.00000000,0.00000000,0.00000000,0,16:50:55.0,0,0
387,0.00000000,0.00000000,0.00000000,0.01890366,0.09075693,0.19126047,-0.00709416,0.40785217,0.06742834,0.23828471,-0.06373876,-0.18434975,0.15415192,0.27279210,0.05462632,0.30816385,-0.04077750,0.21128935,0.01562111,0.00000000,0.00000000,0.00000000,0,16:50:55.0,0,0
388,0.00000000,0.00000000,0.00000000,0.01340589,0.05552788,0.19064906,-0.00312687,0.37323087,0.06822958,0.23796418,-0.07072141,-0.17906994,0.14678748,0.24024399,0.04956200,0.29104158,-0.07236417,0.20475152,0.00361789,0.00000000,0.00000000,0.00000000,0,16:50:55.0,0,0
389,0.00000000,0.00000000,0.00000000,-0.01678146,-0.03827256,0.17813095,-0.01368521,0.28665274,0.06908477,0.22424988,-0.07714808,-0.20304364,0.13311088,0.16925678,0.03530602,0.26791617,-0.13779330,0.19596192,0.00195902,0.00000000,0.00000000,0.00000000,0,16:50:55.0,0,0
390,0.00000000,0.00000000,0.00000000,-0.04921385,-0.13768016,0.16331488,-0.03477712,0.19702025,0.07873739,0.21185096,-0.09281691,-0.21495418,0.11959171,0.09814924,0.03150911,0.24336760,-0.20817286,0.19171031,-0.00510218,0.00000000,0.00000000,0.00000000,0,16:50:56.0,0,0
391,0.00000000,0.00000000,0.00000000,0.01447903,0.09450416,0.18563983,-0.01612405,0.41097298,0.07479706,0.23854937,-0.08926278,-0.18490110,0.14223629,0.26471090,0.05159944,0.30693832,-0.02320841,0.20410734,0.00210657,0.00000000,0.00000000,0.00000000,0,16:50:56.0,0,0
392,0.00000000,0.00000000,0.00000000,0.01914309,0.07340920,0.18921974,-0.00365578,0.38284564,0.07688205,0.23974684,-0.07495229,-0.17299588,0.14590152,0.25329077,0.05394316,0.29790446,-0.04278275,0.20302379,0.00733933,0.00000000,0.00000000,0.00000000,0,16:50:56.0,0,0
393,0.00000000,0.00000000,0.00000000,-0.00023270,-0.00096134,0.18152656,-0.01028171,0.31632641,0.06894188,0.22997537,-0.08164422,-0.19983611,0.13213560,0.18828630,0.03900021,0.26976243,-0.11245168,0.20171544,0.00642762,0.00000000,0.00000000,0.00000000,0,16:50:56.0,0,0
394,0.00000000,0.00000000,0.00000000,-0.03315438,-0.08772818,0.16814955,-0.02341706,0.23506084,0.07802770,0.21915273,-0.09648170,-0.20727499,0.12140440,0.12325510,0.03055747,0.24748820,-0.17783718,0.18627922,-0.00574470,0.00000000,0.00000000,0.00000000,0,16:50:56.0,0,0
395,0.00000000,0.00000000,0.00000000,-0.06441811,-0.13008656,0.15292743,-0.03717249,0.18031687,0.08326630,0.22590688,-0.10233419,-0.20639151,0.12457785,0.15139753,0.03414541,0.27003294,-0.05884620,0.20650385,-0.01105883,0.00000000,0.00000000,0.00000000,0,16:50:57.0,0,0
396,0.00000000,0.00000000,0.00000000,0.02257587,0.11412323,0.18660271,-0.01348763,0.41536656,0.07454419,0.22971332,-0.09231730,-0.18172604,0.14277311,0.27609062,0.05727488,0.30092514,-0.02057154,0.20837225,0.01811639,0.00000000,0.00000000,0.00000000,0,16:50:57.0,0,0
397,0.00000000,0.00000000,0.00000000,0.01780263,0.07952854,0.18564300,-0.01155974,0.38422558,0.07514081,0.23137550,-0.08003981,-0.18544321,0.14232112,0.24546178,0.05456518,0.29025492,-0.05096245,0.19795877,0.00763793,0.00000000,0.00000000,0.00000000,0,16:50:57.0,0,0
398,0.00000000,0.00000000,0.00000000,-0.00616835,-0.00680756,0.17551728,-0.01813295,0.30197340,0.07722577,0.22147511,-0.08447202,-0.20814131,0.12715480,0.17721707,0.03752473,0.26370054,-0.11608308,0.20071143,0.00215552,0.00000000,0.00000000,0.00000000,0,16:50:57.0,0,0
399,0.00000000,0.00000000,0.00000000,-0.03701851,-0.11223093,0.16144337,-0.03849461,0.21103832,0.07862230,0.21568392,-0.09894899,-0.21973428,0.11212140,0.10490493,0.01797706,0.23550051,-0.19112259,0.18575479,-0.00420304,0.00000000,0.00000000,0.00000000,0,16:50:57.0,0,0
400,0.00000000,0.00000000,0.00000000,-0.02646033,0.00443609,0.15969072,-0.04541489,0.28770533,0.07679063,0.21670084,-0.12513869,-0.21925937,0.12201936,0.21961892,0.03352445,0.28516957,-0.01818171,0.19631687,-0.00956124,0.00000000,0.00000000,0.00000000,0,16:50:58.0,0,0
401,0.00000000,0.00000000,0.00000000,0.01355039,0.09313687,0.17793046,-0.02748586,0.39084378,0.07593544,0.22096360,-0.09313504,-0.19950587,0.13532725,0.24987729,0.04799510,0.28688198,-0.03335033,0.19776212,0.00819731,0.00000000,0.00000000,0.00000000,0,16:50:58.0,0,0
402,0.00000000,0.00000000,0.00000000,0.00828172,0.05325703,0.17675090,-0.01794707,0.35180965,0.06988499,0.21621691,-0.09120828,-0.20244586,0.13131705,0.21775469,0.04310592,0.27206305,-0.07405860,0.19215232,0.00281184,0.00000000,0.00000000,0.00000000,0,16:50:58.0,0,0
403,0.00000000,0.00000000,0.00000000,-0.02051364,-0.02899813,0.16151610,-0.03729143,0.27671176,0.06917338,0.21265243,-0.10371839,-0.22567198,0.11783250,0.15776105,0.02314929,0.24711898,-0.13244043,0.18691024,-0.00452739,0.00000000,0.00000000,0.00000000,0,16:50:58.0,0,0
404,0.00000000,0.00000000,0.00000000,-0.05807393,-0.13051957,0.14704020,-0.05013493,0.19018833,0.07662210,0.20500278,-0.11429949,-0.23428607,0.10691057,0.08894968,0.01557240,0.21865219,-0.20844489,0.17980111,-0.00646059,0.00000000,0.00000000,0.00000000,0,16:50:58.0,0,0
405,0.00000000,0.00000000,0.00000000,0.00332419,0.09446652,0.16724391,-0.03578660,0.39387444,0.07522538,0.21780184,-0.10872636,-0.20716257,0.12959912,0.24411845,0.05411891,0.27766147,-0.03075013,0.19198197,-0.00030092,0.00000000,0.00000000,0.00000000,0,16:50:59.0,0,0
406,0.00000000,0.00000000,0.00000000,-0.00187103,0.06345216,0.16592851,-0.03025469,0.35900065,0.07836135,0.22236924,-0.09733003,-0.20464341,0.13347228,0.23155636,0.04472699,0.26862851,-0.05331065,0.18939371,0.00298810,0.00000000,0.00000000,0.00000000,0,16:50:59.0,0,0
407,0.00000000,0.00000000,0.00000000,-0.02323695,-0.00707711,0.15837143,-0.03651501,0.29558873,0.07294077,0.20583050,-0.10370510,-0.20988356,0.12114935,0.16626814,0.02629470,0.24073838,-0.12365875,0.17992525,-0.00417144,0.00000000,0.00000000,0.00000000,0,16:50:59.0,0,0
408,0.00000000,0.00000000,0.00000000,-0.05394102,-0.09652001,0.14662702,-0.05329500,0.21437734,0.07979035,0.20139277,-0.11345324,-0.23227137,0.10837067,0.10405748,0.01948379,0.22091419,-0.18610275,0.17814112,-0.01189786,0.00000000,0.00000000,0.00000000,0,16:50:59.0,0,0
409,0.00000000,0.00000000,0.00000000,-0.09226260,-0.18256173,0.13027225,-0.06869718,0.13172816,0.07898843,0.20169374,-0.13229921,-0.23694754,0.10454103,0.09694958,0.02250991,0.22909686,-0.09372701,0.18046689,-0.02615624,0.00000000,0.00000000,0.00000000,0,16:50:59.0,0,0
410,0.00000000,0.00000000,0.00000000,-0.00479915,0.08275253,0.16264938,-0.03554866,0.38081399,0.07382784,0.22112499,-0.10320116,-0.20969324,0.13262945,0.24392430,0.03431295,0.26903731,-0.03567968,0.19505396,0.00412045,0.00000000,0.00000000,0.00000000,0,16:51:00.0,0,0
411,0.00000000,0.00000000,0.00000000,-0.00317972,0.05839186,0.16604692,-0.03180516,0.35892195,0.06954084,0.21753965,-0.09145819,-0.20391253,0.13370013,0.21638815,0.04627556,0.26563746,-0.06484853,0.19409478,0.00617100,0.00000000,0.00000000,0.00000000,0,16:51:00.0,0,0
412,0.00000000,0.00000000,0.00000000,-0.02867426,-0.03696324,0.15813750,-0.03542507,0.27453554,0.07073671,0.21529545,-0.09086106,-0.22402886,0.12572256,0.15020178,0.03670037,0.24827297,-0.13212658,0.18836452,0.00058749,0.00000000,0.00000000,0.00000000,0,16:51:00.0,0,0
413,0.00000000,0.00000000,0.00000000,-0.06176166,-0.14026684,0.14660528,-0.05024394,0.18387695,0.07572908,0.21375582,-0.09589325,-0.22599204,0.11597016,0.08427151,0.01662093,0.22161920,-0.20450950,0.18266994,-0.01172446,0.00000000,0.00000000,0.00000000,0,16:51:00.0,0,0
414,0.00000000,0.00000000,0.00000000,-0.06775022,-0.08969086,0.14007209,-0.05948479,0.19691738,0.07662210,0.21969526,-0.10959322,-0.22344807,0.12310132,0.16749372,0.03264223,0.26212761,-0.03856117,0.19158359,-0.01431113,0.00000000,0.00000000,0.00000000,0,16:51:00.0,0,0
415,0.00000000,0.00000000,0.00000000,-0.00024045,0.07910664,0.17026001,-0.03016990,0.38140547,0.07328468,0.23426515,-0.07268431,-0.20657100,0.14473829,0.24095461,0.05141232,0.28342250,-0.03314215,0.20419025,0.00822942,0.00000000,0.00000000,0.00000000,0,16:51:01.0,0,0
416,0.00000000,0.00000000,0.00000000,-0.00269506,0.03714149,0.17281313,-0.01855189,0.34452188,0.06708225,0.24282007,-0.05801307,-0.19004773,0.14719220,0.21163839,0.04545689,0.27359599,-0.06046478,0.19608973,0.00727614,0.00000000,0.00000000,0.00000000,0,16:51:01.0,0,0
417,0.00000000,0.00000000,0.00000000,-0.02759616,-0.05466150,0.16398168,-0.02653398,0.26220641,0.07443029,0.23098488,-0.06192159,-0.20126387,0.13580240,0.14976326,0.03688226,0.26218641,-0.12152896,0.19273838,0.00462334,0.00000000,0.00000000,0.00000000,0,16:51:01.0,0,0
418,0.00000000,0.00000000,0.00000000,-0.06031324,-0.14993152,0.15512487,-0.04538014,0.17491266,0.07514081,0.21811073,-0.07851710,-0.22243796,0.11809982,0.08445153,0.01912563,0.23810618,-0.19364576,0.19020662,-0.00859699,0.00000000,0.00000000,0.00000000,0,16:51:01.0,0,0
419,0.00000000,0.00000000,0.00000000,-0.00699297,0.08194476,0.16979831,-0.03232151,0.38137898,0.06637140,0.23462822,-0.07178999,-0.19433638,0.14680131,0.24276854,0.04975436,0.30195397,-0.01071286,0.20716797,0.00947597,0.00000000,0.00000000,0.00000000,0,16:51:01.0,0,0
420,0.00000000,0.00000000,0.00000000,-0.00079617,0.04599199,0.18508500,-0.00899534,0.35001099,0.07456196,0.25062269,-0.03961727,-0.17137721,0.15921989,0.23552823,0.05395522,0.30173615,-0.01517411,0.21026823,0.01360314,0.00000000,0.00000000,0.00000000,0,16:51:02.0,0,0
421,0.00000000,0.00000000,0.00000000,-0.00714411,0.00728436,0.18771929,-0.01168641,0.30671987,0.06997462,0.21781987,-0.06530027,-0.21147771,0.13712268,0.19879659,0.02903139,0.27394661,-0.06745087,0.20254533,0.00439875,0.00000000,0.00000000,0.00000000,0,16:51:02.0,0,0
422,0.00000000,0.00000000,0.00000000,-0.03417869,-0.07863747,0.16749409,-0.03311330,0.23725083,0.07663037,0.23417130,-0.05597816,-0.19941175,0.14198376,0.14703603,0.03741538,0.26972482,-0.12202679,0.20552061,0.00956941,0.00000000,0.00000000,0.00000000,0,16:51:02.0,0,0
423,0.00000000,0.00000000,0.00000000,-0.07207246,-0.15966593,0.15459265,-0.04242875,0.15672827,0.08059208,0.23689222,-0.07178676,-0.20604028,0.13492656,0.11858387,0.03706600,0.26626697,-0.05531691,0.20461458,-0.00090172,0.00000000,0.00000000,0.00000000,0,16:51:02.0,0,0
424,0.00000000,0.00000000,0.00000000,0.01180217,0.09628593,0.18632083,-0.01325999,0.38770303,0.07082981,0.25033888,-0.04809413,-0.17370464,0.15915500,0.27855575,0.04171207,0.31502283,0.02140370,0.21505874,0.02633188,0.00000000,0.00000000,0.00000000,0,16:51:02.0,0,0
425,0.00000000,0.00000000,0.00000000,0.01476246,0.08177183,0.18767297,-0.01371588,0.36712548,0.07057315,0.25055590,-0.04067384,-0.17612939,0.15908051,0.25602940,0.05617976,0.30936459,-0.00694860,0.21171252,0.01728658,0.00000000,0.00000000,0.00000000,0,16:51:03.0,0,0
426,0.00000000,0.00000000,0.00000000,-0.01102170,-0.00696905,0.17596824,-0.02936669,0.28611812,0.06891871,0.23822036,-0.05427395,-0.19412060,0.14802697,0.19527906,0.04053693,0.28111821,-0.06898959,0.20531352,0.01203502,0.00000000,0.00000000,0.00000000,0,16:51:03.0,0,0
427,0.00000000,0.00000000,0.00000000,-0.04734412,-0.09056649,0.16223532,-0.04345498,0.21061428,0.07779864,0.23395813,-0.06498346,-0.20100851,0.13291498,0.13160340,0.02591097,0.25315702,-0.13646924,0.19871950,-0.00130801,0.00000000,0.00000000,0.00000000,0,16:51:03.0,0,0
428,0.00000000,0.00000000,0.00000000,-0.03157305,0.04883200,0.15886341,-0.04736148,0.30552867,0.07979035,0.24251877,-0.08162919,-0.20077741,0.14175458,0.24900858,0.04131449,0.30632854,0.03954732,0.21263020,-0.00143269,0.00000000,0.00000000,0.00000000,0,16:51:03.0,0,0
429,0.00000000,0.00000000,0.00000000,0.01112393,0.13523857,0.17899080,-0.02643177,0.39553848,0.07548451,0.24493133,-0.05997883,-0.17782231,0.15126932,0.28526318,0.04681263,0.30891481,0.03138062,0.21193051,0.01014409,0.00000000,0.00000000,0.00000000,0,16:51:03.0,0,0
430,0.00000000,0.00000000,0.00000000,0.00269913,0.09121799,0.17583027,-0.03180516,0.35181361,0.07268289,0.24664417,-0.04812386,-0.18360659,0.14932103,0.25730321,0.04525732,0.29214865,-0.00917366,0.20865546,0.00326654,0.00000000,0.00000000,0.00000000,0,16:51:04.0,0,0
431,0.00000000,0.00000000,0.00000000,-0.02822050,0.00941437,0.16096325,-0.04568312,0.27658257,0.08038393,0.22361284,-0.06416887,-0.20267671,0.13340755,0.19541669,0.02659068,0.27194464,-0.07097439,0.20288263,-0.00148766,0.00000000,0.00000000,0.00000000,0,16:51:04.0,0,0
432,0.00000000,0.00000000,0.00000000,-0.06516110,-0.08879774,0.14483847,-0.06472228,0.18939130,0.08597445,0.20912381,-0.08300862,-0.22707793,0.11821510,0.12649918,0.00996919,0.23844507,-0.14243005,0.19243205,-0.00829784,0.00000000,0.00000000,0.00000000,0,16:51:04.0,0,0
433,0.00000000,0.00000000,0.00000000,-0.03763863,0.10658285,0.14662270,-0.07158946,0.34672135,0.08221486,0.21308462,-0.11461906,-0.22292207,0.12416241,0.27044392,0.03026264,0.29478002,0.03887625,0.20261647,-0.00707153,0.00000000,0.00000000,0.00000000,0,16:51:04.0,0,0
434,0.00000000,0.00000000,0.00000000,-0.01600117,0.12170899,0.16001977,-0.05713460,0.35881746,0.07792602,0.21895666,-0.08220105,-0.21093185,0.13655636,0.27623743,0.03314042,0.29203174,0.01739829,0.20589827,0.00346182,0.00000000,0.00000000,0.00000000,0,16:51:04.0,0,0
435,0.00000000,0.00000000,0.00000000,-0.02476135,0.07827065,0.15719724,-0.06235480,0.31814200,0.07522538,0.21199737,-0.08809419,-0.22605363,0.12949984,0.24443245,0.01197985,0.26851431,-0.02654825,0.19960453,-0.00509413,0.00000000,0.00000000,0.00000000,0,16:51:05.0,0,0
436,0.00000000,0.00000000,0.00000000,-0.05579552,0.00480046,0.14322048,-0.06662963,0.25262237,0.08570990,0.20786683,-0.09673587,-0.22209352,0.12174249,0.18595575,0.01292134,0.25709015,-0.08078707,0.20142335,-0.01323232,0.00000000,0.00000000,0.00000000,0,16:51:05.0,0,0
437,0.00000000,0.00000000,0.00000000,-0.09069256,-0.08747326,0.13147445,-0.08764777,0.17170723,0.08536754,0.18703276,-0.11151071,-0.25733232,0.10223081,0.11936454,-0.00978081,0.22940968,-0.15352546,0.18697995,-0.01584087,0.00000000,0.00000000,0.00000000,0,16:51:05.0,0,0
438,0.00000000,0.00000000,0.00000000,-0.03565762,0.14560096,0.14769773,-0.07406783,0.37714684,0.08454943,0.21519525,-0.11095905,-0.22575729,0.12823986,0.27914825,0.02790111,0.29305422,0.01873753,0.21278879,-0.00492932,0.00000000,0.00000000,0.00000000,0,16:51:05.0,0,0
439,0.00000000,0.00000000,0.00000000,-0.03727026,0.10207230,0.15328191,-0.06280328,0.33478749,0.07756010,0.21861801,-0.09622126,-0.21985155,0.13332734,0.27053624,0.02759528,0.28646830,0.00510379,0.20856915,0.00131765,0.00000000,0.00000000,0.00000000,0,16:51:05.0,0,0
440,0.00000000,0.00000000,0.00000000,-0.04811868,0.04990786,0.14611959,-0.06696988,0.28622785,0.08107007,0.20623799,-0.09396458,-0.23522338,0.12108953,0.22262238,0.01796577,0.26870850,-0.05276864,0.20004813,-0.00155465,0.00000000,0.00000000,0.00000000,0,16:51:06.0,0,0
441,0.00000000,0.00000000,0.00000000,-0.07521416,-0.02718576,0.13640484,-0.07496310,0.21985079,0.08883546,0.20349327,-0.11041402,-0.25359637,0.11375144,0.16790836,0.00663431,0.24844587,-0.10812043,0.20063579,-0.00730446,0.00000000,0.00000000,0.00000000,0,16:51:06.0,0,0
