3.007905954708846221e-03
2.630186738348594573e-03
2.270402560761899079e-03
1.926095921003995572e-03
1.594856870320551486e-03
1.274350556254063476e-03
9.623421933820811101e-04
6.567190842700737193e-04
3.555096002322004779e-04
5.689888198986597830e-05
-2.407588893050670472e-04
-5.389316675571112405e-04
-8.389040315107311073e-04
-1.141775011842700470e-03
-1.448459011530860065e-03
-1.759689662266177707e-03
-2.076026366416795256e-03
-2.397863177222832407e-03
-2.725439738706266369e-03
-3.058853905146470629e-03
-3.398075710747265697e-03
-3.742962250282550179e-03
-4.093273158364494832e-03
-4.448686326433836866e-03
-4.808813440203815563e-03
-5.173215080103156852e-03
-5.541415011299929798e-03
-5.912913450642355573e-03
-6.287199065599739442e-03
-6.663759511871942404e-03
-7.042090315728130254e-03
-7.421702038701663909e-03
-7.802125653132708540e-03
-8.182916113080024659e-03
-8.563654139125128489e-03
-8.943946244514789853e-03
-9.323423269396115612e-03
-9.701737308807415611e-03
-1.007855735958139778e-02
-1.045356385326406783e-02
-1.082644224686377978e-02
-1.119687595761298567e-02
-1.156453888741537303e-02
-1.192908766717599468e-02
-1.229015395780430099e-02
-1.264733697146375527e-02
-1.300019647490065905e-02
-1.334824651108565755e-02
-1.369094993414803930e-02
-1.402771400581354251e-02
-1.435788707988792760e-02
-1.468075658259093176e-02
-1.499554831154181755e-02
-1.530142708446458749e-02
-1.559749883146409333e-02
-1.588281404768192989e-02
-1.615637253019869962e-02
-1.641712939643317007e-02
-1.666400224139156366e-02
-1.689587931252669456e-02
-1.711162860594878099e-02
-1.731010773518599707e-02
-1.749017430254515629e-02
-1.765069669894692508e-02
-1.779056507389957173e-02
-1.790870237511693608e-02
-1.800407522915319081e-02
-1.807570446142667264e-02
-1.812267516275942875e-02
-1.814414606161744367e-02
-1.813935818095614022e-02
-1.810764258066031862e-02
-1.804842708524389758e-02
-1.796124194703251770e-02
-1.784572437750765739e-02
-1.770162190921802797e-02
-1.752879451800353275e-02
-1.732721560109104844e-02
-1.709697180089623722e-02
-1.683826171820174133e-02
-1.655139354489850584e-02
-1.623678173568118138e-02
-1.589494280932227804e-02
-1.552649030714807997e-02
-1.513212910315549393e-02
-1.471264909330144421e-02
-1.426891843316234650e-02
-1.380187643533906799e-02
-1.331252622200676701e-02
-1.280192713572197820e-02
-1.227118720232240473e-02
-1.172145560025447848e-02
-1.115391526183661872e-02
-1.056977565136212049e-02
-9.970265785565269809e-03
-9.356627575868810276e-03
-8.730109383844933055e-03
-8.091960017706083599e-03
-7.443423019856926226e-03
-6.785731360853541200e-03
-6.120102392388325485e-03
-5.447733174642535418e-03
-4.769796064467851822e-03
-4.087434562343538955e-03
-3.401759385254557715e-03
-2.713844771828455293e-03
-2.024724855691709645e-03
-1.335390234821386395e-03
-6.467846167411172350e-04
4.019845218261860272e-05
7.247187713383652051e-04
1.405992656927875601e-03
2.083295990366290044e-03
2.755967300683905517e-03
3.423410652264939104e-03
4.085098441998270130e-03
4.740574142639103657e-03
5.389454707429352197e-03
6.031432810636695556e-03
6.666278722559132626e-03
7.293841843556288750e-03
7.914051788668082302e-03
8.526918946038639438e-03
9.132534494631545235e-03
9.731069782055689482e-03
1.032277496507078528e-02
1.090797702584490013e-02
1.148707692223002730e-02
1.206054593512990991e-02
1.262892120804818587e-02
1.319280046228596404e-02
1.375283588240140339e-02
1.430972722263695526e-02
1.486421415042337400e-02
1.541706793773993910e-02
1.596908248492822507e-02
1.652106490319939225e-02
1.707382561548225972e-02
1.762816820539015242e-02
1.818487910062533894e-02
1.874471714370841077e-02
1.930840338014339075e-02
1.987661107804136046e-02
2.044995613478174656e-02
2.102898814031186822e-02
2.161418205019852157e-02
2.220593077865832751e-02
2.280453874993229255e-02
2.341021658973227795e-02
2.402307699368003494e-02
2.464313188033308288e-02
2.527029093979929128e-02
2.590436154728509993e-02
2.654505012610958517e-02
2.719196491316492117e-02
2.784462014062959179e-02
2.850244153780308320e-02
2.916477307554494677e-02
2.983088495098141710e-02
3.049998255646258968e-02
3.117121636872828214e-02
3.184369260572857130e-02
3.251648441689593966e-02
3.318864345306180713e-02
3.385921164017988844e-02
3.452723292502347247e-02
3.519176476491530509e-02
3.585188916288693795e-02
3.650672315505476551e-02
3.715542834735877098e-02
3.779721948396837228e-02
3.843137187511019848e-02
3.905722745800292717e-02
3.967419942114588233e-02
4.028177531530986732e-02
4.087951853727359031e-02
4.146706818916422871e-02
4.204413727644833176e-02
4.261050923856292416e-02
4.316603291056050201e-02
4.371061603173853616e-02
4.424421734925732680e-02
4.476683745006821563e-02
4.527850859568639114e-02
4.577928354092591912e-02
4.626922381181452354e-02
4.674838750873188536e-02
4.721681688603718285e-02
4.767452604903513885e-02
4.812148886889360683e-02
4.855762751778174707e-02
4.898280181221811858e-02
4.939679954024030900e-02
4.979932810119748476e-02
5.019000761581089709e-02
5.056836567731533283e-02
5.093383393937291753e-02
5.128574656621195244e-02
5.162334070189102120e-02
5.194575907822859828e-02
5.225205467481067179e-02
5.254119739386828997e-02
5.281208280569322372e-02
5.306354276837047662e-02
5.329435782036743424e-02
5.350327117346899419e-02
5.368900406116950547e-02
5.385027226862259403e-02
5.398580358145525088e-02
5.409435582770740630e-02
5.417473515134728357e-02
5.422581432997442691e-02
5.424655076245236268e-02
5.423600376269931134e-02
5.419335085528319967e-02
5.411790283801948959e-02
5.400911713737429481e-02
5.386660938957786582e-02
5.369016279249410467e-02
5.347973516083157075e-02
5.323546349044378651e-02
5.295766571369638076e-02
5.264683978902347239e-02
5.230365982134788788e-02
5.192896943891063544e-02
5.152377221585577316e-02
5.108921939948631724e-02
5.062659500895912851e-02
5.013729846426449172e-02
4.962282504168885611e-02
4.908474431659042014e-02
4.852467696926493490e-02
4.794427021736869660e-02
4.734517228484842744e-02
4.672900634794804192e-02
4.609734419956311446e-02
4.545168016976242759e-02
4.479340573651666157e-02
4.412378516824167624e-02
4.344393257935557501e-02
4.275479092409081167e-02
4.205711317121727660e-02
4.135144600034313528e-02
4.063811642263412405e-02
3.991722154152077540e-02
3.918862161473584543e-02
3.845193664337527573e-02
3.770654667712764613e-02
3.695159580155434054e-02
3.618599979424610980e-02
3.540845755452823318e-02
3.461746609436534144e-02
3.381133885968344577e-02
3.298822738216500294e-02
3.214614582201880122e-02
3.128299816489411855e-02
3.039660767537438746e-02
2.948474826143889296e-02
2.854517734451159777e-02
2.757566972439728231e-02
2.657405202440970074e-02
2.553823716755597092e-02
2.446625846570426102e-02
2.335630282358136869e-02
2.220674257444814684e-02
2.101616549582255647e-02
1.978340259056817971e-02
1.850755313690220435e-02
1.718800676778057743e-02
1.582446219372446797e-02
1.441694226940789386e-02
1.296580523551978635e-02
1.147175195635044727e-02
9.935828934235446663e-03
8.359427203760972508e-03
6.744276992422267199e-03
5.092438287061729768e-03
3.406287351076244495e-03
1.688499460688419043e-03
-5.797199596504223434e-05
-1.829919726683488287e-03
-3.623909730585912758e-03
-5.436311115087344263e-03
-7.263328153397774836e-03
-9.101034078772624741e-03
-1.094540622242201437e-02
-1.279236207340973992e-02
-1.463779567962077317e-02
-1.647761399173913732e-02
-1.830777260831723680e-02
-2.012431053252543289e-02
-2.192338341035824159e-02
-2.370129501178579526e-02
-2.545452640001476599e-02
-2.717976246319633513e-02
-2.887391561698279471e-02
-3.053414633654681284e-02
-3.215788031748993692e-02
-3.374282210728642151e-02
-3.528696516926659726e-02
-3.678859822472029667e-02
-3.824630792349370534e-02
-3.965897797701824212e-02
-4.102578471309321906e-02
-4.234618931840501005e-02
-4.361992691764646213e-02
-4.484699271731387715e-02
-4.602762553970814186e-02
-4.716228909081619097e-02
-4.825165113746302664e-02
-4.929656114578353371e-02
-5.029802657865382193e-02
-5.125718830777163670e-02
-5.217529557335134210e-02
-5.305368074329348121e-02
-5.389373439755779788e-02
-5.469688089199748610e-02
-5.546455491144864497e-02
-5.619817924953044580e-02
-5.689914399811892010e-02
-5.756878761843176040e-02
-5.820837987381231871e-02
-5.881910697132569643e-02
-5.940205888420636154e-02
-5.995821912561440786e-02
-6.048845680050209811e-02
-6.099352117212041707e-02
-6.147403857982155356e-02
-6.193051170727951332e-02
-6.236332099668857876e-02
-6.277272823555353487e-02
-6.315888201277261582e-02
-6.352182494683450420e-02
-6.386150236329694863e-02
-6.417777234990532098e-02
-6.447041683124000999e-02
-6.473915346504356683e-02
-6.498364810204591835e-02
-6.520352755138425493e-02
-6.539839244811238017e-02
-6.556782991284712536e-02
-6.571142585259544255e-02
-6.582877672880815823e-02
-6.591950048584897803e-02
-6.598324664977253673e-02
-6.601970530319239971e-02
-6.602861491114345172e-02
-6.600976892499384185e-02
-6.596302115862714976e-02
-6.588828979661068286e-02
-6.578556005218651193e-02
-6.565488566135641024e-02
-6.549638909616180282e-02
-6.531026063602482501e-02
-6.509675645084962714e-02
-6.485619568457982875e-02
-6.458895678255975603e-02
-6.429547317315090216e-02
-6.397622842688958922e-02
-6.363175109290089559e-02
-6.326260931560934164e-02
-6.286940536711502214e-02
-6.245277036359948852e-02
-6.201335915711728847e-02
-6.155184564591847929e-02
-6.106891848270498691e-02
-6.056527739961756890e-02
-6.004163016354581439e-02
-5.949869019163493006e-02
-5.893717493311375483e-02
-5.835780499228856999e-02
-5.776130396882118295e-02
-5.714839904831967021e-02
-5.651982220508829091e-02
-5.587631205659172179e-02
-5.521861616128253408e-02
-5.454749379518943758e-02
-5.386371902722207616e-02
-5.316808395539835558e-02
-5.246140195677433810e-02
-5.174451095529625233e-02
-5.101827639240305579e-02
-5.028359393758508739e-02
-4.954139167010555844e-02
-4.879263175551400156e-02
-4.803831130602046612e-02
-4.727946254269703441e-02
-4.651715210951473667e-02
-4.575247942652359984e-02
-4.498657408216143877e-02
-4.422059217930715547e-02
-4.345571175994184659e-02
-4.269312724820549521e-02
-4.193404293304705405e-02
-4.117966559095551093e-02
-4.043119631008282311e-02
-3.968982164246998706e-02
-3.895670420252211191e-02
-3.823297285763536946e-02
-3.751971259074991794e-02
-3.681795425414189499e-02
-3.612866439088524562e-02
-3.545273529218466446e-02
-3.479097540028653485e-02
-3.414410028519963142e-02
-3.351272440028310595e-02
-3.289735367126677551e-02
-3.229837914782444225e-02
-3.171607186160177450e-02
-3.115057896060459408e-02
-3.060192115666904647e-02
-3.006999175693561219e-02
-2.955455716808659192e-02
-2.905525898105355484e-02
-2.857161760640949261e-02
-2.810303748543012403e-02
-2.764881379337037759e-02
-2.720814056698199826e-02
-2.678012017752880169e-02
-2.636377407625398531e-02
-2.595805464959913614e-02
-2.556185798364303541e-02
-2.517403740295603293e-02
-2.479341761212371792e-02
-2.441880915427971019e-02
-2.404902315187854370e-02
-2.368288596050553696e-02
-2.331925359755870550e-02
-2.295702573677590660e-02
-2.259515896911249919e-02
-2.223267931522802943e-02
-2.186869363933285904e-02
-2.150239986333137704e-02
-2.113309589030344313e-02
-2.076018697533825799e-02
-2.038319150763740623e-02
-2.000174518177330607e-02
-1.961560340250483037e-02
-1.922464198154611933e-02
-1.882885597080318635e-02
-1.842835680579709562e-02
-1.802336780437396868e-02
-1.761421802939417205e-02
-1.720133471030575387e-02
-1.678523416618245279e-02
-1.636651159193876215e-02
-1.594582979459759076e-02
-1.552390704706402280e-02
-1.510150421913901593e-02
-1.467941148289563652e-02
-1.425843475440016252e-02
-1.383938211296221847e-02
-1.342305038606518737e-02
-1.301021210237825708e-02
-1.260160308599357452e-02
-1.219791082075786376e-02
-1.179976383218246834e-02
-1.140772216075876255e-02
-1.102226916076686804e-02
-1.064380469129895361e-02
-1.027263986724730876e-02
-9.908993344188037067e-03
-9.552989225884026339e-03
-9.204656719225332365e-03
-8.863931420008209008e-03
-8.530658127493826251e-03
-8.204595333049813713e-03
-7.885421139697056103e-03
-7.572740551339681055e-03
-7.266094017302202925e-03
-6.964967011259377838e-03
-6.668800521076902015e-03
-6.377002321534496615e-03
-6.088958700239553191e-03
-5.804046549925174180e-03
-5.521645590829720590e-03
-5.241150400703625638e-03
-4.961982188898542839e-03
-4.683600049237696822e-03
-4.405511518975616797e-03
-4.127282176756209842e-03
-3.848544176655978224e-03
-3.569003588164475736e-03
-3.288446390692888622e-03
-3.006742951274281751e-03
-2.723850976632934129e-03
-2.439816887946087351e-03
-2.154775528768986328e-03
-1.868948273581115711e-03
-1.582639436670592748e-03
-1.296231215617875453e-03
-1.010177085077236829e-03
-7.249937951902512678e-04
-4.412521748832847705e-04
-1.595667845619279401e-04
1.194153367314434500e-04
3.950266410980280535e-04
6.665917477062066436e-04
9.334403196037921154e-04
1.194920118884067878e-03
1.450409928600477488e-03
1.699332208621236184e-03
1.941165208727043800e-03
2.175454272883381966e-03
2.401822328852059804e-03
2.619979184665296220e-03
2.829729457851936497e-03
3.030979186017223378e-03
3.223740781012546849e-03
3.408136344300583681e-03
3.584399186585692475e-03
3.752873605480778248e-03
3.914012809502621752e-03
4.068375025850871733e-03
4.216617802701423320e-03
4.359490690256064699e-03
4.497826216157631632e-03
4.632529385398959955e-03
4.764565812321402104e-03
4.894948753926201511e-03
5.024725049082480986e-03
5.154960270516036752e-03
5.286723332026307606e-03
5.421070756225848490e-03
5.559030807279083386e-03
5.701587769624421632e-03
5.849666573417167809e-03
6.004118006444222888e-03
6.165704844007310372e-03
6.335088966429877969e-03
6.512819763786345355e-03
6.699323911457021920e-03
6.894896759845539971e-03
7.099695581397713444e-03
7.313734561261211672e-03
7.536881809411703076e-03
7.768858267956501619e-03
8.009238803611515994e-03
8.257455240496485924e-03
8.512801372737974562e-03
8.774439977362491483e-03
9.041411694865525428e-03
9.312645558686636488e-03
9.586971166237948441e-03
9.863132279443515352e-03
1.013980159565696162e-02
1.041559653140193900e-02
1.068909583010599698e-02
1.095885671003864886e-02
1.122343229773729509e-02
1.148138917729299609e-02
1.173132469563614028e-02
1.197188381719964737e-02
1.220177529498635977e-02
1.241978693938266577e-02
1.262479981863433819e-02
1.281580103844889157e-02
1.299189501994267755e-02
1.315231317366392753e-02
1.329642175170242524e-02
1.342372778294010326e-02
1.353388309750661218e-02
1.362668630200343858e-02
1.370208272613251260e-02
1.376016236757695438e-02
1.380115588061537994e-02
1.382542873543378750e-02
1.383347360047481635e-02
1.382590097320374363e-02
1.380342850095157316e-02
1.376686887053586196e-02
1.371711667236161399e-02
1.365513430476805908e-02
1.358193734009954627e-02
1.349857940393539048e-02
1.340613683330354848e-02
1.330569342583266812e-02
1.319832544838354764e-02
1.308508721441445193e-02
1.296699738577448274e-02
1.284502621729518602e-02
1.272008394553974207e-02
1.259301054497721263e-02
1.246456687574990820e-02
1.233542742370587197e-02
1.220617471148038174e-02
1.207729546022191444e-02
1.194917854402636689e-02
1.182211472350574305e-02
1.169629809366305208e-02
1.157182931184722388e-02
1.144872040406449618e-02
1.132690112338517220e-02
1.120622671533165471e-02
1.108648692140789399e-02
1.096741598181055419e-02
1.084870353971185801e-02
1.073000622387081278e-02
1.061095970047298657e-02
1.049119088948596845e-02
1.037033021386317942e-02
1.024802366663634702e-02
1.012394439190220270e-02
9.997803600234913407e-03
9.869360666501254126e-03
9.738432153550203793e-03
9.604899643523687539e-03
9.468716244700926474e-03
9.329911649123974818e-03
9.188595570147296485e-03
9.044959575594436682e-03
8.899277288082468179e-03
8.751902892453051336e-03
8.603267982574202069e-03
8.453876798580731849e-03
8.304299931783507352e-03
8.155166577371579517e-03
8.007155607669846908e-03
7.860985391722499077e-03
7.717402689703642231e-03
7.577170731791435000e-03
7.441056737500519568e-03
7.309819077583575367e-03
7.184194276075787748e-03
7.064884118130243008e-03
6.952543060583428296e-03
6.847766152188758046e-03
6.751077739376858643e-03
6.662921047944865560e-03
6.583648937708157754e-03
6.513515954431010890e-03
6.452671798561070669e-03
6.401156353919285232e-03
6.358896356018418905e-03
6.325703881058454721e-03
6.301276516539106379e-03
6.285199302441223969e-03
6.276948511275251379e-03
6.275897033851727744e-03
6.281321486725064199e-03
6.292410753981804092e-03
6.308276041434746073e-03
6.327962097665758637e-03
6.350459589988349980e-03
6.374718271159574533e-03
6.399660852673895624e-03
6.424197302978919277e-03
6.447239387450424616e-03
6.467715261220403564e-03
6.484583758705360183e-03
6.496848259215064723e-03
6.503569835704320692e-03
6.503879527678560306e-03
6.496989585241454146e-03
6.482203371913086015e-03
6.458923926959981958e-03
6.426661002344258647e-03
6.385036408477743133e-03
6.333787666726987432e-03
6.272769860429245302e-03
6.201955713432079353e-03
6.121433948508106168e-03
6.031405828385224231e-03
5.932180102086244411e-03
5.824166345831827997e-03
5.707866850627490996e-03
5.583867223553378237e-03
5.452825872073485160e-03
5.315462499185159319e-03
5.172545916476856825e-03
5.024881256844024487e-03
4.873296901631517762e-03
4.718631346155704835e-03
4.561720151091266245e-03
4.403383287726597185e-03
4.244413080452459630e-03
4.085562855632410457e-03
3.927536530547822390e-03
3.770979349308410146e-03
3.616469891501954484e-03
3.464513529008913292e-03
3.315537299342244480e-03
3.169886411537962793e-03
3.027822342693228721e-03
2.889522564284378609e-03
2.755081862757532453e-03
2.624515270828401813e-03
2.497762428322549463e-03
2.374693427122178107e-03
2.255115914635886371e-03
2.138783233203508591e-03
2.025403627703391274e-03
1.914650198891133109e-03
1.806171478043266726e-03
1.699602316792131083e-03
1.594575009175884647e-03
1.490730334190991076e-03
1.387728294766865612e-03
1.285258432937022013e-03
1.183049434094005353e-03
1.080877898586419519e-03
9.785760484914811114e-04
8.760382567718626601e-04
7.732262312716892041e-04
6.701727951200272398e-04
5.669841262671000519e-04
4.638404676369213510e-04
3.609952001607413569e-04
2.587723641539383898e-04
1.575626050562742688e-04
5.781762385648729500e-05
-3.995670521207267254e-05
-1.352085643934873734e-04
-2.273495123451773053e-04
-3.157648177370201413e-04
-3.998245527032714009e-04
-4.788952532311929744e-04
-5.523520518573121589e-04
-6.195908688926298792e-04
-6.800406094291312114e-04
-7.331750354979749747e-04
-7.785241094862227701e-04
-8.156846405339850158e-04
-8.443299761417342834e-04
-8.642185849771387082e-04
-8.752013448808872338e-04
-8.772273649868423534e-04
-8.703482905746040468e-04
-8.547209264176707693e-04
-8.306080678889483015e-04
-7.983776361220353262e-04
-7.584999701228531876e-04
-7.115433799417404236e-04
-6.581680105504744390e-04
-5.991179997085142438e-04
-5.352122444604531532e-04
-4.673336702732446826e-04
-3.964174022714536520e-04
-3.234378422423444307e-04
-2.493949711714563556e-04
-1.753000953464791984e-04
-1.021611417796197148e-04
-3.096793058281309549e-05
3.732241299682684097e-05
1.017996976131734107e-04
1.616142128783981517e-04
2.159894520309668382e-04
2.642337014001425589e-04
3.057503688047530453e-04
3.400467762745646382e-04
3.667413669580777661e-04
3.855691006852629099e-04
3.963849373803844732e-04
3.991653946041178185e-04
3.940080653503690499e-04
3.811291466220200429e-04
3.608589399202098941e-04
3.336354382621981658e-04
2.999961101541829406e-04
2.605678801065652232e-04
2.160556046455411458e-04
1.672291647736169455e-04
1.149093185315448978e-04
5.995266780297281667e-05
3.235894122506138050e-06
-5.436046495963828371e-05
-1.119684311442922607e-04
-1.687488890334101538e-04
-2.239074894501356906e-04
-2.767100147819868852e-04
-3.264967653204932439e-04
-3.726958154505267463e-04
-4.148349274630329072e-04
-4.525518484142932308e-04
-4.856028189606512646e-04
-5.138691906481613432e-04
-5.373619277929112719e-04
-5.562239712123210732e-04
-5.707304346837474172e-04
-5.812864536522039955e-04
-5.884228839992567284e-04
-5.927897808475529910e-04
-5.951477791085863205e-04
-5.963574906216584761e-04
-5.973670943671908345e-04
-5.991981895913900099e-04
-6.029302900845102346e-04
-6.096840647188575373e-04
-6.206036316031994906e-04
-6.368382102415475095e-04
-6.595233293429255111e-04
-6.897619490759082476e-04
-7.286058018068176717e-04
-7.770371752333440647e-04
-8.359514827142171560e-04
-9.061409302837444011e-04
-9.882795009952677345e-04
-1.082909528033155133e-03
-1.190430010184206477e-03
-1.311086918671150589e-03
-1.444965736474343411e-03
-1.591986240090600274e-03
-1.751899632190528347e-03
-1.924288194422046731e-03
-2.108567414568274668e-03
-2.303990524305429485e-03
-2.509655501150600578e-03
-2.724514352455071134e-03
-2.947384643396003950e-03
-3.176963076963307785e-03
-3.411840908224140611e-03
-3.650520969709729162e-03
-3.891436102308952396e-03
-4.132968750275588937e-03
-4.373471379984323823e-03
-4.611287432286280061e-03
-4.844772575552449244e-03
-5.072315808950744048e-03
-5.292360273626326751e-03
-5.503423351071499471e-03
-5.704115757856114723e-03
-5.893159504724912283e-03
-6.069404182174943131e-03
-6.231841706002879538e-03
-6.379618924734481791e-03
-6.512048209878554955e-03
-6.628615648923434113e-03
-6.728986900941183805e-03
-6.813010551712708057e-03
-6.880718928569823541e-03
-6.932326392830899693e-03
-6.968225104995703738e-03
-6.988978362424750658e-03
-6.995311602792329657e-03
-6.988101200469441429e-03
-6.968361263458350795e-03
-6.937228577495103098e-03
-6.895945928385232085e-03
-6.845844126008767891e-03
-6.788322917629902031e-03
-6.724831013459430309e-03
-6.656845747392532188e-03
-6.585852414039508086e-03
-6.513323653444951476e-03
-6.440699279087461725e-03
-6.369366751518306356e-03
-6.300642578663642572e-03
-6.235754907024955614e-03
-6.175827612536989933e-03
-6.121866003446159270e-03
-6.074744361120088670e-03
-6.035195548703479497e-03
-6.003802804339441329e-03
-5.980993665655565811e-03
-5.967036329381385229e-03
-5.962038337019772566e-03
-5.965947637980285011e-03
-5.978555891746637450e-03
-5.999504087873371895e-03
-6.028290276966755470e-03
-6.064279318695667623e-03
-6.106714463814992555e-03
-6.154730612878294739e-03
-6.207368957266284903e-03
-6.263592905276874415e-03
-6.322304924600547112e-03
-6.382364102200508219e-03
-6.442604151159335261e-03
-6.501851581578430711e-03
-6.558943730684556501e-03
-6.612746411849998625e-03
-6.662170972954561780e-03
-6.706190404212163635e-03
-6.743854362612866464e-03
-6.774302821760986790e-03
-6.796778229783703197e-03
-6.810635920848487519e-03
-6.815352687518364504e-03
-6.810533398638033732e-03
-6.795915587459712415e-03
-6.771371908105956738e-03
-6.736910501167494257e-03
-6.692673187812856091e-03
-6.638931656188453226e-03
-6.576081618521635065e-03
-6.504635125257959317e-03
-6.425211100792583598e-03
-6.338524228598182812e-03
-6.245372445792424579e-03
-6.146623209573234131e-03
-6.043198754565951014e-03
-5.936060556904755765e-03
-5.826193326636983430e-03
-5.714588607934858316e-03
-5.602228386867706168e-03
-5.490068967416642312e-03
-5.379025281256169348e-03
-5.269955818730898828e-03
-5.163648588751561241e-03
-5.060808236715026026e-03
-4.962044424542839775e-03
-4.867861764098447078e-03
-4.778651474321497956e-03
-4.694684753480702494e-03
-4.616108078990440768e-03
-4.542940497783245699e-03
-4.475072931915477156e-03
-4.412269523328914839e-03
-4.354170954848800811e-03
-4.300299725716352078e-03
-4.250067356078156278e-03
-4.202783341663852458e-03
-4.157665790558349311e-03
-4.113853588096547803e-03
-4.070419756253864686e-03
-4.026386056247210736e-03
-3.980738470914500261e-03
-3.932443389610475702e-03
-3.880464194594173809e-03
-3.823778110531040816e-03
-3.761392982720754719e-03
-3.692363759678113540e-03
-3.615808456110263143e-03
-3.530923315366719765e-03
-3.436997017783600776e-03
-3.333423626976321410e-03
-3.219714233424881243e-03
-3.095506986928294769e-03
-2.960575352428076318e-03
-2.814834582669192408e-03
-2.658346206173777936e-03
-2.491320482058721492e-03
-2.314116804956489228e-03
-2.127242026243683550e-03
-1.931346754472956350e-03
-1.727219548954449712e-03
-1.515779251878696587e-03
-1.298065408715510377e-03
-1.075227009188485690e-03
-8.485097012819535186e-04
-6.192415925590053112e-04
-3.888178570440672401e-04
-1.586844318485328999e-04
6.967911895708868105e-05
2.947772054440535067e-04
5.151161088948444551e-04
7.292217993129331737e-04
9.356576181980396376e-04
1.133041398253650757e-03
1.320061971969194127e-03
1.495494671113117976e-03
1.658215685632493264e-03
1.807215058083880841e-03
1.941608175763782484e-03
2.060645571115684097e-03
2.163720920870370462e-03
2.250377139574356866e-03
2.320310511377796352e-03
2.373372782517832544e-03
2.409571201433659358e-03
2.429066557774226670e-03
2.432169251068360197e-03
2.419333408963221001e-03
2.391149281572768539e-03
2.348333936499886511e-03
2.291720421674682713e-03
2.222245540700036690e-03
2.140936531972427448e-03
2.048896786184379454e-03
1.947290793270321134e-03
1.837328603659569431e-03
1.720250055186173547e-03
1.597308910391267772e-03
1.469757242846215280e-03
1.338830260431477003e-03
1.205731741423206283e-03
1.071620309122980376e-03
9.375968566211236033e-04
8.046930878235872579e-04
6.738614899105960232e-04
5.459667501195419447e-04
4.217788419194913574e-04
3.019677394052877476e-04
1.870998772064400332e-04
7.763635045621496502e-05
-2.606712444720069610e-05
-1.237586416619602904e-04
-2.152868748672750045e-04
-3.005962611773704547e-04
-3.797208129650511297e-04
-4.527766532130088058e-04
-5.199534488255181741e-04
-5.815048877118260797e-04
-6.377383701944033421e-04
-6.890042509938028954e-04
-7.356846455369061687e-04
-7.781821828418179505e-04
-8.169087666299481958e-04
-8.522746782815823546e-04
-8.846781598148405765e-04
-9.144956792777975086e-04
-9.420730301276788662e-04
-9.677174465438339104e-04
-9.916908315150275554e-04
-1.014204282662047518e-03
-1.035413932306663296e-03
-1.055418179090250900e-03
-1.074256375232298787e-03
-1.091908974546947422e-03
-1.108299052646259620e-03
-1.123295222303927936e-03
-1.136715915516050505e-03
-1.148334767014897329e-03
-1.157887120201663749e-03
-1.165077463903154429e-03
-1.169587616868082583e-03
-1.171085523676609983e-03
-1.169234463140967099e-03
-1.163702456518488342e-03
-1.154171682632800389e-03
-1.140347717712447521e-03
-1.121968296687022269e-03
-1.098811568852841236e-03
-1.070703569382076533e-03
-1.037524745669250910e-03
-9.992154583670991800e-04
-9.557801940163206285e-04
-9.072905064857374061e-04
-8.538865726872759548e-04
-7.957772635439941443e-04
-7.332388242735268097e-04
-6.666120189975240605e-04
-5.962979000679569878e-04
-5.227522179362807013e-04
-4.464785330899570417e-04
-3.680202286215310931e-04
-2.879515148398350925e-04
-2.068675331664283348e-04
-1.253738880461214417e-04
-4.407570115714445083e-05
3.643352267562196233e-05
1.155831063062129588e-04
1.928361295493212979e-04
2.676999420221201262e-04
3.397360458150352385e-04
4.085690156027181304e-04
4.738944010575651825e-04
5.354853695228230801e-04
5.931979227467525486e-04
6.469745346103868058e-04
6.968461548966557121e-04
7.429324304269003610e-04
7.854401409755864443e-04
8.246598363569602975e-04
8.609606986735068770e-04
8.947836410706404894e-04
9.266327870950636465e-04
9.570654134461012473e-04
9.866805800568432486e-04
1.016106564033013998e-03
1.045987319792745628e-03
1.076968228471316931e-03
1.109681337890204263e-03
1.144730421926854402e-03
1.182676152721746183e-03
1.224021608780333052e-03
1.269198411697258777e-03
1.318553821735442364e-03
1.372339020509536758e-03
1.430698913493148091e-03
1.493663545294808765e-03
1.561141474786313611e-03
1.632915174263640168e-03
1.708638738329809571e-03
1.787837935754154305e-03
1.869912624740031025e-03
1.954141676563630158e-03
2.039690254380058937e-03
2.125619523174133389e-03
2.210898617179825245e-03
2.294418794506118773e-03
2.375009470464230048e-03
2.451455962855834080e-03
2.522518749953422783e-03
2.586953895308913287e-03
2.643534248289207671e-03
2.691071215183403389e-03
2.728436648050894513e-03
2.754584508667128409e-03
2.768571961430037632e-03
2.769579413435153178e-03
2.756929253493227254e-03
2.730102828205517931e-03
2.688755403332092689e-03
2.632728782077105312e-03
2.562061251553184992e-03
2.476994722664015592e-03
2.377978820763831675e-03
2.265671658898960918e-03
2.140937398733784580e-03
2.004840383414487146e-03
1.858636025402602213e-03
1.703758321717953805e-03
1.541804236103354450e-03
1.374515115083611025e-03
1.203755311798780517e-03
1.031488341425888539e-03
8.597509363551085210e-04
6.906252066336617283e-04
5.262094545987455046e-04
3.685881042446830782e-04
2.198010583869057348e-04
8.181307384888441615e-05
-4.351646262105333750e-05
-1.544627452169146115e-04
-2.494632963497228173e-04
-3.271439370978031723e-04
-3.863423131708043612e-04
-4.261287013628719785e-04
-4.458236634363546037e-04
-4.450123022999621903e-04
-4.235547040254160128e-04
-3.815923996929078822e-04
-3.195506752154609513e-04
-2.381366721156529399e-04
-1.383331050729801341e-04
-2.138777386048455712e-05
1.112011471008494674e-04
2.577038302013668226e-04
4.161812638696979613e-04
5.845112550271815708e-04
7.604175276846771980e-04
9.415016944466356912e-04
1.125277422635570252e-03
1.309206318592554940e-03
1.490735199963936445e-03
1.667333951713874602e-03
1.836533589582554004e-03
1.995963776417681353e-03
2.143389346279654141e-03
2.276745198139861880e-03
2.394168941468739244e-03
2.494030820875295200e-03
2.574960490594773409e-03
2.635870044338024364e-03
2.675972976811862719e-03
2.694798795406725279e-03
2.692202957024761398e-03
2.668371887568239068e-03
2.623823009475426474e-03
2.559399728029272247e-03
2.476261339475881434e-03
2.375868080585471619e-03
2.259961457309004468e-03
2.130540080397419402e-03
1.989831412363873148e-03
1.840259725304313910e-03
1.684410836873735141e-03
1.524994143741163505e-03
1.364802473822449621e-03
1.206670388648519148e-03
1.053431601707768969e-03
9.078760783548979344e-04
7.727076191531874602e-04
6.505024812775481559e-04
5.436697771041365621e-04
4.544141789120498785e-04
3.847016162051316679e-04
3.362284343040257330e-04
3.103946820582973430e-04
3.082816941923616195e-04
3.306346681701345159e-04
3.778502308332006400e-04
4.499694352417242136e-04
5.466761261565794951e-04
6.673008558005443739e-04
8.108302706868541305e-04
9.759218278550052875e-04
1.160923658250263878e-03
1.363899181147400696e-03
1.582656134631608372e-03
1.814779600845238886e-03
2.057668397324893383e-03
2.308574349506918068e-03
2.564643813168085949e-03
2.822960700870852900e-03
3.080590360333228337e-03
3.334623567199790709e-03
3.582219919403485404e-03
3.820649931957376469e-03
4.047335123704127666e-03
4.259885431912668538e-03
4.456133297152908325e-03
4.634163925373382259e-03
4.792341152733851917e-03
4.929328532598186222e-03
5.044105319746934775e-03
5.135976963859888167e-03
5.204580037718576843e-03
5.249881471857563084e-03
5.272172190932614654e-03
5.272055182415544793e-03
5.250428229925957306e-03
5.208461678280141421e-03
5.147571524110374983e-03
5.069388400376679919e-03
4.975722975244440023e-03
4.868528406752304152e-03
4.749860436829797875e-03
4.621835988100885320e-03
4.486590897158759111e-03
4.346237656946633568e-03
4.202823752501209410e-03
4.058291612493543192e-03
3.914440748276815443e-03
3.772892888675882794e-03
3.635060685873882716e-03
3.502120703465037583e-03
3.374991058503475430e-03
3.254314323897721049e-03
3.140445986488230035e-03
3.033448723196129505e-03
2.933092668251761643e-03
2.838861666409565367e-03
2.749965527297575010e-03
2.665358060703271886e-03
2.583760588606732415e-03
2.503690657602358240e-03
2.423495321189213150e-03
2.341388546730516131e-03
2.255492001337129192e-03
2.163878538724284956e-03
2.064617564859714486e-03
1.955821466802260856e-03
1.835692276474760716e-03
1.702567544876230823e-03
1.554964721176119950e-03
1.391623092155776752e-03
1.211542444673054586e-03
1.014017710853644698e-03
7.986687914183452372e-04
5.654650109553860339e-04
3.147434504088188895e-04
4.722096894894868991e-05
-2.360006632238671731e-04
-5.334365345056689802e-04
-8.432275657439993865e-04
-1.163156546945469860e-03
-1.490671122705386053e-03
-1.822913489849610751e-03
-2.156756273685777724e-03
-2.488844159996271479e-03
-2.815640565562989132e-03
-3.133478609356823118e-03
-3.438615695439798531e-03
-3.727290548702911089e-03
-3.995781889377967439e-03
-4.240467644156037906e-03
-4.457883714507501934e-03
-4.644781172113015416e-03
-4.798180862623856006e-03
-4.915424434233552596e-03
-4.994220810246957805e-03
-5.032687049093314581e-03
-5.029383062839718789e-03
-4.983339203195006652e-03
-4.894076276846535088e-03
-4.761617421435407511e-03
-4.586491617414836103e-03
-4.369728495606526111e-03
-4.112844585198051524e-03
-3.817820958355313925e-03
-3.487072651365417681e-03
-3.123410266911478671e-03
-2.729994337072802740e-03
-2.310283157385782573e-03
-1.867975026081132280e-03
-1.406945679612704378e-03
-9.311821690514511312e-04
-4.447141805320034341e-04
4.845585318830772592e-05
5.444226770949006818e-04
1.039446900156951875e-03
1.530021162549490693e-03
2.012932508804307109e-03
2.485319843600649128e-03
2.944725393067791457e-03
3.389139002316903827e-03
3.817034575957122672e-03
4.227397661853505087e-03
4.619743698999556961e-03
4.994126547036559921e-03
5.351136841389629237e-03
5.691890164479559110e-03
6.018005137332981674e-03
6.331571722483377192e-03
6.635110138791333080e-03
6.931521103019327827e-03
7.224028234164315936e-03
7.516113510520055531e-03
7.811446978782588500e-03
8.113811961822243665e-03
8.427027035807888034e-03
8.754866332499174064e-03
9.100979571638436599e-03
9.468813310741458142e-03
9.861535002039421849e-03
1.028196129812308790e-02
1.073249200473626146e-02
1.121505104803264229e-02
1.173103575573082417e-02
1.228127541731215480e-02
1.286600007518721479e-02
1.348482038395678109e-02
1.413671904297628470e-02
1.482005411147059235e-02
1.553257439615903651e-02
1.627144673447020184e-02
1.703329496596232839e-02
1.781424991627596557e-02
1.861000969684924525e-02
1.941590928617013476e-02
2.022699823249062695e-02
2.103812516940365904e-02
2.184402763192475755e-02
2.263942552429004662e-02
2.341911658422685116e-02
2.417807203804955493e-02
2.491153062398145449e-02
2.561508925356390312e-02
2.628478843260585729e-02
2.691719091552050719e-02
2.750945185778973234e-02
2.805937915124700685e-02
2.856548261896984381e-02
2.902701098748499547e-02
2.944397589750150090e-02
2.981716218238050081e-02
3.014812432322490007e-02
3.043916878141963295e-02
3.069332256303413525e-02
3.091428847396172561e-02
3.110638778777109412e-02
3.127449150319730475e-02
3.142394133438167203e-02
3.156046200096958992e-02
3.169006658073668381e-02
3.181895673165554411e-02
3.195341994997009938e-02
3.209972585730255096e-02
3.226402379529416664e-02
3.245224388009835398e-02
3.267000379305026736e-02
3.292252334144522841e-02
3.321454879432429036e-02
3.355028885474171940e-02
3.393336381848462840e-02
3.436676942706777538e-02
3.485285640038137539e-02
3.539332644834315700e-02
3.598924531296390089e-02
3.664107283905095741e-02
3.734870979534903740e-02
3.811156088973509382e-02
3.892861282200150291e-02
3.979852604764286955e-02
4.071973844441245660e-02
4.169057887327338313e-02
4.270938810194373214e-02
4.377464450355050135e-02
4.488509162848404455e-02
4.603986458477710153e-02
4.723861198958864693e-02
4.848161021669882692e-02
4.976986675941711541e-02
5.110520941484738427e-02
5.249035823267352713e-02
5.392897724687800709e-02
5.542570344799280929e-02
5.698615069454383147e-02
5.861688637621003534e-02
6.032537954700645938e-02
6.211991924026454004e-02
6.400950256735150889e-02
6.600369245956252962e-02
6.811244571615859833e-02
7.034591235675133336e-02
7.271420821669864754e-02
7.522716292032724517e-02
7.789404615846966251e-02
8.072327586346274286e-02
8.372211202588772383e-02
8.689634071966791107e-02
9.024995308251677895e-02
9.378482449202556193e-02
9.750039928470283224e-02
1.013933868196999905e-01
1.054574745532646379e-01
1.096830638748790276e-01
1.140570344324669527e-01
1.185625424707622555e-01
1.231788585021874188e-01
1.278812491036552257e-01
1.326409073687041251e-01
1.374249358822896838e-01
1.421963855505419816e-01
1.469143527550264006e-01
1.515341368076452422e-01
1.560074585517332302e-01
1.602827403203316570e-01
1.643054465248259544e-01
1.680184831383190747e-01
1.713626534736117091e-01
1.742771667709324124e-01
1.767001951872615162e-01
1.785694740113984713e-01
1.798229389148610358e-01
1.803993935466392806e-01
1.802391999661044075e-01
1.792849839584990113e-01
1.774823467202248373e-01
1.747805740409581199e-01
1.711333339823584709e-01
1.664993537268684154e-01
1.608430665723674380e-01
1.541352198175623966e-01
1.463534348941467611e-01
1.374827112953857788e-01
1.275158665463539398e-01
1.164539049072324250e-01
1.043063084788034001e-01
9.109124506084406714e-02
7.683568819151689877e-02
6.157544580282098279e-02
4.535509513014620436e-02
2.822782253306091796e-02
1.025516812453340816e-02
-8.493323564595990291e-03
-2.794054457777356976e-02
-4.800235251111655693e-02
-6.858818275031909606e-02
-8.960173814355790189e-02
-1.109417489362638232e-01
-1.325027952741858750e-01
-1.541761833181625185e-01
-1.758508653587588233e-01
-1.974143937669982640e-01
-2.187538978795697531e-01
-2.397570727874772933e-01
-2.603131685682008589e-01
-2.803139686225568084e-01
-2.996547455787373915e-01
-3.182351837480793533e-01
-3.359602571806073468e-01
-3.527410533320362584e-01
-3.684955325435173568e-01
-3.831492145923232062e-01
-3.966357844991624249e-01
-4.088976107599830989e-01
-4.198861701481022002e-01
-4.295623746704847479e-01
-4.378967973106634437e-01
-4.448697946078898902e-01
-4.504715253227400962e-01
-4.547018659653782047e-01
-4.575702249688459178e-01
-4.590952588517696054e-01
-4.593044948536600947e-01
-4.582338655805124339e-01
-4.559271623279145258e-01
-4.524354149084319210e-01
-4.478162065071150111e-01
-4.421329326504955248e-01
-4.354540144566626525e-01
-4.278520763978408969e-01
-4.194030992708243089e-01
-4.101855592063594069e-01
-4.002795637901340187e-01
-3.897659958425218618e-01
-3.787256754118313862e-01
-3.672385500870450903e-01
-3.553829231094562391e-01
-3.432347280462950123e-01
-3.308668582387482848e-01
-3.183485579651706421e-01
-3.057448816229187405e-01
-2.931162259511339574e-01
-2.805179394082937261e-01
-2.680000114781708742e-01
-2.556068436604824745e-01
-2.433771026345570021e-01
-2.313436549641148809e-01
-2.195335816589280009e-01
-2.079682696754165394e-01
-1.966635766002731156e-01
-1.856300636842365404e-01
-1.748732915519867204e-01
-1.643941722099888647e-01
-1.541893704789085440e-01
-1.442517470856650164e-01
-1.345708354824586006e-01
-1.251333443571650272e-01
-1.159236772724274445e-01
-1.069244610103095017e-01
-9.811707455393534061e-02
-8.948217046795553520e-02
-8.100018105515227607e-02
-7.265180191151306144e-02
-6.441844633764468031e-02
-5.628266456683517216e-02
-4.822852231866513184e-02
-4.024193427977504345e-02
-3.231094869518601892e-02
-2.442598028725898734e-02
-1.657998956705680066e-02
-8.768607493864337757e-03
-9.902052508088735310e-04
6.754090125176817616e-03
1.446043257535886174e-02
2.212234407473889428e-02
2.973084885422563189e-02
3.727465088851929925e-02
4.474035047740312909e-02
5.211269492680285081e-02
5.937485822487353210e-02
6.650874396486533557e-02
7.349530582578571447e-02
8.031487975332013418e-02
8.694752181506386346e-02
9.337334575855806007e-02
9.957285487947628577e-02
1.055272624659943370e-01
1.112187959452507480e-01
1.166309798638579392e-01
1.217488937433652413e-01
1.265594009454589219e-01
1.310513454748627182e-01
1.352157143706303744e-01
1.390457637109309974e-01
1.425371071875012052e-01
1.456877666982584751e-01
1.484981849720105884e-01
1.509712010665392734e-01
1.531119901431226837e-01
1.549279692217225279e-01
1.564286714837245518e-01
1.576255918785345045e-01
1.585320075050644095e-01
1.591627760204976372e-01
1.595341161519397144e-01
1.596633742884633334e-01
1.595687812632469726e-01
1.592692035090850777e-01
1.587838928541114303e-01
1.581322387651891981e-01
1.573335272255191875e-01
1.564067096705929472e-01
1.553701854954729622e-01
1.542416010959653527e-01
1.530376681540376038e-01
1.517740035177550240e-01
1.504649923753321183e-01
1.491236761637042552e-01
1.477616661805139231e-01
1.463890832149505883e-01
1.450145233554551438e-01
1.436450494560582714e-01
1.422862074607838534e-01
1.409420661881502224e-01
1.396152790957040091e-01
1.383071660602179509e-01
1.370178129332043360e-01
1.357461864681125119e-01
1.344902619729583526e-01
1.332471609714228067e-01
1.320132960040199255e-01
1.307845198039828960e-01
1.295562760257250035e-01
1.283237486721357512e-01
1.270820078438016365e-01
1.258261491090514883e-01
1.245514244572355073e-01
1.232533626706686369e-01
1.219278775398321274e-01
1.205713623212025382e-01
1.191807693272783908e-01
1.177536738632830315e-01
1.162883220274997104e-01
1.147836620397300750e-01
1.132393592731085058e-01
1.116557954238412143e-01
1.100340525188960444e-01
1.083758826839427564e-01
1.066836647291842660e-01
1.049603491111843062e-01
1.032093928000995947e-01
1.014346856208027114e-01
9.964046993728477297e-02
9.783125544648255123e-02
9.601173104843399586e-02
9.418667561751886685e-02
9.236086947658592172e-02
9.053900829669547790e-02
8.872562110728164642e-02
8.692499388403333860e-02
8.514110003102680346e-02
8.337753897906582945e-02
8.163748378727056498e-02
7.992363856962496349e-02
7.823820629566623219e-02
7.658286718592566267e-02
7.495876796333506009e-02
7.336652177124480811e-02
7.180621838897520426e-02
7.027744435302979431e-02
6.877931232223695457e-02
6.731049869903457661e-02
6.586928867898735052e-02
6.445362763524754846e-02
6.306117753162585049e-02
6.168937727416686639e-02
6.033550570947415759e-02
5.899674580981267152e-02
5.767024900110288149e-02
5.635319824422723584e-02
5.504286866615587526e-02
5.373668475643065406e-02
5.243227305515663766e-02
5.112750940614673584e-02
4.982056006178395280e-02
4.850991603317692663e-02
4.719442013995208546e-02
4.587328651032097221e-02
4.454611235000238700e-02
4.321288193339247602e-02
4.187396293238614120e-02
4.053009544229313477e-02
3.918237401343947768e-02
3.783222325414975495e-02
3.648136769207598745e-02
3.513179653831073612e-02
3.378572417547039131e-02
3.244554721754452919e-02
3.111379908479082468e-02
2.979310296531506932e-02
2.848612407257188409e-02
2.719552218383674419e-02
2.592390522708667988e-02
2.467378476882702704e-02
2.344753424905914388e-02
2.224735055879943288e-02
2.107521961413117914e-02
1.993288642381020603e-02
1.882183013692468113e-02
1.774324427877127519e-02
1.669802233302901742e-02
1.568674893522954694e-02
1.470969657001711117e-02
1.376682768832605472e-02
1.285780194395628323e-02
1.198198832472953911e-02
1.113848184856205785e-02
1.032612429844202359e-02
9.543528558111368659e-03
8.789105870754179012e-03
8.061095545530997872e-03
7.357596516569531175e-03
6.676600001701988793e-03
6.016022799327083899e-03
5.373740503727976112e-03
4.747620067892505992e-03
4.135551303161079904e-03
3.535476611782492791e-03
2.945418733574265997e-03
2.363505867065518028e-03
1.787994010732732626e-03
1.217286290006162897e-03
6.499489622436919719e-04
8.472412360999361663e-05
-4.794610911636699112e-04
-1.043488653345400101e-03
-1.608047157594716175e-03
-2.173632474996746791e-03
-2.740551346303213894e-03
-3.308927752123224080e-03
-3.878711711146003160e-03
-4.449690195032616861e-03
-5.021499867696193990e-03
-5.593641236704955874e-03
-6.165493920417080415e-03
-6.736332612759119744e-03
-7.305343379476465608e-03
-7.871640018254173407e-03
-8.434280082134506390e-03
-8.992280358397846188e-03
-9.544631521642062480e-03
-1.009031168895018100e-02
-1.062829880369095016e-02
-1.115758165342136364e-02
-1.167716935286616971e-02
-1.218609934043196098e-02
-1.268344383892704673e-02
-1.316831488019488614e-02
-1.363986777838129688e-02
-1.409730331056392900e-02
-1.453986862653695519e-02
-1.496685710066352447e-02
-1.537760728106989279e-02
-1.577150109424067803e-02
-1.614796143802657916e-02
-1.650644941843544891e-02
-1.684646150046897189e-02
-1.716752651940384178e-02
-1.746920294248310163e-02
-1.775107636425318075e-02
-1.801275745023846880e-02
-1.825388047852665938e-02
-1.847410239879496152e-02
-1.867310258827373573e-02
-1.885058333531782621e-02
-1.900627093352091901e-02
-1.913991743295714518e-02
-1.925130303077249305e-02
-1.934023892624578411e-02
-1.940657061618797016e-02
-1.945018142157779739e-02
-1.947099626037280401e-02
-1.946898535227327767e-02
-1.944416782100235122e-02
-1.939661496590017881e-02
-1.932645310993997764e-02
-1.923386588281953552e-02
-1.911909572470035096e-02
-1.898244466960884863e-02
-1.882427412838052691e-02
-1.864500365181251743e-02
-1.844510869258200736e-02
-1.822511721853701389e-02
-1.798560533180564025e-02
-1.772719177812255922e-02
-1.745053146829541810e-02
-1.715630810508440157e-02
-1.684522595876571799e-02
-1.651800100655213821e-02
-1.617535155932566665e-02
-1.581798848097991372e-02
-1.544660526291670270e-02
-1.506186814181568502e-02
-1.466440642004393329e-02
-1.425480321392200156e-02
-1.383358680777544737e-02
-1.340122285879748361e-02
-1.295810752149059719e-02
-1.250456178408939148e-02
-1.204082711564832819e-02
-1.156706246192919056e-02
-1.108334284310028006e-02
-1.058965948120168740e-02
-1.008592147083086157e-02
-9.571959168935712317e-03
-9.047529167304257589e-03
-8.512320751342457303e-03
-7.965963822269456901e-03
-7.408038129559885859e-03
-6.838083682215551420e-03
-6.255612109626120486e-03
-5.660118890589424696e-03
-5.051096067155359109e-03
-4.428045390774920480e-03
-3.790491502639066652e-03
-3.137995046696939912e-03
-2.470165334539429006e-03
-1.786672464680937608e-03
-1.087258527616854738e-03
-3.717477855696296545e-04
3.599444850775409687e-04
1.107804564541345089e-03
1.871714473078238275e-03
2.651447841010577938e-03
3.446667599440509430e-03
4.256925558153545897e-03
5.081663876941281029e-03
5.920218370304553175e-03
6.771823734219076761e-03
7.635620453164460898e-03
8.510663334878614331e-03
9.395931539701623397e-03
1.029033986782310582e-02
1.119275118811933166e-02
1.210198972283785604e-02
1.301685491800156323e-02
1.393613574374353258e-02
1.485862498923593185e-02
1.578313354442945765e-02
1.670850413359251802e-02
1.763362437590147366e-02
1.855743891384123781e-02
1.947896035040341464e-02
2.039727883368257916e-02
2.131157003916278256e-02
2.222110144071861096e-02
2.312523671310651174e-02
2.402343818558948241e-02
2.491526730031722037e-02
2.580038300763621770e-02
2.667853827467880912e-02
2.754957454377508427e-02
2.841341439706259256e-02
2.927005243002107904e-02
3.011954467719926351e-02
3.096199656067913017e-02
3.179754975977840820e-02
3.262636813688535309e-02
3.344862309381049781e-02
3.426447848547060915e-02
3.507407548411312775e-02
3.587751762826352220e-02
3.667485639951109655e-02
3.746607752195894175e-02
3.825108834193068769e-02
3.902970651139001795e-02
3.980165016262177113e-02
4.056652985869488304e-02
4.132384241828361560e-02
4.207296683082812488e-02
4.281316235784132090e-02
4.354356883769180953e-02
4.426320935378801752e-02
4.497099510775131453e-02
4.566573256457751029e-02
4.634613280326104617e-02
4.701082284682951001e-02
4.765835890658703944e-02
4.828724137242641073e-02
4.889593125402908608e-02
4.948286788107159051e-02
5.004648761975934862e-02
5.058524324852237131e-02
5.109762377650924059e-02
5.158217432083848225e-02
5.203751578185793203e-02
5.246236397323511547e-02
5.285554798610305610e-02
5.321602744006204838e-02
5.354290830861353767e-02
5.383545717533748387e-02
5.409311348918678652e-02
5.431549985053471530e-02
5.450243004932441709e-02
5.465391469372051642e-02
5.477016435679172429e-02
5.485159021310032079e-02
5.489880207754031100e-02
5.491260387491634504e-02
5.489398657264217551e-02
5.484411880315636506e-02
5.476433508641966041e-02
5.465612193126725277e-02
5.452110196314242235e-02
5.436101634614998179e-02
5.417770565054259857e-02
5.397308950573623948e-02
5.374914526556665711e-02
5.350788600231515951e-02
5.325133803529830123e-02
5.298151847253951968e-02
5.270041281024930718e-02
5.240995311541270241e-02
5.211199687335513892e-02
5.180830696496426663e-02
5.150053279883966967e-02
5.119019302001035637e-02
5.087865983991288893e-02
5.056714529338666997e-02
5.025668942653925553e-02
4.994815068582999368e-02
4.964219841515423587e-02
4.933930770864458637e-02
4.903975642460949025e-02
4.874362456325653792e-02
4.845079575514984332e-02
4.816096096590087583e-02
4.787362417614770410e-02
4.758811002462317447e-02
4.730357315000284502e-02
4.701900923096199308e-02
4.673326735774033236e-02
4.644506360999122591e-02
4.615299566813323845e-02
4.585555816195933249e-02
4.555115865312935053e-02
4.523813394972830970e-02
4.491476653133254227e-02
4.457930093128768118e-02
4.422995988140648871e-02
4.386495997240654615e-02
4.348252669940266130e-02
4.308090879408395940e-02
4.265839162739382823e-02
4.221330955802075208e-02
4.174405726570126068e-02
4.124909988675592304e-02
4.072698190376319166e-02
4.017633487291052963e-02
3.959588384003385336e-02
3.898445254307916080e-02
3.834096747249304826e-02
3.766446077795575914e-02
3.695407206285204055e-02
3.620904928237332621e-02
3.542874872938273079e-02
3.461263414458529142e-02
3.376027527327228606e-02
3.287134584319022224e-02
3.194562105685687381e-02
3.098297476511566173e-02
2.998337648714606563e-02
2.894688828671683825e-02
2.787366167134777001e-02
2.676393451187647141e-02
2.561802816748900979e-02
2.443634485100047715e-02
2.321936527402730308e-02
2.196764662348864305e-02
2.068182090892443231e-02
1.936259363807643283e-02
1.801074290139904194e-02
1.662711879839002399e-02
1.521264315634721608e-02
1.376830953690288788e-02
1.229518343339756903e-02
1.079440269615231963e-02
9.267177928105828008e-03
7.714793005362674018e-03
6.138605426911926052e-03
4.540046533902242568e-03
2.920621499286756885e-03
1.281908932088600319e-03
-3.744398685704221938e-04
-2.046702260799012664e-03
-3.733086092280312341e-03
-5.431732169156648637e-03
-7.140717398347143884e-03
-8.858058606354206679e-03
-1.058171720869040787e-02
-1.230960451551077299e-02
-1.403958782974689887e-02
-1.576949725337267738e-02
-1.749713319107544171e-02
-1.922027454460878762e-02
-2.093668745906505230e-02
-2.264413459732746853e-02
-2.434038482102607662e-02
-2.602322328689556444e-02
-2.769046172081322116e-02
-2.933994881827412318e-02
-3.096958066602688298e-02
-3.257731099022995180e-02
-3.416116123005397825e-02
-3.571923020588641667e-02
-3.724970329998424784e-02
-3.875086103021248285e-02
-4.022108694831508235e-02
-4.165887462185405288e-02
-4.306283380304470887e-02
-4.443169554490834089e-02
-4.576431627309294342e-02
-4.705968071001098707e-02
-4.831690371800696077e-02
-4.953523090547133634e-02
-5.071403809748603608e-02
-5.185282955202363819e-02
-5.295123513541607346e-02
-5.400900636903373936e-02
-5.502601139802313496e-02
-5.600222905197103918e-02
-5.693774207340807775e-02
-5.783272954802012172e-02
-5.868745864739829954e-02
-5.950227588515684396e-02
-6.027759803859858434e-02
-6.101390272247251417e-02
-6.171171889881951755e-02
-6.237161737868301276e-02
-6.299420154096954660e-02
-6.358009824326318893e-02
-6.412994927678847268e-02
-6.464440320179594412e-02
-6.512410800495098406e-02
-6.556970443014911720e-02
-6.598182008001718390e-02
-6.636106454009919886e-02
-6.670802535829001290e-02
-6.702326507604808303e-02
-6.730731924231921071e-02
-6.756069543829726354e-02
-6.778387326061852125e-02
-6.797730531812194721e-02
-6.814141914827966107e-02
-6.827661987302779956e-02
-6.838329370939186247e-02
-6.846181207841908756e-02
-6.851253629268753975e-02
-6.853582262624037524e-02
-6.853202778509887017e-02
-6.850151446141486411e-02
-6.844465695906934433e-02
-6.836184671782979949e-02
-6.825349764245704220e-02
-6.812005100896420529e-02
-6.796197985265316210e-02
-6.777979289130567353e-02
-6.757403764865030360e-02
-6.734530277666916920e-02
-6.709421951725857980e-02
-6.682146217113008047e-02
-6.652774773549771647e-02
-6.621383441223906152e-02
-6.588051912495734852e-02
-6.552863403825456845e-02
-6.515904214571723030e-02
-6.477263186901845160e-02
-6.437031088216464692e-02
-6.395299912560852007e-02
-6.352162122007667944e-02
-6.307709832373002701e-02
-6.262033957103148307e-02
-6.215223324878622196e-02
-6.167363784492027601e-02
-6.118537318210369447e-02
-6.068821170283388716e-02
-6.018287018201868427e-02
-5.967000193177841860e-02
-5.915018966824641539e-02
-5.862393916956488288e-02
-5.809167395786309779e-02
-5.755373104497738673e-02
-5.701035783448240440e-02
-5.646171032698213410e-02
-5.590785265165616053e-02
-5.534875799528694157e-02
-5.478431098594120641e-02
-5.421431149001156719e-02
-5.363847986314984606e-02
-5.305646353459314568e-02
-5.246784497256404972e-02
-5.187215080388501987e-02
-5.126886206130416845e-02
-5.065742548589854954e-02
-5.003726563526264548e-02
-4.940779771324887992e-02
-4.876844079372907870e-02
-4.811863152141427485e-02
-4.745783781845985122e-02
-4.678557261117658600e-02
-4.610140719362446071e-02
-4.540498413703700914e-02
-4.469602953073659179e-02
-4.397436428183028323e-02
-4.323991433707131959e-02
-4.249271971203758685e-02
-4.173294209542446204e-02
-4.096087090524721391e-02
-4.017692765050034920e-02
-3.938166857465755233e-02
-3.857578544836944706e-02
-3.776010450056119239e-02
-3.693558348054178098e-02
-3.610330673804418994e-02
-3.526447853435291796e-02
-3.442041455101878950e-02
-3.357253172352232806e-02
-3.272233637024529046e-02
-3.187141099324553722e-02
-3.102139975517034104e-02
-3.017399280958178720e-02
-2.933090975587435145e-02
-2.849388245703477276e-02
-2.766463725904046156e-02
-2.684487704140454956e-02
-2.603626332451019695e-02
-2.524039849287369047e-02
-2.445880857316561421e-02
-2.369292675635208470e-02
-2.294407776217328998e-02
-2.221346342027583770e-02
-2.150214962821943646e-02
-2.081105481102134280e-02
-2.014094004074526434e-02
-1.949240105937951120e-02
-1.886586218777557694e-02
-1.826157226198945466e-02
-1.767960273529666643e-02
-1.711984786364368141e-02
-1.658202698199122763e-02
-1.606568893937532216e-02
-1.557021852091450102e-02
-1.509484488443931308e-02
-1.463865186550254716e-02
-1.420058995440974525e-02
-1.377948984182985649e-02
-1.337407740776215374e-02
-1.298298982699171329e-02
-1.260479273184622953e-02
-1.223799814298077819e-02
-1.188108283946718267e-02
-1.153250710012551118e-02
-1.119073344804284720e-02
-1.085424529612025873e-02
-1.052156513797780635e-02
-1.019127201247809790e-02
-9.862018183891955656e-03
-9.532544709798545027e-03
-9.201695814174161436e-03
-8.868431764572406659e-03
-8.531840154942389384e-03
-8.191145508876918405e-03
-7.845717073411351966e-03
-7.495074747828563838e-03
-7.138892949807309173e-03
-6.777002577035172101e-03
-6.409390991448531832e-03
-6.036200001225253652e-03
-5.657721916832738306e-03
-5.274393773446716012e-03
-4.886789891605690210e-03
-4.495612617047869790e-03
-4.101681675242895703e-03
-3.705922170193602216e-03
-3.309351409235200721e-03
-2.913064613991332100e-03
-2.518219901778501191e-03
-2.126022627801695160e-03
-1.737709339506070434e-03
-1.354531370295939709e-03
-9.777385886755602523e-04
-6.085632260131416948e-04
-2.482041304528627835e-04
1.021884693622814949e-04
4.415274475357664646e-04
7.688023381960847058e-04
1.083091790883556563e-03
1.383574984882405060e-03
1.669541600524679110e-03
1.940400406976541771e-03
2.195686390172213627e-03
2.435066319123313332e-03
2.658342750245777132e-03
2.865456277151359320e-03
3.056486257507711954e-03
3.231649956549743994e-03
3.391299974070114461e-03
3.535920211035600575e-03
3.666120359168625973e-03
3.782628946378469633e-03
3.886285213019335851e-03
3.978029653684436555e-03
4.058893584324843769e-03
4.129987696493303030e-03
4.192489839566452582e-03
4.247632154508323120e-03
4.296687673818820608e-03
4.340956532651905203e-03
4.381751987117355439e-03
4.420386336761344612e-03
4.458157028280021472e-03
4.496332887420989577e-03
4.536140799222969193e-03
4.578752837900248486e-03
4.625274108596043147e-03
4.676731290131128267e-03
4.734062128514337879e-03
4.798105898038189376e-03
4.869594865523501487e-03
4.949146997221652231e-03
5.037259812872215380e-03
5.134305568069166825e-03
5.240527778435304963e-03
5.356039054202761142e-03
5.480820334197566285e-03
5.614721433621168087e-03
5.757463051317869215e-03
5.908640032474616471e-03
6.067726015447388876e-03
6.234079226286447922e-03
6.406949579570404146e-03
6.585486884813869513e-03
6.768750075347973114e-03
6.955717313429872484e-03
7.145297092335593271e-03
7.336339990822699809e-03
7.527651059568041259e-03
7.718002712005647865e-03
7.906147890631267175e-03
8.090833647537371345e-03
8.270814676161145768e-03
8.444866832111146138e-03
8.611800424516816849e-03
8.770473261992503197e-03
8.919803180933841280e-03
9.058779966135658765e-03
9.186476586218156326e-03
9.302059548623385979e-03
9.404798296006842973e-03
9.494073504245035058e-03
9.569384237745788557e-03
9.630353876060039967e-03
9.676734673021679389e-03
9.708410972302536010e-03
9.725400968501793017e-03
9.727857019556524279e-03
9.716064525550982892e-03
9.690439295399139522e-03
9.651523509842965115e-03
9.599980286640590749e-03
9.536586888675971027e-03
9.462226594157251841e-03
9.377879423014851001e-03
9.284611748739282286e-03
9.183564910962111263e-03
9.075943012780739519e-03
8.962999926244363466e-03
8.846025718300109045e-03
8.726332714788001196e-03
8.605241192488366844e-03
8.484065070357017790e-03
8.364097643100225007e-03
8.246597531240251050e-03
8.132774980629932024e-03
8.023778796509251424e-03
7.920683985590372747e-03
7.824480193907221853e-03
7.736061238749417611e-03
7.656215686837562588e-03
7.585618714347215630e-03
7.524825262086270831e-03
7.474264681536149993e-03
7.434236817406542075e-03
7.404909620620521438e-03
7.386318289719611373e-03
7.378365967213525861e-03
7.380825987571551158e-03
7.393345619724840841e-03
7.415451254500348734e-03
7.446555007845181637e-03
7.485962573370755907e-03
7.532882289187326288e-03
7.586435234892849842e-03
7.645666227864116211e-03
7.709555704058906542e-03
7.777032159205949334e-03
7.846985041926468271e-03
7.918277946791276931e-03
7.989762004243302837e-03
8.060289134405419081e-03
8.128725105869627141e-03
8.193962356546673209e-03
8.254932162911374910e-03
8.310616158548929031e-03
8.360057041349476525e-03
8.402368365568874120e-03
8.436743337992573186e-03
8.462462434519283858e-03
8.478899838256578544e-03
8.485528550370468812e-03
8.481924307941385993e-03
8.467768104818911012e-03
8.442847364286012665e-03
8.407055916644761914e-03
8.360392608389305424e-03
8.302958716743342668e-03
8.234954211458927684e-03
8.156672910660290460e-03
8.068496703363153832e-03
7.970888855326622655e-03
7.864386603911791354e-03
7.749593086694965376e-03
7.627168751235141077e-03
7.497822396946555827e-03
7.362301973943166482e-03
7.221385254304551679e-03
7.075870523556111388e-03
6.926567419489377056e-03
6.774288028444147916e-03
6.619838266517532287e-03
6.464009796862220034e-03
6.307572432080598736e-03
6.151267201541758302e-03
5.995800083974405469e-03
5.841836447774781220e-03
5.689996293471717530e-03
5.540850247203661129e-03
5.394916352823337855e-03
5.252657659090147028e-03
5.114480599744722876e-03
4.980734040549297109e-03
4.851709122146757175e-03
4.727639699966789018e-03
4.608703386219840416e-03
4.495023172775136980e-03
4.386669452747484627e-03
4.283662472176662066e-03
4.185975147769181205e-03
4.093536138752759332e-03
4.006233026196641747e-03
3.923915693677856517e-03
3.846399708246588459e-03
3.773469729916643835e-03
3.704882877457569331e-03
3.640371970128380725e-03
3.579648646928284324e-03
3.522406307325468520e-03
3.468322906456936666e-03
3.417063513132929074e-03
3.368282724743144625e-03
3.321626851144475479e-03
3.276735912433126254e-03
3.233245490267106469e-03
3.190788430040794599e-03
3.148996403635577045e-03
3.107501449159292151e-03
3.065937394197665311e-03
3.023941294828513641e-03
2.981154923839839446e-03
2.937226260114902520e-03
2.891811106082119425e-03
2.844574743279734089e-03
2.795193809444583045e-03
2.743358240487421204e-03
2.688773414536966590e-03
2.631162397267826098e-03
2.570268395120086508e-03
2.505857325631471663e-03
2.437720453165843817e-03
2.365677163854029361e-03
2.289577777957754745e-03
2.209306328647527018e-03
2.124783310559635180e-03
2.035968341647793368e-03
1.942862725142555005e-03
1.845511719057358127e-03
1.744006530079513471e-03
1.638485976022484910e-03
1.529137754729955039e-03
1.416199261822222904e-03
1.299957896150323458e-03
1.180750760608393051e-03
1.058963822889541669e-03
9.350304232833484734e-04
8.094291118872565857e-04
6.826808307636326534e-04
5.553454168321096847e-04
4.280174818052563820e-04
3.013215844245727116e-04
1.759068728058453719e-04
5.244110903757818272e-05
-6.839578432327110980e-05
-1.859186097824115809e-04
-2.994441092209602939e-04
-4.082985418321334408e-04
-5.118253379923772906e-04
-6.093928529905824057e-04
-7.004021026438989484e-04
-7.842943481377666034e-04
-8.605583811483461572e-04
-9.287375239133627888e-04
-9.884361004725121264e-04
-1.039325318449458658e-03
-1.081148494408006814e-03
-1.113725483014127915e-03
-1.136956289926842681e-03
-1.150823729925510696e-03
-1.155395097985391101e-03
-1.150822828855133746e-03
-1.137344094140313368e-03
-1.115279317920852241e-03
-1.085029623659072460e-03
-1.047073238149607384e-03
-1.001960866372904064e-03
-9.503100438173538254e-04
-8.927986417810013751e-04
-8.301574780329187917e-04
-7.631622017131149162e-04
-6.926245188050864305e-04
-6.193829421511194092e-04
-5.442930998754227662e-04
-4.682177553970669941e-04
-3.920167162107984272e-04
-3.165366797815523034e-04
-2.426012437958182809e-04
-1.710011918432356314e-04
-1.024851670498468884e-04
-3.775094195420326592e-05
2.256281816457457763e-05
7.788388199921523981e-05
1.277129461862719514e-04
1.716292293645608927e-04
2.092949561264740882e-04
2.404587857866794930e-04
2.649581114869780491e-04
2.827201721109755131e-04
2.937620187039217501e-04
2.981892595854025718e-04
2.961936885612521117e-04
2.880497736383040466e-04
2.741101051560061253e-04
2.547998156211721071e-04
2.306101135598041276e-04
2.020909526773784302e-04
1.698430617002240112e-04
1.345092554903800958e-04
9.676535877120270076e-05
5.731073005143849696e-05
1.685853211811699163e-05
-2.387405174085484142e-05
-6.417560491142340281e-05
-1.033500867667878919e-04
-1.407261566586491140e-04
-1.756661074535061302e-04
-2.075742318499469307e-04
-2.359046162582442469e-04
-2.601682040831814727e-04
-2.799390179768498715e-04
-2.948595780384983774e-04
-3.046452960826997341e-04
-3.090879533317388451e-04
-3.080581731815792089e-04
-3.015067992371245581e-04
-2.894653099744956505e-04
-2.720451514163894110e-04
-2.494360920702816441e-04
-2.219036312218431524e-04
-1.897853863117912447e-04
-1.534866997123532036e-04
-1.134753992871456854e-04
-7.027582623488647150e-05
-2.446224485009190649e-05
2.334831002033344814e-05
7.250369405692519344e-05
1.223246312945399890e-04
1.721130124432177042e-04
2.211603291991467329e-04
2.687562224592153688e-04
3.141969397882350646e-04
3.567937309868953605e-04
3.958809932066852284e-04
4.308240997210089642e-04
4.610268746587630742e-04
4.859385985641647538e-04
5.050604277665477621e-04
5.179512621141124261e-04
5.242329644959450429e-04
5.235948008898427819e-04
5.157971911813834633e-04
5.006746611777074165e-04
4.781379988360871434e-04
4.481755483862695380e-04
4.108537126624158204e-04
3.663166365753979113e-04
3.147850194310846598e-04
2.565541572098062459e-04
1.919911582026967640e-04
1.215314245613221059e-04
4.567440630977139465e-05
-3.502129287144262860e-05
-1.199434682132818122e-04
-2.084324980535760146e-04
-2.997879518184567689e-04
-3.932757207927561611e-04
-4.881355005179912037e-04
-5.835886339145406618e-04
-6.788461662441717340e-04
-7.731170913911028335e-04
-8.656166653901157691e-04
-9.555747772584081848e-04
-1.042244171990051003e-03
-1.124908594391936479e-03
-1.202890607275774668e-03
-1.275559178266169082e-03
-1.342336808138874359e-03
-1.402706223461964519e-03
-1.456216489562855943e-03
-1.502488534759057956e-03
-1.541219931138628797e-03
-1.572188954572549882e-03
-1.595257838239427838e-03
-1.610375195240639889e-03
-1.617577528214480002e-03
-1.616989808998638579e-03
-1.608825095443183880e-03
-1.593383220878166751e-03
-1.571048475809617637e-03
-1.542286348489335396e-03
-1.507639354292255544e-03
-1.467721890925764109e-03
-1.423214292246178115e-03
-1.374856007356901584e-03
-1.323438010073855727e-03
-1.269794586574672819e-03
-1.214794490838352328e-03
-1.159331553204619473e-03
-1.104314934053952793e-03
-1.050659035624707405e-03
-9.992732640806329704e-04
-9.510516981049440361e-04
-9.068628510790939512e-04
-8.675395638002318319e-04
-8.338692487506819398e-04
-8.065845647408357482e-04
-7.863546342480725324e-04
-7.737769979779116807e-04
-7.693702749269162085e-04
-7.735677509406220379e-04
-7.867119414402927446e-04
-8.090502567515167089e-04
-8.407317539279810783e-04
-8.818051402539888069e-04
-9.322179981401355897e-04
-9.918172672491172397e-04
-1.060350998219007504e-03
-1.137471370095167545e-03
-1.222738928842230033e-03
-1.315628051413042987e-03
-1.415533509628348488e-03
-1.521778115038882823e-03
-1.633621323590868108e-03
-1.750268675599465397e-03
-1.870882002717490656e-03
-1.994590249419178098e-03
-2.120500707521233430e-03
-2.247710568847832539e-03
-2.375318622470213789e-03
-2.502437003962144132e-03
-2.628202666222391980e-03
-2.751788594446657934e-03
-2.872414509937006467e-03
-2.989356886229469455e-03
-3.101958227178066435e-03
-3.209635383562156174e-03
-3.311886832839412015e-03
-3.408298811413093109e-03
-3.498550191371464693e-03
-3.582416034162762622e-03
-3.659769760859321510e-03
-3.730583937243878417e-03
-3.794929618938041715e-03
-3.852974286850841153e-03
-3.904978349993916149e-03
-3.951290362503996970e-03
-3.992340906264511824e-03
-4.028635332241518180e-03
-4.060745376404559584e-03
-4.089299822063355121e-03
-4.114974348875995343e-03
-4.138480642588748641e-03
-4.160555017747657319e-03
-4.181946665371564890e-03
-4.203405695404344687e-03
-4.225671175977371852e-03
-4.249459306537574539e-03
-4.275451928211862831e-03
-4.304285479600222959e-03
-4.336540640682512091e-03
-4.372732703946901472e-03
-4.413302946742778815e-03
-4.458610943942736479e-03
-4.508928110830979531e-03
-4.564432449542201418e-03
-4.625204643536637121e-03
-4.691225371094772355e-03
-4.762374121197213497e-03
-4.838429301224515811e-03
-4.919069845902287325e-03
-5.003878075916914914e-03
-5.092343875538270399e-03
-5.183870099732389158e-03
-5.277779149433886943e-03
-5.373320508470596363e-03
-5.469679287117703605e-03
-5.565985517673419612e-03
-5.661324162248307368e-03
-5.754745558611563602e-03
-5.845276338824673991e-03
-5.931930554005477967e-03
-6.013720815678465920e-03
-6.089669442111099278e-03
-6.158819367247820101e-03
-6.220244668476732942e-03
-6.273060699013696326e-03
-6.316433557591483172e-03
-6.349588858984498742e-03
-6.371819765387204924e-03
-6.382494096887058981e-03
-6.381060519339293823e-03
-6.367053745305077325e-03
-6.340098684186753868e-03
-6.299913614500700192e-03
-6.246312294309032398e-03
-6.179205018097737832e-03
-6.098598635505096677e-03
-6.004595699202392757e-03
-5.897392579912408457e-03
-5.777276788576462402e-03
-5.644623458598635284e-03
-5.499891146331998409e-03
-5.343616928249101533e-03
-5.176411009756453144e-03
-4.998950818523105466e-03
-4.811974740550762318e-03
-4.616275517986932406e-03
-4.412693487181671391e-03
-4.202109682084092211e-03
-3.985438742256760397e-03
-3.763621982214354102e-03
-3.537620483577615885e-03
-3.308408304879457279e-03
-3.076965933918255312e-03
-2.844273836051261668e-03
-2.611306348960703520e-03
-2.379025867770714116e-03
-2.148377260763105045e-03
-1.920282586680126290e-03
-1.695636240540226557e-03
-1.475300309257198761e-03
-1.260100317216903895e-03
-1.050821227687718249e-03
-8.482037763265826190e-04
-6.529410917666230363e-04
-4.656755994895587733e-04
-2.869962389777353613e-04
-1.174358927166644831e-04
4.253085945958320853e-05
1.924898034259113098e-04
3.320888759318455256e-04
4.610396637210694803e-04
5.791185906542617142e-04
6.861679296204969058e-04
7.820964132840346273e-04
8.668795767095416457e-04
9.405597691005530923e-04
1.003245809940348128e-03
1.055112221222459599e-03
1.096398116260737746e-03
1.127405612392660397e-03
1.148497818243917560e-03
1.160096343122396382e-03
1.162678365723283794e-03
1.156773090635047907e-03
1.142957801486493060e-03
1.121853383295577699e-03
1.094119347107205343e-03
1.060448400736438250e-03
1.021560505412653702e-03
9.781966162114503257e-04
9.311119980544493987e-04
8.810692318551411554e-04
8.288309985955456816e-04
7.751526727872984010e-04
7.207748311023980375e-04
6.664157227251890029e-04
6.127638136017212606e-04
5.604705939522056481e-04
5.101436055380903847e-04
4.623398759535453004e-04
4.175598142003166154e-04
3.762417007571145855e-04
3.387568768149450929e-04
3.054057041712806056e-04
2.764143979222784069e-04
2.519327203775804632e-04
2.320327371272155393e-04
2.167085397684840318e-04
2.058771161244788556e-04
1.993802151048550760e-04
1.969873807891615175e-04
1.984000393839022516e-04
2.032566250882069921e-04
2.111386711156287919e-04
2.215778762598776832e-04
2.340639764088830663e-04
2.480533741304103866e-04
2.629784310250557911e-04
2.782571537651608849e-04
2.933033526398918091e-04
3.075369778758642314e-04
3.203944708119926864e-04
3.313390642126536338e-04
3.398708368491025304e-04
3.455362868554813917e-04
3.479373561226028013e-04
3.467397077146051692e-04
3.416801059792257968e-04
3.325727700178219117e-04
3.193146540395956612e-04
3.018894572709816143e-04
2.803702603608442673e-04
2.549208859219358062e-04
2.257957432675894189e-04
1.933382247087548972e-04
1.579777206566831277e-04
1.202251404290698703e-04
8.066707436241254113e-05
3.995865844696824695e-05
-1.184783718967246920e-06
-4.199716130311869380e-05
-8.167205905127243040e-05
-1.193739565538090049e-04
-1.542500858837653047e-04
-1.854427817006482667e-04
-2.121021245295950876e-04
-2.333985945407207770e-04
-2.485356731903932189e-04
-2.567621429549333785e-04
-2.573838734329715367e-04
-2.497748490135371789e-04
-2.333874123685401056e-04
-2.077614169975430141e-04
-1.725322355132776701e-04
-1.274373527838451798e-04
-7.232157430493566701e-05
-7.140772268230059315e-06
6.803604397493364980e-05
1.530262622216210528e-04
2.475348379841679964e-04
3.511570401737797208e-04
4.633828821731545431e-04
5.836030951058508503e-04
7.111164016792942367e-04
8.451382118184715608e-04
9.848104510854066834e-04
1.129212454672334385e-03
1.277372683060990508e-03
1.428281109830212628e-03
1.580902131448471597e-03
1.734187785330594056e-03
1.887090867022064942e-03
2.038578051635140699e-03
2.187642583914546981e-03
2.333316500343390627e-03
2.474682029137975636e-03
2.610882107401534848e-03
2.741129852972505263e-03
2.864716833943384625e-03
2.981019930604187143e-03
3.089506892945756075e-03
3.189740311723791681e-03
3.281380095845314732e-03
3.364184389546688841e-03
3.438008930195412659e-03
3.502804940727755664e-03
3.558615540633811372e-03
3.605570767917197494e-03
3.643881470485620371e-03
3.673831992375357468e-03
3.695771930130298775e-03
3.710107063837531430e-03
3.717289691012736104e-03
3.717808529444011165e-03
3.712178365993049674e-03
3.700929692950170272e-03
3.684598506402250295e-03
3.663716438239528021e-03
3.638801379807244784e-03
3.610348867936384858e-03
3.578824294600633799e-03
3.544656116107136254e-03
3.508230128719610694e-03
3.469885016460919243e-03
3.429909098218379259e-03
3.388538455987857682e-03
3.345956326446909192e-03
3.302293902098743777e-03
3.257632305515997806e-03
3.212005845723595737e-03
3.165406411647250957e-03
3.117788843864882729e-03
3.069077261921237219e-03
3.019172080694467689e-03
2.967957586898212555e-03
2.915309896530208621e-03
2.861105121075282250e-03
2.805227555713125671e-03
2.747577607494105980e-03
2.688079398180104242e-03
2.626687685152104268e-03
2.563394121024607526e-03
2.498232517581596909e-03
2.431283048081808295e-03
2.362675195388453525e-03
2.292589464856452201e-03
2.221257576012718778e-03
2.148961282663375359e-03
2.076029691254293891e-03
2.002835045563056918e-03
1.929787192357620366e-03
1.857326537463207909e-03
1.785915820433664480e-03
1.716030670562808738e-03
1.648149230803271472e-03
1.582740844699824208e-03
1.520254247602973894e-03
1.461105318036503035e-03
1.405664615489319712e-03
1.354244987746884175e-03
1.307089564306986116e-03
1.264360310914498103e-03
1.226127419083037186e-03
1.192359750125102482e-03
1.162916638838107581e-03
1.137541228654465313e-03
1.115855541612865032e-03
1.097357462630788472e-03
1.081419810758005350e-03
1.067291549718178689e-03
1.054101294969228509e-03
1.040863107118893561e-03
1.026484615599907238e-03
1.009777409918225346e-03
9.894696849721816047e-04
9.642209433415228513e-04
9.326386257065119503e-04
8.932965093306928766e-04
8.447546558000689496e-04
7.855806168897517617e-04
7.143715915853338832e-04
6.297772901784994860e-04
5.305230645401236549e-04
4.154331002112316112e-04
2.834531677835676095e-04
1.336726550660839675e-04
-3.465454007190861243e-05
-2.220906114640723377e-04
-4.289962159240853171e-04
-6.555150390475588751e-04
-9.015607667023664519e-04
-1.166806870354139070e-03
-1.450679255822022277e-03
-1.752352185103249558e-03
-2.070747518460135019e-03
-2.404537349294007340e-03
-2.752150135721154450e-03
-3.111780372109220795e-03
-3.481401719787094364e-03
-3.858783497981101412e-03
-4.241510405751364350e-03
-4.627005259651204190e-03
-5.012554478858168190e-03
-5.395336083586585278e-03
-5.772449796754448685e-03
-6.140948849632853895e-03
-6.497873194492551768e-03
-6.840283612551478244e-03
-7.165296193190721051e-03
-7.470116765138676979e-03
-7.752074909028517681e-03
-8.008656887624920895e-03
-8.237537054397454928e-03
-8.436607459134447956e-03
-8.604004953233247710e-03
-8.738135543255965559e-03
-8.837695589347670938e-03
-8.901689513356561209e-03
-8.929443726946605792e-03
-8.920616580981725538e-03
-8.875204125842472980e-03
-8.793541596780748287e-03
-8.676300596926610209e-03
-8.524481919199898908e-03
-8.339404138003511310e-03
-8.122688192499279841e-03
-7.876238036548204383e-03
-7.602217669884358577e-03
-7.303024884266379711e-03
-6.981262119079145213e-03
-6.639704798923676092e-03
-6.281267707251369549e-03
-5.908969768119482109e-03
-5.525897837673447201e-03
-5.135170007596558464e-03
-4.739898964887999562e-03
-4.343155974916743274e-03
-3.947935939331358862e-03
-3.557124147325655631e-03
-3.173465156225570554e-03
-2.799534280315691456e-03
-2.437711995933066877e-03
-2.090161761582237047e-03
-1.758811451790809072e-03
-1.445338754662268878e-03
-1.151160596529866549e-03
-8.774267232008666493e-04
-6.250175173672381989e-04
-3.945460077234831078e-04
-1.863639462822297844e-04
-5.717699353427780009e-07
1.629677357612532471e-04
3.046125106858376969e-04
4.249212219586514161e-04
5.246307527433269769e-04
6.046315649766813294e-04
6.659414383125940914e-04
7.096781312289901760e-04
7.370314656998317501e-04
7.492354132434314497e-04
7.475407086213393297e-04
7.331885468989822246e-04
7.073858501017832832e-04
6.712826082293185150e-04
6.259517009825420024e-04
5.723715816435586334e-04
5.114122234757896741e-04
4.438244710068656694e-04
3.702331055706477411e-04
2.911337283709750849e-04
2.068934566880387984e-04
1.177553743350156758e-04
2.384674144416607848e-05
-7.480934655811936830e-05
-1.782790362825417685e-04
-2.866998772000491037e-04
-4.002605130396474334e-04
-5.191783147903778145e-04
-6.436754950797703850e-04
-7.739542540767266549e-04
-9.101714525002278094e-04
-1.052413502762862031e-03
-1.200672057043704463e-03
-1.354820988250862940e-03
-1.514595415596779737e-03
-1.679573199541585038e-03
-1.849159425046159686e-03
-2.022574348337024663e-03
-2.198845299610952420e-03
-2.376802667957198141e-03
-2.555080341462484528e-03
-2.732120765391442274e-03
-2.906184626981628098e-03
-3.075365156535536746e-03
-3.237606916725461678e-03
-3.390728948581039643e-03
-3.532451900643654528e-03
-3.660428621264055250e-03
-3.772277923062704059e-03
-3.865620783622563707e-03
-3.938118491773771011e-03
-3.987511993317779599e-03
-4.011661666277584019e-03
-4.008586780875052734e-03
-3.976503913775077462e-03
-3.913863459919801960e-03
-3.819383540661053233e-03
-3.692080454520473703e-03
-3.531295084677123653e-03
-3.336714588582158445e-03
-3.108388711806794619e-03
-2.846740403885204308e-03
-2.552570120807790954e-03
-2.227053794805730017e-03
-1.871734096826334608e-03
-1.488505058493537264e-03
-1.079590041563223196e-03
-6.475133625592150236e-04
-1.950658352834027916e-04
2.747352698304892423e-04
7.586913201479977701e-04
1.253471683916715937e-03
1.755666792780043997e-03
2.261843745454065590e-03
2.768603694764549400e-03
3.272639918995262198e-03
3.770795583277592854e-03
4.260120107783708227e-03
4.737923046014714396e-03
5.201824443420091301e-03
5.649800650895027941e-03
6.080224648344597152e-03
6.491899985467048870e-03
6.884087511608446251e-03
7.256524353764946464e-03
7.609434466919142229e-03
7.943530395342061901e-03
8.260006075985685051e-03
8.560520474787397180e-03
8.847172223455188750e-03
9.122465508068120302e-03
9.389267591846823038e-03
9.650758611476493304e-03
9.910374292142863292e-03
1.017174263358378537e-02
1.043861545073856978e-02
1.071479596166259075e-02
1.100406368010661828e-02
1.131009801385122852e-02
1.163640188188775834e-02
1.198622664689519626e-02
1.236249999571325218e-02
1.276775807122530401e-02
1.320408318229291875e-02
1.367304849686519844e-02
1.417567073607468864e-02
1.471237205121057011e-02
1.528295197445205499e-02
1.588657016639016123e-02
1.652174054253941621e-02
1.718633718005831493e-02
1.787761212071473788e-02
1.859222506964087682e-02
1.932628456567610925e-02
2.007540032866090077e-02
2.083474596809662543e-02
2.159913109221492725e-02
2.236308187049641100e-02
2.312092853683079055e-02
2.386689855672893129e-02
2.459521382391386887e-02
2.530019016518280164e-02
2.597633751950022968e-02
2.661845885452416779e-02
2.722174606693910856e-02
2.778187109546675568e-02
2.829507043610630934e-02
2.875822155150898479e-02
2.916890951787836153e-02
2.952548259253141502e-02
2.982709564573827674e-02
3.007374028692734458e-02
3.026626112997684789e-02
3.040635765482334676e-02
3.049657141480225861e-02
3.054025874675102281e-02
3.054154925839609735e-02
3.050529079534565827e-02
3.043698175068186920e-02
3.034269185452342574e-02
3.022897296340262135e-02
3.010276131434970817e-02
2.997127324331294584e-02
2.984189630541084909e-02
2.972207792412226782e-02
2.961921373752953932e-02
2.954053800675729077e-02
2.949301821589687261e-02
2.948325623095753370e-02
2.951739805046978485e-02
2.960105419625532266e-02
2.973923254436956765e-02
2.993628524168916866e-02
3.019587104246296977e-02
3.052093417082051355e-02
3.091370031763843521e-02
3.137569031911348338e-02
3.190775141331798903e-02
3.251010584534372305e-02
3.318241602211120106e-02
3.392386510813124451e-02
3.473325152045837749e-02
3.560909556631726425e-02
3.654975599093925054e-02
3.755355395596783608e-02
3.861890169595327826e-02
3.974443289820749070e-02
4.092913163295673618e-02
4.217245670962337101e-02
4.347445798053246879e-02
4.483588139654917648e-02
4.625825943091602110e-02
4.774398396434625241e-02
4.929635868096635121e-02
5.091962824202789922e-02
5.261898199134485560e-02
5.440053022840722619e-02
5.627125156710555132e-02
5.823891040010822223e-02
6.031194390467925492e-02
6.249931869440986804e-02
6.481035771540140378e-02
6.725453864023948902e-02
6.984126554374471552e-02
7.257961626486918172e-02
7.547806850076971275e-02
7.854420809053003216e-02
8.178442353762843675e-02
8.520359126536859729e-02
8.880475651854487229e-02
9.258881505785489241e-02
9.655420120418389818e-02
1.006965879854370832e-01
1.050086049833880847e-01
1.094795798351411720e-01
1.140953089294212963e-01
1.188378628584514651e-01
1.236854318852140533e-01
1.286122161614526027e-01
1.335883651550561213e-01
1.385799700930676059e-01
1.435491125215142827e-01
1.484539715794924719e-01
1.532489915596621510e-01
1.578851106520619274e-01
1.623100508848983603e-01
1.664686683613941232e-01
1.703033619412561983e-01
1.737545375975943773e-01
1.767611248040986960e-01
1.792611404630877481e-01
1.811922948679992595e-01
1.824926336821365291e-01
1.831012088207124300e-01
1.829587708542162738e-01
1.820084747405379122e-01
1.801965903940127844e-01
1.774732091700505221e-01
1.737929370166959864e-01
1.691155653575495688e-01
1.634067102019660656e-01
1.566384107360334343e-01
1.487896784906252712e-01
1.398469889454246606e-01
1.298047076815954659e-01
1.186654440902840807e-01
1.064403263042922182e-01
9.314919205480548525e-02
7.882069090839505243e-02
6.349229461451441625e-02
4.721021324612546116e-02
3.002921623615717808e-02
1.201235831855634699e-02
-6.769388174316460886e-03
-2.623759201772170313e-02
-4.630690907308048637e-02
-6.688571048818697795e-02
-8.787678700826126454e-02
-1.091781222004896412e-01
-1.306837265000957982e-01
-1.522845230630593960e-01
-1.738692757386559873e-01
-1.953255485967782812e-01
-2.165406863533183845e-01
-2.374028043435624236e-01
-2.578017766400929611e-01
-2.776302108336114460e-01
-2.967843980429332729e-01
-3.151652271384984827e-01
-3.326790524685929173e-01
-3.492385048687542959e-01
-3.647632365408026711e-01
-3.791805911154189079e-01
-3.924261912865641411e-01
-4.044444373747207444e-01
-4.151889111998902648e-01
-4.246226811109726773e-01
-4.327185049586308452e-01
-4.394589294687017977e-01
-4.448362855074187161e-01
-4.488525801548810534e-01
-4.515192878968775081e-01
-4.528570444176782117e-01
-4.528952477143549649e-01
-4.516715724287523881e-01
-4.492314043849541250e-01
-4.456272031816715384e-01
-4.409178016526729138e-01
-4.351676517302490721e-01
-4.284460266505241144e-01
-4.208261901218302015e-01
-4.123845432526315191e-01
-4.031997601805540343e-01
-3.933519232404634747e-01
-3.829216686138980918e-01
-3.719893527362860830e-01
-3.606342497167457362e-01
-3.489337889065032838e-01
-3.369628415906029129e-01
-3.247930645085767565e-01
-3.124923072479947050e-01
-3.001240894455912689e-01
-2.877471527454457667e-01
-2.754150911374604882e-01
-2.631760624535678939e-01
-2.510725822780009997e-01
-2.391414005884298644e-01
-2.274134601352255092e-01
-2.159139346602190757e-01
-2.046623435540614877e-01
-1.936727389933284582e-01
-1.829539605329222884e-01
-1.725099510137543535e-01
-1.623401273407485690e-01
-1.524397987419473521e-01
-1.428006247972441189e-01
-1.334111049550166794e-01
-1.242570913644548830e-01
-1.153223162867995782e-01
-1.065889256935821788e-01
-9.803801072402588968e-02
-8.965012884830796114e-02
-8.140580710669378939e-02
-7.328602007502806048e-02
-6.527263603812158421e-02
-5.734882547388928803e-02
-4.949942659428528680e-02
-4.171126350177940117e-02
-3.397341357470558265e-02
-2.627742145681054298e-02
-1.861745792602901087e-02
-1.099042287655434096e-02
-3.395992527464385558e-03
4.163388026833604420e-03
1.168256506659399487e-02
1.915378669611921686e-02
2.656685997210815608e-02
3.390935071721266902e-02
4.116682126393834268e-02
4.832310101712225525e-02
5.536058440395732333e-02
6.226055015430873030e-02
6.900349600801518324e-02
7.556948270663656209e-02
8.193848109964935178e-02
8.809071635098270070e-02
9.400700352642595015e-02
9.966906891566428006e-02
1.050598520395211039e-01
1.101637836552644273e-01
1.149670355846166281e-01
1.194577387933905832e-01
1.236261667447714624e-01
1.274648816956079900e-01
1.309688423357706355e-01
1.341354718341878083e-01
1.369646860546724354e-01
1.394588821847205506e-01
1.416228890965505471e-01
1.434638809173777729e-01
1.449912560825232788e-01
1.462164847524011768e-01
1.471529277898034060e-01
1.478156308114745021e-01
1.482210974146509208e-01
1.483870456946281280e-01
1.483321524539639724e-01
1.480757895669226609e-01
1.476377569810062573e-01
1.470380167704634367e-01
1.462964326484208488e-01
1.454325188799304724e-01
1.444652024856599160e-01
1.434126022807653833e-01
1.422918278967193750e-01
1.411188013732133095e-01
1.399081036869551375e-01
1.386728479762771304e-01
1.374245807412829701e-01
1.361732117550877030e-01
1.349269729854696842e-01
1.336924062915230693e-01
1.324743791821905714e-01
1.312761274060165184e-01
1.300993228953459258e-01
1.289441649327600636e-01
1.278094923331839494e-01
1.266929140228063855e-01
1.255909550355480409e-01
1.244992150215277898e-01
1.234125360561790785e-01
1.223251765485012937e-01
1.212309879578679639e-01
1.201235911734539613e-01
1.189965494066051038e-01
1.178435347264077809e-01
1.166584854597763760e-01
1.154357519913056518e-01
1.141702287311839314e-01
1.128574703543518964e-01
1.114937907157934477e-01
1.100763432241237821e-01
1.086031818857711856e-01
1.070733024883869094e-01
1.054866638460545819e-01
1.038441893527198151e-01
1.021477493882191889e-01
1.004001255686376437e-01
9.860495805128426106e-02
9.676667739970312709e-02
9.489042266931284331e-02
9.298194775622171948e-02
9.104751800500913983e-02
8.909379928030018714e-02
8.712774187355216970e-02
8.515646147575089975e-02
8.318711947388306160e-02
8.122680496989503895e-02
7.928242053799103295e-02
7.736057374708184275e-02
7.546747640281556424e-02
7.360885309831620427e-02
7.178986059964305444e-02
7.001501916994729013e-02
6.828815686927949824e-02
6.661236762134561951e-02
6.498998323992932757e-02
6.342255986446108940e-02
6.191087844823996850e-02
6.045495907931199009e-02
5.905408845785452276e-02
5.770685979508416441e-02
5.641122399428618456e-02
5.516455086181056011e-02
5.396369908553867722e-02
5.280509342937515088e-02
5.168480758061557573e-02
5.059865085532379292e-02
4.954225724406812609e-02
4.851117501271844101e-02
4.750095527434004122e-02
4.650723780097773541e-02
4.552583273269187464e-02
4.455279665497853536e-02
4.358450190163484783e-02
4.261769778920192903e-02
4.164956307922220574e-02
4.067774883856273282e-02
3.970041110776883347e-02
3.871623307692113186e-02
3.772443658096930746e-02
3.672478303212271811e-02
3.571756394830226389e-02
3.470358150477577397e-02
3.368411983013804012e-02
3.266090770112627800e-02
3.163607357133872700e-02
3.061209393031969622e-02
2.959173607645008280e-02
2.857799654666942288e-02
2.757403642772188190e-02
2.658311475408267968e-02
2.560852146161552226e-02
2.465351090643244300e-02
2.372123732116511105e-02
2.281469328749045553e-02
2.193665233359229361e-02
2.108961661317646993e-02
2.027577049055072356e-02
1.949694083202398870e-02
1.875456453150727357e-02
1.804966371894898072e-02
1.738282904223710165e-02
1.675421103755817334e-02
1.616351962090940148e-02
1.561003161174515097e-02
1.509260593026291904e-02
1.460970611362671576e-02
1.415942955565149299e-02
1.373954274169207103e-02
1.334752190481960400e-02
1.298059813503614317e-02
1.263580616819588200e-02
1.231003579052475719e-02
1.200008496301242789e-02
1.170271374026578617e-02
1.141469794196310963e-02
1.113288169015215663e-02
1.085422789035432600e-02
1.057586584354180959e-02
1.029513520891026275e-02
1.000962557272551748e-02
9.717211106520674130e-03
9.416079782432808590e-03
9.104756735983538310e-03
8.782121533986901943e-03
8.447419100275225037e-03
8.100264369995602981e-03
7.740640545914233978e-03
7.368891329376224889e-03
6.985707158877347764e-03
6.592106019157262936e-03
6.189409157966747205e-03
5.779212175395486047e-03
5.363352187917426461e-03
4.943871630805745168e-03
4.522979427900777200e-03
4.103010177473521806e-03
3.686382071138201433e-03
3.275554351984307118e-03
2.872984893209714393e-03
2.481088772407763834e-03
2.102198312553717283e-03
1.738525285223588334e-03
1.392125852833239709e-03
1.064868810642575266e-03
7.584074262443899405e-04
4.741553635568929539e-04
2.132669136291442231e-04
-2.337822308810147111e-05
-2.351854807417655478e-04
-4.218512594453624888e-04
-5.833640521694001546e-04
-7.200010295141101840e-04
-8.323201220767530032e-04
-9.211479829255189537e-04
-9.875639763993911396e-04
-1.032880793519393115e-03
-1.058621823052982797e-03
-1.066495850019103268e-03
-1.058369482566721368e-03
-1.036237881848377273e-03
-1.002194183305239348e-03
-9.583982072219164464e-04
-9.070448438264763292e-04
-8.503327171436443578e-04
-7.904335134175302776e-04
-7.294623814445062469e-04
-6.694498487628159104e-04
-6.123156711886000277e-04
-5.598447725320929722e-04
-5.136657530067302753e-04
-4.752320479555273186e-04
-4.458059582838460114e-04
-4.264456774666213900e-04
-4.179954393846199408e-04
-4.210787440537107026e-04
-4.360946323930098008e-04
-4.632170087704000220e-04
-5.023968389864899879e-04
-5.533671549393708250e-04
-6.156506044657290193e-04
-6.885693461078608909e-04
-7.712570975432935568e-04
-8.626730826541209596e-04
-9.616175513260880872e-04
-1.066748609956888342e-03
-1.176600119463864884e-03
-1.289600295887814588e-03
-1.404090761047157567e-03
-1.518345878946170124e-03
-1.630591993584705208e-03
-1.739026241952987663e-03
-1.841834983118539361e-03
-1.937211379474711517e-03
-2.023372064543142810e-03
-2.098572759089421032e-03
-2.161122672266664341e-03
-2.209397571654930954e-03
-2.241851413522963268e-03
-2.257026596782545774e-03
-2.253562671240944091e-03
-2.230203590540040526e-03
-2.185803537388209938e-03
-2.119331270435220130e-03
-2.029873110574899244e-03
-1.916634643385119663e-03
-1.778941209178359559e-03
-1.616237253043105318e-03
-1.428084697349101461e-03
-1.214160462454668679e-03
-9.742531317119822610e-04
-7.082589957161291444e-04
-4.161775933640212170e-04
-9.810674295195374135e-05
2.457626622221353732e-04
6.151520886927147342e-04
1.009700891605999845e-03
1.428971897410595071e-03
1.872456828753820768e-03
2.339581690712877818e-03
2.829711890064519429e-03
3.342157167324070945e-03
3.876176215987309475e-03
4.430980961673549982e-03
5.005740497523371302e-03
5.599584726472290643e-03
6.211607632134475039e-03
6.840870188435215112e-03
7.486402976888565340e-03
8.147208498966305307e-03
8.822263197510702565e-03
9.510519284214218397e-03
1.021090635826111745e-02
1.092233287367480946e-02
1.164368745424676846e-02
1.237384019134717301e-02
1.311164385643222123e-02
1.385593515774865246e-02
1.460553606305950783e-02
1.535925520536523398e-02
1.611588945485115110e-02
1.687422560553375472e-02
1.763304230389083072e-02
1.839111216497110041e-02
1.914720420321738142e-02
1.990008645956068897e-02
2.064852892556571715e-02
2.139130671848332027e-02
2.212720358362273848e-02
2.285501563649982790e-02
2.357355537467711870e-02
2.428165594458197088e-02
2.497817562826679452e-02
2.566200252649918426e-02
2.633205936971651576e-02
2.698730852665448543e-02
2.762675703226964360e-02
2.824946168959456549e-02
2.885453416583913175e-02
2.944114597542305672e-02
3.000853340095464145e-02
3.055600222080039410e-02
3.108293218749163742e-02
3.158878118559242665e-02
3.207308905379504388e-02
3.253548101154169619e-02
3.297567056888076054e-02
3.339346195330061134e-02
3.378875192781199271e-02
3.416153094679718477e-02
3.451188363875125342e-02
3.483998863594760936e-02
3.514611760347418484e-02
3.543063357331738272e-02
3.569398845933015318e-02
3.593671968700603431e-02
3.615944617962137120e-02
3.636286348865847701e-02
3.654773824054321357e-02
3.671490186375864911e-02
3.686524355649608425e-02
3.699970273093072803e-02
3.711926091611152806e-02
3.722493308107543974e-02
3.731775864774924956e-02
3.739879223405374875e-02
3.746909407519872365e-02
3.752972039724122161e-02
3.758171386987227414e-02
3.762609405738336771e-02
3.766384816843312139e-02
3.769592218623821905e-02
3.772321236902728692e-02
3.774655735604608847e-02
3.776673092737628523e-02
3.778443553561525864e-02
3.780029676374559167e-02
3.781485856500896303e-02
3.782857963726139056e-02
3.784183072329492387e-02
3.785489308259644414e-02
3.786795806493350319e-02
3.788112776169375723e-02
3.789441675621901123e-02
3.790775498096139728e-02
3.792099157872302895e-02
3.793389979857642730e-02
3.794618265579201982e-02
3.795747948633079738e-02
3.796737318867812044e-02
3.797539796843900362e-02
3.798104759319399781e-02
3.798378381860988834e-02
3.798304511041122183e-02
3.797825526985969952e-02
3.796883193604553425e-02
3.795419469628403403e-02
3.793377278966302696e-02
3.790701217303196757e-02
3.787338187002896317e-02
3.783237939914056019e-02
3.778353525608778990e-02
3.772641621940046180e-02
3.766062759652764186e-02
3.758581419053327877e-02
3.750166004319244878e-02
3.740788689152011598e-02
3.730425138482740960e-02
3.719054105084344114e-02
3.706656913828530048e-02
3.693216834314112795e-02
3.678718359645615638e-02
3.663146400208554254e-02
3.646485410225851903e-02
3.628718454462243753e-02
3.609826249671075488e-02
3.589786185176684075e-02
3.568571352669425156e-02
3.546149601367505622e-02
3.522482644039778149e-02
3.497525227246961466e-02
3.471224400102267127e-02
3.443518886845960136e-02
3.414338594408012489e-02
3.383604260733968916e-02
3.351227267514580305e-02
3.317109628292562451e-02
3.281144169671464106e-02
3.243214886853471035e-02
3.203197503854359612e-02
3.160960236374302929e-02
3.116364744529061259e-02
3.069267282445111225e-02
3.019520020489331255e-02
2.966972533501611650e-02
2.911473452883491658e-02
2.852872241814834522e-02
2.791021085055642864e-02
2.725776861698691808e-02
2.657003184414256231e-02
2.584572462385617553e-02
2.508367969573404785e-02
2.428285873913642659e-02
2.344237219926760193e-02
2.256149801087691670e-02
2.163969912414763844e-02
2.067663945596168174e-02
1.967219791990715283e-02
1.862648042689660915e-02
1.753982942648956919e-02
1.641283089332209663e-02
1.524631854004748939e-02
1.404137505921608173e-02
1.279933038275054939e-02
1.152175682005724712e-02
1.021046108453880531e-02
8.867473272493323760e-03
7.495032789859032776e-03
6.095571497032365935e-03
4.671694117695116347e-03
3.226156063981816362e-03
1.761839104936383871e-03
2.817251051975997941e-04
-1.211131904896705584e-03
-2.713634830891523912e-03
-4.222673541119597619e-03
-5.735155287683221456e-03
-7.248035222613935860e-03
-8.758346525086380813e-03
-1.026322966609337188e-02
-1.175996045656759088e-02
-1.324597639638821350e-02
-1.471890097314307311e-02
-1.617656555964072998e-02
-1.761702856634664999e-02
-1.903859146796738760e-02
-2.043981159275586046e-02
-2.181951127201775531e-02
-2.317678336677312170e-02
-2.451099296933552732e-02
-2.582177520573499321e-02
-2.710902917639488111e-02
-2.837290809548186424e-02
-2.961380574865540849e-02
-3.083233945588121153e-02
-3.202932970127372880e-02
-3.320577678545037076e-02
-3.436283474316371989e-02
-3.550178305530429096e-02
-3.662399639115199168e-02
-3.773091297181664638e-02
-3.882400182334876104e-02
-3.990472966253034298e-02
-4.097452772677474819e-02
-4.203475909408588979e-02
-4.308668704600519123e-02
-4.413144484144331664e-02
-4.517000748028292267e-02
-4.620316591548119523e-02
-4.723150403623654903e-02
-4.825537887895767208e-02
-4.927490418433659591e-02
-5.028993785016930979e-02
-5.130007336290517972e-02
-5.230463536539985137e-02
-5.330267950642439412e-02
-5.429299645493539800e-02
-5.527412026285331847e-02
-5.624434084597963734e-02
-5.720172045857439130e-02
-5.814411395646492536e-02
-5.906919248606586070e-02
-5.997447042202299489e-02
-6.085733501545746021e-02
-6.171507841412430390e-02
-6.254493159408870684e-02
-6.334409965239744256e-02
-6.410979801844073067e-02
-6.483928900599474077e-02
-6.552991818492749643e-02
-6.617915001869165148e-02
-6.678460222715695838e-02
-6.734407850780010918e-02
-6.785559888929842964e-02
-6.831742750515652773e-02
-6.872809718754616104e-02
-6.908643063051321531e-02
-6.939155777339296727e-02
-6.964292917713368891e-02
-6.984032510637450120e-02
-6.998386024986925913e-02
-7.007398406241212296e-02
-7.011147663008820974e-02
-7.009744019443921170e-02
-7.003328641573318414e-02
-6.992071952369088850e-02
-6.976171572644973562e-02
-6.955849913467600232e-02
-6.931351450834292993e-02
-6.902939729753616860e-02
-6.870894137835945048e-02
-6.835506493968465658e-02
-6.797077512675903099e-02
-6.755913179235766008e-02
-6.712321105682099442e-02
-6.666606906520763931e-02
-6.619070654412409493e-02
-6.570003464875241728e-02
-6.519684248671873961e-02
-6.468376695231348172e-02
-6.416326509350124552e-02
-6.363758953064600765e-02
-6.310876712481509887e-02
-6.257858130582931444e-02
-6.204855815185405382e-02
-6.151995644337299174e-02
-6.099376172056427542e-02
-6.047068446889775767e-02
-5.995116233493575503e-02
-5.943536627319748883e-02
-5.892321043791870494e-02
-5.841436573788370834e-02
-5.790827669389993909e-02
-5.740418131448611627e-02
-5.690113366535255041e-02
-5.639802865887109939e-02
-5.589362872632012286e-02
-5.538659187593975020e-02
-5.487550079246483747e-02
-5.435889235845303702e-02
-5.383528726742915077e-02
-5.330321910250344908e-02
-5.276126269862423113e-02
-5.220806107400947915e-02
-5.164235073197508824e-02
-5.106298482997220084e-02
-5.046895404207929481e-02
-4.985940477605520227e-02
-4.923365443056503671e-02
-4.859120355766276961e-02
-4.793174486800768491e-02
-4.725516892880261832e-02
-4.656156651266570717e-02
-4.585122771536080666e-02
-4.512463783645203480e-02
-4.438247024197974205e-02
-4.362557628009802735e-02
-4.285497263152180519e-02
-4.207182621160506647e-02
-4.127743698098657044e-02
-4.047321907686702441e-02
-3.966068049028149967e-02
-3.884140169384935060e-02
-3.801701364826330642e-02
-3.718917555519093976e-02
-3.635955266554400517e-02
-3.552979461791763716e-02
-3.470151461750848459e-02
-3.387626972231570083e-02
-3.305554265151025573e-02
-3.224072536891527119e-02
-3.143310456241361212e-02
-3.063384939961702469e-02
-2.984400165602372687e-02
-2.906446819080453839e-02
-2.829601606638932482e-02
-2.753927017235250838e-02
-2.679471342871260139e-02
-2.606268936934085997e-02
-2.534340709609443631e-02
-2.463694849643113458e-02
-2.394327741610020877e-02
-2.326225062023404289e-02
-2.259363038149530406e-02
-2.193709822921642572e-02
-2.129226970968075075e-02
-2.065870986455719052e-02
-2.003594905868456844e-02
-1.942349876749363199e-02
-1.882086721972413279e-02
-1.822757444539793020e-02
-1.764316640350337140e-02
-1.706722807605266790e-02
-1.649939520248884864e-02
-1.593936441270815338e-02
-1.538690158728534679e-02
-1.484184850320785162e-02
-1.430412728149113750e-02
-1.377374285837011832e-02
-1.325078342007966758e-02
-1.273541868368566893e-02
-1.222789618528263671e-02
-1.172853561337300864e-02
-1.123772139372349564e-02
-1.075589364907105980e-02
-1.028353761039165447e-02
-9.821171860034972126e-03
-9.369335633482170703e-03
-8.928575380767399608e-03
-8.499430765208010330e-03
-8.082420603495257122e-03
-7.678028850423994182e-03
-7.286691086316821400e-03
-6.908781530637135918e-03
-6.544601037525026206e-03
-6.194366312585308960e-03
-5.858200471387879291e-03
-5.536125189306211579e-03
-5.228054586368047207e-03
-4.933791060903733317e-03
-4.653023142239978531e-03
-4.385325271522166543e-03
-4.130159768200838445e-03
-3.886880809993221476e-03
-3.654740492061370888e-03
-3.432896703455339069e-03
-3.220422886954502160e-03
-3.016319444661838545e-03
-2.819526591577005414e-03
-2.628938370310061196e-03
-2.443417771523178055e-03
-2.261812550816834182e-03
-2.082971532056702817e-03
-1.905761079582545805e-03
-1.729081440612238903e-03
-1.551882773240658223e-03
-1.373180527353389359e-03
-1.192069723676355197e-03
-1.007738184634473936e-03
-8.194783122328602298e-04
-6.266971201926203492e-04
-4.289245317162909666e-04
-2.258196856032710015e-04
-1.717511852280657712e-05
1.970812646901994654e-04
4.168864556503854707e-04
6.420448093824299282e-04
8.722327602614566742e-04
1.107005705645712533e-03
1.345806939769663086e-03
1.587978409574073747e-03
1.832773266231854702e-03
2.079369957262358973e-03
2.326887581257266850e-03
2.574402243812882150e-03
2.820964214397203140e-03
3.065615599253042420e-03
3.307408157472145529e-03
3.545420963211025345e-03
3.778777734100573389e-03
4.006663401124757259e-03
4.228339655122577943e-03
4.443159281429705405e-03
4.650578980855150403e-03
4.850170386839353087e-03
5.041629251965074401e-03
5.224782522511330074e-03
5.399593108176518365e-03
5.566162412568961132e-03
5.724730515534494357e-03
5.875673938613999552e-03
6.019501005667926216e-03
6.156844972926219482e-03
6.288454928044861190e-03
6.415184625674781073e-03
6.537979409403885112e-03
6.657861523481248961e-03
6.775913889271362005e-03
6.893262683981792038e-03
7.011058979952256194e-03
7.130459777805372643e-03
7.252608676014570509e-03
7.378616516396026802e-03
7.509542273184638232e-03
7.646374589373668845e-03
7.790014110700337405e-03
7.941257044877317317e-03
8.100780077545529159e-03
8.269127027787105330e-03
8.446697334277084718e-03
8.633736617277214948e-03
8.830329424655725123e-03
9.036394408931076178e-03
9.251681877160857284e-03
9.475773769798655211e-03
9.708086178836462452e-03
9.947874298060750339e-03
1.019423970636715651e-02
1.044613996148742625e-02
1.070240034202247364e-02
1.096172746616290786e-02
1.122272472395693943e-02
1.148390920044209396e-02
1.174372989777091279e-02
1.200058702294456124e-02
1.225285188915513357e-02
1.249888732891133412e-02
1.273706814790123883e-02
1.296580158400595546e-02
1.318354718575437748e-02
1.338883601831998386e-02
1.358028880217881582e-02
1.375663286198306086e-02
1.391671757513096401e-02
1.405952811907175762e-02
1.418419736160018811e-02
1.429001570791874412e-02
1.437643884230787976e-02
1.444309319638847379e-02
1.448977923617037963e-02
1.451647236930612636e-02
1.452332165306437911e-02
1.451064622394282640e-02
1.447892962072404657e-02
1.442881210239376627e-02
1.436108112426109744e-02
1.427666002565671291e-02
1.417659522879277136e-02
1.406204212168400344e-02
1.393424982922886711e-02
1.379454519018587927e-02
1.364431605804732918e-02
1.348499423421346474e-02
1.331803832980963526e-02
1.314491667992800927e-02
1.296709061545688220e-02
1.278599831166678073e-02
1.260303936520321653e-02
1.241956039961874050e-02
1.223684177416102872e-02
1.205608556043301013e-02
1.187840491775060681e-02
1.170481492694870618e-02
1.153622503788429357e-02
1.137343310014739609e-02
1.121712100833205904e-02
1.106785195626228298e-02
1.092606932685587229e-02
1.079209712166417229e-02
1.066614178018043466e-02
1.054829538434840647e-02
1.043854013607741979e-02
1.033675389394182222e-02
1.024271674680764070e-02
1.015611843817446416e-02
1.007656643251957085e-02
1.000359453029629579e-02
9.936671832712467775e-03
9.875211922474237680e-03
9.818582198800291511e-03
9.766113087711202762e-03
9.717107084706785858e-03
9.670847462098215372e-03
9.626606601584429199e-03
9.583653900662512590e-03
9.541263025596985817e-03
9.498718655775123185e-03
9.455322509383922575e-03
9.410398745889194533e-03
9.363298729239176790e-03
9.313405072093574461e-03
9.260135180412141023e-03
9.202944149274652763e-03
9.141327132882234169e-03
9.074821238519827429e-03
9.003007061081312254e-03
8.925509843293809656e-03
8.842000382059867283e-03
8.752195761865670318e-03
8.655859909578686798e-03
8.552804210912614419e-03
8.442888019714139131e-03
8.326019255459032875e-03
8.202155086129979053e-03
8.071302754161954057e-03
7.933520518384624617e-03
7.788918692798694858e-03
7.637660855320150752e-03
7.479965147550374574e-03
7.316105607111600406e-03
7.146413536289569941e-03
6.971278818039197168e-03
6.791151104376286739e-03
6.606540822019486489e-03
6.418019863880603838e-03
6.226221887547112727e-03
6.031842173109798998e-03
5.835636876680191064e-03
5.638421693808889044e-03
5.441069722162114597e-03
5.244508573808257142e-03
5.049716515292280300e-03
4.857717753325496712e-03
4.669576757156086895e-03
4.486391555894496397e-03
4.309286055018984873e-03
4.139401329653413092e-03
3.977886105571694537e-03
3.825886226456281375e-03
3.684533396719166885e-03
3.554933194270487855e-03
3.438152544796439173e-03
3.335206701844277855e-03
3.247045993449374033e-03
3.174542408604790877e-03
3.118476329952228100e-03
3.079523496638311014e-03
3.058242440687945415e-03
3.055062562396501213e-03
3.070273179841545835e-03
3.104013562338943290e-03
3.156264320188770234e-03
3.226840262518996041e-03
3.315384866395751796e-03
3.421366572265396432e-03
3.544076996841644990e-03
3.682631224860256729e-03
3.835970193756892219e-03
4.002865277294989470e-03
4.181925054708094357e-03
4.371604337145887885e-03
4.570215330810238445e-03
4.775940903380898085e-03
4.986849813309898391e-03
5.200913799821681692e-03
5.416026329562730404e-03
5.630022861754107460e-03
5.840702346327229615e-03
6.045849694800755833e-03
6.243258933285141671e-03
6.430756903373913147e-03
6.606227037408468790e-03
6.767632879129302330e-03
6.913041180913754441e-03
7.040644173937349315e-03
7.148780684176627223e-03
7.235955805471963077e-03
7.300858882984124533e-03
7.342379459501027945e-03
7.359620958682362539e-03
7.351912006258229555e-03
7.318815022053540634e-03
7.260132056125870315e-03
7.175907755460041344e-03
7.066429312587932908e-03
6.932223386780326027e-03
6.774050050097188760e-03
6.592893787955797676e-03
6.389951645160566948e-03
6.166618646140979709e-03
5.924470723238896980e-03
5.665245307397571116e-03
5.390819811275792024e-03
5.103188429425736111e-03
4.804437345518698665e-03
4.496718882508925555e-03
4.182224813143026014e-03
3.863159303303984916e-03
3.541711717298586751e-03
3.220029860823278231e-03
2.900193803536381659e-03
2.584190817291030524e-03
2.273891709728853485e-03
1.971028872818289535e-03
1.677176390959322916e-03
1.393732477530824302e-03
1.121904423299550533e-03
8.626963188420555496e-04
6.168997181847507821e-04
3.850873121048650045e-04
1.676097431898145268e-04
-3.540444670276584357e-05
-2.240457419081869040e-04
-3.986174981710602122e-04
-5.596268522098222674e-04
-7.077727559447317919e-04
-8.439314808606514489e-04
-9.691396591757984102e-04
-1.084575240791570442e-03
-1.191536626197493148e-03
-1.291420284733372668e-03
-1.385697198755885852e-03
-1.475888547245205601e-03
-1.563540941782086326e-03
-1.650201553749074384e-03
-1.737393632069400562e-03
-1.826592640748796398e-03
-1.919203452423593565e-03
-2.016538886308120223e-03
-2.119799947053999361e-03
-2.230058007317934927e-03
-2.348239212611910945e-03
-2.475111292868093817e-03
-2.611273038509970713e-03
-2.757146461502112383e-03
-2.912971784695737518e-03
-3.078805378998694404e-03
-3.254520532298371509e-03
-3.439811087452053929e-03
-3.634197841540205611e-03
-3.837037559292612397e-03
-4.047534500914712688e-03
-4.264754158794056838e-03
-4.487639070268339622e-03
-4.715026333329456684e-03
-4.945666620820050353e-03
-5.178244363613295105e-03
-5.411398726052575256e-03
-5.643745087679158563e-03
-5.873896691115347221e-03
-6.100486069506712468e-03
-6.322185897233685049e-03
-6.537729055884476670e-03
-6.745927520431026919e-03
-6.945689800543154886e-03
-7.136036691005384104e-03
-7.316114962856436373e-03
-7.485209033539688868e-03
-7.642750308207404281e-03
-7.788324091477029192e-03
-7.921673959104612306e-03
-8.042703574502173269e-03
-8.151475992067069160e-03
-8.248210424901631851e-03
-8.333276486371204300e-03
-8.407186200493303035e-03
-8.470583810920881071e-03
-8.524233524892763786e-03
-8.569005510896249983e-03
-8.605860382896826991e-03
-8.635832308824411760e-03
-8.660011224447837497e-03
-8.679524293640208596e-03
-8.695516900571903865e-03
-8.709133583913192950e-03
-8.721499138705143470e-03
-8.733700152178815179e-03
-8.746767418908519762e-03
-8.761659279165844721e-03
-8.779246269503533304e-03
-8.800297274987808893e-03
-8.825467415169303484e-03
-8.855287774888111890e-03
-8.890157123516572932e-03
-8.930335725776252648e-03
-8.975941417321192661e-03
-9.026947799658241109e-03
-9.083184703302526683e-03
-9.144340751574012160e-03
-9.209968076762820727e-03
-9.279489024275821077e-03
-9.352204665921676555e-03
-9.427305090612002683e-03
-9.503881106640349810e-03
-9.580937340667696617e-03
-9.657406373692081075e-03
-9.732163759681805582e-03
-9.804043562055837768e-03
-9.871854310991249465e-03
-9.934395027666961114e-03
-9.990471138630732661e-03
-1.003890996736283604e-02
-1.007857562279269870e-02
-1.010838304159951406e-02
-1.012731101833389859e-02
-1.013441403032682049e-02
-1.012883271114396570e-02
-1.010980282695158640e-02
-1.007666272023639148e-02
-1.002885907445712384e-02
-9.965951013427653757e-03
-9.887612469159288292e-03
-9.793632951452461988e-03
-9.683916660291176648e-03
-9.558480020428956545e-03
-9.417447736110699102e-03
-9.261047582831069547e-03
-9.089603929978344252e-03
-8.903530267726278424e-03
-8.703320829481201240e-03
-8.489541564861894860e-03
-8.262820549261102460e-03
-8.023838152223338252e-03
-7.773317038150732647e-03
-7.512012186254800848e-03
-7.240701192445033428e-03
-6.960174969669807518e-03
-6.671228991274355535e-03
-6.374655326356027177e-03
-6.071235323909786492e-03
-5.761733324148775315e-03
-5.446891343186577826e-03
-5.127424801582270396e-03
-4.804019372821969995e-03
-4.477328832728574501e-03
-4.147973988609498196e-03
-3.816542728824814327e-03
-3.483590929518901470e-03
-3.149644275247998060e-03
-2.815200878177511086e-03
-2.480734530810678462e-03
-2.146698484673044589e-03
-1.813529622721266618e-03
-1.481652859983274232e-03
-1.151485700085149626e-03
-8.234425995561172858e-04
-4.979391894209901550e-04
-1.753960911372422834e-04
1.437577741409999470e-04
4.590824616457707982e-04
7.701251042130326024e-04
1.076418837124178780e-03
1.377482618753835897e-03
1.672822039254660744e-03
1.961931133709534855e-03
2.244295236781387350e-03
2.519394859884384937e-03
2.786710517925937349e-03
3.045728394162638877e-03
3.295946853488727728e-03
3.536883641813138874e-03
3.768083790206435205e-03
3.989127840000229394e-03
4.199640356336235836e-03
4.399298554324409562e-03
4.587840828541048417e-03
4.765075017316900211e-03
4.930886140493276511e-03
5.085243591032245422e-03
5.228207456087245568e-03
5.359933738948823891e-03
5.480678459500692816e-03
5.590800428502996910e-03
5.690762511360511477e-03
5.781131351466402106e-03
5.862575440938826328e-03
5.935861433664727134e-03
6.001848792284810406e-03
6.061482625450320856e-03
6.115784854265455227e-03
6.165843767956188937e-03
6.212801972188024963e-03
6.257842950910175693e-03
6.302176336441455903e-03
6.347022110310017104e-03
6.393593942024528194e-03
6.443081824861797598e-03
6.496634359352996407e-03
6.555340859124545588e-03
6.620213655513996175e-03
6.692170721416863637e-03
6.772019081544178309e-03
6.860439132154422248e-03
6.957970319326777647e-03
7.064998282443358049e-03
7.181743737809193062e-03
7.308253438907562002e-03
7.444393242068150784e-03
7.589843629238568132e-03
7.744097723107747425e-03
7.906461979922611849e-03
8.076059565091685266e-03
8.251836404575706510e-03
8.432570042303598468e-03
8.616881132631705811e-03
8.803247491659964633e-03
8.990020715308189025e-03
9.175444884176205823e-03
9.357677519391939189e-03
9.534812223060825168e-03
9.704902900185847364e-03
9.865989206091406449e-03
1.001612284997583334e-02
1.015339443044723997e-02
1.027596047492903078e-02
1.038207019363688276e-02
1.047009164091897496e-02
1.053853684201419907e-02
1.058608555712721618e-02
1.061160732490170309e-02
1.061418134069223862e-02
1.059311393172859828e-02
1.054795330237316003e-02
1.047850134854707432e-02
1.038482220954810298e-02
1.026724744867827527e-02
1.012637769027160788e-02
9.963080662337683857e-03
9.778485569242765726e-03
9.573973931644183186e-03
9.351166707391585578e-03
9.111908019927181593e-03
8.858245692109472866e-03
8.592408643430589354e-03
8.316781556092774780e-03
8.033877087188208074e-03
7.746305861943789117e-03
7.456744812690623524e-03
7.167904166556941098e-03
6.882493565574879409e-03
6.603187779754464068e-03
6.332592430722841677e-03
6.073210204938241617e-03
5.827408091056677023e-03
5.597386046531520158e-03
5.385147601539568875e-03
5.192472759146062912e-03
5.020893602321588670e-03
4.871672989051546027e-03
4.745786631014310350e-03
4.643908859956483171e-03
4.566402319551909027e-03
4.513311679118585037e-03
4.484361569337949258e-03
4.478958777336998487e-03
4.496198663127743550e-03
4.534875811030300921e-03
4.593498715063642525e-03
4.670308362317386781e-03
4.763300537712399606e-03
4.870251426511815369e-03
4.988746290789653273e-03
5.116210816250067912e-03
5.249944713154303284e-03
5.387157110808072843e-03
5.525003303501914258e-03
5.660622284473127049e-03
5.791174572931571604e-03
5.913879819868571829e-03
6.026053774817652711e-03
6.125143965224329710e-03
6.208763674416397683e-03
6.274723669406057774e-03
6.321061475691351107e-03
6.346067430379792942e-03
6.348307509541749154e-03
6.326642307785827583e-03
6.280242239900763433e-03
6.208598549318549917e-03
6.111529890381684274e-03
5.989184634239645005e-03
5.842038761540208416e-03
5.670889375277814171e-03
5.476843900606149021e-03
5.261305211318465305e-03
5.025952892136156813e-03
4.772720851104646222e-03
4.503771594698546647e-03
4.221467630518590045e-03
3.928340255226927917e-03
3.627056279653628843e-03
3.320383184344228786e-03
3.011153085573616689e-03
2.702226068446078946e-03
2.396453389834087531e-03
2.096641050217409874e-03
1.805514267540830236e-03
1.525683249976878724e-03
1.259610831433330370e-03
1.009582310118253747e-03
7.776778864973577822e-04
5.657481701851895407e-04
3.753929158773152861e-04
2.079433605215274920e-04
6.444830310636970544e-05
-5.433593211307927471e-05
-1.479514857953527908e-04
-2.162409361224210656e-04
-2.593452261575064774e-04
-2.776977107121038411e-04
-2.720143596992850073e-04
-2.432802983846148019e-04
-1.927330715119454261e-04
-1.218427545093057044e-04
-3.228925576606897729e-05
7.406269847067158325e-05
1.951906978740617954e-04
3.289433553476572760e-04
4.730702337676154765e-04
6.252524426705398418e-04
7.831336059691091853e-04
9.443506753244082074e-04
1.106564130815600091e-03
1.267487243817545664e-03
1.424913929503660980e-03
1.576744813523225279e-03
1.721011223744999897e-03
1.855896900505775524e-03
1.979756948575757489e-03
2.091133899903085437e-03
2.188770863174171934e-03
2.271621440604725591e-03
2.338856457140148920e-03
2.389867455063196273e-03
2.424266971027622900e-03
2.441885761245532298e-03
2.442766929629665209e-03
2.427157275157442069e-03
2.395496010673513285e-03
2.348401114450407445e-03
2.286653489201610680e-03
2.211179412674952119e-03
2.123031443646444284e-03
2.023368249773288205e-03
1.913433537929201157e-03
1.794534588436296841e-03
1.668020759347864411e-03
1.535262120212095831e-03
1.397628741062634586e-03
1.256470844245264392e-03
1.113100221340151182e-03
9.687730572562184596e-04
8.246744105466833046e-04
6.819046791267754275e-04
5.414680382683354680e-04
4.042631503996650818e-04
2.710760535969845213e-04
1.425754216842158213e-04
1.931016004865013773e-05
-9.829072786585129988e-05
-2.099161250753558213e-04
-3.153685944896059872e-04
-4.145582902213001551e-04
-5.074950768386431469e-04
-5.942790698596978538e-04
-6.750899169121149469e-04
-7.501749222205350088e-04
-8.198363608862281300e-04
-8.844183587784112651e-04
-9.442934619348457553e-04
-9.998492146196596379e-04
-1.051475087078755297e-03
-1.099549974008543537e-03
-1.144430538209544089e-03
-1.186440595514869382e-03
-1.225861815722522480e-03
-1.262925916964275589e-03
-1.297808438004835647e-03
-1.330624302797657260e-03
-1.361425209018652304e-03
-1.390198948462777542e-03
-1.416870579197531494e-03
-1.441305546681666012e-03
-1.463314639640720229e-03
-1.482660684094788640e-03
-1.499066820892849860e-03
-1.512226241628228255e-03
-1.521813224733267050e-03
-1.527495188516539860e-03
-1.528945532419389696e-03
-1.525857062466355694e-03
-1.517955655289026035e-03
-1.505013896482776392e-03
-1.486864441776354715e-03
-1.463412795497261469e-03
-1.434649167468569474e-03
-1.400659216892768998e-03
-1.361633413334827200e-03
-1.317874672471074397e-03
-1.269804185527220134e-03
-1.217965229866391219e-03
-1.163024750083494581e-03
-1.105772598215094740e-03
-1.047118398379644037e-03
-9.880859883461660682e-04
-9.298053746777160643e-04
-8.735022919569157421e-04
-8.204855203732348747e-04
-7.721319540723811138e-04
-7.298696350301176437e-04
-6.951589851660581890e-04
-6.694724377819235087e-04
-6.542727686386909033e-04
-6.509904505108979550e-04
-6.610002959427643474e-04
-6.855978237618589937e-04
-7.259756177987385052e-04
-7.832001168295478358e-04
-8.581891579188303349e-04
-9.516907665544382423e-04
-1.064263406295994649e-03
-1.196258117923171185e-03
-1.347802905151174874e-03
-1.518789678450045482e-03
-1.708863961750620468e-03
-1.917417665630336476e-03
-2.143585159555091296e-03
-2.386242736591355842e-03
-2.644011636532502419e-03
-2.915264667521097735e-03
-3.198136445965009574e-03
-3.490537156313229875e-03
-3.790169823392909327e-03
-4.094550879469767597e-03
-4.401033888202352320e-03
-4.706836136879527510e-03
-5.009067738212392984e-03
-5.304762970598121165e-03
-5.590913399679390584e-03
-5.864502548691366383e-03
-6.122541378143450154e-03
-6.362104275748541558e-03
-6.580365067688348328e-03
-6.774632499419242122e-03
-6.942384680912246954e-03
-7.081302023096583929e-03
-7.189298206590977180e-03
-7.264548688685294568e-03
-7.305516257275094204e-03
-7.310973312561535806e-03
-7.280020497432058979e-03
-7.212101343453207990e-03
-7.107012671860786848e-03
-6.964910556266207080e-03
-6.786311729944329539e-03
-6.572090376921196561e-03
-6.323470249838094095e-03
-6.042012138456068909e-03
-5.729596916207243748e-03
-5.388404370566422449e-03
-5.020887985663661721e-03
-4.629746114687296674e-03
-4.217889841022849293e-03
-3.788407998290898443e-03
-3.344529867861449537e-03
-2.889586014620418569e-03
-2.426967896402828194e-03
-1.960086794274299316e-03
-1.492332611567384918e-03
-1.027033262241961765e-03
-5.674151581556051904e-04
-1.165654677050499748e-04
3.226033853184218374e-04
7.473863819131808250e-04
1.155315239846264885e-03
1.544183972080704530e-03
1.912070320659799367e-03
2.257352732152629986e-03
2.578722519887673582e-03
2.875191145462627218e-03
3.146092504842343349e-03
3.391080213446883308e-03
3.610119880559249390e-03
3.803476609615118447e-03
3.971697849751855414e-03
4.115592004859813455e-03
4.236203147473209009e-03
4.334782270625879043e-03
4.412755583917309446e-03
4.471690463988366344e-03
4.513259587695000671e-03
4.539203957643004293e-03
4.551295476555746594e-03
4.551299735487657726e-03
4.540939679746680731e-03
4.521860851312849150e-03
4.495598874667517189e-03
4.463549653295553754e-03
4.426943063574384496e-03
4.386820500228611613e-03
4.344016706551307068e-03
4.299146362995378765e-03
4.252595609548662052e-03
4.204518757705999477e-03
4.154840297168073057e-03
4.103262162370855358e-03
4.049276111104450383e-03
3.992181189745367884e-03
3.931105812161090826e-03
3.865034247315447900e-03
3.792836901609474964e-03
3.713303849890923092e-03
3.625181090079766019e-03
3.527208767357797523e-03
3.418160745485722581e-03
3.296884510338525271e-03
3.162340852078632508e-03
3.013642514046531440e-03
2.850090881060954665e-03
2.671209991777244875e-03
2.476777201718389273e-03
2.266849747311631448e-03
2.041786489989155882e-03
1.802264482259146932e-03
1.549289771557647985e-03
1.284202090265941336e-03
1.008673217900806418e-03
7.246988160406777051e-04
4.345837488625238000e-04
1.409208849831846072e-04
-1.534362325355055666e-04
-4.454066865394086809e-04
-7.317208047156793403e-04
-1.008963728358076850e-03
-1.273623168415635373e-03
-1.522140633174237385e-03
-1.750965185357280900e-03
-1.956608927937988039e-03
-2.135703250305920169e-03
-2.285054730472283260e-03
-2.401699845238374712e-03
-2.482957315379587509e-03
-2.526477296810954783e-03
-2.530286263903765674e-03
-2.492826771402677916e-03
-2.412991291361070434e-03
-2.290149368198095281e-03
-2.124167455329901109e-03
-1.915420952199215886e-03
-1.664798044812507540e-03
-1.373695136915539751e-03
-1.044003739097144326e-03
-6.780889064255126407e-04
-2.787594622577170274e-04
1.507696552852131418e-04
6.069223984486850441e-04
1.085813345648102080e-03
1.583305295072532726e-03
2.095071866690364874e-03
2.616664105164874955e-03
3.143579917612458318e-03
3.671335224258552663e-03
4.195535588740072555e-03
4.711947002262382306e-03
5.216564693675841517e-03
5.705678629150526433e-03
6.175934512633255401e-03
6.624389146206844867e-03
7.048559089030808147e-03
7.446461733514296751e-03
7.816647874836985324e-03
8.158225153568768664e-03
8.470871846129983396e-03
8.754840630839644255e-03
9.010952232474760820e-03
9.240578773754289099e-03
9.445617215474459358e-03
9.628453238109360712e-03
9.791916000540730122e-03
9.939224745251232229e-03
1.007392798690611747e-02
1.019983634164461569e-02
1.032095026645527165e-02
1.044138394963172248e-02
1.056528675477479660e-02
1.069676366469012735e-02
1.083979627232924126e-02
1.099816572233772508e-02
1.117537915027528965e-02
1.137460095831439519e-02
1.159859041921930747e-02
1.184964675078822340e-02
1.212956282767208536e-02
1.243958856261013352e-02
1.278040456232276689e-02
1.315210695690560185e-02
1.355420357757859684e-02
1.398562179254077102e-02
1.444472791722571647e-02
1.492935799021754932e-02
1.543685938555454037e-02
1.596414263193966440e-02
1.650774248487808446e-02
1.706388711662697871e-02
1.762857423718188279e-02
1.819765266917496710e-02
1.876690782901093910e-02
1.933214946791703831e-02
1.988929999179619643e-02
2.043448153065730716e-02
2.096410008681407269e-02
2.147492499058922810e-02
2.196416205131843449e-02
2.242951888104641883e-02
2.286926092554217999e-02
2.328225697852300685e-02
2.366801319002729068e-02
2.402669472751525065e-02
2.435913447188704783e-02
2.466682844635482638e-02
2.495191799668606408e-02
2.521715887167236270e-02
2.546587766183149026e-02
2.570191657494830598e-02
2.592956741898037529e-02
2.615349604839153561e-02
2.637865896084673825e-02
2.661021361137294594e-02
2.685342441677725581e-02
2.711356645990492184e-02
2.739582895598854581e-02
2.770522073740066399e-02
2.804647993533556163e-02
2.842398992342781705e-02
2.884170373143383689e-02
2.930307873536158736e-02
2.981102349160261872e-02
3.036785828475565066e-02
3.097529064152407946e-02
3.163440683542346338e-02
3.234568011512885949e-02
3.310899599427918200e-02
3.392369461827281912e-02
3.478862972438623302e-02
3.570224352244100174e-02
3.666265625178000143e-02
3.766776892022655893e-02
3.871537731520409420e-02
3.980329497108724135e-02
4.092948263619806959e-02
4.209218149864010078e-02
4.329004691409014949e-02
4.452227953980750219e-02
4.578875061383362588e-02
