-9.828314077830219587e-04
-9.825784778087374646e-04
-9.873360339199572372e-04
-9.973045216874626157e-04
-1.012475879382041238e-03
-1.032628370865776302e-03
-1.057325931424408973e-03
-1.085922084833150069e-03
-1.117568460714198336e-03
-1.151227946677938407e-03
-1.185692206899086531e-03
-1.219603343501825601e-03
-1.251479392520775651e-03
-1.279743356440716422e-03
-1.302755127721584669e-03
-1.318845809318395634e-03
-1.326353838612673395e-03
-1.323662218926012274e-03
-1.309236199503746719e-03
-1.281660625633773958e-03
-1.239676224075170847e-03
-1.182214132927020527e-03
-1.108427841388531050e-03
-1.017722017079671429e-03
-9.097773720244879984e-04
-7.845710926725450599e-04
-6.423922794170119736e-04
-4.838518901060412684e-04
-3.098869057298131381e-04
-1.217583707693146869e-04
7.895671848860507215e-05
2.903798394081073733e-04
5.103515884331600878e-04
7.364582840028261954e-04
9.660642595007553962e-04
1.196349475475556260e-03
1.424351861531108522e-03
1.647013720101526491e-03
1.861231547175176129e-03
2.063908415907045931e-03
2.252008063407787055e-03
2.422609662487566588e-03
2.572962504222315195e-03
2.700539423469864274e-03
2.803088029495888825e-03
2.878678770288048156e-03
2.925748905345200001e-03
2.943141458405624036e-03
2.930138255901952940e-03
2.886486459281360512e-03
2.812417777672165161e-03
2.708659959322160752e-03
2.576439988973510536e-03
2.417478966755845331e-03
2.233978290826128549e-03
2.028597275197834178e-03
1.804422425677182492e-03
1.564928573363235514e-03
1.313932406162494990e-03
1.055539001634279387e-03
7.940821255925641173e-04
5.340591015758544211e-04
2.800613523148510271e-04
3.670160503493357144e-05
-1.914610412931962949e-04
-3.999969844534665103e-04
-5.846816356586360605e-04
-7.415693476055251754e-04
-8.670643748249035011e-04
-9.579877262349427219e-04
-1.011638698479499967e-03
-1.025849883946352865e-03
-9.990347022701261560e-04
-9.302264630984225999e-04
-8.191082023922807015e-04
-6.660326035920715020e-04
-4.720315800903057950e-04
-2.388151106966735849e-04
3.124074751064105860e-05
3.351166960821350149e-04
6.691835852580722095e-04
1.029246115381650352e-03
1.410596022466106955e-03
1.808074186333168956e-03
2.216140579431394048e-03
2.628951304714610346e-03
3.040441216157739775e-03
3.444410947067519206e-03
3.834617031507842576e-03
4.204863581620413814e-03
4.549094146720977436e-03
4.861482137725000978e-03
5.136518412141057033e-03
5.369094545841592882e-03
5.554580392089632397e-03
5.688894783907512583e-03
5.768567973227113968e-03
5.790794867977334254e-03
5.753478249965284820e-03
5.655261051977896782e-03
5.495547392712500472e-03
5.274511875639030858e-03
4.993096896981430791e-03
4.652998290650710300e-03
4.256639301563631267e-03
3.807133516360203165e-03
3.308237258580271675e-03
2.764292368132611425e-03
2.180160353776494642e-03
1.561148864352938015e-03
9.129320115068837501e-04
2.414657792459479668e-04
-4.471000654694304126e-04
-1.146512055101024793e-03
-1.850503534586630475e-03
-2.552884078579641114e-03
-3.247626387954943329e-03
-3.928949145939372722e-03
-4.591394586615113634e-03
-5.229899398888915481e-03
-5.839857909163946766e-03
-6.417176627643355821e-03
-6.958319300084126954e-03
-7.460341802216472612e-03
-7.920916604672157899e-03
-8.338346401748386247e-03
-8.711566962096493200e-03
-9.040139356601048157e-03
-9.324231915612744143e-03
-9.564592453143767534e-03
-9.762511630088529721e-03
-9.919778128287783797e-03
-1.003862674626887670e-02
-1.012168062664835048e-02
-1.017188876576731807e-02
-1.019246016023155933e-02
-1.018679588042751584e-02
-1.015842052860110346e-02
-1.011091439570612448e-02
-1.004784759070453254e-02
-9.972717455156678706e-03
-9.888890360435293597e-03
-9.799548964786292463e-03
-9.707645830107145338e-03
-9.615864115453070723e-03
-9.526585936311377997e-03
-9.441868884320360825e-03
-9.363430784322494815e-03
-9.292642847860218061e-03
-9.230530975178894912e-03
-9.177784890965198783e-03
-9.134774624517703195e-03
-9.101573648171649988e-03
-9.077987838057939921e-03
-9.063589326506662353e-03
-9.057754224497543277e-03
-9.059703018353067877e-03
-9.068542576548556042e-03
-9.083308447660986412e-03
-9.103006298555990985e-03
-9.126651395544293013e-03
-9.153304938497029350e-03
-9.182106257111273886e-03
-9.212299984765231348e-03
-9.243257428049427016e-03
-9.274491529785405808e-03
-9.305664907760736321e-03
-9.336590876527358154e-03
-9.367227215651840674e-03
-9.397662838637301300e-03
-9.428097726848522209e-03
-9.458816633089360548e-03
-9.490157112803581513e-03
-9.522473046475450273e-03
-9.556094314370091811e-03
-9.591283889051059261e-03
-9.628193604550760315e-03
-9.666819893086054868e-03
-9.706960755337329730e-03
-9.748175498232158204e-03
-9.789748362916492891e-03
-9.830657506350924321e-03
-9.869550508101558595e-03
-9.904727331899138704e-03
-9.934131868468313448e-03
-9.955352700978990776e-03
-9.965633718901174484e-03
-9.961894922067697153e-03
-9.940763415458617192e-03
-9.898614659840255375e-03
-9.831623401941241847e-03
-9.735823806814213749e-03
-9.607177766758335374e-03
-9.441650390174661026e-03
-9.235291313835061744e-03
-8.984320352098911291e-03
-8.685215722522140677e-03
-8.334803084882373703e-03
-7.930343369768604045e-03
-7.469617573539095133e-03
-6.951006376081804612e-03
-6.373562652766995122e-03
-5.737074951833984887e-03
-5.042120086120488107e-03
-4.290103221614616387e-03
-3.483284009969071261e-03
-2.624787439193417265e-03
-1.718598457738682028e-03
-7.695397814637898026e-04
2.167675441405963034e-04
1.233960802381084843e-03
2.275009208227493553e-03
3.332303728525177252e-03
4.397762085617005177e-03
5.462947520655190951e-03
6.519199553539203017e-03
7.557774777551894141e-03
8.569995305302436500e-03
9.547402401442327269e-03
1.048191241758311167e-02
1.136597224437117630e-02
1.219271118011136870e-02
1.295608629833677056e-02
1.365101818906655148e-02
1.427351421034827976e-02
1.482077633396103669e-02
1.529129120995585157e-02
1.568489990991871891e-02
1.600284536408157557e-02
1.624779591981082363e-02
1.642384361101510704e-02
1.653647647687583183e-02
1.659252447213087345e-02
1.660007915314305749e-02
1.656838777245820543e-02
1.650772298608552818e-02
1.642922972220135433e-02
1.634475150066752244e-02
1.626663868053223119e-02
1.620754162291292849e-02
1.618019231672021552e-02
1.619717799255096513e-02
1.627071079251759048e-02
1.641239761936917965e-02
1.663301435262883043e-02
1.694228891879778764e-02
1.734869729552853540e-02
1.785927665493340297e-02
1.847945962487576935e-02
1.921293320093458643e-02
2.006152564021362536e-02
2.102512423490364782e-02
2.210162624811558285e-02
2.328692478518653436e-02
2.457493082623143921e-02
2.595763198431906560e-02
2.742518787487603291e-02
2.896606120109106175e-02
3.056718319228095629e-02
3.221415116752869567e-02
3.389145543643935776e-02
3.558273212664452706e-02
3.727103804511761737e-02
3.893914299711610100e-02
4.056983473291758679e-02
4.214623128243453337e-02
4.365209514956814446e-02
4.507214376215602086e-02
4.639235045008276159e-02
4.760023033170407425e-02
4.868510555624939312e-02
4.963834474228261823e-02
5.045357170143344866e-02
5.112683910490627148e-02
5.165676316104305527e-02
5.204461625372318323e-02
5.229437495059210961e-02
5.241272173222154274e-02
5.240899957692336797e-02
5.229511936202675682e-02
5.208542106143033978e-02
5.179649032864504232e-02
5.144693317873040572e-02
5.105711224583014962e-02
5.064884876443541406e-02
5.024509531468154822e-02
4.986958493299568917e-02
4.954646274028535330e-02
4.929990663590291811e-02
4.915374408729309558e-02
4.913107212736510937e-02
4.925388770282750767e-02
4.954273565799622442e-02
5.001638125437467275e-02
5.069151377025547106e-02
5.158248744600417435e-02
5.270110524705465954e-02
5.405645029896267301e-02
5.565476903357383792e-02
5.749940903291950872e-02
5.959081370362074442e-02
6.192657481812366416e-02
6.450154270910303522e-02
6.730799294915172648e-02
7.033584705370363177e-02
7.357294374180863017e-02
7.700535604757753616e-02
8.061774867826031199e-02
8.439376898768080615e-02
8.831646413725816047e-02
9.236871620223270629e-02
9.653368638293736981e-02
1.007952591914356433e-01
1.051384769486350540e-01
1.095499549860745742e-01
1.140182677919513166e-01
1.185342972958810387e-01
1.230915336486457651e-01
1.276863205188434880e-01
1.323180371936186206e-01
1.369892110733672008e-01
1.417055548183595581e-01
1.464759239188901108e-01
1.513121917882964962e-01
1.562290406916773955e-01
1.612436686513085415e-01
1.663754138542208327e-01
1.716452996326745528e-01
1.770755047462084231e-01
1.826887653012779777e-01
1.885077160723779011e-01
1.945541802769897854e-01
2.008484183141161505e-01
2.074083471668564660e-01
2.142487429258029263e-01
2.213804398815254482e-01
2.288095401260262785e-01
2.365366480933963622e-01
2.445561446028104158e-01
2.528555146846498958e-01
2.614147435789737628e-01
2.702057941936286678e-01
2.791921789469844484e-01
2.883286375565660697e-01
2.975609313589814287e-01
3.068257629780221651e-01
3.160508288051894210e-01
3.251550097022553043e-01
3.340487035236017754e-01
3.426343009294758324e-01
3.508068038264613442e-01
3.584545836635678606e-01
3.654602743538725718e-01
3.717017927984361814e-01
3.770534776736066962e-01
3.813873348915777228e-01
3.845743767152149384e-01
3.864860393584054754e-01
3.869956624587778116e-01
3.859800125538194182e-01
3.833208315263476607e-01
3.789063900953750785e-01
3.726330259059623673e-01
3.644066454786132891e-01
3.541441692508147110e-01
3.417748993458868401e-01
3.272417903452339849e-01
3.105026040964866119e-01
2.915309310462349535e-01
2.703170617962124544e-01
2.468686945392931931e-01
2.212114658693446756e-01
1.933892946850986061e-01
1.634645311787997768e-01
1.315179054757031618e-01
9.764827292805892955e-02
6.197215625824837454e-02
2.462308646531753686e-02
-1.424925226547761083e-02
-5.448006573912238942e-02
-9.589067085254258938e-02
-1.382898818651004114e-01
-1.814755469723859649e-01
-2.252362180905767564e-01
-2.693529352068552152e-01
-3.136011046788780843e-01
-3.577524500216682779e-01
-4.015770123486344656e-01
-4.448451771280489964e-01
-4.873297034615541867e-01
-5.288077322235531508e-01
-5.690627494535075437e-01
-6.078864820017471082e-01
-6.450807036581204246e-01
-6.804589307646657925e-01
-7.138479881668335914e-01
-7.450894279443538437e-01
-7.740407853187458720e-01
-8.005766584441124101e-01
-8.245896009959261530e-01
-8.459908190799433347e-01
-8.647106664791218700e-01
-8.806989348294378406e-01
-8.939249382499693253e-01
-9.043773943124341352e-01
-9.120641058159203451e-01
-9.170114506097837292e-01
-9.192636886707639121e-01
-9.188820982662873060e-01
-9.159439546451985104e-01
-9.105413667534221211e-01
-9.027799888354816060e-01
-8.927776252999156670e-01
-8.806627479412703075e-01
-8.665729457541032632e-01
-8.506533274785119669e-01
-8.330548975852239968e-01
-8.139329261548350347e-01
-7.934453325430543824e-01
-7.717511022132593768e-01
-7.490087549917103793e-01
-7.253748818639335072e-01
-7.010027661907057839e-01
-6.760411033753358501e-01
-6.506328312723678176e-01
-6.249140820188084922e-01
-5.990132637028517948e-01
-5.730502783227303665e-01
-5.471358804178954038e-01
-5.213711786718292496e-01
-4.958472806154817225e-01
-4.706450787313218309e-01
-4.458351742761316738e-01
-4.214779332185412675e-01
-3.976236672539449901e-01
-3.743129311902598233e-01
-3.515769267198698422e-01
-3.294380015543663109e-01
-3.079102319560176326e-01
-2.870000758584871914e-01
-2.667070834410001368e-01
-2.470246518494177979e-01
-2.279408103825333876e-01
-2.094390230835551092e-01
-1.914989955611701156e-01
-1.740974738053067128e-01
-1.572090232997298276e-01
-1.408067776924163406e-01
-1.248631472808650333e-01
-1.093504785395105761e-01
-9.424165757010356803e-02
-7.951065113567069853e-02
-6.513298056502637989e-02
-5.108612517622979077e-02
-3.734985302230195425e-02
-2.390647822938458955e-02
-1.074104550826256860e-02
2.158556490400119227e-03
1.480155018209704243e-02
2.719428858037774635e-02
3.934033452666126779e-02
5.124059412606151581e-02
6.289349825036782970e-02
7.429522550782725887e-02
8.543995953153336875e-02
9.632017355076551157e-02
1.069269346911819740e-01
1.172502210773843784e-01
1.272792444338311790e-01
1.370027715937377488e-01
1.464094386809832171e-01
1.554880521347954958e-01
1.642278712527670270e-01
1.726188679690964234e-01
1.806519600376589041e-01
1.883192144439012616e-01
1.956140189142511199e-01
2.025312200218466474e-01
2.090672272377586682e-01
2.152200827381331172e-01
2.209894979130161974e-01
2.263768577980501961e-01
2.313851954135656697e-01
2.360191384402244574e-01
2.402848311037164564e-01
2.441898345619120669e-01
2.477430091253365607e-01
2.509543821302159805e-01
2.538350050247071832e-01
2.563968033957488846e-01
2.586524236964214962e-01
2.606150800019063074e-01
2.622984040037442122e-01
2.637163012911971638e-01
2.648828162079113757e-01
2.658120078159750821e-01
2.665178384228688580e-01
2.670140760370745547e-01
2.673142116739211094e-01
2.674313918680232272e-01
2.673783663382876541e-01
2.671674504311499776e-01
2.668105013916275969e-01
2.663189072780373645e-01
2.657035870788519993e-01
2.649750002409636540e-01
2.641431637459970005e-01
2.632176746938415524e-01
2.622077362176470916e-01
2.611221846820261927e-01
2.599695160090410573e-01
2.587579092834477734e-01
2.574952457999583055e-01
2.561891220082418430e-01
2.548468550257234067e-01
2.534754797629658607e-01
2.520817369235232586e-01
2.506720515688879436e-01
2.492525022097139276e-01
2.478287808261365466e-01
2.464061444223462627e-01
2.449893592974417555e-01
2.435826391900564880e-01
2.421895789664463561e-01
2.408130857825832027e-01
2.394553095328983139e-01
2.381175749179698931e-01
2.368003173010114759e-01
2.355030245771780884e-01
2.342241873863600832e-01
2.329612597726619105e-01
2.317106323238877774e-01
2.304676195280938589e-01
2.292264630787951007e-01
2.279803523002771892e-01
2.267214626746603956e-01
2.254410131097596692e-01
2.241293421258329366e-01
2.227760028157548255e-01
2.213698760325935044e-01
2.198993007228871865e-01
2.183522201141385177e-01
2.167163419819152503e-01
2.149793108603808012e-01
2.131288897486368628e-01
2.111531486872851027e-01
2.090406572139961450e-01
2.067806775898882732e-01
2.043633555970077731e-01
2.017799056229811760e-01
1.990227867268157258e-01
1.960858664570147847e-01
1.929645694520989163e-01
1.896560077269379696e-01
1.861590902040909379e-01
1.824746090537614218e-01
1.786053007695528327e-01
1.745558805535866731e-01
1.703330487061632814e-01
1.659454683642585249e-01
1.614037143081099301e-01
1.567201931330487741e-01
1.519090354769109530e-01
1.469859615662533203e-01
1.419681217688687491e-01
1.368739150636403834e-01
1.317227848553687297e-01
1.265349987710787105e-01
1.213314143617923169e-01
1.161332338817531173e-01
1.109617519005146186e-01
1.058380995744822722e-01
1.007829896295619199e-01
9.581646583467373635e-02
9.095766082237091710e-02
8.622456615899372345e-02
8.163381807387765088e-02
7.720050223371874298e-02
7.293798047514322980e-02
6.885774215438235368e-02
6.496928251321128223e-02
6.128000962290413439e-02
5.779518147582069637e-02
5.451787386550748654e-02
5.144897951300201472e-02
4.858723832577550861e-02
4.592929794737392324e-02
4.346980359485211332e-02
4.120151549512302003e-02
3.911545184517437740e-02
3.720105483559334875e-02
3.544637696088997342e-02
3.383828437751887352e-02
3.236267408183086947e-02
3.100470118178410076e-02
2.974901273641711655e-02
2.857998417805329011e-02
2.748195474651601508e-02
2.643945808595166841e-02
2.543744457140434401e-02
2.446149179525485690e-02
2.349800023360482104e-02
2.253437107145505117e-02
2.155916374273863720e-02
2.056223099918051342e-02
1.953482983081549634e-02
1.846970679317096881e-02
1.736115698051786393e-02
1.620505619743940751e-02
1.499886634411565917e-02
1.374161457692206836e-02
1.243384711142570334e-02
1.107755904922617073e-02
9.676101855422485770e-03
8.234070731502068571e-03
6.757174101319402860e-03
5.252087924770556908e-03
3.726297602963901407e-03
2.187930537729367800e-03
6.455825036309102097e-04
-8.918592764592560415e-04
-2.415392995474298626e-03
-3.916076056648618194e-03
-5.385192891780471100e-03
-6.814413971916386849e-03
-8.195943538713883203e-03
-9.522653663275355493e-03
-1.078820260698682039e-02
-1.198713587897356180e-02
-1.311496857457784826e-02
-1.416824798192502059e-02
-1.514459581324974734e-02
-1.604272996193997075e-02
-1.686246573718653413e-02
-1.760469710636836799e-02
-1.827135882785904317e-02
-1.886537061040162791e-02
-1.939056478021768462e-02
-1.985159905379046269e-02
-2.025385644633881377e-02
-2.060333445469425540e-02
-2.090652576426027184e-02
-2.117029276660421441e-02
-2.140173851820384096e-02
-2.160807640908831914e-02
-2.179650096036554394e-02
-2.197406208776054096e-02
-2.214754515054106684e-02
-2.232335867955866429e-02
-2.250743163816287459e-02
-2.270512204206981757e-02
-2.292113813947657328e-02
-2.315947333540260833e-02
-2.342335571092737240e-02
-2.371521279283854075e-02
-2.403665167850433868e-02
-2.438845456544112139e-02
-2.477058944706072782e-02
-2.518223524233841049e-02
-2.562182060025652158e-02
-2.608707535476605457e-02
-2.657509327568573915e-02
-2.708240463924717692e-02
-2.760505715262440152e-02
-2.813870335253646979e-02
-2.867869269400290938e-02
-2.922016658581906567e-02
-2.975815445028644549e-02
-3.028766890574392454e-02
-3.080379848109499746e-02
-3.130179605951786959e-02
-3.177716148289605469e-02
-3.222571696234804300e-02
-3.264367409559447430e-02
-3.302769137101546626e-02
-3.337492136411326915e-02
-3.368304697609138254e-02
-3.395030643068387005e-02
-3.417550671993489775e-02
-3.435802561692313101e-02
-3.449780255329661788e-02
-3.459531884363596654e-02
-3.465156797907945063e-02
-3.466801668978460732e-02
-3.464655801117447198e-02
-3.458945724834862345e-02
-3.449929246417800244e-02
-3.437889045601395105e-02
-3.423125977248164808e-02
-3.405952218330451919e-02
-3.386684402599354771e-02
-3.365636887100605101e-02
-3.343115267891690057e-02
-3.319410282313692284e-02
-3.294792207645169668e-02
-3.269505860027157457e-02
-3.243766285326517979e-02
-3.217755201999693282e-02
-3.191618258719549489e-02
-3.165463155282872976e-02
-3.139358624029461170e-02
-3.113334297343528859e-02
-3.087381431044060667e-02
-3.061454449081645740e-02
-3.035473282002002296e-02
-3.009326411571862370e-02
-2.982874556473834315e-02
-2.955954908656237279e-02
-2.928385824970648407e-02
-2.899971867672200207e-02
-2.870509073989632384e-02
-2.839790358758750854e-02
-2.807610924742920747e-02
-2.773773565602195845e-02
-2.738093756937496834e-02
-2.700404427233280003e-02
-2.660560320379645738e-02
-2.618441850590587025e-02
-2.573958387370277670e-02
-2.527050900922826748e-02
-2.477693919198033223e-02
-2.425896764181346629e-02
-2.371704042239371202e-02
-2.315195385251346896e-02
-2.256484454017254962e-02
-2.195717221494885782e-02
-2.133069582466644298e-02
-2.068744330676764234e-02
-2.002967576034959951e-02
-1.935984667460417807e-02
-1.868055711969912255e-02
-1.799450761950330269e-02
-1.730444788055454999e-02
-1.661312524433092644e-02
-1.592323286398547588e-02
-1.523735866467106417e-02
-1.455793603814327548e-02
-1.388719721842722812e-02
-1.322713025146833761e-02
-1.257944027994252652e-02
-1.194551604394636368e-02
-1.132640208280008554e-02
-1.072277720612362963e-02
-1.013493962161487842e-02
-9.562798994064813929e-03
-9.005875619882164687e-03
-8.463306679842163768e-03
-7.933859420258369474e-03
-7.415951139296356187e-03
-6.907675466649813682e-03
-6.406834517130752422e-03
-5.910976451077968458e-03
-5.417437574087289633e-03
-4.923388315385248196e-03
-4.425882270270442218e-03
-3.921907442787002027e-03
-3.408438707855255493e-03
-2.882490739501692659e-03
-2.341170303336919875e-03
-1.781727129363155481e-03
-1.201602508719438068e-03
-5.984746876446156091e-04
2.969962440196954282e-05
6.846483460251537832e-04
1.367752294250438325e-03
2.080019174785765080e-03
2.822063661444055432e-03
3.594093859830060043e-03
4.395904415796987076e-03
5.226876242633560037e-03
6.085982843906355584e-03
6.971803141944631771e-03
7.882540456382636923e-03
8.816047264525892976e-03
9.769855491152243041e-03
1.074121150224429527e-02
1.172711530375512845e-02
1.272436329180773665e-02
1.372959379050122004e-02
1.473933458635535466e-02
1.575005174685619250e-02
1.675819879616842131e-02
1.776026556051482977e-02
1.875282593607996776e-02
1.973258361719290241e-02
2.069641530568615967e-02
2.164141061987966130e-02
2.256490821352686790e-02
2.346452748771036059e-02
2.433819547362748442e-02
2.518416862140806720e-02
2.600104917306986230e-02
2.678779598418899732e-02
2.754372961445379284e-02
2.826853186007576013e-02
2.896223978917037561e-02
2.962523447228532572e-02
3.025822469443994675e-02
3.086222598557674529e-02
3.143853543741404605e-02
3.198870277791682204e-02
3.251449828060445219e-02
3.301787800392640831e-02
3.350094708693582973e-02
3.396592161153108580e-02
3.441508977354252458e-02
3.485077292795359105e-02
3.527528718520182849e-02
3.569090601350970171e-02
3.609982463074840747e-02
3.650412657834882502e-02
3.690575296354778323e-02
3.730647480825124984e-02
3.770786886771185231e-02
3.811129710225491518e-02
3.851789019092556610e-02
3.892853513337850291e-02
3.934386705981725990e-02
3.976426523222953424e-02
4.018985310413569073e-02
4.062050246198680575e-02
4.105584132315590051e-02
4.149526547832674966e-02
4.193795315360294290e-02
4.238288267158959316e-02
4.282885259470090716e-02
4.327450406901989233e-02
4.371834468882349056e-02
4.415877364740851407e-02
4.459410769453549250e-02
4.502260734836593947e-02
4.544250302957009852e-02
4.585202050051229161e-02
4.624940545682484222e-02
4.663294672390515261e-02
4.700099779111041598e-02
4.735199633279178061e-02
4.768448156209582900e-02
4.799710906722836484e-02
4.828866307001813268e-02
4.855806603909063046e-02
4.880438552067633412e-02
4.902683819293846001e-02
4.922479123534085482e-02
4.939776108423241108e-02
4.954540975322033886e-02
4.966753872946982201e-02
4.976408082723561555e-02
4.983509019383123434e-02
4.988073067170330915e-02
4.990126288909908781e-02
4.989703033028881213e-02
4.986844459903674864e-02
4.981597032278384241e-02
4.974010996877078344e-02
4.964138876734313505e-02
4.952034012574527827e-02
4.937749163704119315e-02
4.921335214113705531e-02
4.902839984833989168e-02
4.882307180591118068e-02
4.859775482788442763e-02
4.835277802452789958e-02
4.808840687900875488e-02
4.780483907411976763e-02
4.750220203791949425e-02
4.718055207641614485e-02
4.683987523268474257e-02
4.648008955341996484e-02
4.610104885261114699e-02
4.570254770719800463e-02
4.528432762530765210e-02
4.484608414560015133e-02
4.438747472100645214e-02
4.390812711728012130e-02
4.340764833848069493e-02
4.288563359586651524e-02
4.234167542570704823e-02
4.177537253327121697e-02
4.118633835944712079e-02
4.057420917836038893e-02
3.993865145949483664e-02
3.927936862357857273e-02
3.859610689253537008e-02
3.788866019398333396e-02
3.715687420555052051e-02
3.640064936387279321e-02
3.561994291642302246e-02
3.481476998831829761e-02
3.398520382103020071e-02
3.313137503335890355e-02
3.225347018614777711e-02
3.135172970338603177e-02
3.042644520312469750e-02
2.947795635632253011e-02
2.850664744493972003e-02
2.751294369701835774e-02
2.649730762259683986e-02
2.546023534397330590e-02
2.440225307150034606e-02
2.332391392337156838e-02
2.222579507150936745e-02
2.110849533073308124e-02
1.997263328695229531e-02
1.881884596927947684e-02
1.764778810744296531e-02
1.646013196302944723e-02
1.525656778744337999e-02
1.403780480074202225e-02
1.280457266197449276e-02
1.155762337332743965e-02
1.029773350439851069e-02
9.025706685143495417e-03
7.742376208071923872e-03
6.448607650521473791e-03
5.145301391637604853e-03
3.833394953160699191e-03
2.513864705180330564e-03
1.187727310393614857e-03
-1.439595305217729240e-04
-1.480097083282065152e-03
-2.819546417188936206e-03
-4.161130160716024554e-03
-5.503635218673841832e-03
-6.845816549399713451e-03
-8.186401967025858095e-03
-9.524098014928795986e-03
-1.085759687022337661e-02
-1.218558422052953664e-02
-1.350674803724321270e-02
-1.481978811694190795e-02
-1.612342638160743635e-02
-1.741641762798607981e-02
-1.869756070008621665e-02
-1.996570988627300799e-02
-2.121978632435034262e-02
-2.245878918434723870e-02
-2.368180647261003760e-02
-2.488802520660682305e-02
-2.607674077480637981e-02
-2.724736524089222192e-02
-2.839943448490050981e-02
-2.953261387010776631e-02
-3.064670237324200117e-02
-3.174163493671422476e-02
-3.281748307033038881e-02
-3.387445339193606575e-02
-3.491288426751319729e-02
-3.593324033971386638e-02
-3.693610505378357167e-02
-3.792217115680381057e-02
-3.889222927831370580e-02
-3.984715468727754312e-02
-4.078789224879489361e-02
-4.171543994793112248e-02
-4.263083108458014941e-02
-4.353511531539042828e-02
-4.442933890841575112e-02
-4.531452442417657073e-02
-4.619165002721274671e-02
-4.706162887316479859e-02
-4.792528888856437824e-02
-4.878335315220076740e-02
-4.963642125115640819e-02
-5.048495189773569841e-02
-5.132924710068492019e-02
-5.216943818045423342e-02
-5.300547391574678135e-02
-5.383711100073255290e-02
-5.466390704857973515e-02
-5.548521629029573576e-02
-5.630018807152360749e-02
-5.710776828962639551e-02
-5.790670373631163353e-02
-5.869554943443455047e-02
-5.947267881769180420e-02
-6.023629648804444681e-02
-6.098445443742029487e-02
-6.171507028712432813e-02
-6.242594775026940462e-02
-6.311479919495793789e-02
-6.377926998078024823e-02
-6.441696429527825341e-02
-6.502547205497920257e-02
-6.560239660172845211e-02
-6.614538275778873710e-02
-6.665214493329710277e-02
-6.712049476913325985e-02
-6.754836804616740076e-02
-6.793385045543703926e-02
-6.827520185243515782e-02
-6.857087868999205138e-02
-6.881955421062266320e-02
-6.902013628997867578e-02
-6.917178253383365893e-02
-6.927391247655695361e-02
-6.932621664369137404e-02
-6.932866238990494090e-02
-6.928149651218475091e-02
-6.918524448541583938e-02
-6.904070631396040658e-02
-6.884894918566958344e-02
-6.861129691407355513e-02
-6.832931647159400101e-02
-6.800480162613081747e-02
-6.763975399019567236e-02
-6.723636188974499439e-02
-6.679697710689241896e-02
-6.632409006634004678e-02
-6.582030356499551926e-02
-6.528830566855996220e-02
-6.473084195932084228e-02
-6.415068764051883032e-02
-6.355061983619031407e-02
-6.293339043238935226e-02
-6.230169983076991325e-02
-6.165817201446283785e-02
-6.100533119293702344e-02
-6.034558029367747406e-02
-5.968118165571777850e-02
-5.901424003639108712e-02
-5.834668817141169805e-02
-5.768027508282656118e-02
-5.701655709858995114e-02
-5.635689178922604486e-02
-5.570243473639854143e-02
-5.505413909796068317e-02
-5.441275795215520794e-02
-5.377884929620159460e-02
-5.315278347201132791e-02
-5.253475287502901159e-02
-5.192478378143116496e-02
-5.132274994354069780e-02
-5.072838773608762120e-02
-5.014131257799357005e-02
-4.956103621767839196e-02
-4.898698467380380173e-02
-4.841851653490700236e-02
-4.785494125267156923e-02
-4.729553705105236927e-02
-4.673956827181898616e-02
-4.618630194789711402e-02
-4.563502310788472571e-02
-4.508504887954037366e-02
-4.453574085027061508e-02
-4.398651591997557869e-02
-4.343685514610064885e-02
-4.288631078914455219e-02
-4.233451128218876369e-02
-4.178116417411106842e-02
-4.122605719669637792e-02
-4.066905725616208611e-02
-4.011010766388961590e-02
-3.954922361317061985e-02
-3.898648601999713664e-02
-3.842203401677992541e-02
-3.785605627191628714e-02
-3.728878132355557123e-02
-3.672046709329305353e-02
-3.615138993549789348e-02
-3.558183353134982546e-02
-3.501207772797979012e-02
-3.444238757791830835e-02
-3.387300290337224434e-02
-3.330412862631751403e-02
-3.273592597074467120e-02
-3.216850485404179616e-02
-3.160191748401190021e-02
-3.103615346051827317e-02
-3.047113635265312134e-02
-2.990672190671836081e-02
-2.934269799909248327e-02
-2.877878626441564974e-02
-2.821464529283208497e-02
-2.764987551760034190e-02
-2.708402569868557583e-02
-2.651660072564578779e-02
-2.594707074986941919e-02
-2.537488146662386299e-02
-2.479946539817705353e-02
-2.422025377633297769e-02
-2.363668903784952452e-02
-2.304823761355699260e-02
-2.245440273774391288e-02
-2.185473709359626177e-02
-2.124885505025938051e-02
-2.063644424113412687e-02
-2.001727622322023795e-02
-1.939121614696270174e-02
-1.875823111256960662e-02
-1.811839703534387502e-02
-1.747190401555335365e-02
-1.681905993712722730e-02
-1.616029233683603794e-02
-1.549614845375409805e-02
-1.482729325607733128e-02
-1.415450576922433999e-02
-1.347867342518004052e-02
-1.280078466510231779e-02
-1.212191990975863137e-02
-1.144324089546526306e-02
-1.076597867793820280e-02
-1.009142035527652893e-02
-9.420894762385214824e-03
-8.755757371330151820e-03
-8.097374538374748493e-03
-7.447107395917060974e-03
-6.806295558678706996e-03
-6.176241018423444043e-03
-5.558192386252025149e-03
-4.953329700061652983e-03
-4.362750056539112242e-03
-3.787454307276822470e-03
-3.228334951124495807e-03
-2.686165468766973062e-03
-2.161591183655162726e-03
-1.655121868715804002e-03
-1.167126147899233109e-03
-6.978277657065631899e-04
-2.473038118306987356e-04
1.845150739312231543e-04
5.978426965295345836e-04
9.930332430051547806e-04
1.370575522438927584e-03
1.731085414607264799e-03
2.075296633204892077e-03
2.404050207228073267e-03
2.718282536372186066e-03
3.019012308777756573e-03
3.307326659766202798e-03
3.584366495481613926e-03
3.851311373211755394e-03
4.109364088832448240e-03
4.359735308297325168e-03
4.603628299996184378e-03
4.842224096947820439e-03
5.076667247678236412e-03
5.308052390260496398e-03
5.537411813777448101e-03
5.765704106950098919e-03
5.993804062389562412e-03
6.222494058908319484e-03
6.452456887095954496e-03
6.684270102736349778e-03
6.918402010663591249e-03
7.155209288517891050e-03
7.394936158230448232e-03
7.637715181176552709e-03
7.883569620630050817e-03
8.132417178017064055e-03
8.384075106591325557e-03
8.638266611201719791e-03
8.894628314727107132e-03
9.152718624598873282e-03
9.412027049507195112e-03
9.671984014095171001e-03
9.931971112632286686e-03
1.019133182840635012e-02
1.044938222280024018e-02
1.070542161063989250e-02
1.095874299310185297e-02
1.120864318674026638e-02
1.145443240177153321e-02
1.169544314091254880e-02
1.193103837086128237e-02
1.216061883106674818e-02
1.238362895815264299e-02
1.259956293412474448e-02
1.280796898332377427e-02
1.300845250996738797e-02
1.320067820402549483e-02
1.338437114192131405e-02
1.355931690019245017e-02
1.372536064327207518e-02
1.388240531201575742e-02
1.403040908425313808e-02
1.416938198110839243e-02
1.429938188767377813e-02
1.442051004272511781e-02
1.453290612867606281e-02
1.463674310496918159e-02
1.473222176544966566e-02
1.481956541694590818e-02
1.489901450156703479e-02
1.497082143896134344e-02
1.503524576147425955e-02
1.509254954332661658e-02
1.514299337568322454e-02
1.518683282856540633e-02
1.522431546483814235e-02
1.525567848301656940e-02
1.528114697392081792e-02
1.530093286039013213e-02
1.531523447426635584e-02
1.532423670846978954e-02
1.532811180073346755e-02
1.532702060408133553e-02
1.532111434874641395e-02
1.531053682443395472e-02
1.529542692214486306e-02
1.527592132889536367e-02
1.525215741907867163e-02
1.522427615766030161e-02
1.519242503879845128e-02
1.515676078004357316e-02
1.511745185849662498e-02
1.507468066445150079e-02
1.502864526073134990e-02
1.497956072496964101e-02
1.492765989038166013e-02
1.487319352616738033e-02
1.481642991079051667e-02
1.475765372150224242e-02
1.469716426975837056e-02
1.463527319469559544e-02
1.457230140250570516e-02
1.450857548866271024e-02
1.444442358358040066e-02
1.438017077624200932e-02
1.431613416209738532e-02
1.425261742975256381e-02
1.418990547340602711e-02
1.412825883158373187e-02
1.406790807168025771e-02
1.400904835683362305e-02
1.395183428305289859e-02
1.389637502752441751e-02
1.384273007138108261e-02
1.379090543625654391e-02
1.374085064905190487e-02
1.369245656010327147e-02
1.364555397013310356e-02
1.359991318588840356e-02
1.355524466830110297e-02
1.351120063492228067e-02
1.346737769896192045e-02
1.342332064312610519e-02
1.337852719578322760e-02
1.333245383619213048e-02
1.328452256527334202e-02
1.323412849249016796e-02
1.318064825194328014e-02
1.312344909548187818e-02
1.306189854509864391e-02
1.299537445484461040e-02
1.292327539312520743e-02
1.284503110656805454e-02
1.276011291830902485e-02
1.266804394722014816e-02
1.256840891751663178e-02
1.246086339603645274e-02
1.234514234492400594e-02
1.222106780394278253e-02
1.208855549343792156e-02
1.194762025780721909e-02
1.179838021455933104e-02
1.164105954381892266e-02
1.147598977897375597e-02
1.130360953225400568e-02
1.112446263104767581e-02
1.093919460183820878e-02
1.074854757327670107e-02
1.055335356304314132e-02
1.035452624216213688e-02
1.015305127674374572e-02
9.949975288581550809e-03
9.746393573490578707e-03
9.543436732529449185e-03
9.342256426811634817e-03
9.144010347807219816e-03
8.949846687743071710e-03
8.760888291212753226e-03
8.578216696481299336e-03
8.402856279480503190e-03
8.235758803431662486e-03
8.077788520237022540e-03
7.929708099037431623e-03
7.792165560618406935e-03
7.665682508074043826e-03
7.550643747772299921e-03
7.447288555719462459e-03
7.355703693377977324e-03
7.275818339674187084e-03
7.207401068284452310e-03
7.150058854084285001e-03
7.103238361591785593e-03
7.066229283122705228e-03
7.038169963382390724e-03
7.018055128362797428e-03
7.004745661070871376e-03
6.996980360142695046e-03
6.993389558303718390e-03
6.992510486124906346e-03
6.992804048495418652e-03
6.992673003352478482e-03
6.990481178237877360e-03
6.984573546589421290e-03
6.973296857202109129e-03
6.955020572344284939e-03
6.928157827102921634e-03
6.891186190191751770e-03
6.842667803658700545e-03
6.781268782305101793e-03
6.705777483313141683e-03
6.615121435548406217e-03
6.508382706207046023e-03
6.384811466878174795e-03
6.243837504075316555e-03
6.085079593643345601e-03
5.908352537734772036e-03
5.713671747809454145e-03
5.501255303521014779e-03
5.271523465804653710e-03
5.025095593929293156e-03
4.762784504519817358e-03
4.485588324852711126e-03
4.194679950675488621e-03
3.891394253908714209e-03
3.577213032162941241e-03
3.253748134799900292e-03
2.922722884010661541e-03
2.585951970041205743e-03
2.245320158038811940e-03
1.902760066807391301e-03
1.560229308041293644e-03
1.219687264134295714e-03
8.830718876508109570e-04
5.522767622011953703e-04
2.291287493207560708e-04
-8.463344084772490329e-05
-3.873795211372131142e-04
-6.776064133136352466e-04
-9.539553589734463832e-04
-1.215227062955268967e-03
-1.460394741119279503e-03
-1.688614815932134531e-03
-1.899235179370668044e-03
-2.091800877229597986e-03
-2.266057205054384637e-03
-2.421950090112742326e-03
-2.559623902090437525e-03
-2.679416576659979753e-03
-2.781852255015725573e-03
-2.867631475888395790e-03
-2.937619117626061489e-03
-2.992830265991458603e-03
-3.034414175563937555e-03
-3.063636619435956311e-03
-3.081860864112315190e-03
-3.090527518844744109e-03
-3.091133592261835310e-03
-3.085211086062784967e-03
-3.074305315811933729e-03
-3.059953405709368683e-03
-3.043663231136164299e-03
-3.026893048592565853e-03
-3.011032140110474729e-03
-2.997382843453365135e-03
-2.987144030840364721e-03
-2.981396418358559040e-03
-2.981089872432016522e-03
-2.987032774625875305e-03
-2.999883774330893305e-03
-3.020145876104645549e-03
-3.048163045954334956e-03
-3.084119263744960083e-03
-3.128040083825100407e-03
-3.179796607443901094e-03
-3.239111811778893485e-03
-3.305569144795332363e-03
-3.378623154537183267e-03
-3.457612033851773913e-03
-3.541771878462677148e-03
-3.630252350704259948e-03
-3.722133513222748886e-03
-3.816443647212356283e-03
-3.912177609938293638e-03
-4.008315528138230339e-03
-4.103841498375771640e-03
-4.197762000751988597e-03
-4.289123711636716289e-03
-4.377030434751723841e-03
-4.460658856558863058e-03
-4.539272873359526637e-03
-4.612236345076743682e-03
-4.679023913421161661e-03
-4.739229801679386254e-03
-4.792574411621381043e-03
-4.838908695284738909e-03
-4.878216088009131556e-03
-4.910612074394230323e-03
-4.936341327599596228e-03
-4.955772546395910937e-03
-4.969391031949455320e-03
-4.977788995826940358e-03
-4.981653940114203448e-03
-4.981755252773863510e-03
-4.978929174691388085e-03
-4.974062415009926179e-03
-4.968074697458158343e-03
-4.961900539111272108e-03
-4.956470476548615819e-03
-4.952692181987727697e-03
-4.951431652548071195e-03
-4.953494947323468060e-03
-4.959610632317017036e-03
-4.970413363041218530e-03
-4.986428789078106022e-03
-5.008060163748769694e-03
-5.035576757591653414e-03
-5.069104484553374479e-03
-5.108618771694484889e-03
-5.153939889050923769e-03
-5.204730872658836112e-03
-5.260498097712986744e-03
-5.320594501849787092e-03
-5.384225493822227329e-03
-5.450457484231978865e-03
-5.518228963286569456e-03
-5.586363976984426959e-03
-5.653587796162698118e-03
-5.718544639433487814e-03
-5.779817130692816406e-03
-5.835947344310997431e-03
-5.885458895218092026e-03
-5.926880027547858781e-03
-5.958767172726982253e-03
-5.979728698516071500e-03
-5.988448436321014423e-03
-5.983708683145559128e-03
-5.964412263283693991e-03
-5.929603359014304700e-03
-5.878486705701958283e-03
-5.810444813751571014e-03
-5.725053078225661105e-03
-5.622092329515122194e-03
-5.501558718756918709e-03
-5.363670670090560366e-03
-5.208872802729752269e-03
-5.037836695420402217e-03
-4.851458382121151026e-03
-4.650852638708928219e-03
-4.437344122014017997e-03
-4.212455317061911814e-03
-3.977891526168241682e-03
-3.735523018123282097e-03
-3.487364634866189743e-03
-3.235552971771335756e-03
-2.982321473069908784e-03
-2.729973865223056951e-03
-2.480856200340176773e-03
-2.237327906710432322e-03
-2.001732211775496002e-03
-1.776366362001706965e-03
-1.563452073473163215e-03
-1.365106611346562611e-03
-1.183314896394246571e-03
-1.019903076409173649e-03
-8.765137695591068570e-04
-7.545836062670800183e-04
-6.553231784023624091e-04
-5.796998164747065637e-04
-5.284233582970186607e-04
-5.019352116937079306e-04
-5.004007421580695036e-04
-5.237052276985777266e-04
-5.714534350658577759e-04
-6.429727471461977846e-04
-7.373199584362826560e-04
-8.532914861567378589e-04
-9.894370067637472434e-04
-1.144076227351438621e-03
-1.315318692270371886e-03
-1.501086216023295606e-03
-1.699137753075331998e-03
-1.907096266786537792e-03
-2.122477360847385610e-03
-2.342719121206385258e-03
-2.565212940332569497e-03
-2.787334692259509084e-03
-3.006476087469056417e-03
-3.220075591229874714e-03
-3.425648509996996344e-03
-3.620815957198991394e-03
-3.803332179628130492e-03
-3.971109972571496005e-03
-4.122243827788148185e-03
-4.255030488514932423e-03
-4.367986755056582279e-03
-4.459864173532380321e-03
-4.529660617213180328e-03
-4.576628435807140495e-03
-4.600279269311807750e-03
-4.600385396098936007e-03
-4.576977781931462590e-03
-4.530340751548508210e-03
-4.461003399637861709e-03
-4.369728019092225003e-03
-4.257495738638038783e-03
-4.125489558616293392e-03
-3.975075080386126364e-03
-3.807779280874074718e-03
-3.625267609989477058e-03
-3.429319832378491337e-03
-3.221804891969012527e-03
-3.004655321600845953e-03
-2.779841393699276648e-03
-2.549345505457111232e-03
-2.315137171432628607e-03
-2.079148913489843511e-03
-1.843253418646969080e-03
-1.609242221482707052e-03
-1.378806221236107341e-03
-1.153518254492952181e-03
-9.348180061071301216e-04
-7.239992942397704793e-04
-5.221999655505657088e-04
-3.303944135675607532e-04
-1.493887348442861970e-04
2.018137790764720774e-05
1.778501076808972254e-04
3.233185650111043740e-04
4.564493379976493391e-04
5.772588529703609906e-04
6.859076543001275646e-04
7.826889109023074925e-04
8.680153207005243806e-04
9.424047386364173143e-04
1.006464849403297581e-03
1.060877093139211405e-03
1.106380204151244644e-03
1.143753600984652192e-03
1.173801006829144379e-03
1.197334529135145407e-03
1.215159495534087015e-03
1.228060277589544452e-03
1.236787355503151048e-03
1.242045754072124185e-03
1.244485098603480017e-03
1.244691396506378972e-03
1.243180579707222526e-03
1.240393980254807021e-03
1.236695691786479992e-03
1.232371829509694991e-03
1.227631571766440262e-03
1.222610028795634990e-03
1.217372777290412576e-03
1.211921791997720363e-03
1.206202851035592227e-03
1.200113951748479988e-03
1.193514715704020041e-03
1.186236429110434053e-03
1.178092607384976457e-03
1.168889656197765175e-03
1.158437437556428381e-03
1.146559815485723123e-03
1.133104470422961448e-03
1.117951933727265052e-03
1.101023674712828596e-03
1.082289073676690784e-03
1.061770974014426914e-03
1.039549830882486366e-03
1.015766387614128706e-03
9.906225860416735529e-04
9.643808751930094602e-04
9.373617746545764330e-04
9.099398327969731096e-04
8.825379414412489300e-04
8.556201693034705185e-04
8.296832488425095369e-04
8.052468091367738804e-04
7.828425777760171988e-04
7.630027899667332332e-04
7.462480039775149605e-04
7.330744542658827311e-04
7.239413993089835291e-04
7.192585551748476805e-04
7.193738095867490247e-04
7.245619966256029850e-04
7.350143362686955943e-04
7.508289615442740412e-04
7.720028626523756793e-04
7.984253911884443356e-04
8.298735497822964718e-04
8.660091077998307435e-04
9.063777583312106374e-04
9.504103523000664551e-04
9.974262574218850652e-04
1.046638842632260317e-03
1.097163069499246810e-03
1.148025106165529710e-03
1.198173882624601954e-03
1.246494452207361301e-03
1.291822924147380779e-03
1.332962870952035138e-03
1.368702897206226267e-03
1.397835120674332989e-03
1.419174257083311930e-03
1.431577093821263108e-03
1.433962014528080125e-03
1.425328228621115757e-03
1.404774364405499392e-03
1.371516206049703916e-03
1.324903203976536287e-03
1.264433497255881790e-03
1.189767142845231298e-03
1.100737290529141829e-03
9.973591920644194527e-04
8.798366864502002276e-04
7.485661398833071828e-04
6.041375978913224223e-04
4.473332081010636787e-04
2.791227954169478312e-04
1.006565718963960506e-04
-8.674490291391913669e-05
-2.816034809597746727e-04
-4.822987309063403167e-04
-6.870856291618542737e-04
-8.941144255616002802e-04
-1.101452444008966039e-03
-1.307107465988709269e-03
-1.509052533283826479e-03
-1.705251704120943051e-03
-1.893686479052640766e-03
-2.072382493935155581e-03
-2.239436046730298915e-03
-2.393040221824402954e-03
-2.531510107209555740e-03
-2.653306773517095669e-03
-2.757059636058474192e-03
-2.841586910750699361e-03
-2.905913787922917001e-03
-2.949288023591860233e-03
-2.971192751367893355e-03
-2.971356235742011933e-03
-2.949758408470922692e-03
-2.906634068267236002e-03
-2.842472619474539341e-03
-2.758014336908391415e-03
-2.654243093356719631e-03
-2.532375716949343547e-03
-2.393848044861752403e-03
-2.240297667180786347e-03
-2.073543803996913924e-03
-1.895564418532194335e-03
-1.708470937852967723e-03
-1.514480733645969185e-03
-1.315887962665629896e-03
-1.115032929076555665e-03
-9.142705008036332770e-04
-7.159380384985614913e-04
-5.223231006872989862e-04
-3.356316176093219463e-04
-1.579567735374202107e-04
8.750819232904564720e-06
1.627112055426232129e-04
3.023411962180858580e-04
4.262779062978718989e-04
5.333995190024115162e-04
6.228427619596607016e-04
6.940169745246433730e-04
7.466145262252703264e-04
7.806172964213355537e-04
7.962990420762913312e-04
7.942236906785068344e-04
7.752394433749862975e-04
7.404687248902898150e-04
6.912941286206033837e-04
6.293403787716495045e-04
5.564526054167759882e-04
4.746710942017859890e-04
3.862029655698114841e-04
2.933910480115957268e-04
1.986803092082526864e-04
1.045823486616662389e-04
1.363836809703463130e-05
-7.161875174835055831e-05
-1.487029146480798095e-04
-2.152131422978948089e-04
-2.688712843909356136e-04
-3.075584834434847738e-04
-3.293500237283280684e-04
-3.325478183106233502e-04
-3.157102078533847024e-04
-2.776784556139972205e-04
-2.175996274917368900e-04
-1.349453488127479487e-04
-2.952623723585103176e-05
9.849839216598165934e-05
2.486157194067007054e-04
4.199597152949888440e-04
6.113165132820251590e-04
8.211350296564764572e-04
1.047542570729680794e-03
1.288365574246693682e-03
1.541155004487031188e-03
1.803216222252214526e-03
2.071643032594861888e-03
2.343355395114679347e-03
2.615140354876013297e-03
2.883695756587654861e-03
3.145675946264640116e-03
3.397739070099103052e-03
3.636595082143829778e-03
3.859053946018477840e-03
4.062073318538052084e-03
4.242804879605292442e-03
4.398638768495682742e-03
4.527245264117317480e-03
4.626613212249917201e-03
4.695084527508147816e-03
4.731384129477778262e-03
4.734644868068998286e-03
4.704426971099429436e-03
4.640731562546410865e-03
4.544008038123846516e-03
4.415155021983434638e-03
4.255514763254717413e-03
4.066861016015214068e-03
3.851380372361450002e-03
3.611647322825906579e-03
3.350593217555024143e-03
3.071469407596602152e-03
2.777805220484491286e-03
2.473361158330076356e-03
2.162077962643955097e-03
1.848022345981675330e-03
1.535329862116865517e-03
1.228146054353845048e-03
9.305665548301202909e-04
6.465769323832092118e-04
3.799934314091501760e-04
1.344052912873928995e-04
-8.688039493984734080e-05
-2.808903713144495135e-04
-4.450326980964660413e-04
-5.771392194290602675e-04
-6.755022499412577115e-04
-7.389049402283375412e-04
-7.666447176881022261e-04
-7.585492978242310610e-04
-7.149849819437233784e-04
-6.368570534426992724e-04
-5.256020322220492612e-04
-3.831718759845767269e-04
-2.120102391147752328e-04
-1.502108494046426306e-05
2.044700964901258113e-04
4.427618220395930916e-04
6.958283132517617759e-04
9.593768146404111838e-04
1.228909495408476863e-03
1.499789165819375445e-03
1.767307812136163737e-03
2.026757042772887353e-03
2.273499141893232413e-03
2.503037936234979791e-03
2.711088229491440994e-03
2.893642664787239235e-03
3.047035083242914753e-03
3.167999305332230321e-03
3.253722389695834754e-03
3.301891527667229296e-03
3.310733720783231009e-03
3.279047627551824086e-03
3.206226935804573543e-03
3.092274907208071577e-03
2.937809745525982088e-03
2.744060618888826460e-03
2.512854392462173566e-03
2.246593070242008244e-03
1.948222298141103490e-03
1.621191399644685525e-03
1.269405367066734139e-03
8.971696177953171437e-04
5.091282283449738650e-04
1.101965852098938363e-04
-2.945104700782498692e-04
-6.997540313641048039e-04
-1.100248783700120275e-03
-1.490741866182571269e-03
-1.866091681157700400e-03
-2.221345358218219847e-03
-2.551813834718860870e-03
-2.853143260030623161e-03
-3.121381599775569383e-03
-3.353039539328398280e-03
-3.545144522044255987e-03
-3.695287271312653558e-03
-3.801660022760014468e-03
-3.863085833017256346e-03
-3.879038522010679058e-03
-3.849652900399530824e-03
-3.775725267107938807e-03
-3.658704030128344734e-03
-3.500670713619701956e-03
-3.304311606690587839e-03
-3.072880545763250620e-03
-2.810153343679966127e-03
-2.520374749062726915e-03
-2.208198713588393428e-03
-1.878622884659266129e-03
-1.536918368345192203e-03
-1.188555873804954168e-03
-8.391294630999729560e-04
-4.942789042303977112e-04
-1.596120649461995169e-04
1.593716628318861959e-04
4.573556783709606974e-04
7.292770356304022379e-04
9.703930112305910599e-04
1.176342306465942827e-03
1.343199969977144611e-03
1.467525423103065293e-03
1.546402896443054009e-03
1.577473733606076086e-03
1.558960433173829348e-03
1.489681974125442931e-03
1.369060554067132738e-03
1.197119710942490169e-03
9.744740374417687825e-04
7.023110352620851949e-04
3.823653433144214497e-04
1.688603519411887023e-05
-3.914021482902572480e-04
-8.393430944570801685e-04
-1.323398204625492918e-03
-1.839698855940434053e-03
-2.384101740316585828e-03
-2.952245847137162111e-03
-3.539610317882599042e-03
-4.141572123972845493e-03
-4.753462772642003294e-03
-5.370623085031534481e-03
-5.988455396893235458e-03
-6.602472329493843523e-03
-7.208341575585442210e-03
-7.801926279441039579e-03
-8.379320499622479670e-03
-8.936879480432166276e-03
-9.471244657555001958e-03
-9.979363197172217564e-03
-1.045850217601315690e-02
-1.090625756306715620e-02
-1.132055834413708308e-02
-1.169966592751681828e-02
-1.204216941718666209e-02
-1.234697720198549634e-02
-1.261330536904716609e-02
-1.284066346587566139e-02
-1.302883832462529978e-02
-1.317787644606683434e-02
-1.328806553727754185e-02
-1.335991581983442256e-02
-1.339414157147362366e-02
-1.339164332408731076e-02
-1.335349121206737266e-02
-1.328090974465331517e-02
-1.317526431129704967e-02
-1.303804944592897898e-02
-1.287087906725276759e-02
-1.267547855147809280e-02
-1.245367856620571353e-02
-1.220741050346367713e-02
-1.193870322874854978e-02
-1.164968080534054505e-02
-1.134256077147028502e-02
-1.101965256768272158e-02
-1.068335552653193986e-02
-1.033615611383330822e-02
-9.980623813817137910e-03
-9.619405189804437067e-03
-9.255215729937508670e-03
-8.890829040310683010e-03
-8.529063075152087600e-03
-8.172763154551994022e-03
-7.824781577414749098e-03
-7.487953810413458013e-03
-7.165071295502659955e-03
-6.858850995399236664e-03
-6.571901971802246965e-03
-6.306689428098897349e-03
-6.065496644664654206e-03
-5.850385438780724041e-03
-5.663155919832795447e-03
-5.505306251904987930e-03
-5.377993362141302372e-03
-5.281995376216940680e-03
-5.217676908237990109e-03
-5.184958053487183360e-03
-5.183288059780351113e-03
-5.211624624645825286e-03
-5.268419649841600549e-03
-5.351612310896566686e-03
-5.458630037403497740e-03
-5.586398066895524941e-03
-5.731357951842448901e-03
-5.889495282011021973e-03
-6.056376703091634860e-03
-6.227196203038968397e-03
-6.396830302317083744e-03
-6.559901766723047825e-03
-6.710851026062519646e-03
-6.844014583752417759e-03
-6.953709265022198389e-03
-7.034321120959381897e-03
-7.080397541417290767e-03
-7.086741171427776188e-03
-7.048503903854985014e-03
-6.961279333492679557e-03
-6.821191858911950998e-03
-6.624980648630102685e-03
-6.370076766460738317e-03
-6.054671684841855285e-03
-5.677775669201968502e-03
-5.239264429995649751e-03
-4.739912743360029553e-03
-4.181413950642592567e-03
-3.566384338679258817e-03
-2.898351622855173219e-03
-2.181727394356231756e-03
-1.421763156808230613e-03
-6.244902352738368771e-04
2.033559672980838695e-04
1.054426552634953659e-03
1.920863554897145461e-03
2.794416681984399596e-03
3.666570789493981113e-03
4.528682083417092698e-03
5.372121005066447796e-03
6.188419299020729743e-03
6.969418865707016283e-03
7.707419680803745919e-03
8.395324184008451721e-03
9.026775289441013594e-03
9.596285530260600591e-03
1.009935452281868727e-02
1.053257235916199575e-02
1.089370669304297323e-02
1.118177140711285565e-02
1.139707506219976921e-02
1.154124777596299625e-02
1.161724534593501328e-02
1.162932993636594907e-02
1.158302705385239918e-02
1.148505888151798646e-02
1.134325458732194161e-02
1.116643864152137844e-02
1.096429849662913271e-02
1.074723360098054324e-02
1.052618792926387874e-02
1.031246861426783970e-02
1.011755377010586238e-02
9.952892575418896201e-03
9.829701104214591534e-03
9.758757578891757295e-03
9.750200639026039215e-03
9.813334444386451194e-03
9.956444397147190192e-03
1.018662695350217376e-02
1.050963707133192523e-02
1.092975647834093164e-02
1.144968554514798516e-02
1.207046152326350826e-02
1.279140501877033820e-02
1.361009649437877611e-02
1.452238383459458076e-02
1.552242163454463711e-02
1.660274214006835294e-02
1.775435730524717662e-02
1.896689087501469625e-02
2.022873864282926509e-02
2.152725471366355101e-02
2.284896088713875978e-02
2.417977593971590289e-02
2.550526100531708140e-02
2.681087705365300944e-02
2.808224997528560932e-02
2.930543867463317187e-02
3.046720144582257261e-02
3.155525572171843929e-02
3.255852643654949530e-02
3.346737828105995211e-02
3.427382739078289886e-02
3.497172823637623856e-02
3.555693196665547784e-02
3.602741284856471327e-02
3.638335988481121441e-02
3.662723149227151143e-02
3.676377167947895985e-02
3.679998669006720458e-02
3.674508206629875651e-02
3.661036065375131848e-02
3.640908281290076293e-02
3.615629096708004170e-02
3.586860107990232083e-02
3.556396452459287955e-02
3.526140440931110898e-02
3.498073083057486043e-02
3.474224011219844560e-02
3.456640354818811545e-02
3.447355120290036129e-02
3.448355672206106920e-02
3.461552918114960825e-02
3.488751781218640130e-02
3.531623551409073664e-02
3.591680659353046340e-02
3.670254386362496041e-02
3.768475981533907920e-02
3.887261593867975817e-02
4.027301355706225383e-02
4.189052886835290673e-02
4.372739393816103826e-02
4.578352467373924400e-02
4.805659578903712786e-02
5.054216177381677666e-02
5.323382207618828493e-02
5.612342764032695469e-02
5.920132517684322665e-02
6.245663453551816152e-02
6.587755392472331717e-02
6.945168684573671536e-02
7.316638416011173041e-02
7.700909406804001822e-02
8.096771258005035221e-02
8.503092655625839325e-02
8.918854161509595646e-02
9.343178704375487698e-02
9.775358991953811416e-02
1.021488114792136748e-01
1.066144387803134586e-01
1.111497254920806171e-01
1.157562766072201543e-01
1.204380725190138252e-01
1.252014289784761369e-01
1.300548907460285786e-01
1.350090576540892984e-01
1.400763432455928992e-01
1.452706673185611419e-01
1.506070850616382795e-01
1.561013568574833033e-01
1.617694638934415452e-01
1.676270760176648278e-01
1.736889796158015697e-01
1.799684739792184462e-01
1.864767458115876853e-01
1.932222322106320889e-01
2.002099832320874684e-01
2.074410353040426758e-01
2.149118073846061072e-01
2.226135317198470187e-01
2.305317308873175985e-01
2.386457525792181900e-01
2.469283730565965118e-01
2.553454795084401652e-01
2.638558406763567565e-01
2.724109739237390304e-01
2.809551158700532847e-01
2.894253021834063966e-01
2.977515605291577994e-01
3.058572193024364783e-01
3.136593328309955631e-01
3.210692220411451303e-01
3.279931276845185484e-01
3.343329716079680436e-01
3.399872195233465400e-01
3.448518371095511403e-01
3.488213297602290597e-01
3.517898544713331521e-01
3.536523912644945478e-01
3.543059600474278148e-01
3.536508679362838081e-01
3.515919710711313262e-01
3.480399345461286931e-01
3.429124734035246536e-01
3.361355576740076567e-01
3.276445646050178961e-01
3.173853613381508731e-01
3.053153021293961711e-01
2.914041249199121886e-01
2.756347331952170299e-01
2.580038505046346464e-01
2.385225362013989880e-01
2.172165530338139028e-01
1.941265788592846653e-01
1.693082567749678857e-01
1.428320801464755263e-01
1.147831110922710451e-01
8.526053319185113166e-02
5.437704158958253653e-02
2.225807559913864711e-02
-1.095909860617564312e-02
-4.512644595736983039e-02
-8.008634960287663862e-02
-1.156729139083276653e-01
-1.517133684796461435e-01
-1.880295571012734201e-01
-2.244394941574164581e-01
-2.607589699112451420e-01
-2.968031858013709945e-01
-3.323884000398402150e-01
-3.673335639074026826e-01
-4.014619291880274776e-01
-4.346026075217295781e-01
-4.665920630397809021e-01
-4.972755209591661063e-01
-5.265082753190643006e-01
-5.541568811202732814e-01
-5.801002172376142907e-01
-6.042304083881930854e-01
-6.264535964426090064e-01
-6.466905533165991926e-01
-6.648771299853670769e-01
-6.809645381001292463e-01
-6.949194632107347225e-01
-7.067240105504206671e-01
-7.163754868606321269e-01
-7.238860235757019757e-01
-7.292820488279380120e-01
-7.326036176869964445e-01
-7.339036116447834601e-01
-7.332468199908420692e-01
-7.307089171931870908e-01
-7.263753512673460921e-01
-7.203401593284555204e-01
-7.127047268636219624e-01
-7.035765080107879710e-01
-6.930677239380099719e-01
-6.812940565948334415e-01
-6.683733547117002294e-01
-6.544243681160754056e-01
-6.395655259119908953e-01
-6.239137728945176598e-01
-6.075834773883358464e-01
-5.906854224597671843e-01
-5.733258906338754013e-01
-5.556058509294578007e-01
-5.376202551123302475e-01
-5.194574483237964779e-01
-5.011986974208079149e-01
-4.829178386557171909e-01
-4.646810442048022738e-01
-4.465467057124763994e-01
-4.285654310411625700e-01
-4.107801490200416183e-01
-3.932263153845909076e-01
-3.759322121253947380e-01
-3.589193309422092359e-01
-3.422028307855652929e-01
-3.257920587465513718e-01
-3.096911226898886316e-01
-2.938995040351980448e-01
-2.784126986430677797e-01
-2.632228739856470323e-01
-2.483195307716331568e-01
-2.336901577720792711e-01
-2.193208697150901554e-01
-2.051970174724060403e-01
-1.913037617019251457e-01
-1.776266020692485459e-01
-1.641518550448129443e-01
-1.508670743046984786e-01
-1.377614094596439354e-01
-1.248258997517259633e-01
-1.120537006526967222e-01
-9.944024281474152238e-02
-8.698332394499330711e-02
-7.468313531252854243e-02
-6.254222579411443383e-02
-5.056540736278244963e-02
-3.875960702678302866e-02
-2.713367070881808618e-02
-1.569812547646035755e-02
-4.464907107057465054e-03
6.552939745405398676e-03
1.734158142372094549e-02
2.788672728978480730e-02
3.817396639902830707e-02
4.818910140345529503e-02
5.791847259301365763e-02
6.734926535596186259e-02
7.646979501217056330e-02
8.526976346507834925e-02
9.374048306554827459e-02
1.018750636421742878e-01
1.096685597866578904e-01
1.171180760826319722e-01
1.242228290615875475e-01
1.309841655182096831e-01
1.374055377148930002e-01
1.434924369094370822e-01
1.492522873346737444e-01
1.546943035764760666e-01
1.598293149655209966e-01
1.646695611488926403e-01
1.692284635106384438e-01
1.735203775580613228e-01
1.775603314275020217e-01
1.813637562062262454e-01
1.849462134519276602e-01
1.883231254777655850e-01
1.915095137544935433e-01
1.945197504459386939e-01
1.973673277910644452e-01
2.000646496342319003e-01
2.026228488477486156e-01
2.050516338628616542e-01
2.073591668383068243e-01
2.095519753392207363e-01
2.116348988369269879e-01
2.136110703875475358e-01
2.154819334583437940e-01
2.172472929251439422e-01
2.189053986857600886e-01
2.204530599084351394e-01
2.218857871640375623e-01
2.231979592260248391e-01
2.243830109380248738e-01
2.254336382443699049e-01
2.263420160937136272e-01
2.271000248906434593e-01
2.276994808285847383e-01
2.281323658756458927e-01
2.283910526512458739e-01
2.284685202310362540e-01
2.283585566131174915e-01
2.280559442235284007e-01
2.275566251478184088e-01
2.268578431204691381e-01
2.259582599087107957e-01
2.248580441800442364e-01
2.235589314485355861e-01
2.220642543672719516e-01
2.203789431170673496e-01
2.185094962359797333e-01
2.164639228064590137e-01
2.142516573942643276e-01
2.118834496158344405e-01
2.093712306476490925e-01
2.067279595820366300e-01
2.039674524848092696e-01
2.011041975512906366e-01
1.981531600429186912e-01
1.951295804291104663e-01
1.920487696668255195e-01
1.889259052851176290e-01
1.857758318889546900e-01
1.826128696098803517e-01
1.794506338195070716e-01
1.763018691065527388e-01
1.731783002484478806e-01
1.700905025713754237e-01
1.670477935672013137e-01
1.640581474143362750e-01
1.611281333637453461e-01
1.582628786939139220e-01
1.554660565271685502e-01
1.527398978919290995e-01
1.500852276438058852e-01
1.475015228569033499e-01
1.449869923504958080e-01
1.425386752863115891e-01
1.401525566995222571e-01
1.378236975851863111e-01
1.355463767522741836e-01
1.333142416573597500e-01
1.311204653656145858e-01
1.289579065571385963e-01
1.268192696193467806e-01
1.246972620121629266e-01
1.225847460472429679e-01
1.204748825776236348e-01
1.183612640440031005e-01
1.162380347896548038e-01
1.140999969273466946e-01
1.119426999769405906e-01
1.097625133401638198e-01
1.075566804657737130e-01
1.053233544743340522e-01
1.030616149343468041e-01
1.007714661587584964e-01
9.845381738966581253e-02
9.611044601187557213e-02
9.374394473409529416e-02
9.135765443576973621e-02
8.895558409990123039e-02
8.654232001412605346e-02
8.412292602504112260e-02
8.170283725221334781e-02
7.928774926332446404e-02
7.688350515956719755e-02
7.449598264729699604e-02
7.213098345372760678e-02
6.979412698794686121e-02
6.749075041207547310e-02
6.522581657891866891e-02
6.300383174282589427e-02
6.082877417923250596e-02
5.870403491137281965e-02
5.663237129948264087e-02
5.461587418113141024e-02
5.265594867003659668e-02
5.075330885047053125e-02
4.890798589927060347e-02
4.711934929970184455e-02
4.538614024419392046e-02
4.370651636693412279e-02
4.207810665671298661e-02
4.049807502313126223e-02
3.896319132159287851e-02
3.746990799216113471e-02
3.601444083057833007e-02
3.459285209078725998e-02
3.320113429872893762e-02
3.183529302912189995e-02
3.049142707900175109e-02
2.916580447270067378e-02
2.785493293787192487e-02
2.655562361469668287e-02
2.526504678610507967e-02
2.398077882880896364e-02
2.270083954561667727e-02
2.142371947459874304e-02
2.014839687422207565e-02
1.887434415737391374e-02
1.760152399438980053e-02
1.633037543111968623e-02
1.506179036854521716e-02
1.379708131561909433e-02
1.253794108512130273e-02
1.128639548443068248e-02
1.004475019206877220e-02
8.815532776139100093e-03
7.601431358494807264e-03
6.405231193482072323e-03
5.229750314525788250e-03
4.077775764030746285e-03
2.952001565154018306e-03
1.854969633046283078e-03
7.890148449635534357e-04
-2.437847242596156419e-04
-1.241651623168741518e-03
-2.203145973629671347e-03
-3.127194956256526895e-03
-4.013114534982706490e-03
-4.860622897100220705e-03
-5.669845656569862460e-03
-6.441312680112836961e-03
-7.175946986031351074e-03
-7.875045829470057532e-03
-8.540254530913832590e-03
-9.173533849105882168e-03
-9.777121389028213885e-03
-1.035348806907156541e-02
-1.090529040492940922e-02
-1.143531989906091013e-02
-1.194645023236848638e-02
-1.244158353096421442e-02
-1.292359668577469124e-02
-1.339528878389890584e-02
-1.385933065064978709e-02
-1.431821738176838020e-02
-1.477422477927698742e-02
-1.522937056485086475e-02
-1.568538082897369401e-02
-1.614366247038880042e-02
-1.660528188863928667e-02
-1.707095043069589702e-02
-1.754101659952435333e-02
-1.801546510564559084e-02
-1.849392281739901250e-02
-1.897567119572028324e-02
-1.945966493186722032e-02
-1.994455647787944305e-02
-2.042872573248993850e-02
-2.091031436987939376e-02
-2.138726401312617681e-02
-2.185735759612980958e-02
-2.231826302132536993e-02
-2.276757822433439146e-02
-2.320287695535419581e-02
-2.362175424019264530e-02
-2.402187076578936320e-02
-2.440099540414979867e-02
-2.475704514018605903e-02
-2.508812165071201000e-02
-2.539254400935892983e-02
-2.566887687552342479e-02
-2.591595389011295061e-02
-2.613289581419814614e-02
-2.631912316749601341e-02
-2.647436327472677681e-02
-2.659865172104056499e-02
-2.669232827455756893e-02
-2.675602737429862155e-02
-2.679066354043369361e-02
-2.679741199438407870e-02
-2.677768497123460267e-02
-2.673310423697397575e-02
-2.666547036205359211e-02
-2.657672931641106781e-02
-2.646893703038555312e-02
-2.634422264125069538e-02
-2.620475103719699037e-02
-2.605268552926503361e-02
-2.589015111838435801e-02
-2.571919908182131176e-02
-2.554177343505278572e-02
-2.535967991927998849e-02
-2.517455788920641008e-02
-2.498785558821710329e-02
-2.480080921534986299e-02
-2.461442605342556086e-02
-2.442947183713280873e-02
-2.424646249156151359e-02
-2.406566034393758588e-02
-2.388707473121340699e-02
-2.371046698235740324e-02
-2.353535948586527038e-02
-2.336104876205805092e-02
-2.318662209965332774e-02
-2.301097736363832622e-02
-2.283284571905638480e-02
-2.265081674121521838e-02
-2.246336538809552696e-02
-2.226888049086628643e-02
-2.206569411144913839e-02
-2.185211126674878671e-02
-2.162643957180779286e-02
-2.138701821544471138e-02
-2.113224592786623959e-02
-2.086060734124443178e-02
-2.057069756167859836e-02
-2.026124435067806762e-02
-1.993112774213255320e-02
-1.957939672249416063e-02
-1.920528289046493503e-02
-1.880821087964665989e-02
-1.838780545117147183e-02
-1.794389520983673270e-02
-1.747651300882588701e-02
-1.698589305016801054e-02
-1.647246483160492991e-02
-1.593684415683554317e-02
-1.537982141299901184e-02
-1.480234727913134866e-02
-1.420551629575062674e-02
-1.359054855942730226e-02
-1.295876982584517369e-02
-1.231159045752928602e-02
-1.165048361472835990e-02
-1.097696293506902204e-02
-1.029256018460161792e-02
-9.598803204617889842e-03
-8.897194500752332591e-03
-8.189190772458726161e-03
-7.476183798450240781e-03
-6.759482799752741279e-03
-6.040298684161199416e-03
-5.319730224701744135e-03
-4.598752479335317320e-03
-3.878207529509577079e-03
-3.158797663439209032e-03
-2.441081074425460046e-03
-1.725470029269257372e-03
-1.012231572751047916e-03
-3.014906195300787292e-04
4.067645545920001420e-04
1.112674650389532506e-03
1.816499528852956067e-03
2.518606585304145919e-03
3.219457413500308434e-03
3.919592997681912300e-03
4.619617734230156182e-03
5.320182466918971925e-03
6.021966836741258003e-03
6.725661219239387027e-03
7.431948491013419880e-03
8.141485943080017246e-03
8.854887639293824997e-03
9.572707357322922730e-03
1.029542241494389374e-02
1.102341865071145531e-02
1.175697669837817011e-02
1.249625977337089078e-02
1.324130317811419121e-02
1.399200563416194178e-02
1.474812255551064856e-02
1.550926130510696041e-02
1.627487864117033861e-02
1.704428025983838191e-02
1.781662249244862772e-02
1.859091615438347722e-02
1.936603245090993616e-02
2.014071092548280068e-02
2.091356931554836165e-02
2.168311522732129307e-02
2.244775946193739574e-02
2.320583085750555288e-02
2.395559242518623122e-02
2.469525864085815245e-02
2.542301362352574270e-02
2.613703005590524778e-02
2.683548850535044661e-02
2.751659703083144531e-02
2.817861075551363059e-02
2.881985119604837248e-02
2.943872510136225779e-02
3.003374255560259734e-02
3.060353415781031511e-02
3.114686701677290073e-02
3.166265938042176625e-02
3.214999369265202772e-02
3.260812793726940162e-02
3.303650504183042874e-02
3.343476038554717145e-02
3.380272707819851480e-02
3.414043906979308263e-02
3.444813199890420230e-02
3.472624174212352033e-02
3.497540059394903950e-02
3.519643131674934922e-02
3.539033878295055890e-02
3.555829956281889720e-02
3.570164949521237308e-02
3.582186931525972035e-02
3.592056846497178324e-02
3.599946742893474216e-02
3.606037859708498966e-02
3.610518608968393134e-02
3.613582450327128270e-02
3.615425711204362652e-02
3.616245356349535173e-02
3.616236753058523629e-02
3.615591435064808429e-02
3.614494918100021742e-02
3.613124571099873839e-02
3.611647583142672119e-02
3.610219054266149835e-02
3.608980217845478289e-02
3.608056832860256219e-02
3.607557763135452872e-02
3.607573749189383477e-02
3.608176404100670726e-02
3.609417441153356387e-02
3.611328134098325954e-02
3.613919029807889649e-02
3.617179914376301292e-02
3.621080018307511195e-02
3.625568483044210033e-02
3.630575055731524725e-02
3.636011021245704605e-02
3.641770360403551177e-02
3.647731094278885977e-02
3.653756823262006154e-02
3.659698429638760103e-02
3.665395918578980700e-02
3.670680372773334893e-02
3.675375997909190867e-02
3.679302226545674848e-02
3.682275853238944213e-02
3.684113174549968894e-02
3.684632102272039633e-02
3.683654224269700128e-02
3.681006775108215667e-02
3.676524505043479024e-02
3.670051417373369068e-02
3.661442349136988933e-02
3.650564372006995933e-02
3.637298003200634122e-02
3.621538210941188662e-02
3.603195195115383581e-02
3.582194944404538256e-02
3.558479560122794483e-02
3.532007352240910947e-02
3.502752700135788183e-02
3.470705691074978116e-02
3.435871542783670851e-02
3.398269821182774153e-02
3.357933479325703879e-02
3.314907717624345634e-02
3.269248705261122712e-02
3.221022171600849276e-02
3.170301900404236262e-02
3.117168148028960986e-02
3.061706017226413154e-02
3.004003813459400415e-02
2.944151403346962487e-02
2.882238620959832673e-02
2.818353729889715512e-02
2.752581968568769410e-02
2.685004219509058362e-02
2.615695807606360779e-02
2.544725447306902394e-02
2.472154369032820986e-02
2.398035623215841183e-02
2.322413578659732886e-02
2.245323628934667651e-02
2.166792098581503401e-02
2.086836363222163010e-02
2.005465169282398888e-02
1.922679144051720607e-02
1.838471504477468682e-02
1.752828935046619671e-02
1.665732620448181003e-02
1.577159424714673353e-02
1.487083185999617946e-02
1.395476104388282228e-02
1.302310208331655325e-02
1.207558861264629475e-02
1.111198285995886915e-02
1.013209079630944358e-02
9.135776978493470243e-03
8.122978765898064904e-03
7.093719631518198045e-03
6.048121315002255236e-03
4.986414719341416071e-03
3.908949251923468302e-03
2.816200412938678517e-03
1.708775505528559819e-03
5.874173912022545270e-04
-5.469938694719923009e-04
-1.693441460674740499e-03
-2.850774435587532553e-03
-4.017712472138460812e-03
-5.192852720779103474e-03
-6.374678626085644208e-03
-7.561570654237291175e-03
-8.751818831856179176e-03
-9.943636646056649639e-03
-1.113517647748607162e-02
-1.232454609499754154e-02
-1.350982604611654543e-02
-1.468908768534589113e-02
-1.586041162475896812e-02
-1.702190613026543717e-02
-1.817172544938392559e-02
-1.930808763101964781e-02
-2.042929165033192246e-02
-2.153373347444595409e-02
-2.261992091095289467e-02
-2.368648704375895045e-02
-2.473220201076797159e-02
-2.575598285650993260e-02
-2.675690149705143780e-02
-2.773419055877054257e-02
-2.868724700294002575e-02
-2.961563350977370820e-02
-3.051907773849622113e-02
-3.139746916437338720e-02
-3.225085383654748006e-02
-3.307942707824810397e-02
-3.388352411651430335e-02
-3.466360892628696233e-02
-3.542026149395867407e-02
-3.615416348791242879e-02
-3.686608285161977611e-02
-3.755685732009169525e-02
-3.822737721514386094e-02
-3.887856782769250064e-02
-3.951137153936953861e-02
-4.012673003715231529e-02
-4.072556693870024724e-02
-4.130877097624875705e-02
-4.187718003530687544e-02
-4.243156635806683008e-02
-4.297262305262227605e-02
-4.350095206023783800e-02
-4.401705393380225123e-02
-4.452131936648799637e-02
-4.501402274379301405e-02
-4.549531771099927374e-02
-4.596523488222390569e-02
-4.642368159908093900e-02
-4.687044386367434506e-02
-4.730519032324851519e-02
-4.772747814303876512e-02
-4.813676089754242993e-02
-4.853239810583068886e-02
-4.891366639077853601e-02
-4.927977199459526031e-02
-4.962986445561083648e-02
-4.996305130462624228e-02
-5.027841337629402468e-02
-5.057502067013708302e-02
-5.085194840958907891e-02
-5.110829304048809807e-02
-5.134318788104753895e-02
-5.155581833238710027e-02
-5.174543622019111416e-02
-5.191137314022364890e-02
-5.205305259950308155e-02
-5.217000079610241425e-02
-5.226185577708827162e-02
-5.232837482345957525e-02
-5.236944017499325921e-02
-5.238506280276221394e-02
-5.237538420617367935e-02
-5.234067621863371100e-02
-5.228133900150970514e-02
-5.219789698304863612e-02
-5.209099304808656461e-02
-5.196138095195645956e-02
-5.180991613548751457e-02
-5.163754503809868390e-02
-5.144529329155637237e-02
-5.123425265437277221e-02
-5.100556718488464397e-02
-5.076041869748786767e-02
-5.050001179208513102e-02
-5.022555873813581984e-02
-4.993826438019607211e-02
-4.963931136801656707e-02
-4.932984585825755941e-02
-4.901096397182207187e-02
-4.868369921685725132e-02
-4.834901103735522038e-02
-4.800777468424461542e-02
-4.766077251248402452e-02
-4.730868691326400172e-02
-4.695209490524876461e-02
-4.659146452685582890e-02
-4.622715300037030794e-02
-4.585940676435349556e-02
-4.548836331816089734e-02
-4.511405479546689440e-02
-4.473641334104803968e-02
-4.435527801679344656e-02
-4.397040325716474601e-02
-4.358146870726643113e-02
-4.318809016296804720e-02
-4.278983156739280674e-02
-4.238621781700169233e-02
-4.197674819156548692e-02
-4.156091018439404122e-02
-4.113819341907443833e-02
-4.070810358900494447e-02
-4.027017607734613425e-02
-3.982398907527744808e-02
-3.936917604018009414e-02
-3.890543720389608856e-02
-3.843254991833781192e-02
-3.795037786481831460e-02
-3.745887881001330744e-02
-3.695811084463863916e-02
-3.644823702016761202e-02
-3.592952828212080812e-02
-3.540236463667893740e-02
-3.486723458367369660e-02
-3.432473276114923755e-02
-3.377555582702113091e-02
-3.322049672594951097e-02
-3.266043735978401558e-02
-3.209633976521797383e-02
-3.152923593700272115e-02
-3.096021651124753263e-02
-3.039041842450167230e-02
-2.982101147028800442e-02
-2.925318438552799993e-02
-2.868813057948895948e-02
-2.812703348353780969e-02
-2.757105185031401284e-02
-2.702130540700005412e-02
-2.647886068391972977e-02
-2.594471754189934046e-02
-2.541979644027534541e-02
-2.490492674098757422e-02
-2.440083601009512479e-02
-2.390814068795917707e-02
-2.342733814438446860e-02
-2.295880031103705865e-02
-2.250276879325423598e-02
-2.205935171389562105e-02
-2.162852230470723933e-02
-2.121011918778957853e-02
-2.080384829056565466e-02
-2.040928655386831450e-02
-2.002588722418151626e-02
-1.965298669208644794e-02
-1.928981276530171429e-02
-1.893549433168514873e-02
-1.858907215801148399e-02
-1.824951075870783271e-02
-1.791571112653356571e-02
-1.758652423888446351e-02
-1.726076500853054863e-02
-1.693722664651846690e-02
-1.661469521308124933e-02
-1.629196409510946450e-02
-1.596784826164032028e-02
-1.564119813840788784e-02
-1.531091296255340101e-02
-1.497595340686025227e-02
-1.463535333836110328e-02
-1.428823054140072359e-02
-1.393379635617663162e-02
-1.357136410524188014e-02
-1.320035623936529484e-02
-1.282031000522227196e-02
-1.243088179326639134e-02
-1.203185004197810000e-02
-1.162311663311527306e-02
-1.120470690449617071e-02
-1.077676826325745484e-02
-1.033956737168930870e-02
-9.893486069204442471e-03
-9.439016088508672339e-03
-8.976752653360802262e-03
-8.507386996835675230e-03
-8.031697967700540328e-03
