7.249191258879768632e-03
7.252818029727398780e-03
7.256445617604741043e-03
7.260074022227197554e-03
7.263703243310053355e-03
7.267333280568478125e-03
7.270964133717528789e-03
7.274595802472146912e-03
7.278228286547153494e-03
7.281861585657251577e-03
7.285495699517027975e-03
7.289130627840954141e-03
7.292766370343389641e-03
7.296402926738570875e-03
7.300040296740615414e-03
7.303678480063525470e-03
7.307317476421183559e-03
7.310957285527352502e-03
7.314597907095675422e-03
7.318239340839680085e-03
7.321881586472775427e-03
7.325524643708253292e-03
7.329168512259280621e-03
7.332813191838903795e-03
7.336458682160050364e-03
7.340104982935524713e-03
7.343752093878013268e-03
7.347400014700081888e-03
7.351048745114175872e-03
7.354698284832619087e-03
7.358348633567618306e-03
7.361999791031263209e-03
7.365651756935525513e-03
7.369304530992252036e-03
7.372958112913168167e-03
7.376612502409881332e-03
7.380267699193876658e-03
7.383923702976517844e-03
7.387580513469048024e-03
7.391238130382587167e-03
7.394896553428132076e-03
7.398555782316554655e-03
7.402215816758607979e-03
7.405876656464919355e-03
7.409538301145990324e-03
7.413200750512202730e-03
7.416864004273815252e-03
7.420528062140966871e-03
7.424192923823673407e-03
7.427858589031824041e-03
7.431525057475184791e-03
7.435192328863398509e-03
7.438860402905980544e-03
7.442529279312324816e-03
7.446198957791702079e-03
7.449869438053259921e-03
7.453540719806027968e-03
7.457212802758911817e-03
7.460885686620696497e-03
7.464559371100045609e-03
7.468233855905494385e-03
7.471909140745449686e-03
7.475585225328196075e-03
7.479262109361895818e-03
7.482939792554587147e-03
7.486618274614183395e-03
7.490297555248471260e-03
7.493977634165115143e-03
7.497658511071654541e-03
7.501340185675506658e-03
7.505022657683965530e-03
7.508705926804199425e-03
7.512389992743247376e-03
7.516074855208020912e-03
7.519760513905311000e-03
7.523446968541781972e-03
7.527134218823968055e-03
7.530822264458273373e-03
7.534511105150974546e-03
7.538200740608220693e-03
7.541891170536037768e-03
7.545582394640320753e-03
7.549274412626839730e-03
7.552967224201236410e-03
7.556660829069031075e-03
7.560355226935619108e-03
7.564050417506267519e-03
7.567746400486114952e-03
7.571443175580171679e-03
7.575140742493318737e-03
7.578839100930307923e-03
7.582538250595766138e-03
7.586238191194186707e-03
7.589938922429932851e-03
7.593640444007235951e-03
7.597342755630197286e-03
7.601045857002790632e-03
7.604749747828863995e-03
7.608454427812139619e-03
7.612159896656212239e-03
7.615866154064545625e-03
7.619573199740469968e-03
7.623281033387187960e-03
7.626989654707770454e-03
7.630699063405156461e-03
7.634409259182150555e-03
7.638120241741423733e-03
7.641832010785515154e-03
7.645544566016834742e-03
7.649257907137657110e-03
7.652972033850124166e-03
7.656686945856248580e-03
7.660402642857907715e-03
7.664119124556847094e-03
7.667836390654676065e-03
7.671554440852870402e-03
7.675273274852768834e-03
7.678992892355576520e-03
7.682713293062361573e-03
7.686434476674055064e-03
7.690156442891455356e-03
7.693879191415223771e-03
7.697602721945886323e-03
7.701327034183834581e-03
7.705052127829325678e-03
7.708778002582485772e-03
7.712504658143310050e-03
7.716232094211657525e-03
7.719960310487248428e-03
7.723689306669672024e-03
7.727419082458378795e-03
7.731149637552680448e-03
7.734880971651755983e-03
7.738613084454647358e-03
7.742345975660262954e-03
7.746079644967374979e-03
7.749814092074620332e-03
7.753549316680499737e-03
7.757285318483379474e-03
7.761022097181491386e-03
7.764759652472927667e-03
7.768497984055643471e-03
7.772237091627458641e-03
7.775976974886058581e-03
7.779717633528990782e-03
7.783459067253657888e-03
7.787201275757324632e-03
7.790944258737120438e-03
7.794688015890029013e-03
7.798432546912897889e-03
7.802177851502434952e-03
7.805923929355212780e-03
7.809670780167668643e-03
7.813418403636094092e-03
7.817166799456640169e-03
7.820915967325316534e-03
7.824665906937986262e-03
7.828416617990371917e-03
7.832168100178055550e-03
7.835920353196482169e-03
7.839673376740947594e-03
7.843427170506603666e-03
7.847181734188461710e-03
7.850937067481390808e-03
7.854693170080121259e-03
7.858450041679241119e-03
7.862207681973189255e-03
7.865966090656258819e-03
7.869725267422600715e-03
7.873485211966223599e-03
7.877245923980990411e-03
7.881007403160609701e-03
7.884769649198642566e-03
7.888532661788511327e-03
7.892296440623497791e-03
7.896060985396736315e-03
7.899826295801217271e-03
7.903592371529781849e-03
7.907359212275127253e-03
7.911126817729803237e-03
7.914895187586210371e-03
7.918664321536603504e-03
7.922434219273091771e-03
7.926204880487640325e-03
7.929976304872070336e-03
7.933748492118048584e-03
7.937521441917094397e-03
7.941295153960577918e-03
7.945069627939718368e-03
7.948844863545587516e-03
7.952620860469111416e-03
7.956397618401072139e-03
7.960175137032104303e-03
7.963953416052689874e-03
7.967732455153163362e-03
7.971512254023703156e-03
7.975292812354334987e-03
7.979074129834938869e-03
7.982856206155249101e-03
7.986639041004849060e-03
7.990422634073174671e-03
7.994206985049510938e-03
7.997992093622995416e-03
8.001777959482618205e-03
8.005564582317209812e-03
8.009351961815448090e-03
8.013140097665865172e-03
8.016928989556844007e-03
8.020718637176607949e-03
8.024509040213225960e-03
8.028300198354616085e-03
8.032092111288543709e-03
8.035884778702616360e-03
8.039678200284290643e-03
8.043472375720873979e-03
8.047267304699517662e-03
8.051062986907220331e-03
8.054859422030817562e-03
8.058656609756981865e-03
8.062454549772226156e-03
8.066253241762907228e-03
8.070052685415224011e-03
8.073852880415222782e-03
8.077653826448790222e-03
8.081455523201660357e-03
8.085257970359418025e-03
8.089061167607493677e-03
8.092865114631159901e-03
8.096669811115533161e-03
8.100475256745573796e-03
8.104281451206080816e-03
8.108088394181698841e-03
8.111896085356918099e-03
8.115704524416069224e-03
8.119513711043321522e-03
8.123323644922686437e-03
8.127134325738010617e-03
8.130945753172988053e-03
8.134757926911153139e-03
8.138570846635882414e-03
8.142384512030391083e-03
8.146198922777741699e-03
8.150014078560840688e-03
8.153829979062434882e-03
8.157646623965111518e-03
8.161464012951289565e-03
8.165282145703235336e-03
8.169101021903048612e-03
8.172920641232671313e-03
8.176741003373887498e-03
8.180562108008319899e-03
8.184383954817429918e-03
8.188206543482514158e-03
8.192029873684704422e-03
8.195853945104967717e-03
8.199678757424109718e-03
8.203504310322773038e-03
8.207330603481435491e-03
8.211157636580413560e-03
8.214985409299860666e-03
8.218813921319765431e-03
8.222643172319948207e-03
8.226473161980069754e-03
8.230303889979622561e-03
8.234135355997936057e-03
8.237967559714169663e-03
8.241800500807316271e-03
8.245634178956200502e-03
8.249468593839478711e-03
8.253303745135644187e-03
8.257139632523020217e-03
8.260976255679763555e-03
8.264813614283866156e-03
8.268651708013153440e-03
8.272490536545289500e-03
8.276330099557775363e-03
8.280170396727948995e-03
8.284011427732974886e-03
8.287853192249842321e-03
8.291695689955375786e-03
8.295538920526236704e-03
8.299382883638918226e-03
8.303227578969748710e-03
8.307073006194893444e-03
8.310919164990349453e-03
8.314766055031945491e-03
8.318613675995348983e-03
8.322462027556053882e-03
8.326311109389387607e-03
8.330160921170505842e-03
8.334011462574390794e-03
8.337862733275847732e-03
8.341714732949510186e-03
8.345567461269846887e-03
8.349420917911158299e-03
8.353275102547567943e-03
8.357130014853038011e-03
8.360985654501365896e-03
8.364842021166173786e-03
8.368699114520905188e-03
8.372556934238833612e-03
8.376415479993066029e-03
8.380274751456539412e-03
8.384134748302022461e-03
8.387995470202108672e-03
8.391856916829223273e-03
8.395719087855618018e-03
8.399581982953378129e-03
8.403445601794422293e-03
8.407309944050492256e-03
8.411175009393156293e-03
8.415040797493812674e-03
8.418907308023693137e-03
8.422774540653852476e-03
8.426642495055173751e-03
8.430511170898368281e-03
8.434380567853982588e-03
8.438250685592387987e-03
8.442121523783782319e-03
8.445993082098184751e-03
8.449865360205446180e-03
8.453738357775238826e-03
8.457612074477059705e-03
8.461486509980232357e-03
8.465361663953903382e-03
8.469237536067042438e-03
8.473114125988447445e-03
8.476991433386744587e-03
8.480869457930386573e-03
8.484748199287656112e-03
8.488627657126665907e-03
8.492507831115351721e-03
8.496388720921472376e-03
8.500270326212611485e-03
8.504152646656180925e-03
8.508035681919417365e-03
8.511919431669382266e-03
8.515803895572967089e-03
8.519689073296889820e-03
8.523574964507694973e-03
8.527461568871750122e-03
8.531348886055245898e-03
8.535236915724194254e-03
8.539125657544424999e-03
8.543015111181596205e-03
8.546905276301192469e-03
8.550796152568524919e-03
8.554687739648727737e-03
8.558580037206763372e-03
8.562473044907412123e-03
8.566366762415277350e-03
8.570261189394787205e-03
8.574156325510189428e-03
8.578052170425558287e-03
8.581948723804787640e-03
8.585845985311596137e-03
8.589743954609525486e-03
8.593642631361938719e-03
8.597542015232021925e-03
8.601442105882779049e-03
8.605342902977035358e-03
8.609244406177446116e-03
8.613146615146487911e-03
8.617049529546462125e-03
8.620953149039494931e-03
8.624857473287535561e-03
8.628762501952359776e-03
8.632668234695569862e-03
8.636574671178584225e-03
8.640481811062647802e-03
8.644389654008833787e-03
8.648298199678045375e-03
8.652207447731010553e-03
8.656117397828280366e-03
8.660028049630223712e-03
8.663939402797036018e-03
8.667851456988732300e-03
8.671764211865154101e-03
8.675677667085976430e-03
8.679591822310699090e-03
8.683506677198641471e-03
8.687422231408942555e-03
8.691338484600562644e-03
8.695255436432288570e-03
8.699173086562728488e-03
8.703091434650310140e-03
8.707010480353277390e-03
8.710930223329688485e-03
8.714850663237428199e-03
8.718771799734204367e-03
8.722693632477544409e-03
8.726616161124798807e-03
8.730539385333142832e-03
8.734463304759571348e-03
8.738387919060898804e-03
8.742313227893764443e-03
8.746239230914628834e-03
8.750165927779775601e-03
8.754093318145309693e-03
8.758021401667159117e-03
8.761950178001069733e-03
8.765879646802608727e-03
8.769809807727162870e-03
8.773740660429948934e-03
8.777672204566008482e-03
8.781604439790200931e-03
8.785537365757210490e-03
8.789470982121540960e-03
8.793405288537515727e-03
8.797340284659282972e-03
8.801275970140817403e-03
8.805212344635911584e-03
8.809149407798181133e-03
8.813087159281064731e-03
8.817025598737825848e-03
8.820964725821554483e-03
8.824904540185165430e-03
8.828845041481396538e-03
8.832786229362806982e-03
8.836728103481777258e-03
8.840670663490510922e-03
8.844613909041029384e-03
8.848557839785170173e-03
8.852502455374590407e-03
8.856447755460771995e-03
8.860393739695016438e-03
8.864340407728448293e-03
8.868287759212013441e-03
8.872235793796480821e-03
8.876184511132437227e-03
8.880133910870290775e-03
8.884083992660276111e-03
8.888034756152445731e-03
8.891986200996671724e-03
8.895938326842645766e-03
8.899891133339879121e-03
8.903844620137699173e-03
8.907798786885263304e-03
8.911753633231545013e-03
8.915709158825333921e-03
8.919665363315244441e-03
8.923622246349717513e-03
8.927579807577017135e-03
8.931538046645230364e-03
8.935496963202262111e-03
8.939456556895838610e-03
8.943416827373509154e-03
8.947377774282646093e-03
8.951339397270437898e-03
8.955301695983894361e-03
8.959264670069853539e-03
8.963228319174973077e-03
8.967192642945737147e-03
8.971157641028449509e-03
8.975123313069240452e-03
8.979089658714059854e-03
8.983056677608677182e-03
8.987024369398684959e-03
8.990992733729502237e-03
8.994961770246364188e-03
8.998931478594332511e-03
9.002901858418297168e-03
9.006872909362979851e-03
9.010844631072916638e-03
9.014817023192464931e-03
9.018790085365810394e-03
9.022763817236958278e-03
9.026738218449733425e-03
9.030713288647782000e-03
9.034689027474578429e-03
9.038665434573427138e-03
9.042642509587457342e-03
9.046620252159621317e-03
9.050598661932687458e-03
9.054577738549243748e-03
9.058557481651704699e-03
9.062537890882307878e-03
9.066518965883106976e-03
9.070500706295980473e-03
9.074483111762631643e-03
9.078466181924588554e-03
9.082449916423205802e-03
9.086434314899666242e-03
9.090419376994977527e-03
9.094405102349973832e-03
9.098391490605314130e-03
9.102378541401485654e-03
9.106366254378798694e-03
9.110354629177393540e-03
9.114343665437240477e-03
9.118333362798141523e-03
9.122323720899723487e-03
9.126314739381437974e-03
9.130306417882564848e-03
9.134298756042208770e-03
9.138291753499299189e-03
9.142285409892593820e-03
9.146279724860675170e-03
9.150274698041952273e-03
9.154270329074664161e-03
9.158266617596876394e-03
9.162263563246482792e-03
9.166261165661201971e-03
9.170259424478579072e-03
9.174258339335987500e-03
9.178257909870625453e-03
9.182258135719522860e-03
9.186259016519532708e-03
9.190260551907331044e-03
9.194262741519416970e-03
9.198265584992112651e-03
9.202269081961565039e-03
9.206273232063742415e-03
9.210278034934446523e-03
9.214283490209309105e-03
9.218289597523788431e-03
9.222296356513171034e-03
9.226303766812575177e-03
9.230311828056945653e-03
9.234320539881057249e-03
9.238329901919509549e-03
9.242339913806732130e-03
9.246350575176979364e-03
9.250361885664340825e-03
9.254373844902737817e-03
9.258386452525925112e-03
9.262399708167484008e-03
9.266413611460825803e-03
9.270428162039193523e-03
9.274443359535661929e-03
9.278459203583135778e-03
9.282475693814344619e-03
9.286492829861851470e-03
9.290510611358052812e-03
9.294529037935176860e-03
9.298548109225280092e-03
9.302567824860250717e-03
9.306588184471801736e-03
9.310609187691476149e-03
9.314630834150646951e-03
9.318653123480524075e-03
9.322676055312150920e-03
9.326699629276400880e-03
9.330723845003975614e-03
9.334748702125413716e-03
9.338774200271087247e-03
9.342800339071200000e-03
9.346827118155794437e-03
9.350854537154739549e-03
9.354882595697730854e-03
9.358911293414292135e-03
9.362940629933773698e-03
9.366970604885361054e-03
9.371001217898080118e-03
9.375032468600792007e-03
9.379064356622193038e-03
9.383096881590807792e-03
9.387130043134989110e-03
9.391163840882928507e-03
9.395198274462647492e-03
9.399233343501999308e-03
9.403269047628674132e-03
9.407305386470199079e-03
9.411342359653936465e-03
9.415379966807082071e-03
9.419418207556663411e-03
9.423457081529544935e-03
9.427496588352434967e-03
9.431536727651873564e-03
9.435577499054234249e-03
9.439618902185727481e-03
9.443660936672397185e-03
9.447703602140124224e-03
9.451746898214628129e-03
9.455790824521458429e-03
9.459835380685996387e-03
9.463880566333465402e-03
9.467926381088927548e-03
9.471972824577283567e-03
9.476019896423272873e-03
9.480067596251473550e-03
9.484115923686305821e-03
9.488164878352030318e-03
9.492214459872751545e-03
9.496264667872405738e-03
9.500315501974769539e-03
9.504366961803456526e-03
9.508419046981910275e-03
9.512471757133407826e-03
9.516525091881063159e-03
9.520579050847834124e-03
9.524633633656517245e-03
9.528688839929747717e-03
9.532744669290001138e-03
9.536801121359590044e-03
9.540858195760663907e-03
9.544915892115217806e-03
9.548974210045082026e-03
9.553033149171923782e-03
9.557092709117252435e-03
9.561152889502426422e-03
9.565213689948641115e-03
9.569275110076937499e-03
9.573337149508195226e-03
9.577399807863136091e-03
9.581463084762330967e-03
9.585526979826191132e-03
9.589591492674971740e-03
9.593656622928771818e-03
9.597722370207536005e-03
9.601788734131059752e-03
9.605855714318980651e-03
9.609923310390780168e-03
9.613991521965787115e-03
9.618060348663170708e-03
9.622129790101947508e-03
9.626199845900977950e-03
9.630270515678978488e-03
9.634341799054512920e-03
9.638413695645988918e-03
9.642486205071656297e-03
9.646559326949620886e-03
9.650633060897827187e-03
9.654707406534072250e-03
9.658782363475998736e-03
9.662857931341094914e-03
9.666934109746696396e-03
9.671010898309984408e-03
9.675088296647984046e-03
9.679166304377571223e-03
9.683244921115474399e-03
9.687324146478272849e-03
9.691403980082396660e-03
9.695484421544126735e-03
9.699565470479589585e-03
9.703647126504757331e-03
9.707729389235454642e-03
9.711812258287362207e-03
9.715895733276009791e-03
9.719979813816771036e-03
9.724064499524873867e-03
9.728149790015398757e-03
9.732235684903276993e-03
9.736322183803290675e-03
9.740409286330079658e-03
9.744496992098143281e-03
9.748585300721833435e-03
9.752674211815358027e-03
9.756763724992775777e-03
9.760853839867997955e-03
9.764944556054795319e-03
9.769035873166792908e-03
9.773127790817473515e-03
9.777220308620175951e-03
9.781313426188096780e-03
9.785407143134283378e-03
9.789501459071635672e-03
9.793596373612904402e-03
9.797691886370696324e-03
9.801787996957469010e-03
9.805884704985534314e-03
9.809982010067061844e-03
9.814079911814077226e-03
9.818178409838462101e-03
9.822277503751950661e-03
9.826377193166133117e-03
9.830477477692453961e-03
9.834578356942218907e-03
9.838679830526593159e-03
9.842781898056603140e-03
9.846884559143136498e-03
9.850987813396931692e-03
9.855091660428588404e-03
9.859196099848567540e-03
9.863301131267198166e-03
9.867406754294668833e-03
9.871512968541024113e-03
9.875619773616171534e-03
9.879727169129885050e-03
9.883835154691794633e-03
9.887943729911388008e-03
9.892052894398010651e-03
9.896162647760867528e-03
9.900272989609028296e-03
9.904383919551423832e-03
9.908495437196847971e-03
9.912607542153962711e-03
9.916720234031294740e-03
9.920833512437235435e-03
9.924947376980039135e-03
9.929061827267823132e-03
9.933176862908562471e-03
9.937292483510096891e-03
9.941408688680129085e-03
9.945525478026231644e-03
9.949642851155838380e-03
9.953760807676249531e-03
9.957879347194631761e-03
9.961998469318019897e-03
9.966118173653318660e-03
9.970238459807297463e-03
9.974359327386592144e-03
9.978480775997708441e-03
9.982602805247020247e-03
9.986725414740769621e-03
9.990848604085063311e-03
9.994972372885876227e-03
9.999096720749049705e-03
1.000322164728029671e-02
1.000734715208519664e-02
1.001147323476920224e-02
1.001559989493764138e-02
1.001972713219570835e-02
1.002385494614846558e-02
1.002798333640083847e-02
1.003211230255762754e-02
1.003624184422350143e-02
1.004037196100301087e-02
1.004450265250057990e-02
1.004863391832050250e-02
1.005276575806694599e-02
1.005689817134394239e-02
1.006103115775540228e-02
1.006516471690511311e-02
1.006929884839672350e-02
1.007343355183375547e-02
1.007756882681960092e-02
1.008170467295752860e-02
1.008584108985068062e-02
1.008997807710206550e-02
1.009411563431457035e-02
1.009825376109095563e-02
1.010239245703384824e-02
1.010653172174574670e-02
1.011067155482902463e-02
1.011481195588593597e-02
1.011895292451861841e-02
1.012309446032907956e-02
1.012723656291920210e-02
1.013137923189074384e-02
1.013552246684533246e-02
1.013966626738447424e-02
1.014381063310955400e-02
1.014795556362183687e-02
1.015210105852246136e-02
1.015624711741244801e-02
1.016039373989269246e-02
1.016454092556397237e-02
1.016868867402694228e-02
1.017283698488213005e-02
1.017698585772994040e-02
1.018113529217065140e-02
1.018528528780442491e-02
1.018943584423129441e-02
1.019358696105116674e-02
1.019773863786382559e-02
1.020189087426893147e-02
1.020604366986603388e-02
1.021019702425456088e-02
1.021435093703382258e-02
1.021850540780301284e-02
1.022266043616120064e-02
1.022681602170733874e-02
1.023097216404025844e-02
1.023512886275866444e-02
1.023928611746114346e-02
1.024344392774616426e-02
1.024760229321207590e-02
1.025176121345710081e-02
1.025592068807934347e-02
1.026008071667678691e-02
1.026424129884729447e-02
1.026840243418860980e-02
1.027256412229836380e-02
1.027672636277407459e-02
1.028088915521314234e-02
1.028505249921284753e-02
1.028921639437035788e-02
1.029338084028272662e-02
1.029754583654689942e-02
1.030171138275971267e-02
1.030587747851788999e-02
1.031004412341804052e-02
1.031421131705666239e-02
1.031837905903013920e-02
1.032254734893474531e-02
1.032671618636663707e-02
1.033088557092185465e-02
1.033505550219632370e-02
1.033922597978586405e-02
1.034339700328618453e-02
1.034756857229287598e-02
1.035174068640141477e-02
1.035591334520716798e-02
1.036008654830539340e-02
1.036426029529123952e-02
1.036843458575974555e-02
1.037260941930583623e-02
1.037678479552432871e-02
1.038096071400992394e-02
1.038513717435721705e-02
1.038931417616068865e-02
1.039349171901471705e-02
1.039766980251356950e-02
1.040184842625140570e-02
1.040602758982227607e-02
1.041020729282012350e-02
1.041438753483878155e-02
1.041856831547197798e-02
1.042274963431333475e-02
1.042693149095635756e-02
1.043111388499444979e-02
1.043529681602091592e-02
1.043948028362894770e-02
1.044366428741162929e-02
1.044784882696193906e-02
1.045203390187274262e-02
1.045621951173679107e-02
1.046040565614672971e-02
1.046459233469509975e-02
1.046877954697434526e-02
1.047296729257681837e-02
1.047715557109475844e-02
1.048134438212030770e-02
1.048553372524550949e-02
1.048972360006229614e-02
1.049391400616249762e-02
1.049810494313783982e-02
1.050229641057994455e-02
1.050648840808032954e-02
1.051068093523039627e-02
1.051487399162144391e-02
1.051906757684466752e-02
1.052326169049115287e-02
1.052745633215188513e-02
1.053165150141774711e-02
1.053584719787953317e-02
1.054004342112793702e-02
1.054424017075355005e-02
1.054843744634686824e-02
1.055263524749829387e-02
1.055683357379812171e-02
1.056103242483654760e-02
1.056523180020366159e-02
1.056943169948945140e-02
1.057363212228379715e-02
1.057783306817647317e-02
1.058203453675714625e-02
1.058623652761538428e-02
1.059043904034065800e-02
1.059464207452233235e-02
1.059884562974967165e-02
1.060304970561184307e-02
1.060725430169792358e-02
1.061145941759688432e-02
1.061566505289759238e-02
1.061987120718882287e-02
1.062407788005925377e-02
1.062828507109746766e-02
1.063249277989194996e-02
1.063670100603108203e-02
1.064090974910315499e-02
1.064511900869636457e-02
1.064932878439880416e-02
1.065353907579846306e-02
1.065774988248322820e-02
1.066196120404088593e-02
1.066617304005913411e-02
1.067038539012556651e-02
1.067459825382768845e-02
1.067881163075291330e-02
1.068302552048856942e-02
1.068723992262188976e-02
1.069145483674001709e-02
1.069567026243000048e-02
1.069988619927879879e-02
1.070410264687328417e-02
1.070831960480024721e-02
1.071253707264639352e-02
1.071675504999833675e-02
1.072097353644259690e-02
1.072519253156560201e-02
1.072941203495368992e-02
1.073363204619310653e-02
1.073785256487000579e-02
1.074207359057044453e-02
1.074629512288038762e-02
1.075051716138570104e-02
1.075473970567217448e-02
1.075896275532550739e-02
1.076318630993132117e-02
1.076741036907513833e-02
1.077163493234239294e-02
1.077585999931842536e-02
1.078008556958848056e-02
1.078431164273771156e-02
1.078853821835119506e-02
1.079276529601392101e-02
1.079699287531079091e-02
1.080122095582661604e-02
1.080544953714611921e-02
1.080967861885394343e-02
1.081390820053464499e-02
1.081813828177269864e-02
1.082236886215248370e-02
1.082659994125829278e-02
1.083083151867432481e-02
1.083506359398469891e-02
1.083929616677344054e-02
1.084352923662448322e-02
1.084776280312166677e-02
1.085199686584874951e-02
1.085623142438940474e-02
1.086046647832722249e-02
1.086470202724570087e-02
1.086893807072825818e-02
1.087317460835821904e-02
1.087741163971883002e-02
1.088164916439325440e-02
1.088588718196457222e-02
1.089012569201577331e-02
1.089436469412976248e-02
1.089860418788935956e-02
1.090284417287730803e-02
1.090708464867626119e-02
1.091132561486879080e-02
1.091556707103738706e-02
1.091980901676445521e-02
1.092405145163232415e-02
1.092829437522324122e-02
1.093253778711937053e-02
1.093678168690279465e-02
1.094102607415552153e-02
1.094527094845948456e-02
1.094951630939653038e-02
1.095376215654842410e-02
1.095800848949685623e-02
1.096225530782344443e-02
1.096650261110973176e-02
1.097075039893717283e-02
1.097499867088714241e-02
1.097924742654094246e-02
1.098349666547978817e-02
1.098774638728482189e-02
1.099199659153710096e-02
1.099624727781759771e-02
1.100049844570720470e-02
1.100475009478673466e-02
1.100900222463692228e-02
1.101325483483842592e-02
1.101750792497183107e-02
1.102176149461763649e-02
1.102601554335627156e-02
1.103027007076808064e-02
1.103452507643333004e-02
1.103878055993221668e-02
1.104303652084486116e-02
1.104729295875130773e-02
1.105154987323153128e-02
1.105580726386543033e-02
1.106006513023284100e-02
1.106432347191352306e-02
1.106858228848716687e-02
1.107284157953337955e-02
1.107710134463170057e-02
1.108136158336160866e-02
1.108562229530250624e-02
1.108988348003371420e-02
1.109414513713449270e-02
1.109840726618404119e-02
1.110266986676148628e-02
1.110693293844587995e-02
1.111119648081620656e-02
1.111546049345137760e-02
1.111972497593023169e-02
1.112398992783154156e-02
1.112825534873401225e-02
1.113252123821626728e-02
1.113678759585685213e-02
1.114105442123424113e-02
1.114532171392684269e-02
1.114958947351299932e-02
1.115385769957098067e-02
1.115812639167899217e-02
1.116239554941516818e-02
1.116666517235757189e-02
1.117093526008420407e-02
1.117520581217299955e-02
1.117947682820182032e-02
1.118374830774846590e-02
1.118802025039067338e-02
1.119229265570611045e-02
1.119656552327237369e-02
1.120083885266699546e-02
1.120511264346743183e-02
1.120938689525106426e-02
1.121366160759521349e-02
1.121793678007713610e-02
1.122221241227401752e-02
1.122648850376298246e-02
1.123076505412108975e-02
1.123504206292533572e-02
1.123931952975264562e-02
1.124359745417987874e-02
1.124787583578382849e-02
1.125215467414121193e-02
1.125643396882867846e-02
1.126071371942281157e-02
1.126499392550012885e-02
1.126927458663707325e-02
1.127355570241001838e-02
1.127783727239527883e-02
1.128211929616910504e-02
1.128640177330768671e-02
1.129068470338714762e-02
1.129496808598354739e-02
1.129925192067289356e-02
1.130353620703112086e-02
1.130782094463410499e-02
1.131210613305765750e-02
1.131639177187751880e-02
1.132067786066936338e-02
1.132496439900880850e-02
1.132925138647140895e-02
1.133353882263265534e-02
1.133782670706796544e-02
1.134211503935269282e-02
1.134640381906213552e-02
1.135069304577153611e-02
1.135498271905608855e-02
1.135927283849092438e-02
1.136356340365111788e-02
1.136785441411167913e-02
1.137214586944755058e-02
1.137643776923361397e-02
1.138073011304469376e-02
1.138502290045555025e-02
1.138931613104089864e-02
1.139360980437539514e-02
1.139790392003364565e-02
1.140219847759020057e-02
1.140649347661955131e-02
1.141078891669614244e-02
1.141508479739436477e-02
1.141938111828854144e-02
1.142367787895293314e-02
1.142797507896174854e-02
1.143227271788913903e-02
1.143657079530919531e-02
1.144086931079594735e-02
1.144516826392338003e-02
1.144946765426542445e-02
1.145376748139595793e-02
1.145806774488879361e-02
1.146236844431769430e-02
1.146666957925636388e-02
1.147097114927844719e-02
1.147527315395753013e-02
1.147957559286714134e-02
1.148387846558074528e-02
1.148818177167174742e-02
1.149248551071348906e-02
1.149678968227926291e-02
1.150109428594231140e-02
1.150539932127581794e-02
1.150970478785291566e-02
1.151401068524668045e-02
1.151831701303013787e-02
1.152262377077626493e-02
1.152693095805798311e-02
1.153123857444816533e-02
1.153554661951963420e-02
1.153985509284516202e-02
1.154416399399747425e-02
1.154847332254924260e-02
1.155278307807308842e-02
1.155709326014158975e-02
1.156140386832726387e-02
1.156571490220258125e-02
1.157002636133996377e-02
1.157433824531178650e-02
1.157865055369037763e-02
1.158296328604801681e-02
1.158727644195692817e-02
1.159159002098927513e-02
1.159590402271717599e-02
1.160021844671268836e-02
1.160453329254781431e-02
1.160884855979451603e-02
1.161316424802471062e-02
1.161748035681026310e-02
1.162179688572298648e-02
1.162611383433464693e-02
1.163043120221696376e-02
1.163474898894161121e-02
1.163906719408022358e-02
1.164338581720439011e-02
1.164770485788565665e-02
1.165202431569552222e-02
1.165634419020543378e-02
1.166066448098680187e-02
1.166498518761098502e-02
1.166930630964929140e-02
1.167362784667298585e-02
1.167794979825328809e-02
1.168227216396136581e-02
1.168659494336834158e-02
1.169091813604530156e-02
1.169524174156328332e-02
1.169956575949328108e-02
1.170389018940625261e-02
1.170821503087310714e-02
1.171254028346470182e-02
1.171686594675185565e-02
1.172119202030533214e-02
1.172551850369586007e-02
1.172984539649412662e-02
1.173417269827077558e-02
1.173850040859641432e-02
1.174282852704160163e-02
1.174715705317686161e-02
1.175148598657266286e-02
1.175581532679941844e-02
1.176014507342749288e-02
1.176447522602721597e-02
1.176880578416888284e-02
1.177313674742274004e-02
1.177746811535898726e-02
1.178179988754777738e-02
1.178613206355921990e-02
1.179046464296338269e-02
1.179479762533029545e-02
1.179913101022994106e-02
1.180346479723226073e-02
1.180779898590714888e-02
1.181213357582446000e-02
1.181646856655400001e-02
1.182080395766552799e-02
1.182513974872875795e-02
1.182947593931335875e-02
1.183381252898895244e-02
1.183814951732511944e-02
1.184248690389140025e-02
1.184682468825729029e-02
1.185116286999223986e-02
1.185550144866566805e-02
1.185984042384695576e-02
1.186417979510543709e-02
1.186851956201041315e-02
1.187285972413114864e-02
1.187720028103687701e-02
1.188154123229679879e-02
1.188588257748006936e-02
1.189022431615580598e-02
1.189456644789308251e-02
1.189890897226092946e-02
1.190325188882833743e-02
1.190759519716425886e-02
1.191193889683761151e-02
1.191628298741728188e-02
1.192062746847210968e-02
1.192497233957089814e-02
1.192931760028241583e-02
1.193366325017539489e-02
1.193800928881852234e-02
1.194235571578044185e-02
1.194670253062976757e-02
1.195104973293508246e-02
1.195539732226492610e-02
1.195974529818781031e-02
1.196409366027221220e-02
1.196844240808657249e-02
1.197279154119929370e-02
1.197714105917873501e-02
1.198149096159322781e-02
1.198584124801106883e-02
1.199019191800051315e-02
1.199454297112978116e-02
1.199889440696705681e-02
1.200324622508048764e-02
1.200759842503818647e-02
1.201195100640822452e-02
1.201630396875863829e-02
1.202065731165742266e-02
1.202501103467254473e-02
1.202936513737193694e-02
1.203371961932349701e-02
1.203807448009508105e-02
1.204242971925451045e-02
1.204678533636957191e-02
1.205114133100802613e-02
1.205549770273760084e-02
1.205985445112599599e-02
1.206421157574087688e-02
1.206856907614988102e-02
1.207292695192061990e-02
1.207728520262066514e-02
1.208164382781756752e-02
1.208600282707883791e-02
1.209036219997195426e-02
1.209472194606436152e-02
1.209908206492347170e-02
1.210344255611665518e-02
1.210780341921124936e-02
1.211216465377456045e-02
1.211652625937385645e-02
1.212088823557637245e-02
1.212525058194931574e-02
1.212961329805987455e-02
1.213397638347521283e-02
1.213833983776245462e-02
1.214270366048869794e-02
1.214706785122100265e-02
1.215143240952640258e-02
1.215579733497191249e-02
1.216016262712452979e-02
1.216452828555122760e-02
1.216889430981894088e-02
1.217326069949457162e-02
1.217762745414499581e-02
1.218199457333705299e-02
1.218636205663755322e-02
1.219072990361327359e-02
1.219509811383096519e-02
1.219946668685735480e-02
1.220383562225914494e-02
1.220820491960300687e-02
1.221257457845558760e-02
1.221694459838350462e-02
1.222131497895333901e-02
1.222568571973163890e-02
1.223005682028491942e-02
1.223442828017966624e-02
1.223880009898234422e-02
1.224317227625938698e-02
1.224754481157718823e-02
1.225191770450210528e-02
1.225629095460045899e-02
1.226066456143852686e-02
1.226503852458256383e-02
1.226941284359879189e-02
1.227378751805340874e-02
1.227816254751257739e-02
1.228253793154243136e-02
1.228691366970906598e-02
1.229128976157854020e-02
1.229566620671689210e-02
1.230004300469012164e-02
1.230442015506419753e-02
1.230879765740505380e-02
1.231317551127860191e-02
1.231755371625072384e-02
1.232193227188727210e-02
1.232631117775406793e-02
1.233069043341689618e-02
1.233507003844151392e-02
1.233944999239365743e-02
1.234383029483904042e-02
1.234821094534335403e-02
1.235259194347226169e-02
1.235697328879140425e-02
1.236135498086640000e-02
1.236573701926284470e-02
1.237011940354631155e-02
1.237450213328234599e-02
1.237888520803647960e-02
1.238326862737422311e-02
1.238765239086106473e-02
1.239203649806246317e-02
1.239642094854385632e-02
1.240080574187066818e-02
1.240519087760830023e-02
1.240957635532212444e-02
1.241396217457748676e-02
1.241834833493970537e-02
1.242273483597407593e-02
1.242712167724585939e-02
1.243150885832028894e-02
1.243589637876257002e-02
1.244028423813788552e-02
1.244467243601139056e-02
1.244906097194821426e-02
1.245344984551345797e-02
1.245783905627219530e-02
1.246222860378947035e-02
1.246661848763030642e-02
1.247100870735969383e-02
1.247539926254260904e-02
1.247979015274400770e-02
1.248418137752882462e-02
1.248857293646195993e-02
1.249296482910829294e-02
1.249735705503268388e-02
1.250174961379997216e-02
1.250614250497496770e-02
1.251053572812246134e-02
1.251492928280721791e-02
1.251932316859397445e-02
1.252371738504744203e-02
1.252811193173231259e-02
1.253250680821325555e-02
1.253690201405492644e-02
1.254129754882196170e-02
1.254569341207897697e-02
1.255008960339055492e-02
1.255448612232125220e-02
1.255888296843560466e-02
1.256328014129814118e-02
1.256767764047335770e-02
1.257207546552573108e-02
1.257647361601971735e-02
1.258087209151974653e-02
1.258527089159022262e-02
1.258967001579552880e-02
1.259406946370002743e-02
1.259846923486806873e-02
1.260286932886398557e-02
1.260726974525209002e-02
1.261167048359667330e-02
1.261607154346200931e-02
1.262047292441236500e-02
1.262487462601199345e-02
1.262927664782513039e-02
1.263367898941599940e-02
1.263808165034880325e-02
1.264248463018771695e-02
1.264688792849689644e-02
1.265129154484047336e-02
1.265569547878256026e-02
1.266009972988724891e-02
1.266450429771860502e-02
1.266890918184068390e-02
1.267331438181752007e-02
1.267771989721312720e-02
1.268212572759149469e-02
1.268653187251659285e-02
1.269093833155236599e-02
1.269534510426274625e-02
1.269975219021164496e-02
1.270415958896295439e-02
1.270856730008054943e-02
1.271297532312827896e-02
1.271738365766997107e-02
1.272179230326944167e-02
1.272620125949048241e-02
1.273061052589686583e-02
1.273502010205235235e-02
1.273942998752068331e-02
1.274384018186558616e-02
1.274825068465076927e-02
1.275266149543991673e-02
1.275707261379668833e-02
1.276148403928471786e-02
1.276589577146762522e-02
1.277030780990900428e-02
1.277472015417242986e-02
1.277913280382146285e-02
1.278354575841963992e-02
1.278795901753048206e-02
1.279237258071748255e-02
1.279678644754412078e-02
1.280120061757385880e-02
1.280561509037013955e-02
1.281002986549638692e-02
1.281444494251600570e-02
1.281886032099238161e-02
1.282327600048888995e-02
1.282769198056888695e-02
1.283210826079570800e-02
1.283652484073267638e-02
1.284094171994309801e-02
1.284535889799025971e-02
1.284977637443742923e-02
1.285419414884786393e-02
1.285861222078480207e-02
1.286303058981145414e-02
1.286744925549101158e-02
1.287186821738664846e-02
1.287628747506153366e-02
1.288070702807881003e-02
1.288512687600159440e-02
1.288954701839298278e-02
1.289396745481605384e-02
1.289838818483386891e-02
1.290280920800946848e-02
1.290723052390587398e-02
1.291165213208610336e-02
1.291607403211316417e-02
1.292049622355005180e-02
1.292491870595974778e-02
1.292934147890521281e-02
1.293376454194938852e-02
1.293818789465520612e-02
1.294261153658557775e-02
1.294703546730339647e-02
1.295145968637153797e-02
1.295588419335285887e-02
1.296030898781020194e-02
1.296473406930638388e-02
1.296915943740419540e-02
1.297358509166641333e-02
1.297801103165580408e-02
1.298243725693510979e-02
1.298686376706705177e-02
1.299129056161433225e-02
1.299571764013964133e-02
1.300014500220565694e-02
1.300457264737504490e-02
1.300900057521044324e-02
1.301342878527447268e-02
1.301785727712974350e-02
1.302228605033885038e-02
1.302671510446436719e-02
1.303114443906885044e-02
1.303557405371484623e-02
1.304000394796487466e-02
1.304443412138144888e-02
1.304886457352706294e-02
1.305329530396419878e-02
1.305772631225533137e-02
1.306215759796291488e-02
1.306658916064938440e-02
1.307102099987715073e-02
1.307545311520861946e-02
1.307988550620618924e-02
1.308431817243224486e-02
1.308875111344915895e-02
1.309318432881928507e-02
1.309761781810496288e-02
1.310205158086851993e-02
1.310648561667227159e-02
1.311091992507851245e-02
1.311535450564951799e-02
1.311978935794755156e-02
1.312422448153485570e-02
1.312865987597365384e-02
1.313309554082615037e-02
1.313753147565453576e-02
1.314196768002098663e-02
1.314640415348766571e-02
1.315084089561673573e-02
1.315527790597034730e-02
1.315971518411062496e-02
1.316415272959968637e-02
1.316859054199962312e-02
1.317302862087250774e-02
1.317746696578039715e-02
1.318190557628533960e-02
1.318634445194935730e-02
1.319078359233445338e-02
1.319522299700261192e-02
1.319966266551580482e-02
1.320410259743598144e-02
1.320854279232506860e-02
1.321298324974497923e-02
1.321742396925761412e-02
1.322186495042486885e-02
1.322630619280862341e-02
1.323074769597073000e-02
1.323518945947302176e-02
1.323963148287732317e-02
1.324407376574545173e-02
1.324851630763920589e-02
1.325295910812036848e-02
1.325740216675069978e-02
1.326184548309195486e-02
1.326628905670586972e-02
1.327073288715416473e-02
1.327517697399853772e-02
1.327962131680067263e-02
1.328406591512224649e-02
1.328851076852491549e-02
1.329295587657031326e-02
1.329740123882006478e-02
1.330184685483576726e-02
1.330629272417899016e-02
1.331073884641128906e-02
1.331518522109421086e-02
1.331963184778927473e-02
1.332407872605797898e-02
1.332852585546180461e-02
1.333297323556221874e-02
1.333742086592066764e-02
1.334186874609858894e-02
1.334631687565740639e-02
1.335076525415852117e-02
1.335521388116331885e-02
1.335966275623316941e-02
1.336411187892942720e-02
1.336856124881342575e-02
1.337301086544648993e-02
1.337746072838992203e-02
1.338191083720501572e-02
1.338636119145303512e-02
1.339081179069523050e-02
1.339526263449283480e-02
1.339971372240706358e-02
1.340416505399911855e-02
1.340861662883019272e-02
1.341306844646145656e-02
1.341752050645406494e-02
1.342197280836914842e-02
1.342642535176782198e-02
1.343087813621117801e-02
1.343533116126028465e-02
1.343978442647618746e-02
1.344423793141991119e-02
1.344869167565246500e-02
1.345314565873483893e-02
1.345759988022799704e-02
1.346205433969288080e-02
1.346650903669041784e-02
1.347096397078152707e-02
1.347541914152711011e-02
1.347987454848805118e-02
1.348433019122522412e-02
1.348878606929947849e-02
1.349324218227164647e-02
1.349769852970254987e-02
1.350215511115300006e-02
1.350661192618377894e-02
1.351106897435565279e-02
1.351552625522937576e-02
1.351998376836567595e-02
1.352444151332526587e-02
1.352889948966884935e-02
1.353335769695711115e-02
1.353781613475071692e-02
1.354227480261032193e-02
1.354673370009655715e-02
1.355119282677002927e-02
1.355565218219133283e-02
1.356011176592104329e-02
1.356457157751972051e-02
1.356903161654790697e-02
1.357349188256613132e-02
1.357795237513489787e-02
1.358241309381468670e-02
1.358687403816596397e-02
1.359133520774917850e-02
1.359579660212475484e-02
1.360025822085309671e-02
1.360472006349459743e-02
1.360918212960963297e-02
1.361364441875856542e-02
1.361810693050173084e-02
1.362256966439943234e-02
1.362703262001194009e-02
1.363149579689950687e-02
1.363595919462235947e-02
1.364042281274071081e-02
1.364488665081475989e-02
1.364935070840469361e-02
1.365381498507068150e-02
1.365827948037287229e-02
1.366274419387139213e-02
1.366720912512634813e-02
1.367167427369783000e-02
1.367613963914590149e-02
1.368060522103059680e-02
1.368507101891193629e-02
1.368953703234991603e-02
1.369400326090450433e-02
1.369846970413565387e-02
1.370293636160329828e-02
1.370740323286735729e-02
1.371187031748773502e-02
1.371633761502432346e-02
1.372080512503700070e-02
1.372527284708562230e-02
1.372974078073003167e-02
1.373420892553004445e-02
1.373867728104546070e-02
1.374314584683606656e-02
1.374761462246162740e-02
1.375208360748188079e-02
1.375655280145655565e-02
1.376102220394536529e-02
1.376549181450799526e-02
1.376996163270410856e-02
1.377443165809334562e-02
1.377890189023532608e-02
1.378337232868965395e-02
1.378784297301591071e-02
1.379231382277366393e-02
1.379678487752245171e-02
1.380125613682180175e-02
1.380572760023121917e-02
1.381019926731018831e-02
1.381467113761817092e-02
1.381914321071460450e-02
1.382361548615889703e-02
1.382808796351043396e-02
1.383256064232858337e-02
1.383703352217269603e-02
1.384150660260210705e-02
1.384597988317612383e-02
1.385045336345402944e-02
1.385492704299508097e-02
1.385940092135851121e-02
1.386387499810353037e-02
1.386834927278932615e-02
1.387282374497506715e-02
1.387729841421989074e-02
1.388177328008291869e-02
1.388624834212324154e-02
1.389072359989993247e-02
1.389519905297204559e-02
1.389967470089862288e-02
1.390415054323868374e-02
1.390862657955121810e-02
1.391310280939518987e-02
1.391757923232954212e-02
1.392205584791319194e-02
1.392653265570503902e-02
1.393100965526395188e-02
1.393548684614877471e-02
1.393996422791833958e-02
1.394444180013146468e-02
1.394891956234694912e-02
1.395339751412356076e-02
1.395787565502003454e-02
1.396235398459507934e-02
1.396683250240739194e-02
1.397131120801564826e-02
1.397579010097850516e-02
1.398026918085460042e-02
1.398474844720254406e-02
1.398922789958092008e-02
1.399370753754827952e-02
1.399818736066314566e-02
1.400266736848400709e-02
1.400714756056933158e-02
1.401162793647757476e-02
1.401610849576716451e-02
1.402058923799650615e-02
1.402507016272397898e-02
1.402955126950793628e-02
1.403403255790671572e-02
1.403851402747863242e-02
1.404299567778197373e-02
1.404747750837499927e-02
1.405195951881593394e-02
1.405644170866298011e-02
1.406092407747431758e-02
1.406540662480810534e-02
1.406988935022247464e-02
1.407437225327552721e-02
1.407885533352533532e-02
1.408333859052995039e-02
1.408782202384740827e-02
1.409230563303571354e-02
1.409678941765284826e-02
1.410127337725678061e-02
1.410575751140544752e-02
1.411024181965676860e-02
1.411472630156863570e-02
1.411921095669890942e-02
1.412369578460541744e-02
1.412818078484595792e-02
1.413266595697830127e-02
1.413715130056018843e-02
1.414163681514932734e-02
1.414612250030339996e-02
1.415060835558007261e-02
1.415509438053698214e-02
1.415958057473175324e-02
1.416406693772198459e-02
1.416855346906523670e-02
1.417304016831903192e-02
1.417752703504086137e-02
1.418201406878819189e-02
1.418650126911846603e-02
1.419098863558910031e-02
1.419547616775747832e-02
1.419996386518095240e-02
1.420445172741684886e-02
1.420893975402247322e-02
1.421342794455510497e-02
1.421791629857199930e-02
1.422240481563039234e-02
1.422689349528748551e-02
1.423138233710045421e-02
1.423587134062644782e-02
1.424036050542259492e-02
1.424484983104599804e-02
1.424933931705372678e-02
1.425382896300282295e-02
1.425831876845029371e-02
1.426280873295311148e-02
1.426729885606822096e-02
1.427178913735253907e-02
1.427627957636296192e-02
1.428077017265635094e-02
1.428526092578953285e-02
1.428975183531930662e-02
1.429424290080243652e-02
1.429873412179565907e-02
1.430322549785568824e-02
1.430771702853921371e-02
1.431220871340289739e-02
1.431670055200337521e-02
1.432119254389726572e-02
1.432568468864116318e-02
1.433017698579163411e-02
1.433466943490521554e-02
1.433916203553840113e-02
1.434365478724764810e-02
1.434814768958938246e-02
1.435264074212000071e-02
1.435713394439586295e-02
1.436162729597330497e-02
1.436612079640863827e-02
1.437061444525814316e-02
1.437510824207807736e-02
1.437960218642466738e-02
1.438409627785409983e-02
1.438859051592251796e-02
1.439308490018603379e-02
1.439757943020072636e-02
1.440207410552264353e-02
1.440656892570779495e-02
1.441106389031215906e-02
1.441555899889168831e-02
1.442005425100230213e-02
1.442454964619988879e-02
1.442904518404031049e-02
1.443354086407938781e-02
1.443803668587291533e-02
1.444253264897664944e-02
1.444702875294631358e-02
1.445152499733759650e-02
1.445602138170615225e-02
1.446051790560760886e-02
1.446501456859756139e-02
1.446951137023157023e-02
1.447400831006516279e-02
1.447850538765383874e-02
1.448300260255307517e-02
1.448749995431831625e-02
1.449199744250496448e-02
1.449649506666838596e-02
1.450099282636392074e-02
1.450549072114687421e-02
1.450998875057251357e-02
1.451448691419607827e-02
1.451898521157277480e-02
1.452348364225777150e-02
1.452798220580619852e-02
1.453248090177315134e-02
1.453697972971369767e-02
1.454147868918286880e-02
1.454597777973565785e-02
1.455047700092702845e-02
1.455497635231191474e-02
1.455947583344521269e-02
1.456397544388178880e-02
1.456847518317647312e-02
1.457297505088405581e-02
1.457747504655928887e-02
1.458197516975688092e-02
1.458647542003149548e-02
1.459097579693775792e-02
1.459547630003025544e-02
1.459997692886354399e-02
1.460447768299214660e-02
1.460897856197055332e-02
1.461347956535321603e-02
1.461798069269454152e-02
1.462248194354889667e-02
1.462698331747061542e-02
1.463148481401399352e-02
1.463598643273329204e-02
1.464048817318273736e-02
1.464499003491651768e-02
1.464949201748878133e-02
1.465399412045362802e-02
1.465849634336512282e-02
1.466299868577730474e-02
1.466750114724415903e-02
1.467200372731962757e-02
1.467650642555761754e-02
1.468100924151198930e-02
1.468551217473656675e-02
1.469001522478512525e-02
1.469451839121140024e-02
1.469902167356907687e-02
1.470352507141181077e-02
1.470802858429321597e-02
1.471253221176687005e-02
1.471703595338630551e-02
1.472153980870500624e-02
1.472604377727641453e-02
1.473054785865393450e-02
1.473505205239092689e-02
1.473955635804072295e-02
1.474406077515661578e-02
1.474856530329186032e-02
1.475306994199966810e-02
1.475757469083320041e-02
1.476207954934557337e-02
1.476658451708986498e-02
1.477108959361912201e-02
1.477559477848634610e-02
1.478010007124450076e-02
1.478460547144649744e-02
1.478911097864520768e-02
1.479361659239347010e-02
1.479812231224407817e-02
1.480262813774977163e-02
1.480713406846323639e-02
1.481164010393711157e-02
1.481614624372399464e-02
1.482065248737642407e-02
1.482515883444690021e-02
1.482966528448787479e-02
1.483417183705175099e-02
1.483867849169089731e-02
1.484318524795764233e-02
1.484769210540427473e-02
1.485219906358303983e-02
1.485670612204613265e-02
1.486121328034570137e-02
1.486572053803384731e-02
1.487022789466262845e-02
1.487473534978405072e-02
1.487924290295007147e-02
1.488375055371258734e-02
1.488825830162345161e-02
1.489276614623446550e-02
1.489727408709737994e-02
1.490178212376389727e-02
1.490629025578566955e-02
1.491079848271430371e-02
1.491530680410136159e-02
1.491981521949836860e-02
1.492432372845680678e-02
1.492883233052811308e-02
1.493334102526367932e-02
1.493784981221485224e-02
1.494235869093292653e-02
1.494686766096915004e-02
1.495137672187473246e-02
1.495588587320084706e-02
1.496039511449860637e-02
1.496490444531907611e-02
1.496941386521326821e-02
1.497392337373214082e-02
1.497843297042660005e-02
1.498294265484750518e-02
1.498745242654566170e-02
1.499196228507182135e-02
1.499647222997668033e-02
1.500098226081088108e-02
1.500549237712502613e-02
1.501000257846967639e-02
1.501451286439535113e-02
1.501902323445252103e-02
1.502353368819161518e-02
1.502804422516300017e-02
1.503255484491698019e-02
1.503706554700380386e-02
1.504157633097366435e-02
1.504608719637669234e-02
1.505059814276296301e-02
1.505510916968249430e-02
1.505962027668525209e-02
1.506413146332115892e-02
1.506864272914008179e-02
1.507315407369183916e-02
1.507766549652619220e-02
1.508217699719284315e-02
1.508668857524144216e-02
1.509120023022158044e-02
1.509571196168278499e-02
1.510022376917453252e-02
1.510473565224624767e-02
1.510924761044730481e-02
1.511375964332702798e-02
1.511827175043468745e-02
1.512278393131949276e-02
1.512729618553059451e-02
1.513180851261709120e-02
1.513632091212801546e-02
1.514083338361234786e-02
1.514534592661901692e-02
1.514985854069690434e-02
1.515437122539484496e-02
1.515888398026161293e-02
1.516339680484592167e-02
1.516790969869643256e-02
1.517242266136175841e-02
1.517693569239045651e-02
1.518144879133103212e-02
1.518596195773193672e-02
1.519047519114155934e-02
1.519498849110822829e-02
1.519950185718021117e-02
1.520401528890571140e-02
1.520852878583288381e-02
1.521304234750982254e-02
1.521755597348455925e-02
1.522206966330507012e-02
1.522658341651928274e-02
1.523109723267505530e-02
1.523561111132018878e-02
1.524012505200242860e-02
1.524463905426946646e-02
1.524915311766894196e-02
1.525366724174842883e-02
1.525818142605544700e-02
1.526269567013746088e-02
1.526720997354187592e-02
1.527172433581604032e-02
1.527623875650723807e-02
1.528075323516269596e-02
1.528526777132957655e-02
1.528978236455498345e-02
1.529429701438595607e-02
1.529881172036947658e-02
1.530332648205247510e-02
1.530784129898180891e-02
1.531235617070427109e-02
1.531687109676659053e-02
1.532138607671543022e-02
1.532590111009739416e-02
1.533041619645902735e-02
1.533493133534681585e-02
1.533944652630717803e-02
1.534396176888647156e-02
1.534847706263100207e-02
1.535299240708700927e-02
1.535750780180066694e-02
1.536202324631808988e-02
1.536653874018533913e-02
1.537105428294841501e-02
1.537556987415325191e-02
1.538008551334572351e-02
1.538460120007164103e-02
1.538911693387676194e-02
1.539363271430678470e-02
1.539814854090734708e-02
1.540266441322403132e-02
1.540718033080235722e-02
1.541169629318778385e-02
1.541621229992570265e-02
1.542072835056143738e-02
1.542524444464024418e-02
1.542976058170731496e-02
1.543427676130777228e-02
1.543879298298668490e-02
1.544330924628905914e-02
1.544782555075983367e-02
1.545234189594388470e-02
1.545685828138603814e-02
1.546137470663105050e-02
1.546589117122361412e-02
1.547040767470836582e-02
1.547492421662988171e-02
1.547944079653267371e-02
1.548395741396118956e-02
1.548847406845980761e-02
1.549299075957285589e-02
1.549750748684459827e-02
1.550202424981922920e-02
1.550654104804087899e-02
1.551105788105361372e-02
1.551557474840144224e-02
1.552009164962830749e-02
1.552460858427808822e-02
1.552912555189460073e-02
1.553364255202158324e-02
1.553815958420270808e-02
1.554267664798158338e-02
1.554719374290174615e-02
1.555171086850666747e-02
1.555622802433974730e-02
1.556074520994432143e-02
1.556526242486365279e-02
1.556977966864093836e-02
1.557429694081930230e-02
1.557881424094180282e-02
1.558333156855143224e-02
1.558784892319113081e-02
1.559236630440377983e-02
1.559688371173219464e-02
1.560140114471912469e-02
1.560591860290724657e-02
1.561043608583917788e-02
1.561495359305747031e-02
1.561947112410460789e-02
1.562398867852300699e-02
1.562850625585501807e-02
1.563302385564293087e-02
1.563754147742896922e-02
1.564205912075529795e-02
1.564657678516401251e-02
1.565109447019714245e-02
1.565561217539665137e-02
1.566012990030444044e-02
1.566464764446234836e-02
1.566916540741215488e-02
1.567368318869557381e-02
1.567820098785424957e-02
1.568271880442975025e-02
1.568723663796357456e-02
1.569175448799715530e-02
1.569627235407185933e-02
1.570079023572898413e-02
1.570530813250975780e-02
1.570982604395533208e-02
1.571434396960680671e-02
1.571886190900521549e-02
1.572337986169151242e-02
1.572789782720658905e-02
1.573241580509126408e-02
1.573693379488629029e-02
1.574145179613236495e-02
1.574596980837011939e-02
1.575048783114012252e-02
1.575500586398288078e-02
1.575952390643883816e-02
1.576404195804836927e-02
1.576856001835177587e-02
1.577307808688929031e-02
1.577759616320108596e-02
1.578211424682727029e-02
1.578663233730787444e-02
1.579115043418287054e-02
1.579566853699214402e-02
1.580018664527552130e-02
1.580470475857275250e-02
1.580922287642351834e-02
1.581374099836742320e-02
1.581825912394400901e-02
1.582277725269275875e-02
1.582729538415308945e-02
1.583181351786435223e-02
1.583633165336582188e-02
1.584084979019671074e-02
1.584536792789615137e-02
1.584988606600320690e-02
1.585440420405687806e-02
1.585892234159610309e-02
1.586344047815976474e-02
1.586795861328667290e-02
1.587247674651556459e-02
1.587699487738510051e-02
1.588151300543388239e-02
1.588603113020044602e-02
1.589054925122326475e-02
1.589506736804074602e-02
1.589958548019122439e-02
1.590410358721297199e-02
1.590862168864418114e-02
1.591313978402297130e-02
1.591765787288738909e-02
1.592217595477541520e-02
1.592669402922496785e-02
1.593121209577389938e-02
1.593573015395998924e-02
1.594024820332094056e-02
1.594476624339439055e-02
1.594928427371790705e-02
1.595380229382898502e-02
1.595832030326505696e-02
1.596283830156348948e-02
1.596735628826157979e-02
1.597187426289655918e-02
1.597639222500559647e-02
1.598091017412578071e-02
1.598542810979412115e-02
1.598994603154754376e-02
1.599446393892289819e-02
1.599898183145696470e-02
1.600349970868644028e-02
1.600801757014793519e-02
1.601253541537796948e-02
1.601705324391299382e-02
1.602157105528939293e-02
1.602608884904348913e-02
1.603060662471153183e-02
1.603512438182970803e-02
1.603964211993413880e-02
1.604415983856087580e-02
1.604867753724591173e-02
1.605319521552514908e-02
1.605771287293440708e-02
1.606223050900944249e-02
1.606674812328593924e-02
1.607126571529951184e-02
1.607578328458570197e-02
1.608030083067997495e-02
1.608481835311771982e-02
1.608933585143424924e-02
1.609385332516480999e-02
1.609837077384458290e-02
1.610288819700867596e-02
1.610740559419212431e-02
1.611192296492988674e-02
1.611644030875685613e-02
1.612095762520784903e-02
1.612547491381760567e-02
1.612999217412080383e-02
1.613450940565203801e-02
1.613902660794582292e-02
1.614354378053660735e-02
1.614806092295876030e-02
1.615257803474656056e-02
1.615709511543420712e-02
1.616161216455582611e-02
1.616612918164546039e-02
1.617064616623706610e-02
1.617516311786452651e-02
1.617968003606164509e-02
1.618419692036215593e-02
1.618871377029972719e-02
1.619323058540796459e-02
1.619774736522040792e-02
1.620226410927052066e-02
1.620678081709168994e-02
1.621129748821722311e-02
1.621581412218035118e-02
1.622033071851423924e-02
1.622484727675196914e-02
1.622936379642654983e-02
1.623388027707091744e-02
1.623839671821794908e-02
1.624291311940044558e-02
1.624742948015112445e-02
1.625194580000263386e-02
1.625646207848754909e-02
1.626097831513837952e-02
1.626549450948755124e-02
1.627001066106742791e-02
1.627452676941030033e-02
1.627904283404838989e-02
1.628355885451384169e-02
1.628807483033871753e-02
1.629259076105500637e-02
1.629710664619462776e-02
1.630162248528943189e-02
1.630613827787120995e-02
1.631065402347169416e-02
1.631516972162255427e-02
1.631968537185539761e-02
1.632420097370176210e-02
1.632871652669312321e-02
1.633323203036088703e-02
