CH11
-0.85469306
-0.85491633
-0.8551389
-0.85536075
-0.8555818
-0.8558022
-0.85602176
-0.85624063
-0.8564588
-0.85667616
-0.8568928
-0.8571087
-0.8573239
-0.85753834
-0.857752
-0.857965
-0.8581772
-0.85838866
-0.85859936
-0.8588094
-0.8590186
-0.8592272
-0.85943496
-0.85964197
-0.85984826
-0.86005384
-0.86025864
-0.8604627
-0.8606661
-0.8608687
-0.8610705
-0.8612717
-0.8614721
-0.8616717
-0.8618706
-0.8620688
-0.8622662
-0.8624629
-0.8626588
-0.86285406
-0.8630485
-0.8632422
-0.8634352
-0.8636275
-0.863819
-0.86400974
-0.8641998
-0.8643891
-0.86457765
-0.86476547
-0.86495256
-0.8651389
-0.8653245
-0.86550933
-0.86569345
-0.86587685
-0.8660595
-0.8662414
-0.86642253
-0.86660296
-0.86678267
-0.8669616
-0.8671398
-0.86731726
-0.867494
-0.86767
-0.86784524
-0.86801976
-0.8681935
-0.86836654
-0.86853886
-0.8687104
-0.8688812
-0.8690513
-0.8692206
-0.8693892
-0.8695571
-0.86972415
-0.8698906
-0.8700562
-0.8702211
-0.8703852
-0.87054867
-0.8707113
-0.8708733
-0.8710345
-0.87119496
-0.8713547
-0.87151366
-0.8716719
-0.8718294
-0.87198615
-0.8721422
-0.87229747
-0.872452
-0.87260586
-0.8727589
-0.8729112
-0.87306285
-0.8732137
-0.8733638
-0.87351316
-0.8736618
-0.8738097
-0.87395686
-0.87410325
-0.8742489
-0.8743939
-0.87453806
-0.87468153
-0.8748242
-0.8749662
-0.87510747
-0.87524796
-0.8753877
-0.8755268
-0.87566507
-0.8758026
-0.87593937
-0.87607545
-0.8762108
-0.8763454
-0.8764792
-0.8766123
-0.8767447
-0.87687635
-0.87700725
-0.87713736
-0.87726676
-0.87739545
-0.87752336
-0.87765056
-0.87777704
-0.87790275
-0.87802774
-0.87815195
-0.87827545
-0.87839824
-0.87852025
-0.87864155
-0.87876207
-0.8788819
-0.8790009
-0.8791192
-0.8792368
-0.87935364
-0.87946975
-0.87958515
-0.87969977
-0.8798137
-0.8799268
-0.8800392
-0.88015085
-0.8802618
-0.880372
-0.8804814
-0.88059014
-0.88069814
-0.8808054
-0.8809118
-0.8810176
-0.88112265
-0.8812269
-0.88133043
-0.88143325
-0.8815353
-0.8816366
-0.8817372
-0.881837
-0.88193613
-0.8820345
-0.8821321
-0.882229
-0.8823251
-0.88242054
-0.8825152
-0.8826091
-0.88270235
-0.8827948
-0.88288647
-0.8829774
-0.88306767
-0.8831572
-0.8832459
-0.8833339
-0.8834212
-0.8835077
-0.8835935
-0.88367856
-0.8837629
-0.88384646
-0.8839293
-0.8840114
-0.88409275
-0.8841734
-0.88425326
-0.8843324
-0.8844108
-0.88448846
-0.88456535
-0.8846416
-0.884717
-0.88479173
-0.8848657
-0.8849389
-0.8850114
-0.88508314
-0.8851541
-0.8852244
-0.88529396
-0.88536274
-0.88543075
-0.8854981
-0.8855647
-0.8856305
-0.8856956
-0.88575995
-0.88582355
-0.88588643
-0.88594854
-0.88600993
-0.8860706
-0.8861305
-0.8861897
-0.8862482
-0.88630587
-0.8863628
-0.88641906
-0.8864745
-0.88652927
-0.88658327
-0.88663656
-0.88668907
-0.88674086
-0.8867919
-0.8868422
-0.8868918
-0.8869406
-0.8869887
-0.887036
-0.88708264
-0.88712853
-0.88717365
-0.88721806
-0.8872617
-0.8873046
-0.8873468
-0.8873882
-0.8874289
-0.8874689
-0.8875081
-0.88754654
-0.8875843
-0.8876213
-0.8876576
-0.8876931
-0.88772786
-0.8877619
-0.8877952
-0.88782775
-0.8878596
-0.8878907
-0.88792104
-0.88795066
-0.8879795
-0.88800764
-0.888035
-0.88806164
-0.8880876
-0.8881127
-0.88813716
-0.8881609
-0.88818383
-0.88820606
-0.8882275
-0.88824826
-0.88826823
-0.8882875
-0.888306
-0.8883238
-0.88834083
-0.88835716
-0.8883727
-0.8883875
-0.8884016
-0.8884149
-0.88842756
-0.8884394
-0.8884505
-0.88846093
-0.8884706
-0.8884795
-0.88848764
-0.8884951
-0.88850176
-0.8885077
-0.8885129
-0.8885174
-0.88852113
-0.8885241
-0.8885264
-0.88852787
-0.88852865
-0.8885287
-0.888528
-0.88852656
-0.88852435
-0.88852143
-0.8885178
-0.8885134
-0.8885082
-0.88850236
-0.88849574
-0.88848835
-0.88848025
-0.8884714
-0.8884619
-0.8884515
-0.8884405
-0.8884287
-0.8884162
-0.8884029
-0.8883889
-0.88837415
-0.88835865
-0.8883424
-0.88832545
-0.88830775
-0.8882893
-0.8882701
-0.8882502
-0.8882295
-0.8882081
-0.888186
-0.8881631
-0.8881394
-0.8881151
-0.88809
-0.88806415
-0.88803756
-0.88801026
-0.8879822
-0.8879534
-0.88792384
-0.88789356
-0.88786256
-0.8878308
-0.8877983
-0.8877651
-0.88773113
-0.8876964
-0.8876609
-0.88762474
-0.88758785
-0.8875502
-0.88751173
-0.88747257
-0.8874327
-0.8873921
-0.88735074
-0.8873086
-0.88726574
-0.8872222
-0.8871779
-0.8871328
-0.887087
-0.88704044
-0.88699317
-0.8869452
-0.8868964
-0.8868469
-0.88679665
-0.8867457
-0.88669395
-0.8866415
-0.88658834
-0.8865344
-0.88647974
-0.8864243
-0.88636816
-0.88631123
-0.88625365
-0.88619524
-0.8861362
-0.88607633
-0.8860157
-0.8859544
-0.88589233
-0.8858295
-0.88576597
-0.8857017
-0.8856367
-0.8855709
-0.8855044
-0.8854372
-0.8853692
-0.88530046
-0.885231
-0.8851608
-0.8850899
-0.88501817
-0.88494575
-0.8848726
-0.8847987
-0.8847241
-0.88464874
-0.8845726
-0.88449574
-0.88441813
-0.8843398
-0.8842608
-0.88418096
-0.8841004
-0.88401914
-0.88393706
-0.8838543
-0.8837708
-0.88368654
-0.8836016
-0.88351583
-0.8834294
-0.8833422
-0.88325423
-0.8831656
-0.88307613
-0.882986
-0.8828951
-0.88280344
-0.88271105
-0.88261795
-0.88252413
-0.88242954
-0.8823342
-0.8822381
-0.8821413
-0.8820437
-0.88194543
-0.8818464
-0.88174665
-0.88164616
-0.8815449
-0.8814429
-0.88134015
-0.88123673
-0.8811325
-0.8810276
-0.8809219
-0.88081545
-0.8807083
-0.8806004
-0.88049173
-0.88038236
-0.8802722
-0.8801614
-0.88004977
-0.87993747
-0.87982434
-0.87971056
-0.879596
-0.8794807
-0.87936467
-0.8792479
-0.87913036
-0.8790121
-0.87889314
-0.8787734
-0.87865293
-0.8785317
-0.87840974
-0.8782871
-0.87816364
-0.8780395
-0.8779146
-0.87778896
-0.87766254
-0.8775354
-0.87740755
-0.877279
-0.87714964
-0.8770195
-0.8768887
-0.87675714
-0.8766249
-0.87649184
-0.87635803
-0.8762235
-0.87608826
-0.87595224
-0.8758155
-0.87567806
-0.87553984
-0.8754009
-0.8752612
-0.87512076
-0.8749796
-0.8748377
-0.87469506
-0.87455165
-0.87440753
-0.87426263
-0.8741171
-0.8739707
-0.87382364
-0.8736758
-0.8735272
-0.8733779
-0.8732279
-0.8730771
-0.8729256
-0.87277335
-0.87262034
-0.87246656
-0.8723121
-0.87215686
-0.87200093
-0.87184423
-0.8716868
-0.8715286
-0.8713697
-0.87121004
-0.87104964
-0.87088853
-0.87072664
-0.87056404
-0.8704007
-0.87023664
-0.87007177
-0.86990625
-0.8697399
-0.8695729
-0.8694051
-0.8692365
-0.8690673
-0.86889726
-0.86872655
-0.86855507
-0.8683828
-0.8682099
-0.86803615
-0.86786175
-0.86768657
-0.8675106
-0.867334
-0.86715657
-0.86697847
-0.8667996
-0.86661994
-0.86643964
-0.8662585
-0.8660767
-0.86589414
-0.8657108
-0.86552674
-0.86534196
-0.8651564
-0.86497015
-0.86478317
-0.8645954
-0.86440694
-0.8642177
-0.86402774
-0.86383706
-0.8636456
-0.8634534
-0.8632605
-0.86306685
-0.8628724
-0.8626773
-0.8624814
-0.8622848
-0.8620874
-0.86188936
-0.8616905
-0.8614909
-0.86129063
-0.8610896
-0.86088777
-0.8606852
-0.860482
-0.86027795
-0.8600732
-0.8598677
-0.85966146
-0.8594545
-0.8592468
-0.85903835
-0.8588292
-0.8586193
-0.8584086
-0.85819715
-0.857985
-0.8577722
-0.85755855
-0.85734415
-0.8571291
-0.8569132
-0.85669667
-0.85647935
-0.85626125
-0.8560425
-0.8558229
-0.8556027
-0.85538167
-0.8551599
-0.8549374
-0.85471416
-0.8544902
-0.85426617
-0.8540429
-0.8538204
-0.8535986
-0.8533776
-0.85315734
-0.8529378
-0.85271907
-0.8525011
-0.85228384
-0.85206735
-0.85185164
-0.85163665
-0.8514225
-0.851209
-0.8509963
-0.85078436
-0.8505731
-0.8503627
-0.850153
-0.8499441
-0.8497359
-0.8495285
-0.84932184
-0.8491159
-0.84891075
-0.84870636
-0.8485027
-0.8482998
-0.8480977
-0.84789634
-0.8476957
-0.8474958
-0.8472967
-0.84709835
-0.84690076
-0.8467039
-0.8465078
-0.84631246
-0.84611785
-0.845924
-0.84573096
-0.8455386
-0.8453471
-0.84515625
-0.84496623
-0.8447769
-0.8445884
-0.8444006
-0.84421355
-0.8440273
-0.84384173
-0.84365696
-0.84347296
-0.84328973
-0.8431072
-0.8429254
-0.84274447
-0.8425642
-0.84238476
-0.842206
-0.842028
-0.8418508
-0.8416744
-0.8414987
-0.8413237
-0.8411495
-0.84097606
-0.8408034
-0.8406314
-0.84046024
-0.84028983
-0.8401202
-0.8399513
-0.83978313
-0.8396157
-0.83944905
-0.83928317
-0.839118
-0.8389536
-0.83879
-0.83862716
-0.83846503
-0.8383037
-0.83814305
-0.8379832
-0.8378241
-0.8376658
-0.8375082
-0.8373514
-0.8371953
-0.83703995
-0.8368854
-0.83673155
-0.83657855
-0.8364262
-0.8362747
-0.8361239
-0.83597386
-0.83582455
-0.8356761
-0.83552825
-0.83538127
-0.835235
-0.8350895
-0.8349447
-0.8348008
-0.8346575
-0.83451504
-0.8343733
-0.83423233
-0.8340921
-0.83395267
-0.8338139
-0.833676
-0.8335388
-0.83340234
-0.8332666
-0.83313173
-0.8329975
-0.8328641
-0.8327314
-0.8325995
-0.8324684
-0.832338
-0.83220834
-0.8320794
-0.83195126
-0.8318239
-0.8316973
-0.8315714
-0.8314463
-0.8313219
-0.8311983
-0.83107543
-0.83095336
-0.830832
-0.8307114
-0.8305916
-0.8304725
-0.8303542
-0.8302366
-0.8301198
-0.83000374
-0.82988846
-0.8297739
-0.8296601
-0.82954705
-0.8294348
-0.8293233
-0.8292125
-0.82910246
-0.8289932
-0.8288847
-0.82877696
-0.82866997
-0.8285637
-0.82845825
-0.8283535
-0.8282495
-0.8281463
-0.8280438
-0.82794213
-0.82784116
-0.82774097
-0.82764155
-0.82754284
-0.8274449
-0.8273477
-0.8272513
-0.8271556
-0.8270607
-0.8269665
-0.8268731
-0.8267805
-0.8266886
-0.82659745
-0.8265071
-0.82641745
-0.8263286
-0.8262404
-0.8261531
-0.8260665
-0.8259806
-0.8258955
-0.82581115
-0.8257276
-0.82564473
-0.82556266
-0.82548136
-0.82540077
-0.82532096
-0.8252419
-0.8251636
-0.82508606
-0.8250092
-0.82493323
-0.82485795
-0.8247834
-0.8247096
-0.8246366
-0.82456434
-0.8244928
-0.82442206
-0.8243521
-0.8242828
-0.82421434
-0.8241466
-0.82407963
-0.8240134
-0.82394797
-0.82388324
-0.8238193
-0.8237561
-0.82369363
-0.82363194
-0.823571
-0.8235108
-0.8234514
-0.8233927
-0.8233348
-0.82327765
-0.8232212
-0.8231656
-0.8231107
-0.8230565
-0.8230032
-0.82295054
-0.8228986
-0.82284755
-0.8227972
-0.8227475
-0.8226987
-0.8226506
-0.8226032
-0.8225567
-0.82251084
-0.8224657
-0.82242143
-0.82237786
-0.822335
-0.822293
-0.8222517
-0.8222111
-0.82217133
-0.8221323
-0.82209396
-0.8220565
-0.8220197
-0.82198364
-0.8219484
-0.8219139
-0.8218801
-0.82184714
-0.8218149
-0.82178336
-0.82175267
-0.8217227
-0.8216934
-0.821665
-0.8216373
-0.82161033
-0.8215841
-0.82155865
-0.821534
-0.82151
-0.82148683
-0.8214644
-0.8214427
-0.8214218
-0.82140166
-0.8213822
-0.82136357
-0.8213457
-0.8213285
-0.8213121
-0.8212965
-0.8212817
-0.82126755
-0.82125413
-0.82124156
-0.8212297
-0.82121855
-0.82120824
-0.82119864
-0.8211898
-0.8211817
-0.8211744
-0.8211678
-0.821162
-0.8211569
-0.8211526
-0.82114905
-0.8211463
-0.8211442
-0.821143
-0.82114244
-0.8211426
-0.8211436
-0.82114536
-0.82114786
-0.8211511
-0.8211551
-0.82115984
-0.8211653
-0.8211716
-0.8211786
-0.8211864
-0.82119495
-0.8212042
-0.82121426
-0.82122505
-0.8212366
-0.8212489
-0.82126194
-0.8212758
-0.8212903
-0.8213057
-0.8213217
-0.8213386
-0.8213562
-0.82137454
-0.8213936
-0.82141346
-0.8214341
-0.8214554
-0.8214776
-0.8215004
-0.8215241
-0.82154846
-0.8215736
-0.8215995
-0.8216261
-0.82165354
-0.8216817
-0.82171065
-0.82174027
-0.8217707
-0.8218019
-0.82183385
-0.8218665
-0.82189995
-0.82193416
-0.82196915
-0.82200485
-0.82204133
-0.8220785
-0.8221165
-0.82215524
-0.8221947
-0.822235
-0.82227594
-0.8223177
-0.8223602
-0.8224035
-0.8224475
-0.82249224
-0.8225378
-0.8225841
-0.8226311
-0.8226789
-0.82272744
-0.82277673
-0.8228268
-0.82287765
-0.8229292
-0.82298154
-0.8230346
-0.8230884
-0.823143
-0.8231984
-0.82325447
-0.8233113
-0.8233689
-0.82342726
-0.8234864
-0.8235463
-0.8236069
-0.8236683
-0.8237304
-0.8237933
-0.82385695
-0.8239214
-0.82398653
-0.82405245
-0.8241191
-0.82418656
-0.8242547
-0.82432365
-0.82439333
-0.8244638
-0.824535
-0.82460696
-0.8246797
-0.8247531
-0.8248273
-0.8249023
-0.82497805
-0.8250545
-0.8251318
-0.82520974
-0.82528853
-0.825368
-0.8254483
-0.8255288
-0.825609
-0.82568896
-0.82576853
-0.82584774
-0.82592666
-0.8260052
-0.8260835
-0.82616144
-0.826239
-0.8263163
-0.82639325
-0.82646984
-0.82654613
-0.82662207
-0.82669765
-0.826773
-0.8268479
-0.82692254
-0.82699686
-0.82707083
-0.8271445
-0.8272178
-0.8272908
-0.82736343
-0.8274358
-0.8275078
-0.82757944
-0.8276508
-0.82772183
-0.8277925
-0.82786286
-0.8279329
-0.8280026
-0.82807195
-0.828141
-0.8282097
-0.82827806
-0.82834613
-0.82841384
-0.82848126
-0.8285483
-0.82861507
-0.82868147
-0.8287476
-0.8288133
-0.8288787
-0.8289438
-0.8290086
-0.829073
-0.82913715
-0.8292009
-0.82926434
-0.82932746
-0.8293902
-0.8294527
-0.82951486
-0.8295767
-0.8296381
-0.8296993
-0.8297601
-0.8298206
-0.8298807
-0.82994056
-0.83000004
-0.83005923
-0.83011806
-0.8301766
-0.83023477
-0.83029264
-0.83035016
-0.8304073
-0.8304642
-0.83052075
-0.83057696
-0.8306328
-0.83068836
-0.8307436
-0.8307985
-0.83085304
-0.8309073
-0.8309612
-0.8310148
-0.83106804
-0.83112097
-0.83117354
-0.8312258
-0.8312777
-0.83132935
-0.8313806
-0.83143157
-0.8314822
-0.8315325
-0.8315824
-0.8316321
-0.8316814
-0.8317303
-0.83177894
-0.8318273
-0.83187526
-0.83192295
-0.8319703
-0.83201724
-0.8320639
-0.8321103
-0.83215624
-0.83220196
-0.8322473
-0.8322923
-0.832337
-0.83238137
-0.8324254
-0.8324691
-0.8325125
-0.83255553
-0.83259827
-0.83264065
-0.8326827
-0.83272445
-0.8327659
-0.83280694
-0.8328477
-0.8328881
-0.8329282
-0.83296794
-0.8330074
-0.8330465
-0.83308524
-0.8331237
-0.83316183
-0.8331996
-0.83323705
-0.8332742
-0.833311
-0.83334744
-0.8333836
-0.83341944
-0.8334549
-0.8334901
-0.8335249
-0.8335594
-0.83359355
-0.8336274
-0.8336609
-0.83369404
-0.83372694
-0.8337594
-0.8337916
-0.8338235
-0.83385503
-0.8338862
-0.83391714
-0.83394766
-0.8339779
-0.83400774
-0.8340373
-0.83406657
-0.8340955
-0.834124
-0.8341523
-0.8341802
-0.8342078
-0.834235
-0.83426195
-0.8342886
-0.8343148
-0.8343408
-0.8343664
-0.83439165
-0.8344166
-0.83444124
-0.83446556
-0.8344895
-0.8345132
-0.8345365
-0.83455944
-0.8345821
-0.83460444
-0.83462644
-0.8346481
-0.8346694
-0.83469045
-0.83471113
-0.83473146
-0.8347515
-0.83477116
-0.8347905
-0.83480954
-0.83482826
-0.8348466
-0.8348647
-0.8348824
-0.8348998
-0.83491683
-0.8349336
-0.83495
-0.83496606
-0.8349818
-0.83499724
-0.8350123
-0.83502704
-0.83504146
-0.8350556
-0.83506936
-0.83508277
-0.8350959
-0.8351087
-0.83512115
-0.83513325
-0.83514506
-0.8351565
-0.83516765
-0.83517843
-0.8351889
-0.8351991
-0.8352089
-0.8352184
-0.83522755
-0.83523643
-0.8352449
-0.83525306
-0.8352609
-0.83526844
-0.83527565
-0.8352825
-0.835289
-0.8352952
-0.8353011
-0.83530664
-0.8353119
-0.8353167
-0.8353213
-0.83532554
-0.8353294
-0.835333
-0.83533627
-0.8353391
-0.83534175
-0.835344
-0.8353459
-0.83534753
-0.8353488
-0.83534974
-0.83535033
-0.83535063
-0.8353506
-0.83535016
-0.8353495
-0.8353484
-0.83534706
-0.8353454
-0.83534336
-0.835341
-0.8353383
-0.8353353
-0.835332
-0.8353283
-0.8353243
-0.83532
-0.83531535
-0.83531034
-0.83530504
-0.8352994
-0.8352934
-0.8352871
-0.8352805
-0.8352735
-0.83526623
-0.8352586
-0.8352507
-0.8352424
-0.8352338
-0.83522487
-0.8352156
-0.83520603
-0.8351961
-0.8351859
-0.8351753
-0.83516437
-0.83515316
-0.8351416
-0.8351297
-0.83511746
-0.8351049
-0.835092
-0.83507884
-0.8350653
-0.8350514
-0.83503723
-0.8350227
-0.83500785
-0.83499265
-0.83497715
-0.8349613
-0.83494514
-0.83492863
-0.8349118
-0.83489466
-0.8348772
-0.8348594
-0.8348412
-0.8348227
-0.83480394
-0.8347848
-0.8347653
-0.8347455
-0.83472544
-0.834705
-0.8346842
-0.8346631
-0.8346417
-0.83461994
-0.8345978
-0.8345754
-0.83455265
-0.8345296
-0.83450615
-0.83448243
-0.83445835
-0.834434
-0.83440924
-0.8343842
-0.8343588
-0.8343331
-0.8343071
-0.83428067
-0.83425397
-0.83422697
-0.8341996
-0.83417195
-0.83414394
-0.83411556
-0.8340869
-0.8340579
-0.83402854
-0.8339989
-0.83396894
-0.8339386
-0.83390796
-0.83387697
-0.8338457
-0.833814
-0.8337821
-0.8337498
-0.83371717
-0.8336842
-0.83365095
-0.8336173
-0.8335834
-0.83354914
-0.8335146
-0.83347964
-0.83344436
-0.8334088
-0.8333729
-0.83333665
-0.83330005
-0.83326316
-0.83322597
-0.8331884
-0.8331505
-0.8331123
-0.83307374
-0.8330349
-0.8329957
-0.83295614
-0.8329163
-0.83287615
-0.8328356
-0.8327948
-0.8327536
-0.8327121
-0.8326703
-0.8326281
-0.8325856
-0.8325428
-0.8324996
-0.8324562
-0.83241236
-0.8323682
-0.83232373
-0.83227897
-0.83223385
-0.83218837
-0.8321426
-0.8320965
-0.8320501
-0.8320033
-0.8319562
-0.83190876
-0.831861
-0.8318129
-0.8317645
-0.83171576
-0.8316667
-0.8316173
-0.8315676
-0.8315175
-0.83146715
-0.8314164
-0.8313654
-0.831314
-0.83126235
-0.8312103
-0.8311581
-0.83110607
-0.83105415
-0.8310024
-0.8309508
-0.8308993
-0.8308479
-0.8307967
-0.83074564
-0.8306947
-0.8306439
-0.8305932
-0.8305427
-0.8304923
-0.830442
-0.8303919
-0.83034194
-0.8302921
-0.83024234
-0.8301928
-0.83014333
-0.83009404
-0.83004487
-0.8299959
-0.829947
-0.82989824
-0.8298496
-0.82980114
-0.8297528
-0.8297046
-0.82965654
-0.82960856
-0.82956076
-0.82951313
-0.8294656
-0.82941824
-0.829371
-0.8293239
-0.8292769
-0.82923007
-0.82918334
-0.8291368
-0.82909036
-0.8290441
-0.8289979
-0.8289519
-0.82890606
-0.8288603
-0.8288147
-0.8287692
-0.8287239
-0.8286787
-0.82863367
-0.8285887
-0.82854396
-0.8284993
-0.8284548
-0.82841045
-0.8283662
-0.8283221
-0.8282781
-0.8282343
-0.8281906
-0.8281471
-0.82810366
-0.8280604
-0.82801723
-0.82797426
-0.8279314
-0.82788867
-0.82784605
-0.8278036
-0.8277613
-0.8277191
-0.8276771
-0.82763517
-0.8275934
-0.8275518
-0.8275103
-0.82746893
-0.8274277
-0.8273866
-0.82734567
-0.82730484
-0.8272642
-0.82722366
-0.82718325
-0.82714295
-0.82710284
-0.82706285
-0.827023
-0.8269833
-0.8269437
-0.8269043
-0.82686496
-0.8268258
-0.82678676
-0.8267479
-0.8267091
-0.8266705
-0.826632
-0.8265937
-0.8265555
-0.8265174
-0.82647943
-0.82644165
-0.826404
-0.8263665
-0.8263291
-0.82629186
-0.8262547
-0.8262178
-0.8261809
-0.8261442
-0.8261076
-0.8260712
-0.8260349
-0.8259988
-0.8259627
-0.82592684
-0.82589114
-0.8258555
-0.82582
-0.8257847
-0.8257495
-0.82571447
-0.82567954
-0.82564473
-0.8256101
-0.8255756
-0.8255412
-0.825507
-0.8254729
-0.8254389
-0.82540506
-0.8253714
-0.8253378
-0.8253044
-0.8252711
-0.825238
-0.82520497
-0.8251721
-0.8251394
-0.8251068
-0.8250743
-0.825042
-0.8250098
-0.82497776
-0.82494587
-0.8249141
-0.82488245
-0.824851
-0.82481956
-0.8247884
-0.8247573
-0.82472634
-0.8246955
-0.82466483
-0.8246343
-0.8246039
-0.82457364
-0.8245435
-0.8245135
-0.82448363
-0.82445395
-0.8244243
-0.8243949
-0.82436556
-0.8243364
-0.8243074
-0.8242785
-0.82424974
-0.8242211
-0.8241926
-0.8241643
-0.824136
-0.82410794
-0.82408005
-0.8240522
-0.82402456
-0.823997
-0.82396966
-0.82394236
-0.82391524
-0.8238883
-0.8238614
-0.8238347
-0.8238082
-0.8237817
-0.82375544
-0.8237293
-0.8237032
-0.82367736
-0.8236516
-0.823626
-0.82360053
-0.8235752
-0.82355
-0.82352495
-0.8235
-0.82347524
-0.82345057
-0.82342607
-0.8234017
-0.82337743
-0.82335335
-0.8233293
-0.82330555
-0.8232818
-0.8232583
-0.82323486
-0.82321155
-0.8231884
-0.8231654
-0.8231425
-0.8231198
-0.8230972
-0.82307476
-0.8230524
-0.82303023
-0.8230082
-0.82298625
-0.8229645
-0.82294285
-0.82292134
-0.8229
-0.8228787
-0.8228576
-0.8228367
-0.8228159
-0.8227952
-0.82277465
-0.82275426
-0.82273394
-0.82271385
-0.8226938
-0.822674
-0.82265425
-0.82263464
-0.8226152
-0.8225959
-0.8225767
-0.8225577
-0.8225388
-0.82252
-0.82250136
-0.8224829
-0.8224645
-0.82244635
-0.8224282
-0.8224103
-0.8223925
-0.8223748
-0.8223573
-0.8223399
-0.82232267
-0.8223055
-0.8222885
-0.8222717
-0.82225496
-0.8222384
-0.82222193
-0.82220566
-0.8221895
-0.8221735
-0.82215756
-0.8221418
-0.8221262
-0.8221107
-0.8220954
-0.8220802
-0.8220651
-0.8220502
-0.8220354
-0.8220207
-0.8220062
-0.82199186
-0.8219776
-0.8219635
-0.8219495
-0.82193565
-0.82192194
-0.8219084
-0.821895
-0.8218817
-0.82186854
-0.82185555
-0.8218427
-0.8218299
-0.82181734
-0.8218048
-0.82179254
-0.8217803
-0.8217683
-0.82175636
-0.82174456
-0.82173294
-0.82172143
-0.82171005
-0.8216988
-0.8216877
-0.82167673
-0.82166594
-0.8216553
-0.8216447
-0.8216343
-0.821624
-0.82161385
-0.8216039
-0.821594
-0.8215843
-0.8215747
-0.8215652
-0.8215559
-0.82154673
-0.8215377
-0.8215288
-0.82152003
-0.8215114
-0.82150286
-0.8214945
-0.8214863
-0.82147825
-0.82147026
-0.82146245
-0.82145476
-0.82144725
-0.82143986
-0.8214326
-0.82142544
-0.82141846
-0.8214116
-0.82140493
-0.8213983
-0.8213919
-0.82138556
-0.8213794
-0.8213734
-0.8213675
-0.8213617
-0.8213561
-0.82135063
-0.82134527
-0.8213401
-0.821335
-0.8213301
-0.82132524
-0.8213206
-0.82131606
-0.8213117
-0.8213074
-0.8213033
-0.8212994
-0.8212955
-0.8212918
-0.8212882
-0.82128483
-0.82128155
-0.8212784
-0.82127535
-0.8212725
-0.82126975
-0.8212671
-0.8212646
-0.8212623
-0.8212601
-0.82125807
-0.82125616
-0.8212544
-0.8212527
-0.8212512
-0.82124984
-0.8212486
-0.82124746
-0.8212465
-0.8212457
-0.821245
-0.8212444
-0.821244
-0.82124376
-0.8212436
-0.8212436
-0.8212437
-0.821244
-0.8212444
-0.82124496
-0.8212456
-0.82124645
-0.8212474
-0.8212485
-0.8212497
-0.8212511
-0.8212526
-0.8212542
-0.821256
-0.8212579
-0.8212599
-0.8212621
-0.82126445
-0.8212669
-0.8212695
-0.82127225
-0.8212751
-0.8212781
-0.8212814
-0.82128495
-0.821289
-0.82129335
-0.8212981
-0.8213033
-0.82130885
-0.8213148
-0.82132107
-0.8213278
-0.8213349
-0.82134235
-0.8213502
-0.82135844
-0.8213671
-0.8213761
-0.8213855
-0.8213953
-0.8214055
-0.821416
-0.821427
-0.8214383
-0.82145
-0.8214621
-0.8214746
-0.8214875
-0.8215007
-0.82151437
-0.8215284
-0.8215428
-0.8215576
-0.8215728
-0.82158834
-0.8216043
-0.82162064
-0.82163733
-0.82165444
-0.82167196
-0.82168984
-0.8217081
-0.82172674
-0.82174575
-0.8217652
-0.82178503
-0.8218052
-0.8218258
-0.8218467
-0.82186806
-0.8218898
-0.82191193
-0.82193446
-0.82195735
-0.8219806
-0.82200426
-0.82202834
-0.8220527
-0.8220776
-0.8221028
-0.82212836
-0.82215434
-0.8221807
-0.82220745
-0.8222346
-0.82226205
-0.82228994
-0.82231826
-0.8223469
-0.82237595
-0.8224054
-0.82243526
-0.8224655
-0.82249606
-0.82252705
-0.8225584
-0.8225902
-0.8226223
-0.82265484
-0.82268775
-0.822721
-0.82275474
-0.8227888
-0.8228232
-0.8228581
-0.82289326
-0.8229289
-0.8229649
-0.82300127
-0.82303804
-0.8230752
-0.8231127
-0.82315063
-0.82318896
-0.82322764
-0.8232667
-0.8233062
-0.823346
-0.82338625
-0.82342684
-0.82346785
-0.8235093
-0.82355106
-0.8235932
-0.82363576
-0.8236787
-0.823722
-0.8237657
-0.8238098
-0.82385427
-0.8238991
-0.82394433
-0.82399
-0.824036
-0.8240824
-0.82412916
-0.8241764
-0.8242239
-0.82427186
-0.82432014
-0.8243689
-0.82441795
-0.8244675
-0.8245173
-0.82456756
-0.8246182
-0.82466924
-0.8247206
-0.8247724
-0.82482463
-0.8248772
-0.82493013
-0.8249835
-0.8250372
-0.8250913
-0.8251458
-0.8252007
-0.82525593
-0.8253116
-0.8253676
-0.825424
-0.8254808
-0.82553804
-0.8255956
-0.82565355
-0.8257119
-0.8257707
-0.82582974
-0.8258893
-0.82594913
-0.82600945
-0.8260701
-0.82613117
-0.82619256
-0.82625437
-0.8263166
-0.8263792
-0.8264421
-0.8265055
-0.82656926
-0.8266334
-0.8266979
-0.8267628
-0.82682806
-0.82689375
-0.8269598
-0.82702625
-0.82709306
-0.82716024
-0.82722783
-0.82729584
-0.8273642
-0.82743293
-0.8275021
-0.82757163
-0.82764155
-0.8277118
-0.8277825
-0.82785356
-0.827925
-0.82799685
-0.8280691
-0.8281417
-0.82821465
-0.8282881
-0.8283618
-0.82843596
-0.8285105
-0.8285854
-0.8286607
-0.8287364
-0.8288125
-0.82888895
-0.8289658
-0.82904303
-0.82912064
-0.82919866
-0.82927704
-0.8293558
-0.82943493
-0.8295145
-0.82959443
-0.8296747
-0.8297554
-0.82983655
-0.829918
-0.82999986
-0.8300821
-0.83016473
-0.83024776
-0.83033115
-0.8304149
-0.8304991
-0.83058363
-0.83066857
-0.8307539
-0.83083963
-0.8309257
-0.8310122
-0.83109903
-0.8311863
-0.831274
-0.83136195
-0.8314504
-0.83153915
-0.8316283
-0.8317179
-0.83180785
-0.8318982
-0.83198893
-0.83208
-0.8321715
-0.8322634
-0.8323557
-0.8324483
-0.83254135
-0.83263475
-0.83272856
-0.83282274
-0.83291733
-0.8330123
-0.83310765
-0.8332034
-0.83329946
-0.83339596
-0.8334929
-0.83359015
-0.8336878
-0.83378583
-0.83388424
-0.83398306
-0.83408225
-0.83418185
-0.8342818
-0.8343822
-0.8344829
-0.83458406
-0.83468556
-0.8347874
-0.8348897
-0.8349924
-0.83509547
-0.8351989
-0.8353027
-0.83540696
-0.8355115
-0.8356165
-0.83572185
-0.83582765
-0.83593374
-0.83604026
-0.8361472
-0.8362545
-0.8363622
-0.83647025
-0.83657867
-0.8366875
-0.8367967
-0.8369063
-0.83701634
-0.8371267
-0.8372375
-0.8373486
-0.83746016
-0.83757204
-0.83768433
-0.83779705
-0.8379101
-0.8380236
-0.83813745
-0.83825165
-0.83836627
-0.83848125
-0.83859664
-0.83871245
-0.83882856
-0.83894515
-0.83906204
-0.83917934
-0.83929706
-0.83941513
-0.8395336
-0.8396525
-0.8397717
-0.8398913
-0.84001136
-0.84013176
-0.8402525
-0.8403737
-0.8404952
-0.8406172
-0.8407395
-0.8408622
-0.8409853
-0.8411088
-0.84123266
-0.8413569
-0.84148157
-0.84160656
-0.84173197
-0.84185773
-0.8419839
-0.8421105
-0.8422375
-0.8423648
-0.8424925
-0.8426206
-0.8427491
-0.842878
-0.8430072
-0.84313685
-0.8432669
-0.8433973
-0.84352815
-0.84365934
-0.8437909
-0.84392285
-0.8440552
-0.8441879
-0.844321
-0.8444545
-0.8445884
-0.8447227
-0.84485734
-0.8449924
-0.8451278
-0.8452636
-0.8453998
-0.8455364
-0.8456734
-0.8458107
-0.84594846
-0.8460866
-0.8462251
-0.846364
-0.84650326
-0.846643
-0.846783
-0.8469234
-0.84706426
-0.84720546
-0.8473471
-0.84748906
-0.8476314
-0.84777415
-0.84791726
-0.8480608
-0.84820473
-0.848349
-0.8484937
-0.8486387
-0.8487842
-0.84893
-0.8490762
-0.84922284
-0.8493698
-0.8495172
-0.849665
-0.8498131
-0.84996164
-0.85011053
-0.85025984
-0.85040957
-0.8505596
-0.8507101
-0.8508609
-0.8510122
-0.85116374
-0.85131574
-0.85146815
-0.8516209
-0.8517741
-0.85192764
-0.85208154
-0.85223585
-0.8523905
-0.8525456
-0.8527011
-0.85285693
-0.8530132
-0.8531698
-0.8533268
-0.8534842
-0.853642
-0.8538002
-0.8539587
-0.8541172
-0.85427487
-0.8544317
-0.8545877
-0.8547428
-0.8548971
-0.8550505
-0.85520303
-0.8553547
-0.8555056
-0.8556556
-0.85580474
-0.8559531
-0.8561005
-0.8562471
-0.85639286
-0.85653776
-0.8566818
-0.856825
-0.85696733
-0.85710883
-0.85724944
-0.8573892
-0.85752815
-0.85766625
-0.85780346
-0.85793984
-0.8580754
-0.85821
-0.85834384
-0.8584768
-0.85860896
-0.8587402
-0.8588706
-0.8590002
-0.8591289
-0.85925674
-0.85938376
-0.85950994
-0.85963523
-0.8597597
-0.85988325
-0.86000603
-0.8601279
-0.860249
-0.86036915
-0.8604885
-0.86060697
-0.8607246
-0.8608414
-0.8609573
-0.8610724
-0.8611866
-0.8613
-0.8614125
-0.8615242
-0.861635
-0.861745
-0.86185414
-0.8619624
-0.8620698
-0.86217636
-0.86228204
-0.86238694
-0.86249095
-0.86259407
-0.8626964
-0.86279786
-0.8628984
-0.8629982
-0.8630971
-0.8631951
-0.86329234
-0.86338866
-0.86348414
-0.8635788
-0.86367255
-0.8637655
-0.86385757
-0.8639488
-0.8640392
-0.8641287
-0.8642174
-0.8643052
-0.86439216
-0.8644783
-0.8645635
-0.864648
-0.86473155
-0.8648142
-0.8648961
-0.8649771
-0.86505723
-0.86513656
-0.865215
-0.8652926
-0.8653694
-0.86544526
-0.8655203
-0.8655945
-0.8656678
-0.8657403
-0.86581194
-0.86588275
-0.8659527
-0.86602175
-0.86609
-0.86615735
-0.8662239
-0.86628956
-0.86635435
-0.86641836
-0.8664815
-0.8665437
-0.86660516
-0.8666657
-0.8667254
-0.8667843
-0.86684227
-0.86689943
-0.86695576
-0.8670112
-0.8670658
-0.86711955
-0.8671724
-0.86722445
-0.86727566
-0.867326
-0.8673755
-0.86742413
-0.86747193
-0.86751884
-0.8675649
-0.86761016
-0.8676545
-0.8676981
-0.86774075
-0.86778253
-0.86782354
-0.86786366
-0.8679029
-0.8679413
-0.8679789
-0.8680156
-0.86805147
-0.86808646
-0.8681206
-0.8681539
-0.86818635
-0.86821795
-0.8682487
-0.8682786
-0.86830765
-0.86833584
-0.8683632
-0.86838967
-0.8684153
-0.8684401
-0.868464
-0.8684871
-0.86850935
-0.8685307
-0.86855125
-0.8685709
-0.86858976
-0.8686077
-0.8686248
-0.8686411
-0.8686565
-0.86867106
-0.86868477
-0.86869764
-0.8687096
-0.86872077
-0.8687311
-0.86874056
-0.86874914
-0.8687569
-0.8687638
-0.8687698
-0.868775
-0.86877936
-0.8687829
-0.8687855
-0.8687873
-0.8687882
-0.8687883
-0.8687875
-0.8687859
-0.8687834
-0.8687801
-0.8687759
-0.8687709
-0.868765
-0.86875826
-0.8687507
-0.8687422
-0.868733
-0.8687228
-0.8687118
-0.86869997
-0.8686873
-0.86867374
-0.8686593
-0.86864406
-0.86862797
-0.86861104
-0.8685932
-0.86857456
-0.86855507
-0.8685347
-0.86851346
-0.8684914
-0.86846846
-0.86844474
-0.86842006
-0.8683946
-0.86836827
-0.8683411
-0.8683131
-0.8682842
-0.8682545
-0.8682239
-0.86819243
-0.8681602
-0.86812705
-0.868093
-0.8680582
-0.8680225
-0.86798596
-0.86794853
-0.86791027
-0.86787117
-0.86783123
-0.8677904
-0.86774874
-0.86770624
-0.8676629
-0.8676187
-0.8675736
-0.86752766
-0.86748093
-0.8674333
-0.86738485
-0.8673355
-0.8672853
-0.8672343
-0.86718243
-0.8671297
-0.8670761
-0.8670217
-0.86696637
-0.8669102
-0.86685324
-0.86679536
-0.8667367
-0.86667717
-0.8666167
-0.8665555
-0.8664934
-0.86643046
-0.8663666
-0.86630195
-0.86623645
-0.8661701
-0.8661029
-0.8660348
-0.8659659
-0.8658961
-0.8658255
-0.865754
-0.8656817
-0.8656085
-0.8655345
-0.8654596
-0.86538386
-0.8653073
-0.86522985
-0.8651516
-0.8650724
-0.86499244
-0.8649116
-0.8648299
-0.86474735
-0.86466396
-0.8645797
-0.8644946
-0.8644087
-0.8643218
-0.8642342
-0.8641457
-0.8640563
-0.8639661
-0.86387503
-0.8637831
-0.8636903
-0.86359674
-0.86350226
-0.8634069
-0.86331075
-0.8632137
-0.86311585
-0.8630171
-0.86291754
-0.86281705
-0.8627158
-0.8626137
-0.8625107
-0.8624068
-0.8623021
-0.86219656
-0.8620902
-0.86198294
-0.8618748
-0.86176586
-0.86165607
-0.8615454
-0.86143386
-0.8613215
-0.8612083
-0.86109424
-0.8609793
-0.86086357
-0.8607469
-0.86062944
-0.8605111
-0.860392
-0.86027193
-0.86015105
-0.86002934
-0.85990673
-0.8597833
-0.859659
-0.85953385
-0.8594079
-0.85928106
-0.85915333
-0.8590248
-0.8588954
-0.8587651
-0.85863405
-0.8585021
-0.8583693
-0.8582356
-0.8581011
-0.85796577
-0.8578295
-0.8576925
-0.85755455
-0.8574158
-0.85727614
-0.8571357
-0.8569944
-0.8568522
-0.8567092
-0.8565653
-0.8564206
-0.85627496
-0.8561285
-0.85598123
-0.8558331
-0.8556841
-0.85553426
-0.8553836
-0.855232
-0.85507965
-0.85492635
-0.85477227
-0.8546173
-0.8544615
-0.85430485
-0.8541473
-0.853989
-0.85382974
-0.8536697
-0.8535088
-0.853347
-0.8531844
-0.8530209
-0.8528566
-0.8526914
-0.8525254
-0.8523585
-0.8521908
-0.8520222
-0.8518528
-0.8516825
-0.85151136
-0.85133934
-0.8511665
-0.8509928
-0.8508183
-0.85064286
-0.8504666
-0.8502895
-0.85011154
-0.84993273
-0.8497531
-0.8495726
-0.8493912
-0.849209
-0.84902596
-0.848842
-0.84865725
-0.848472
-0.8482871
-0.8481026
-0.84791845
-0.84773463
-0.84755117
-0.8473681
-0.8471854
-0.84700304
-0.846821
-0.8466394
-0.84645814
-0.84627724
-0.84609663
-0.84591645
-0.8457366
-0.8455572
-0.8453781
-0.84519935
-0.84502095
-0.844843
-0.8446653
-0.844488
-0.84431106
-0.8441345
-0.8439583
-0.8437824
-0.84360695
-0.84343183
-0.84325707
-0.84308267
-0.8429087
-0.842735
-0.84256166
-0.8423887
-0.84221613
-0.8420439
-0.84187204
-0.84170055
-0.84152937
-0.8413586
-0.8411882
-0.84101814
-0.84084845
-0.8406791
-0.84051013
-0.8403415
-0.8401733
-0.8400054
-0.83983785
-0.8396707
-0.8395039
-0.83933747
-0.8391714
-0.8390057
-0.8388403
-0.8386753
-0.8385107
-0.8383464
-0.83818257
-0.838019
-0.8378558
-0.837693
-0.83753055
-0.8373684
-0.8372067
-0.8370453
-0.8368843
-0.8367237
-0.8365634
-0.8364035
-0.8362439
-0.8360847
-0.8359259
-0.8357674
-0.83560926
-0.83545154
-0.8352941
-0.83513707
-0.8349804
-0.83482414
-0.83466816
-0.8345126
-0.8343574
-0.8342025
-0.83404803
-0.8338939
-0.8337401
-0.8335867
-0.8334336
-0.833281
-0.83312863
-0.83297664
-0.83282506
-0.83267385
-0.8325229
-0.8323724
-0.8322223
-0.8320725
-0.83192307
-0.831774
-0.8316253
-0.8314769
-0.8313289
-0.8311813
-0.83103406
-0.83088714
-0.83074063
-0.8305944
-0.8304486
-0.8303032
-0.83015805
-0.83001333
-0.829869
-0.82972497
-0.8295813
-0.82943803
-0.82929516
-0.8291526
-0.82901037
-0.82886857
-0.82872707
-0.828586
-0.8284452
-0.8283048
-0.8281648
-0.82802516
-0.82788587
-0.8277469
-0.82760835
-0.8274701
-0.82733226
-0.82719475
-0.82705766
-0.82692087
-0.8267845
-0.8266484
-0.82651275
-0.82637745
-0.82624245
-0.82610786
-0.82597363
-0.82583976
-0.82570624
-0.8255731
-0.8254403
-0.8253079
-0.8251758
-0.8250441
-0.8249128
-0.8247818
-0.8246512
-0.82452095
-0.82439107
-0.8242615
-0.8241323
-0.8240035
-0.82387507
-0.823747
-0.8236193
-0.82349193
-0.8233649
-0.82323825
-0.823112
-0.82298607
-0.82286054
-0.82273537
-0.8226105
-0.82248604
-0.82236195
-0.8222382
-0.8221148
-0.8219918
-0.82186913
-0.8217469
-0.82162493
-0.82150334
-0.82138216
-0.8212613
-0.8211408
-0.8210207
-0.8209009
-0.8207815
-0.8206625
-0.8205438
-0.8204255
-0.82030755
-0.82018995
-0.8200727
-0.8199559
-0.81983936
-0.8197232
-0.81960744
-0.81949204
-0.81937695
-0.81926227
-0.81914794
-0.819034
-0.8189203
-0.81880707
-0.81869423
-0.8185817
-0.8184695
-0.8183577
-0.8182463
-0.8181352
-0.81802446
-0.8179141
-0.81780416
-0.8176945
-0.81758523
-0.81747633
-0.8173678
-0.8172596
-0.8171518
-0.8170443
-0.8169372
-0.81683046
-0.8167241
-0.8166181
-0.81651247
-0.81640714
-0.81630224
-0.8161977
-0.81609344
-0.8159896
-0.81588614
-0.815783
-0.81568027
-0.81557786
-0.8154758
-0.8153742
-0.81527287
-0.8151719
-0.81507134
-0.8149711
-0.81487125
-0.8147718
-0.8146726
-0.8145738
-0.8144754
-0.81437737
-0.8142797
-0.81418234
-0.81408536
-0.8139888
-0.81389254
-0.81379664
-0.81370115
-0.81360596
-0.8135112
-0.8134167
-0.81332266
-0.81322896
-0.8131356
-0.81304264
-0.81295
-0.81285775
-0.81276584
-0.8126743
-0.81258315
-0.8124923
-0.81240183
-0.81231177
-0.81222206
-0.81213266
-0.81204367
-0.81195503
-0.81186676
-0.8117788
-0.8116912
-0.8116041
-0.81151724
-0.81143075
-0.8113446
-0.8112589
-0.8111735
-0.81108844
-0.8110038
-0.8109195
-0.81083554
-0.810752
-0.81066877
-0.8105859
-0.8105034
-0.8104213
-0.8103395
-0.8102581
-0.8101771
-0.8100964
-0.81001604
-0.8099361
-0.8098565
-0.80977726
-0.8096984
-0.80961984
-0.8095417
-0.8094639
-0.8093865
-0.8093094
-0.8092327
-0.8091564
-0.8090804
-0.8090048
-0.80892956
-0.80885464
-0.80878013
-0.8087059
-0.80863214
-0.8085587
-0.80848557
-0.80841285
-0.8083405
-0.8082685
-0.80819684
-0.8081256
-0.8080547
-0.8079841
-0.8079139
-0.8078441
-0.8077746
-0.8077055
-0.8076368
-0.8075684
-0.80750036
-0.8074327
-0.8073654
-0.8072985
-0.8072319
-0.8071657
-0.8070999
-0.8070344
-0.8069692
-0.8069045
-0.80684006
-0.80677605
-0.8067123
-0.806649
-0.8065861
-0.8065235
-0.8064613
-0.8063994
-0.8063379
-0.80627674
-0.80621594
-0.80615556
-0.8060955
-0.80603576
-0.80597645
-0.80591744
-0.80585885
-0.8058006
-0.80574274
-0.80568516
-0.805628
-0.8055712
-0.80551475
-0.8054587
-0.805403
-0.8053476
-0.8052926
-0.805238
-0.8051837
-0.8051298
-0.80507624
-0.8050231
-0.80497026
-0.8049178
-0.8048657
-0.804814
-0.8047626
-0.8047116
-0.8046609
-0.8046106
-0.8045607
-0.80451113
-0.8044619
-0.8044131
-0.8043646
-0.80431646
-0.8042687
-0.80422133
-0.8041743
-0.80412763
-0.8040813
-0.80403537
-0.80398977
-0.8039445
-0.8038997
-0.8038552
-0.803811
-0.80376726
-0.8037239
-0.8036808
-0.8036381
-0.8035958
-0.8035538
-0.8035122
-0.80347097
-0.8034301
-0.80338955
-0.8033494
-0.8033096
-0.80327016
-0.80323106
-0.80319214
-0.8031534
-0.8031149
-0.80307657
-0.8030384
-0.8030005
-0.8029628
-0.8029253
-0.802888
-0.80285084
-0.8028139
-0.8027772
-0.80274063
-0.80270433
-0.8026682
-0.8026323
-0.80259657
-0.80256104
-0.8025257
-0.8024906
-0.80245566
-0.8024209
-0.8023864
-0.8023521
-0.8023179
-0.802284
-0.80225027
-0.80221677
-0.8021834
-0.8021503
-0.80211735
-0.8020846
-0.8020521
-0.8020198
-0.80198765
-0.8019557
-0.80192393
-0.8018924
-0.8018611
-0.80182993
-0.801799
-0.8017683
-0.8017377
-0.8017074
-0.8016773
-0.8016473
-0.80161756
-0.80158806
-0.80155873
-0.8015296
-0.8015006
-0.8014719
-0.80144334
-0.801415
-0.80138683
-0.80135894
-0.80133116
-0.8013036
-0.80127627
-0.80124915
-0.8012222
-0.80119544
-0.8011689
-0.8011426
-0.8011164
-0.8010905
-0.8010647
-0.80103916
-0.8010138
-0.8009887
-0.8009637
-0.80093896
-0.8009144
-0.8008901
-0.80086595
-0.800842
-0.8008182
-0.80079466
-0.8007713
-0.80074817
-0.8007252
-0.80070245
-0.8006799
-0.8006576
-0.8006354
-0.80061346
-0.8005917
-0.80057013
-0.8005488
-0.80052763
-0.80050665
-0.8004859
-0.80046535
-0.80044496
-0.8004248
-0.80040485
-0.8003851
-0.80036557
-0.8003462
-0.800327
-0.80030805
-0.8002893
-0.80027074
-0.8002524
-0.8002342
-0.80021626
-0.8001985
-0.8001809
-0.80016357
-0.8001464
-0.8001294
-0.80011266
-0.8000961
-0.8000797
-0.80006355
-0.8000476
-0.8000318
-0.8000162
-0.80000085
-0.7999857
-0.79997075
-0.79995596
-0.79994136
-0.799927
-0.7999128
-0.79989886
-0.7998851
-0.7998715
-0.79985815
-0.799845
-0.799832
-0.79981923
-0.79980665
-0.79979426
-0.7997821
-0.7997701
-0.7997583
-0.79974675
-0.79973537
-0.7997242
-0.7997132
-0.79970247
-0.79969186
-0.7996815
-0.7996713
-0.79966134
-0.79965156
-0.79964197
-0.79963255
-0.79962337
-0.7996144
-0.7996056
-0.799597
-0.7995887
-0.79958045
-0.79957247
-0.7995647
-0.7995571
-0.7995497
-0.79954255
-0.7995356
-0.7995288
-0.79952216
-0.7995158
-0.7995096
-0.7995036
-0.7994978
-0.79949224
-0.7994868
-0.79948163
-0.7994766
-0.79947186
-0.79946727
-0.79946285
-0.7994587
-0.7994547
-0.7994509
-0.7994473
-0.7994439
-0.7994407
-0.7994377
-0.7994349
-0.7994323
-0.7994299
-0.7994277
-0.7994257
-0.79942393
-0.7994223
-0.7994209
-0.7994197
-0.7994187
-0.7994179
-0.7994173
-0.7994169
-0.7994167
-0.79941666
-0.7994169
-0.79941726
-0.79941785
-0.7994187
-0.79941964
-0.79942083
-0.79942226
-0.7994239
-0.79942566
-0.7994276
-0.79942983
-0.7994322
-0.7994348
-0.7994376
-0.79944056
-0.7994438
-0.7994472
-0.79945076
-0.79945457
-0.79945856
-0.79946274
-0.7994671
-0.7994717
-0.7994765
-0.79948145
-0.79948664
-0.79949206
-0.7994976
-0.7995034
-0.7995094
-0.7995156
-0.799522
-0.79952854
-0.79953533
-0.7995423
-0.79954946
-0.79955685
-0.7995644
-0.7995722
-0.7995802
-0.7995884
-0.7995968
-0.79960537
-0.79961413
-0.7996231
-0.79963225
-0.79964167
-0.7996512
-0.799661
-0.799671
-0.7996811
-0.79969156
-0.7997021
-0.7997129
-0.79972386
-0.799735
-0.7997464
-0.79975796
-0.79976976
-0.7997817
-0.7997939
-0.79980624
-0.7998188
-0.79983157
-0.79984456
-0.79985774
-0.7998711
-0.7998847
-0.79989845
-0.7999124
-0.7999266
-0.79994094
-0.7999555
-0.79997027
-0.79998523
-0.80000037
-0.80001575
-0.8000313
-0.8000471
-0.800063
-0.80007917
-0.80009556
-0.8001121
-0.8001289
-0.80014586
-0.800163
-0.8001804
-0.8001979
-0.80021566
-0.8002336
-0.8002518
-0.80027014
-0.8002887
-0.80030745
-0.8003264
-0.80034554
-0.8003649
-0.80038446
-0.80040425
-0.80042416
-0.80044436
-0.8004647
-0.80048525
-0.800506
-0.8005269
-0.8005481
-0.8005695
-0.800591
-0.80061275
-0.8006347
-0.80065686
-0.8006792
-0.80070174
-0.8007245
-0.80074745
-0.8007706
-0.80079395
-0.8008175
-0.8008412
-0.8008652
-0.8008893
-0.80091363
-0.8009382
-0.8009629
-0.8009879
-0.80101305
-0.8010384
-0.8010639
-0.80108964
-0.8011156
-0.80114174
-0.8011681
-0.8011946
-0.8012214
-0.8012483
-0.80127543
-0.80130273
-0.80133027
-0.80135804
-0.801386
-0.80141413
-0.80144244
-0.801471
-0.8014997
-0.80152863
-0.8015578
-0.8015871
-0.80161667
-0.80164635
-0.80167633
-0.80170643
-0.8017368
-0.8017673
-0.80179805
-0.801829
-0.8018601
-0.80189145
-0.8019229
-0.8019547
-0.8019866
-0.8020187
-0.80205107
-0.8020836
-0.80211633
-0.80214924
-0.8021824
-0.8022157
-0.8022492
-0.8022829
-0.80231684
-0.802351
-0.8023853
-0.80241984
-0.80245453
-0.80248946
-0.80252457
-0.8025599
-0.80259544
-0.80263114
-0.8026671
-0.8027032
-0.8027395
-0.80277604
-0.80281276
-0.80284965
-0.8028868
-0.8029241
-0.8029616
-0.8029993
-0.8030372
-0.8030753
-0.80311364
-0.80315214
-0.8031909
-0.8032298
-0.8032689
-0.8033082
-0.8033477
-0.80338746
-0.80342734
-0.80346745
-0.80350775
-0.8035483
-0.803589
-0.8036299
-0.803671
-0.8037123
-0.8037538
-0.80379534
-0.803837
-0.8038788
-0.8039206
-0.8039625
-0.80400455
-0.80404663
-0.80408883
-0.80413115
-0.8041735
-0.80421597
-0.8042585
-0.80430114
-0.8043439
-0.80438673
-0.80442965
-0.8044726
-0.8045157
-0.80455893
-0.8046022
-0.80464554
-0.804689
-0.8047325
-0.80477613
-0.8048199
-0.8048637
-0.80490756
-0.80495155
-0.80499566
-0.8050398
-0.80508405
-0.8051284
-0.80517286
-0.8052174
-0.80526197
-0.8053067
-0.80535144
-0.8053963
-0.8054413
-0.8054864
-0.8055315
-0.80557674
-0.8056221
-0.8056675
-0.805713
-0.8057586
-0.8058043
-0.8058501
-0.8058959
-0.8059419
-0.80598795
-0.8060341
-0.8060803
-0.8061266
-0.806173
-0.8062195
-0.80626607
-0.80631274
-0.8063595
-0.8064064
-0.8064533
-0.8065003
-0.80654746
-0.80659467
-0.806642
-0.8066894
-0.8067368
-0.8067844
-0.8068321
-0.8068798
-0.8069276
-0.80697554
-0.8070236
-0.8070717
-0.80711985
-0.8071681
-0.8072165
-0.807265
-0.80731356
-0.8073622
-0.8074109
-0.8074597
-0.80750865
-0.80755764
-0.8076067
-0.8076559
-0.80770516
-0.8077545
-0.807804
-0.8078535
-0.8079031
-0.8079528
-0.80800265
-0.80805254
-0.8081025
-0.8081526
-0.80820274
-0.808253
-0.80830336
-0.8083538
-0.80840427
-0.80845493
-0.8085056
-0.8085564
-0.8086073
-0.80865824
-0.80870926
-0.80876046
-0.80881166
-0.808863
-0.8089144
-0.8089659
-0.80901754
-0.8090692
-0.80912095
-0.8091728
-0.8092248
-0.8092768
-0.809329
-0.8093812
-0.80943346
-0.80948585
-0.80953836
-0.80959094
-0.8096436
-0.8096964
-0.80974925
-0.8098022
-0.80985516
-0.8099083
-0.8099615
-0.8100148
-0.8100682
-0.81012166
-0.81017524
-0.8102289
-0.8102826
-0.8103365
-0.81039035
-0.81044436
-0.8104985
-0.81055266
-0.81060696
-0.8106613
-0.8107158
-0.81077033
-0.81082493
-0.8108797
-0.8109345
-0.8109894
-0.8110444
-0.81109947
-0.81115466
-0.8112099
-0.8112653
-0.8113207
-0.8113763
-0.8114319
-0.81148756
-0.8115434
-0.81159925
-0.8116552
-0.8117113
-0.81176746
-0.8118237
-0.81188005
-0.8119365
-0.811993
-0.8120496
-0.8121063
-0.8121631
-0.81222
-0.8122769
-0.812334
-0.8123911
-0.8124484
-0.81250566
-0.81256306
-0.8126206
-0.81267816
-0.81273586
-0.8127936
-0.8128515
-0.8129094
-0.8129675
-0.8130256
-0.8130838
-0.8131421
-0.81320053
-0.813259
-0.8133176
-0.81337625
-0.813435
-0.81349385
-0.8135528
-0.8136118
-0.81367093
-0.8137301
-0.8137894
-0.8138488
-0.8139083
-0.8139678
-0.8140275
-0.8140872
-0.81414706
-0.81420696
-0.814267
-0.81432706
-0.81438726
-0.8144475
-0.8145079
-0.81456834
-0.8146289
-0.8146895
-0.81475025
-0.81481105
-0.81487197
-0.81493294
-0.81499404
-0.8150552
-0.81511647
-0.8151778
-0.81523925
-0.81530076
-0.8153624
-0.8154241
-0.8154859
-0.81554776
-0.81560975
-0.8156718
-0.81573397
-0.8157962
-0.81585854
-0.81592095
-0.8159835
-0.8160461
-0.81610876
-0.8161716
-0.8162344
-0.8162974
-0.8163605
-0.8164236
-0.81648684
-0.81655014
-0.81661355
-0.81667703
-0.81674063
-0.8168043
-0.81686807
-0.8169319
-0.81699586
-0.81705993
-0.817124
-0.81718826
-0.8172526
-0.81731695
-0.81738144
-0.817446
-0.81751066
-0.8175754
-0.81764024
-0.81770515
-0.8177702
-0.81783533
-0.8179005
-0.8179658
-0.8180312
-0.81809664
-0.8181622
-0.8182278
-0.8182936
-0.8183594
-0.8184253
-0.81849134
-0.8185574
-0.8186236
-0.8186899
-0.8187562
-0.8188227
-0.8188892
-0.81895584
-0.81902254
-0.81908935
-0.8191563
-0.8192233
-0.81929034
-0.8193575
-0.81942475
-0.8194921
-0.8195596
-0.81962705
-0.8196947
-0.8197624
-0.8198302
-0.81989807
-0.819966
-0.8200341
-0.8201023
-0.8201705
-0.8202388
-0.82030725
-0.82037574
-0.82044435
-0.82051307
-0.8205818
-0.8206507
-0.82071966
-0.8207887
-0.8208578
-0.8209271
-0.82099634
-0.8210658
-0.8211353
-0.82120484
-0.8212745
-0.8213443
-0.8214141
-0.8214841
-0.8215541
-0.8216242
-0.82169443
-0.82176477
-0.82183516
-0.8219056
-0.8219762
-0.8220468
-0.82211757
-0.82218844
-0.82225937
-0.82233036
-0.82240146
-0.8224727
-0.822544
-0.8226153
-0.8226868
-0.8227583
-0.82282996
-0.8229017
-0.82297355
-0.82304543
-0.82311743
-0.82318956
-0.82326174
-0.823334
-0.82340634
-0.8234788
-0.82355136
-0.82362396
-0.8236967
-0.82376945
-0.82384235
-0.82391536
-0.82398844
-0.8240616
-0.8241348
-0.8242082
-0.82428163
-0.8243551
-0.82442874
-0.82450247
-0.82457626
-0.8246501
-0.8247241
-0.82479817
-0.8248723
-0.8249465
-0.82502085
-0.8250953
-0.8251698
-0.82524437
-0.82531905
-0.82539386
-0.8254687
-0.82554364
-0.82561874
-0.82569385
-0.82576907
-0.8258444
-0.8259198
-0.82599527
-0.82607085
-0.82614654
-0.8262223
-0.8262981
-0.82637405
-0.8264501
-0.8265262
-0.8266024
-0.8266787
-0.8267551
-0.8268316
-0.8269082
-0.8269848
-0.82706153
-0.82713836
-0.8272153
-0.8272923
-0.8273694
-0.8274466
-0.8275239
-0.82760125
-0.82767874
-0.8277563
-0.82783395
-0.82791185
-0.82798994
-0.82806826
-0.8281468
-0.8282256
-0.8283046
-0.8283838
-0.8284632
-0.8285429
-0.82862276
-0.8287028
-0.82878315
-0.8288637
-0.82894444
-0.8290254
-0.82910657
-0.829188
-0.82926965
-0.8293515
-0.82943356
-0.8295159
-0.82959837
-0.8296811
-0.82976407
-0.8298473
-0.82993066
-0.8300143
-0.8300981
-0.8301822
-0.8302665
-0.83035094
-0.8304357
-0.83052063
-0.8306058
-0.83069116
-0.83077675
-0.8308626
-0.83094865
-0.8310349
-0.8311214
-0.8312081
-0.831295
-0.83138216
-0.83146954
-0.83155715
-0.83164495
-0.831733
-0.8318212
-0.83190966
-0.83199835
-0.8320873
-0.8321764
-0.8322658
-0.8323553
-0.83244514
-0.83253515
-0.8326254
-0.8327158
-0.8328065
-0.8328974
-0.8329885
-0.8330799
-0.8331714
-0.83326316
-0.8333552
-0.8334474
-0.83353984
-0.83363247
-0.8337254
-0.8338185
-0.8339118
-0.83400536
-0.8340991
-0.83419305
-0.8342873
-0.8343817
-0.83447635
-0.8345712
-0.8346663
-0.83476156
-0.8348571
-0.83495283
-0.8350488
-0.835145
-0.83524144
-0.83533806
-0.8354349
-0.83553195
-0.8356292
-0.83572674
-0.8358245
-0.8359224
-0.8360206
-0.836119
-0.8362176
-0.8363164
-0.83641547
-0.8365148
-0.83661425
-0.83671397
-0.8368139
-0.83691406
-0.83701444
-0.83711505
-0.83721584
-0.8373169
-0.83741814
-0.8375196
-0.83762133
-0.8377232
-0.83782536
-0.8379277
-0.8380303
-0.8381331
-0.8382361
-0.8383393
-0.8384428
-0.8385465
-0.8386504
-0.83875453
-0.83885884
-0.83896345
-0.83906823
-0.8391732
-0.83927846
-0.8393839
-0.8394896
-0.83959544
-0.83970153
-0.83980787
-0.83991444
-0.8400212
-0.8401282
-0.8402354
-0.8403428
-0.84045047
-0.84055835
-0.8406664
-0.8407747
-0.84088326
-0.84099203
-0.841101
-0.8412102
-0.8413196
-0.84142923
-0.8415391
-0.8416492
-0.84175944
-0.84186995
-0.8419807
-0.8420917
-0.84220284
-0.84231424
-0.8424259
-0.8425377
-0.84264976
-0.84276205
-0.8428745
-0.84298724
-0.8431002
-0.8432134
-0.84332675
-0.84344035
-0.8435542
-0.8436682
-0.8437825
-0.843897
-0.84401166
-0.8441266
-0.84424174
-0.84435713
-0.8444727
-0.8445885
-0.8447045
-0.8448208
-0.84493726
-0.8450539
-0.84517086
-0.845288
-0.84540534
-0.8455229
-0.84564066
-0.8457587
-0.84587693
-0.84599537
-0.84611404
-0.84623295
-0.84635204
-0.84647137
-0.84659094
-0.84671074
-0.8468307
-0.84695095
-0.84707135
-0.84719205
-0.8473129
-0.847434
-0.84755534
-0.8476769
-0.84779865
-0.8479206
-0.8480428
-0.8481652
-0.8482879
-0.8484107
-0.8485338
-0.84865713
-0.84878063
-0.8489044
-0.84902835
-0.8491525
-0.84927696
-0.84940153
-0.8495264
-0.84965146
-0.84977674
-0.8499023
-0.850028
-0.8501539
-0.8502801
-0.8504065
-0.8505331
-0.85065997
-0.850787
-0.85091424
-0.85104173
-0.85116947
-0.8512974
-0.8514255
-0.8515539
-0.85168254
-0.85181135
-0.8519404
-0.8520696
-0.8521991
-0.8523288
-0.8524587
-0.85258883
-0.8527192
-0.8528498
-0.8529806
-0.8531116
-0.8532428
-0.8533743
-0.85350597
-0.8536379
-0.85377
-0.85390234
-0.8540349
-0.8541677
-0.8543007
-0.8544339
-0.85456735
-0.85470104
-0.8548349
-0.854969
-0.8551034
-0.8552379
-0.85537267
-0.8555077
-0.85564286
-0.8557783
-0.85591394
-0.8560498
-0.8561859
-0.8563222
-0.8564587
-0.85659546
-0.8567324
-0.85686964
-0.8570071
-0.8571447
-0.8572825
-0.8574206
-0.8575589
-0.8576974
-0.8578362
-0.8579751
-0.8581143
-0.8582537
-0.8583933
-0.85853314
-0.8586732
-0.85881346
-0.85895395
-0.8590947
-0.85923564
-0.8593768
-0.8595182
-0.8596598
-0.8598016
-0.8599436
-0.8600859
-0.8602284
-0.8603711
-0.86051404
-0.86065716
-0.8608005
-0.8609441
-0.8610879
-0.8612319
-0.86137617
-0.86152065
-0.86166537
-0.86181027
-0.8619554
-0.8621007
-0.86224633
-0.86239207
-0.8625381
-0.8626843
-0.8628308
-0.86297745
-0.8631244
-0.8632715
-0.8634188
-0.86356634
-0.8637141
-0.8638621
-0.86401033
-0.86415875
-0.8643074
-0.8644563
-0.8646054
-0.86475474
-0.8649043
-0.865054
-0.865204
-0.8653542
-0.8655046
-0.86565524
-0.8658061
-0.8659572
-0.8661085
-0.86626
-0.86641175
-0.86656374
-0.8667159
-0.8668683
-0.86702096
-0.8671738
-0.86732686
-0.86748016
-0.86763364
-0.86778736
-0.8679413
-0.86809546
-0.8682499
-0.8684045
-0.8685593
-0.86871433
-0.8688696
-0.8690251
-0.86918086
-0.8693368
-0.8694929
-0.8696493
-0.8698059
-0.8699627
-0.87011975
-0.870277
-0.87043446
-0.8705922
-0.87075007
-0.8709082
-0.8710666
-0.8712251
-0.8713839
-0.87154293
-0.8717022
-0.87186164
-0.8720213
-0.87218124
-0.87234133
-0.8725017
-0.87266225
-0.87282306
-0.87298405
-0.8731453
-0.8733067
-0.87346834
-0.8736302
-0.87379235
-0.87395465
-0.8741172
-0.87428
-0.874443
-0.8746062
-0.8747696
-0.87493324
-0.8750971
-0.8752612
-0.8754255
-0.87559
-0.8757548
-0.87591976
-0.876085
-0.8762504
-0.876416
-0.87658185
-0.8767479
-0.8769142
-0.87708074
-0.87724715
-0.8774124
-0.8775765
-0.8777393
-0.8779009
-0.87806135
-0.87822056
-0.8783785
-0.87853533
-0.8786909
-0.8788453
-0.8789984
-0.87915033
-0.8793011
-0.87945056
-0.87959886
-0.87974596
-0.8798918
-0.88003653
-0.88017994
-0.8803222
-0.88046324
-0.8806031
-0.88074166
-0.88087904
-0.88101524
-0.88115025
-0.881284
-0.88141656
-0.88154787
-0.88167804
-0.88180697
-0.88193464
-0.8820611
-0.8821864
-0.8823105
-0.88243335
-0.882555
-0.88267547
-0.8827947
-0.8829127
-0.8830295
-0.8831451
-0.8832595
-0.88337266
-0.8834846
-0.88359535
-0.8837049
-0.8838132
-0.8839203
-0.8840262
-0.8841309
-0.88423437
-0.88433665
-0.8844377
-0.8845376
-0.88463616
-0.8847336
-0.8848298
-0.8849248
-0.8850186
-0.88511115
-0.8852025
-0.8852927
-0.88538164
-0.8854694
-0.88555586
-0.88564116
-0.88572526
-0.88580817
-0.8858898
-0.8859703
-0.88604957
-0.8861276
-0.8862044
-0.88628
-0.88635445
-0.88642764
-0.8864996
-0.88657033
-0.8866399
-0.88670826
-0.8867754
-0.8868413
-0.886906
-0.8869695
-0.8870318
-0.8870929
-0.8871528
-0.88721144
-0.88726884
-0.8873251
-0.8873801
-0.88743395
-0.8874865
-0.8875379
-0.8875881
-0.887637
-0.88768476
-0.8877313
-0.8877767
-0.8878208
-0.8878637
-0.88790536
-0.88794583
-0.8879851
-0.8880232
-0.88806003
-0.8880957
-0.88813007
-0.8881633
-0.8881953
-0.8882261
-0.88825566
-0.888284
-0.8883112
-0.88833714
-0.8883619
-0.8883854
-0.8884077
-0.8884288
-0.8884487
-0.8884674
-0.88848484
-0.8885011
-0.8885161
-0.88852996
-0.8885426
-0.888554
-0.88856417
-0.88857317
-0.8885809
-0.8885875
-0.88859284
-0.888597
-0.88859993
-0.8886016
-0.88860214
-0.8886014
-0.8885995
-0.88859636
-0.88859206
-0.88858646
-0.8885797
-0.88857174
-0.88856256
-0.8885521
-0.88854057
-0.88852775
-0.8885137
-0.8884984
-0.888482
-0.88846433
-0.88844544
-0.88842535
-0.8884041
-0.88838154
-0.8883578
-0.88833284
-0.88830674
-0.8882794
-0.88825077
-0.888221
-0.88819003
-0.8881578
-0.8881244
-0.8880898
-0.88805395
-0.8880169
-0.8879786
-0.88793916
-0.88789845
-0.88785654
-0.88781345
-0.8877691
-0.88772357
-0.88767684
-0.8876289
-0.88757974
-0.8875294
-0.88747776
-0.88742495
-0.88737094
-0.88731575
-0.8872593
-0.88720167
-0.8871428
-0.8870827
-0.8870214
-0.88695896
-0.88689524
-0.88683033
-0.8867642
-0.8866969
-0.8866283
-0.88655853
-0.8864876
-0.8864154
-0.886342
-0.8862674
-0.8861916
-0.88611454
-0.88603634
-0.8859569
-0.8858762
-0.88579434
-0.88571125
-0.8856269
-0.88554144
-0.8854547
-0.8853668
-0.8852776
-0.88518727
-0.8850957
-0.8850029
-0.8849089
-0.8848137
-0.88471735
-0.8846197
-0.8845209
-0.8844208
-0.88431954
-0.8842171
-0.88411343
-0.8840085
-0.88390243
-0.8837951
-0.88368654
-0.8835768
-0.8834659
-0.8833537
-0.88324034
-0.8831258
-0.88300997
-0.88289297
-0.8827747
-0.8826553
-0.8825347
-0.8824128
-0.88228977
-0.8821655
-0.88203996
-0.8819133
-0.8817854
-0.8816562
-0.88152593
-0.8813944
-0.88126165
-0.88112766
-0.8809925
-0.8808561
-0.88071847
-0.88057965
-0.88043964
-0.8802984
-0.880156
-0.8800123
-0.87986743
-0.87972134
-0.87957406
-0.8794255
-0.8792758
-0.8791249
-0.87897277
-0.8788194
-0.87866485
-0.87850904
-0.8783521
-0.8781939
-0.8780345
-0.87787384
-0.877712
-0.877549
-0.8773847
-0.87721926
-0.8770526
-0.8768847
-0.8767156
-0.8765453
-0.87637377
-0.87620103
-0.8760271
-0.8758519
-0.87567556
-0.875498
-0.8753192
-0.8751392
-0.874958
-0.8747755
-0.8745919
-0.87440705
-0.87422097
-0.8740337
-0.8738452
-0.87365556
-0.87346464
-0.87327254
-0.8730792
-0.87288463
-0.8726889
-0.87249196
-0.8722938
-0.8720944
-0.87189376
-0.87169194
-0.8714889
-0.8712847
-0.87107927
-0.8708726
-0.8706647
-0.8704557
-0.8702454
-0.87003386
-0.86982113
-0.8696072
-0.8693921
-0.86917573
-0.8689582
-0.8687394
-0.8685194
-0.86829823
-0.86807585
-0.8678522
-0.8676274
-0.86740136
-0.8671741
-0.8669456
-0.86671597
-0.8664851
-0.866253
-0.86601967
-0.8657852
-0.86554945
-0.8653125
-0.86507434
-0.86483496
-0.8645944
-0.86435264
-0.86410964
-0.8638654
-0.86362
-0.86337334
-0.8631255
-0.8628765
-0.8626262
-0.8623747
-0.862122
-0.8618681
-0.861613
-0.8613567
-0.8610991
-0.8608404
-0.86058044
-0.86031926
-0.8600569
-0.8597933
-0.8595285
-0.85926247
-0.8589952
-0.8587268
-0.85845715
-0.85818624
-0.8579142
-0.8576409
-0.85736644
-0.8570907
-0.8568138
-0.8565357
-0.8562563
-0.85597575
-0.855694
-0.855411
-0.8551268
-0.8548414
-0.85455483
-0.854267
-0.853978
-0.8536877
-0.85339624
-0.8531036
-0.8528097
-0.8525146
-0.85221833
-0.8519208
-0.85162205
-0.8513221
-0.851021
-0.8507186
-0.85041505
-0.8501103
-0.8498043
-0.8494971
-0.8491886
-0.84887904
-0.8485682
-0.8482561
-0.8479428
-0.84762836
-0.8473127
-0.8469958
-0.84667766
-0.84635836
-0.8460378
-0.8457161
-0.84539354
-0.8450716
-0.8447504
-0.84442997
-0.8441102
-0.8437912
-0.84347296
-0.8431554
-0.8428386
-0.8425225
-0.84220713
-0.84189254
-0.84157866
-0.8412655
-0.84095305
-0.8406414
-0.84033036
-0.8400202
-0.83971065
-0.8394019
-0.83909386
-0.83878654
-0.83847994
-0.8381741
-0.837869
-0.8375646
-0.83726096
-0.83695805
-0.83665586
-0.8363544
-0.8360536
-0.8357536
-0.83545434
-0.83515584
-0.834858
-0.83456093
-0.83426464
-0.833969
-0.83367413
-0.83338
-0.83308655
-0.83279383
-0.8325019
-0.83221066
-0.83192015
-0.8316304
-0.8313414
-0.8310531
-0.8307655
-0.83047867
-0.83019257
-0.8299072
-0.8296225
-0.8293386
-0.8290554
-0.82877296
-0.8284912
-0.82821023
-0.82793
-0.8276504
-0.82737166
-0.8270936
-0.82681626
-0.82653964
-0.8262638
-0.8259886
-0.82571423
-0.8254405
-0.8251676
-0.8248953
-0.8246239
-0.8243531
-0.8240831
-0.8238138
-0.8235452
-0.82327735
-0.82301027
-0.8227439
-0.82247823
-0.82221335
-0.8219492
-0.82168573
-0.821423
-0.82116103
-0.8208998
-0.82063925
-0.82037944
-0.8201204
-0.81986207
-0.81960446
-0.81934756
-0.81909144
-0.81883603
-0.81858134
-0.8183274
-0.8180742
-0.81782174
-0.81757
-0.817319
-0.81706864
-0.81681913
-0.8165703
-0.81632215
-0.8160748
-0.8158282
-0.8155823
-0.8153371
-0.8150927
-0.81484896
-0.81460595
-0.8143637
-0.8141222
-0.8138814
-0.81364137
-0.81340206
-0.81316346
-0.8129256
-0.81268847
-0.8124521
-0.8122164
-0.81198144
-0.81174725
-0.8115138
-0.811281
-0.811049
-0.8108177
-0.81058717
-0.81035733
-0.8101283
-0.80989987
-0.80967224
-0.8094454
-0.8092192
-0.80899376
-0.80876905
-0.8085451
-0.80832183
-0.8080993
-0.80787754
-0.8076565
-0.80743617
-0.8072166
-0.8069977
-0.8067796
-0.80656224
-0.8063456
-0.80612963
-0.80591446
-0.80569994
-0.8054862
-0.80527323
-0.8050609
-0.8048494
-0.80463856
-0.8044285
-0.8042191
-0.8040105
-0.8038026
-0.8035955
-0.8033891
-0.8031833
-0.8029784
-0.80277413
-0.80257064
-0.80236787
-0.8021658
-0.8019645
-0.80176395
-0.8015641
-0.80136496
-0.8011666
-0.80096895
-0.800772
-0.8005758
-0.80038035
-0.8001856
-0.7999916
-0.7997983
-0.7996058
-0.799414
-0.7992229
-0.79903257
-0.79884297
-0.7986541
-0.7984659
-0.7982785
-0.7980918
-0.79790586
-0.7977206
-0.79753613
-0.7973524
-0.7971693
-0.796987
-0.79680544
-0.7966246
-0.7964445
-0.7962651
-0.79608643
-0.7959085
-0.79573137
-0.7955549
-0.79537916
-0.79520416
-0.7950299
-0.79485637
-0.7946836
-0.7945115
-0.79434013
-0.79416955
-0.7939997
-0.7938305
-0.79366213
-0.7934944
-0.79332745
-0.7931613
-0.79299575
-0.792831
-0.792667
-0.79250365
-0.7923411
-0.7921793
-0.7920182
-0.7918578
-0.79169816
-0.79153925
-0.79138106
-0.7912236
-0.7910669
-0.7909109
-0.7907556
-0.79060113
-0.79044735
-0.7902943
-0.79014194
-0.7899903
-0.78983945
-0.7896893
-0.78953993
-0.7893912
-0.7892433
-0.78909606
-0.7889496
-0.7888038
-0.7886588
-0.7885145
-0.78837097
-0.78822815
-0.78808606
-0.7879447
-0.787804
-0.7876641
-0.78752494
-0.7873865
-0.7872488
-0.7871118
-0.78697556
-0.78684
-0.78670526
-0.7865712
-0.78643787
-0.78630525
-0.7861734
-0.7860423
-0.78591186
-0.7857822
-0.78565323
-0.785525
-0.7853976
-0.7852708
-0.7851448
-0.7850195
-0.784895
-0.78477114
-0.78464806
-0.7845257
-0.7844041
-0.78428316
-0.784163
-0.78404355
-0.7839249
-0.78380686
-0.7836896
-0.78357315
-0.78345734
-0.7833423
-0.783228
-0.7831144
-0.78300154
-0.7828894
-0.782778
-0.78266734
-0.7825574
-0.78244823
-0.78233975
-0.782232
-0.782125
-0.7820187
-0.78191316
-0.7818084
-0.78170425
-0.7816009
-0.7814983
-0.7813964
-0.78129524
-0.7811948
-0.7810951
-0.78099614
-0.7808979
-0.7808004
-0.7807036
-0.7806076
-0.7805123
-0.7804177
-0.7803238
-0.7802307
-0.7801383
-0.78004664
-0.77995574
-0.77986556
-0.7797761
-0.77968735
-0.7795993
-0.77951205
-0.7794255
-0.77933973
-0.7792546
-0.7791703
-0.77908665
-0.7790038
-0.7789216
-0.7788402
-0.77875954
-0.77867955
-0.77860034
-0.77852184
-0.77844405
-0.77836704
-0.7782907
-0.7782151
-0.7781403
-0.77806616
-0.7779928
-0.7779201
-0.77784824
-0.777777
-0.77770656
-0.7776368
-0.77756786
-0.7774996
-0.7774321
-0.77736527
-0.77729917
-0.77723384
-0.7771692
-0.77710533
-0.7770422
-0.7769798
-0.7769181
-0.77685714
-0.77679694
-0.77673745
-0.7766787
-0.7766206
-0.77656335
-0.7765068
-0.77645093
-0.7763958
-0.77634144
-0.7762878
-0.77623487
-0.7761827
-0.7761313
-0.77608055
-0.77603054
-0.7759813
-0.7759328
-0.775885
-0.7758379
-0.7757916
-0.775746
-0.7757011
-0.77565694
-0.77561355
-0.77557087
-0.7755289
-0.7754877
-0.7754472
-0.77540743
-0.77536845
-0.7753301
-0.7752926
-0.77525574
-0.7752196
-0.7751843
-0.77514964
-0.7751157
-0.7750825
-0.7750501
-0.7750184
-0.7749874
-0.7749572
-0.7749276
-0.7748988
-0.7748708
-0.7748434
-0.7748162
-0.7747893
-0.7747626
-0.7747361
-0.7747099
-0.7746839
-0.7746581
-0.7746325
-0.77460724
-0.77458215
-0.7745573
-0.7745327
-0.77450824
-0.7744841
-0.77446014
-0.7744364
-0.77441293
-0.7743897
-0.7743667
-0.7743439
-0.7743214
-0.774299
-0.7742769
-0.77425504
-0.7742334
-0.774212
-0.77419084
-0.77416986
-0.7741492
-0.7741287
-0.7741084
-0.7740884
-0.7740686
-0.77404904
-0.7740297
-0.7740106
-0.7739917
-0.77397305
-0.77395463
-0.77393645
-0.7739185
-0.77390075
-0.7738833
-0.773866
-0.77384895
-0.77383214
-0.7738156
-0.77379924
-0.77378315
-0.77376723
-0.77375156
-0.7737362
-0.773721
-0.773706
-0.77369124
-0.77367675
-0.77366245
-0.77364844
-0.7736346
-0.773621
-0.7736077
-0.77359456
-0.7735816
-0.773569
-0.77355653
-0.7735443
-0.7735324
-0.7735206
-0.7735091
-0.7734978
-0.77348673
-0.77347594
-0.77346534
-0.77345496
-0.77344483
-0.77343494
-0.7734253
-0.7734158
-0.77340657
-0.7733976
-0.77338886
-0.77338034
-0.77337205
-0.77336395
-0.77335614
-0.7733485
-0.7733411
-0.773334
-0.7733271
-0.7733204
-0.77331394
-0.77330774
-0.7733017
-0.77329594
-0.7732904
-0.7732851
-0.77328
-0.7732752
-0.7732706
-0.7732662
-0.773262
-0.77325815
-0.77325445
-0.77325094
-0.7732477
-0.77324474
-0.77324194
-0.7732394
-0.7732371
-0.773235
-0.7732332
-0.7732315
-0.77323014
-0.77322894
-0.77322805
-0.77322733
-0.77322686
-0.7732266
-0.7732266
-0.7732268
-0.7732273
-0.77322793
-0.7732288
-0.77322996
-0.7732313
-0.77323294
-0.7732348
-0.7732368
-0.7732391
-0.77324164
-0.7732444
-0.77324736
-0.7732505
-0.773254
-0.7732577
-0.77326155
-0.77326566
-0.77327
-0.7732746
-0.7732794
-0.7732845
-0.77328974
-0.7732953
-0.773301
-0.77330697
-0.77331316
-0.7733196
-0.7733262
-0.77333313
-0.7733402
-0.7733476
-0.7733552
-0.773363
-0.77337104
-0.77337927
-0.7733878
-0.7733965
-0.7734055
-0.7734147
-0.7734241
-0.77343374
-0.7734436
-0.7734537
-0.773464
-0.77347463
-0.7734854
-0.77349645
-0.7735077
-0.77351916
-0.7735309
-0.7735428
-0.77355504
-0.77356744
-0.7735801
-0.77359295
-0.773606
-0.77361935
-0.77363294
-0.7736467
-0.7736607
-0.77367496
-0.77368945
-0.7737042
-0.7737191
-0.7737343
-0.77374965
-0.77376527
-0.7737811
-0.7737972
-0.77381355
-0.7738301
-0.77384686
-0.7738639
-0.77388114
-0.7738986
-0.7739163
-0.77393425
-0.77395236
-0.7739708
-0.7739894
-0.7740082
-0.7740273
-0.7740466
-0.77406615
-0.77408594
-0.7741059
-0.7741262
-0.7741466
-0.7741673
-0.7741882
-0.7742094
-0.7742308
-0.77425236
-0.77427423
-0.7742963
-0.7743186
-0.7743411
-0.7743639
-0.7743868
-0.77441007
-0.7744335
-0.7744572
-0.7744811
-0.77450526
-0.77452964
-0.7745542
-0.77457905
-0.7746041
-0.7746294
-0.7746549
-0.7746807
-0.77470666
-0.7747328
-0.7747593
-0.77478594
-0.7748129
-0.77484
-0.77486736
-0.77489495
-0.7749228
-0.7749508
-0.7749791
-0.7750076
-0.77503633
-0.7750653
-0.7750945
-0.77512395
-0.7751536
-0.7751835
-0.7752136
-0.77524394
-0.7752746
-0.77530533
-0.7753364
-0.7753677
-0.77539915
-0.7754309
-0.77546287
-0.77549505
-0.7755275
-0.77556014
-0.775593
-0.7756261
-0.77565944
-0.775693
-0.77572685
-0.7757608
-0.7757951
-0.7758296
-0.7758643
-0.7758993
-0.77593446
-0.77596986
-0.7760055
-0.7760414
-0.7760775
-0.7761138
-0.7761504
-0.7761872
-0.7762242
-0.77626145
-0.77629894
-0.7763366
-0.7763746
-0.7764127
-0.7764512
-0.7764898
-0.77652866
-0.77656776
-0.77660704
-0.7766466
-0.7766864
-0.7767264
-0.77676666
-0.7768071
-0.77684784
-0.7768887
-0.7769299
-0.7769713
-0.77701294
-0.7770548
-0.77709687
-0.7771392
-0.77718174
-0.7772245
-0.7772675
-0.7773107
-0.7773542
-0.7773979
-0.7774418
-0.77748597
-0.7775303
-0.77757496
-0.7776198
-0.77766484
-0.77771014
-0.7777557
-0.77780145
-0.77784747
-0.77789366
-0.77794015
-0.7779868
-0.77803373
-0.7780809
-0.77812827
-0.77817583
-0.7782237
-0.77827173
-0.77832
-0.77836853
-0.7784173
-0.7784663
-0.7785155
-0.77856493
-0.77861464
-0.7786645
-0.77871466
-0.778765
-0.7788156
-0.77886647
-0.7789175
-0.7789688
-0.7790203
-0.77907205
-0.779124
-0.77917624
-0.7792286
-0.7792813
-0.7793342
-0.77938735
-0.7794407
-0.7794943
-0.7795481
-0.7796021
-0.7796564
-0.7797109
-0.77976567
-0.7798206
-0.7798758
-0.77993125
-0.77998686
-0.78004277
-0.78009886
-0.78015524
-0.7802118
-0.7802686
-0.78032565
-0.7803829
-0.7804404
-0.78049815
-0.7805561
-0.78061426
-0.78067267
-0.7807313
-0.7807902
-0.7808493
-0.78090864
-0.7809682
-0.781028
-0.781088
-0.78114825
-0.78120875
-0.7812695
-0.7813304
-0.7813916
-0.781453
-0.78151464
-0.7815765
-0.7816386
-0.7817009
-0.7817635
-0.78182626
-0.78188926
-0.7819525
-0.782016
-0.7820797
-0.78214365
-0.7822078
-0.7822722
-0.78233683
-0.7824017
-0.78246677
-0.7825321
-0.78259754
-0.782663
-0.7827283
-0.7827935
-0.7828586
-0.78292364
-0.78298855
-0.78305334
-0.783118
-0.7831826
-0.7832471
-0.78331155
-0.7833758
-0.78344
-0.7835041
-0.7835681
-0.783632
-0.78369576
-0.7837594
-0.783823
-0.7838865
-0.78394985
-0.78401315
-0.78407633
-0.7841394
-0.7842024
-0.7842652
-0.784328
-0.7843907
-0.7844532
-0.7845157
-0.7845781
-0.7846403
-0.7847025
-0.7847645
-0.78482646
-0.7848883
-0.7849501
-0.7850117
-0.7850733
-0.78513473
-0.78519607
-0.7852573
-0.78531843
-0.78537947
-0.7854404
-0.78550124
-0.785562
-0.7856226
-0.7856831
-0.78574353
-0.78580385
-0.7858641
-0.7859242
-0.7859842
-0.7860441
-0.78610396
-0.7861637
-0.7862233
-0.7862828
-0.7863422
-0.7864015
-0.7864607
-0.7865198
-0.7865788
-0.7866377
-0.7866965
-0.7867552
-0.7868138
-0.78687227
-0.7869307
-0.786989
-0.78704715
-0.7871052
-0.7871632
-0.7872211
-0.78727883
-0.7873365
-0.7873941
-0.78745157
-0.78750896
-0.78756624
-0.7876234
-0.78768045
-0.7877374
-0.7877943
-0.78785104
-0.7879077
-0.7879642
-0.78802073
-0.78807706
-0.7881333
-0.7881895
-0.7882455
-0.78830147
-0.7883573
-0.78841305
-0.78846866
-0.7885242
-0.78857964
-0.78863496
-0.7886902
-0.78874534
-0.78880036
-0.7888553
-0.78891015
-0.78896487
-0.78901947
-0.789074
-0.7891284
-0.7891827
-0.78923696
-0.7892911
-0.7893451
-0.78939897
-0.7894528
-0.7895065
-0.7895601
-0.7896136
-0.789667
-0.7897203
-0.78977346
-0.7898266
-0.78987956
-0.7899325
-0.78998524
-0.79003793
-0.7900905
-0.790143
-0.7901954
-0.7902477
-0.79029983
-0.7903519
-0.7904039
-0.79045576
-0.79050756
-0.79055923
-0.7906108
-0.7906622
-0.7907136
-0.79076487
-0.790816
-0.7908671
-0.79091805
-0.7909689
-0.7910197
-0.7910703
-0.7911208
-0.7911713
-0.7912216
-0.79127187
-0.79132205
-0.79137206
-0.791422
-0.79147184
-0.7915216
-0.7915712
-0.79162073
-0.7916702
-0.7917195
-0.7917687
-0.79181784
-0.7918669
-0.7919158
-0.7919646
-0.79201335
-0.7920619
-0.79211044
-0.79215884
-0.7922072
-0.7922554
-0.7923035
-0.7923515
-0.7923994
-0.7924472
-0.7924949
-0.7925425
-0.79258996
-0.7926374
-0.7926847
-0.7927319
-0.79277897
-0.79282594
-0.7928728
-0.7929196
-0.7929663
-0.79301286
-0.79305935
-0.7931057
-0.793152
-0.79319817
-0.79324424
-0.7932902
-0.79333603
-0.7933818
-0.79342747
-0.79347306
-0.7935185
-0.79356384
-0.7936091
-0.79365426
-0.7936993
-0.79374427
-0.7937891
-0.79383385
-0.7938785
-0.793923
-0.7939675
-0.79401183
-0.79405606
-0.7941002
-0.7941442
-0.79418814
-0.794232
-0.7942757
-0.79431933
-0.79436284
-0.7944063
-0.7944496
-0.79449284
-0.79453593
-0.79457897
-0.7946219
-0.7946647
-0.7947074
-0.79475
-0.79479253
-0.7948349
-0.79487723
-0.79491943
-0.7949615
-0.79500353
-0.7950454
-0.7950872
-0.7951289
-0.7951705
-0.795212
-0.79525334
-0.79529464
-0.7953358
-0.7953769
-0.7954179
-0.79545873
-0.7954995
-0.7955402
-0.7955808
-0.7956212
-0.7956616
-0.79570186
-0.79574203
-0.7957821
-0.7958221
-0.7958619
-0.79590166
-0.79594135
-0.7959809
-0.7960203
-0.79605967
-0.79609895
-0.7961381
-0.79617715
-0.7962161
-0.79625493
-0.7962937
-0.7963323
-0.7963708
-0.79640925
-0.7964476
-0.79648584
-0.7965239
-0.79656196
-0.7965999
-0.7966377
-0.79667544
-0.79671305
-0.7967506
-0.796788
-0.7968253
-0.79686254
-0.7968996
-0.79693663
-0.7969735
-0.79701036
-0.797047
-0.7970837
-0.79712015
-0.7971566
-0.7971928
-0.79722905
-0.7972651
-0.7973011
-0.797337
-0.7973728
-0.79740846
-0.79744405
-0.7974795
-0.7975149
-0.7975502
-0.79758537
-0.7976204
-0.7976554
-0.7976903
-0.7977251
-0.7977597
-0.7977943
-0.79782873
-0.7978631
-0.79789734
-0.79793155
-0.7979656
-0.79799956
-0.79803336
-0.79806715
-0.79810077
-0.7981343
-0.79816777
-0.79820114
-0.79823434
-0.7982675
-0.7983005
-0.79833347
-0.7983663
-0.79839903
-0.79843163
-0.7984642
-0.7984966
-0.79852897
-0.79856116
-0.7985933
-0.7986253
-0.79865724
-0.79868907
-0.7987208
-0.79875237
-0.7987839
-0.7988153
-0.7988466
-0.7988778
-0.7989089
-0.7989399
-0.7989708
-0.7990016
-0.7990323
-0.7990629
-0.79909337
-0.79912376
-0.79915404
-0.79918426
-0.7992143
-0.7992443
-0.7992742
-0.79930395
-0.79933363
-0.7993632
-0.7993927
-0.7994221
-0.79945135
-0.7994805
-0.7995096
-0.79953855
-0.7995674
-0.7995962
-0.7996248
-0.79965335
-0.79968184
-0.7997102
-0.79973847
-0.7997666
-0.7997946
-0.79982257
-0.7998504
-0.7998782
-0.79990584
-0.7999334
-0.7999608
-0.79998815
-0.8000154
-0.8000425
-0.8000695
-0.80009645
-0.8001233
-0.80015
-0.8001766
-0.80020314
-0.80022955
-0.8002559
-0.8002821
-0.8003082
-0.8003342
-0.80036014
-0.80038595
-0.80041164
-0.8004373
-0.8004628
-0.8004882
-0.80051345
-0.80053866
-0.80056375
-0.8005887
-0.80061364
-0.80063844
-0.8006631
-0.80068773
-0.80071217
-0.8007366
-0.8007611
-0.80078566
-0.8008103
-0.800835
-0.8008598
-0.80088466
-0.80090964
-0.8009347
-0.8009598
-0.80098504
-0.8010103
-0.8010357
-0.80106115
-0.8010867
-0.8011123
-0.80113804
-0.8011638
-0.80118966
-0.8012156
-0.80124164
-0.80126774
-0.8012939
-0.8013202
-0.80134654
-0.801373
-0.8013995
-0.8014261
-0.8014528
-0.8014796
-0.8015064
-0.80153334
-0.80156034
-0.8015874
-0.8016146
-0.8016418
-0.8016692
-0.8016966
-0.8017241
-0.8017517
-0.8017793
-0.80180705
-0.8018349
-0.8018628
-0.8018908
-0.80191886
-0.801947
-0.80197525
-0.80200356
-0.80203193
-0.8020604
-0.802089
-0.80211765
-0.8021463
-0.80217516
-0.802204
-0.802233
-0.80226207
-0.80229115
-0.80232036
-0.8023497
-0.8023791
-0.8024085
-0.802438
-0.80246764
-0.8024974
-0.8025271
-0.802557
-0.802587
-0.802617
-0.8026471
-0.8026773
-0.80270755
-0.8027379
-0.80276835
-0.80279887
-0.80282944
-0.80286014
-0.8028909
-0.8029218
-0.8029527
-0.8029837
-0.80301476
-0.8030459
-0.8030772
-0.8031085
-0.80314
-0.80317146
-0.80320305
-0.8032347
-0.80326647
-0.80329823
-0.8033302
-0.80336213
-0.8033942
-0.8034264
-0.80345863
-0.80349094
-0.8035233
-0.8035558
-0.80358833
-0.803621
-0.8036537
-0.8036865
-0.8037194
-0.80375236
-0.80378544
-0.8038185
-0.8038518
-0.80388504
-0.8039184
-0.8039519
-0.8039854
-0.80401903
-0.80405277
-0.8040865
-0.8041204
-0.80415434
-0.8041884
-0.80422246
-0.8042567
-0.80429095
-0.8043253
-0.80435973
-0.80439425
-0.8044289
-0.80446357
-0.8044983
-0.8045331
-0.80456805
-0.8046031
-0.8046382
-0.8046734
-0.8047086
-0.80474395
-0.80477935
-0.8048149
-0.80485046
-0.8048861
-0.80492187
-0.8049577
-0.80499357
-0.8050296
-0.80506563
-0.80510175
-0.805138
-0.80517435
-0.8052107
-0.8052472
-0.8052838
-0.8053204
-0.8053571
-0.80539393
-0.8054308
-0.8054678
-0.80550486
-0.805542
-0.8055792
-0.8056165
-0.80565387
-0.8056913
-0.80572885
-0.80576646
-0.8058042
-0.8058419
-0.80587983
-0.80591774
-0.80595577
-0.8059939
-0.8060321
-0.8060704
-0.8061087
-0.80614716
-0.80618566
-0.8062243
-0.80626297
-0.8063017
-0.8063406
-0.8063795
-0.80641854
-0.8064576
-0.8064968
-0.806536
-0.80657536
-0.80661476
-0.8066543
-0.80669385
-0.80673355
-0.80677325
-0.8068131
-0.806853
-0.806893
-0.80693305
-0.8069732
-0.80701345
-0.80705374
-0.80709416
-0.8071346
-0.8071752
-0.80721587
-0.8072566
-0.80729735
-0.80733824
-0.80737925
-0.80742025
-0.8074614
-0.8075026
-0.80754393
-0.8075853
-0.8076267
-0.80766827
-0.80770993
-0.8077516
-0.8077934
-0.8078353
-0.80787724
-0.80791926
-0.80796134
-0.80800354
-0.8080458
-0.8080882
-0.8081306
-0.8081731
-0.80821574
-0.8082584
-0.8083012
-0.80834407
-0.808387
-0.80842996
-0.80847305
-0.80851626
-0.8085595
-0.8086028
-0.80864626
-0.8086898
-0.80873334
-0.808777
-0.8088207
-0.8088646
-0.80890846
-0.80895245
-0.80899656
-0.80904067
-0.8090849
-0.80912924
-0.80917364
-0.8092181
-0.8092627
-0.80930734
-0.80935204
-0.80939686
-0.80944175
-0.8094867
-0.80953175
-0.80957687
-0.8096221
-0.8096674
-0.80971277
-0.80975825
-0.8098038
-0.8098494
-0.8098951
-0.8099409
-0.80998677
-0.8100327
-0.81007874
-0.8101249
-0.81017107
-0.8102173
-0.8102637
-0.8103101
-0.8103566
-0.8104032
-0.8104499
-0.8104967
-0.81054354
-0.81059045
-0.8106375
-0.81068456
-0.8107317
-0.810779
-0.8108263
-0.81087375
-0.81092125
-0.8109688
-0.8110165
-0.81106424
-0.81111205
-0.81115997
-0.81120795
-0.81125605
-0.8113042
-0.81135243
-0.8114008
-0.81144917
-0.8114976
-0.8115462
-0.81159484
-0.81164354
-0.81169236
-0.81174123
-0.8117902
-0.8118393
-0.8118884
-0.81193763
-0.8119869
-0.8120363
-0.81208575
-0.8121353
-0.81218493
-0.81223464
-0.8122844
-0.8123343
-0.81238425
-0.81243426
-0.8124844
-0.8125346
-0.8125848
-0.8126352
-0.8126856
-0.81273615
-0.81278676
-0.8128374
-0.8128882
-0.81293905
-0.81299
-0.813041
-0.8130921
-0.81314325
-0.8131945
-0.81324583
-0.8132973
-0.81334877
-0.8134004
-0.813452
-0.8135038
-0.8135556
-0.8136075
-0.8136595
-0.8137116
-0.81376374
-0.81381595
-0.8138683
-0.8139207
-0.8139732
-0.8140257
-0.8140784
-0.8141311
-0.8141839
-0.8142368
-0.81428975
-0.8143428
-0.81439596
-0.8144492
-0.8145025
-0.8145558
-0.8146093
-0.8146628
-0.81471646
-0.81477016
-0.814824
-0.8148778
-0.81493175
-0.8149858
-0.81503993
-0.8150941
-0.8151484
-0.8152028
-0.8152572
-0.81531173
-0.8153663
-0.815421
-0.81547576
-0.8155306
-0.81558555
-0.81564057
-0.81569564
-0.81575084
-0.8158061
-0.8158614
-0.81591684
-0.8159723
-0.81602794
-0.8160836
-0.81613934
-0.8161952
-0.8162511
-0.81630707
-0.81636316
-0.8164193
-0.8164755
-0.81653184
-0.8165883
-0.8166447
-0.8167013
-0.8167579
-0.81681466
-0.81687146
-0.8169284
-0.81698537
-0.8170424
-0.8170995
-0.81715673
-0.817214
-0.81727135
-0.8173281
-0.81738424
-0.8174398
-0.8174948
-0.81754917
-0.81760293
-0.8176561
-0.8177087
-0.81776065
-0.817812
-0.8178628
-0.817913
-0.8179626
-0.8180116
-0.81806
-0.8181078
-0.818155
-0.8182016
-0.8182476
-0.818293
-0.8183378
-0.818382
-0.81842566
-0.81846863
-0.81851107
-0.81855285
-0.8185941
-0.81863475
-0.81867474
-0.8187142
-0.818753
-0.8187913
-0.8188289
-0.8188659
-0.8189024
-0.8189382
-0.8189734
-0.8190081
-0.81904215
-0.8190756
-0.8191084
-0.81914073
-0.8191724
-0.81920344
-0.8192339
-0.81926376
-0.819293
-0.8193217
-0.81934977
-0.81937724
-0.8194041
-0.8194304
-0.8194561
-0.8194812
-0.8195057
-0.81952953
-0.81955284
-0.81957555
-0.81959766
-0.8196191
-0.81964004
-0.81966037
-0.81968004
-0.81969917
-0.81971765
-0.8197356
-0.81975293
-0.8197696
-0.8197857
-0.8198013
-0.8198162
-0.81983054
-0.81984425
-0.81985736
-0.81986994
-0.81988186
-0.8198932
-0.8199039
-0.81991404
-0.81992364
-0.8199326
-0.8199409
-0.8199487
-0.8199558
-0.8199624
-0.81996834
-0.8199737
-0.8199785
-0.81998265
-0.8199862
-0.8199892
-0.8199915
-0.8199933
-0.8199945
-0.8199951
-0.81999505
-0.81999445
-0.81999326
-0.8199914
-0.819989
-0.81998605
-0.8199824
-0.81997824
-0.8199734
-0.81996804
-0.819962
-0.81995547
-0.81994826
-0.81994045
-0.8199321
-0.8199231
-0.8199135
-0.8199034
-0.8198926
-0.8198812
-0.8198692
-0.81985664
-0.8198435
-0.81982976
-0.8198154
-0.81980044
-0.8197849
-0.8197687
-0.819752
-0.81973463
-0.81971663
-0.8196981
-0.81967896
-0.81965923
-0.8196389
-0.819618
-0.8195964
-0.8195743
-0.8195516
-0.8195282
-0.8195043
-0.8194798
-0.81945467
-0.819429
-0.81940264
-0.81937575
-0.8193482
-0.81932014
-0.8192914
-0.81926215
-0.8192322
-0.8192017
-0.81917065
-0.81913894
-0.81910664
-0.81907374
-0.8190403
-0.8190062
-0.8189715
-0.8189362
-0.81890035
-0.81886387
-0.8188268
-0.8187891
-0.81875086
-0.818712
-0.81867254
-0.8186325
-0.81859183
-0.8185506
-0.81850874
-0.81846625
-0.8184232
-0.8183796
-0.81833535
-0.8182905
-0.81824505
-0.81819904
-0.81815237
-0.81810516
-0.8180573
-0.8180089
-0.81795985
-0.81791025
-0.81786
-0.8178092
-0.8177578
-0.81770575
-0.8176532
-0.81759995
-0.8175461
-0.81749177
-0.81743675
-0.81738114
-0.81732494
-0.81726813
-0.81721073
-0.81715274
-0.8170942
-0.817035
-0.81697524
-0.81691486
-0.8168539
-0.81679225
-0.8167301
-0.8166673
-0.81660396
-0.81654
-0.81647545
-0.81641024
-0.8163445
-0.81627816
-0.8162112
-0.81614363
-0.8160755
-0.8160067
-0.8159374
-0.8158675
-0.8157969
-0.8157258
-0.81565404
-0.81558174
-0.8155088
-0.81543523
-0.81536114
-0.8152864
-0.81521106
-0.8151352
-0.81505865
-0.8149815
-0.8149038
-0.8148255
-0.8147466
-0.8146671
-0.814587
-0.8145063
-0.814425
-0.8143431
-0.8142606
-0.8141775
-0.8140938
-0.81400955
-0.8139246
-0.81383914
-0.81375307
-0.8136664
-0.81357914
-0.8134912
-0.8134028
-0.8133137
-0.813224
-0.8131338
-0.81304294
-0.81295145
-0.8128594
-0.81276673
-0.8126735
-0.81257963
-0.8124852
-0.81239015
-0.81229454
-0.8121983
-0.8121014
-0.81200397
-0.811906
-0.81180733
-0.8117081
-0.81160825
-0.8115079
-0.81140685
-0.8113052
-0.811203
-0.8111002
-0.8109968
-0.81089276
-0.81078815
-0.81068295
-0.81057715
-0.81047076
-0.81036377
-0.8102561
-0.81014794
-0.81003916
-0.8099298
-0.8098198
-0.8097092
-0.809598
-0.80948627
-0.80937386
-0.8092609
-0.8091473
-0.80903316
-0.80891836
-0.808803
-0.80868703
-0.8085705
-0.8084533
-0.8083356
-0.8082172
-0.80809826
-0.80797875
-0.8078586
-0.8077378
-0.8076165
-0.8074945
-0.80737203
-0.8072489
-0.80712515
-0.8070008
-0.8068759
-0.80675036
-0.80662423
-0.8064975
-0.8063702
-0.8062423
-0.8061138
-0.8059847
-0.8058549
-0.8057246
-0.8055937
-0.80546224
-0.80533016
-0.8051974
-0.80506414
-0.80493027
-0.80479574
-0.8046607
-0.80452496
-0.8043887
-0.8042518
-0.80411434
-0.80397624
-0.8038376
-0.8036983
-0.80355847
-0.803418
-0.8032769
-0.8031353
-0.802993
-0.8028501
-0.80270666
-0.8025626
-0.802418
-0.80227274
-0.8021269
-0.80198044
-0.8018334
-0.80168575
-0.8015375
-0.8013887
-0.80123925
-0.8010892
-0.8009386
-0.8007874
-0.8006355
-0.8004831
-0.8003301
-0.8001765
-0.80002224
-0.79986745
-0.79971206
-0.799556
-0.79939944
-0.79924226
-0.7990844
-0.79892606
-0.79876703
-0.79860747
-0.79844725
-0.7982865
-0.7981251
-0.7979631
-0.79780054
-0.79763734
-0.79747355
-0.7973092
-0.79714423
-0.79697865
-0.7968125
-0.7966457
-0.7964784
-0.7963104
-0.79614186
-0.7959727
-0.79580295
-0.7956326
-0.79546165
-0.7952901
-0.795118
-0.7949452
-0.79477185
-0.7945979
-0.7944234
-0.7942483
-0.7940725
-0.7938962
-0.7937193
-0.7935418
-0.79336363
-0.79318494
-0.7930056
-0.7928257
-0.7926452
-0.7924641
-0.79228234
-0.7921001
-0.79191715
-0.7917337
-0.7915497
-0.7913661
-0.79118305
-0.7910005
-0.79081845
-0.79063696
-0.79045594
-0.79027545
-0.7900955
-0.78991604
-0.7897371
-0.78955865
-0.7893807
-0.78920335
-0.7890265
-0.7888501
-0.7886743
-0.78849894
-0.7883241
-0.78814983
-0.787976
-0.78780276
-0.78763
-0.78745776
-0.78728604
-0.7871148
-0.78694415
-0.786774
-0.7866043
-0.7864351
-0.7862665
-0.7860984
-0.7859308
-0.7857637
-0.78559715
-0.7854311
-0.78526556
-0.7851005
-0.784936
-0.78477204
-0.78460854
-0.7844456
-0.78428316
-0.7841212
-0.7839598
-0.7837989
-0.7836385
-0.7834786
-0.7833193
-0.78316045
-0.78300214
-0.7828443
-0.782687
-0.78253025
-0.78237396
-0.7822182
-0.782063
-0.7819083
-0.7817541
-0.7816004
-0.78144723
-0.7812946
-0.7811425
-0.78099084
-0.78083974
-0.7806891
-0.7805391
-0.7803895
-0.7802405
-0.78009194
-0.77994394
-0.7797964
-0.77964944
-0.779503
-0.779357
-0.7792116
-0.7790667
-0.77892226
-0.7787784
-0.778635
-0.77849215
-0.7783498
-0.77820796
-0.7780667
-0.7779259
-0.7777856
-0.7776458
-0.7775066
-0.77736783
-0.7772296
-0.7770919
-0.77695477
-0.7768181
-0.7766819
-0.7765463
-0.7764112
-0.7762765
-0.7761424
-0.77600884
-0.7758758
-0.77574325
-0.7756112
-0.77547973
-0.7753487
-0.7752182
-0.77508825
-0.7749588
-0.77482986
-0.7747014
-0.7745735
-0.7744461
-0.77431923
-0.77419287
-0.77406704
-0.7739417
-0.7738169
-0.7736926
-0.7735688
-0.77344555
-0.77332276
-0.7732006
-0.7730788
-0.7729576
-0.7728369
-0.77271676
-0.7725971
-0.7724779
-0.7723593
-0.7722412
-0.7721236
-0.7720065
-0.7718899
-0.7717739
-0.77165836
-0.7715433
-0.7714288
-0.77131486
-0.7712014
-0.7710884
-0.77097595
-0.77086407
-0.7707526
-0.77064174
-0.77053136
-0.7704215
-0.77031213
-0.7702033
-0.770095
-0.76998717
-0.7698799
-0.7697731
-0.76966685
-0.7695611
-0.7694559
-0.7693512
-0.769247
-0.7691433
-0.7690401
-0.76893747
-0.76883537
-0.76873374
-0.76863265
-0.76853204
-0.76843196
-0.7683324
-0.76823336
-0.76813483
-0.76803684
-0.7679393
-0.76784235
-0.7677459
-0.76764995
-0.7675545
-0.7674596
-0.7673652
-0.7672713
-0.76717794
-0.7670851
-0.76699275
-0.7669009
-0.7668096
-0.7667188
-0.76662856
-0.7665388
-0.7664495
-0.7663608
-0.7662726
-0.76618487
-0.7660977
-0.766011
-0.7659249
-0.7658392
-0.7657541
-0.7656695
-0.7655854
-0.76550186
-0.76541877
-0.7653362
-0.7652542
-0.76517266
-0.7650917
-0.7650112
-0.76493126
-0.7648518
-0.76477283
-0.76469445
-0.76461655
-0.7645391
-0.76446223
-0.7643859
-0.76431006
-0.7642347
-0.7641599
-0.7640856
-0.7640118
-0.76393855
-0.7638658
-0.7637936
-0.7637219
-0.76365066
-0.76357996
-0.7635098
-0.76344013
-0.763371
-0.7633024
-0.76323426
-0.76316667
-0.76309955
-0.76303303
-0.76296693
-0.7629014
-0.7628364
-0.7627719
-0.7627079
-0.7626444
-0.76258147
-0.76251906
-0.76245713
-0.7623957
-0.7623348
-0.76227444
-0.76221454
-0.76215523
-0.7620964
-0.76203805
-0.7619803
-0.76192296
-0.7618662
-0.76180995
-0.7617542
-0.76169896
-0.7616443
-0.76159006
-0.7615364
-0.76148325
-0.7614306
-0.76137847
-0.76132685
-0.76127577
-0.76122516
-0.7611751
-0.76112556
-0.7610765
-0.761028
-0.76097995
-0.7609325
-0.7608855
-0.76083905
-0.7607931
-0.7607477
-0.7607027
-0.7606583
-0.76061445
-0.7605711
-0.76052827
-0.7604859
-0.7604441
-0.7604028
-0.76036197
-0.76032174
-0.760282
-0.7602427
-0.76020396
-0.76016575
-0.7601281
-0.7600909
-0.76005423
-0.76001805
-0.7599824
-0.7599473
-0.7599127
-0.75987864
-0.759845
-0.759812
-0.75977945
-0.75974745
-0.7597159
-0.7596849
-0.7596544
-0.7596245
-0.75959504
-0.75956607
-0.75953764
-0.75950974
-0.7594824
-0.7594555
-0.75942916
-0.7594033
-0.75937796
-0.75935316
-0.75932884
-0.75930506
-0.7592818
-0.75925905
-0.7592368
-0.7592151
-0.7591939
-0.7591732
-0.75915307
-0.7591334
-0.75911427
-0.7590956
-0.75907755
-0.7590599
-0.75904286
-0.7590263
-0.75901026
-0.7589947
-0.7589797
-0.7589652
-0.7589512
-0.7589377
-0.7589248
-0.7589123
-0.7589004
-0.758889
-0.7588781
-0.75886774
-0.7588579
-0.75884855
-0.7588397
-0.7588314
-0.7588236
-0.7588163
-0.75880957
-0.7588033
-0.7587975
-0.75879234
-0.75878763
-0.75878346
-0.75877976
-0.7587766
-0.7587739
-0.75877184
-0.7587702
-0.7587691
-0.7587685
-0.75876844
-0.7587689
-0.75876987
-0.75877136
-0.7587733
-0.75877583
-0.75877887
-0.75878245
-0.7587865
-0.758791
-0.75879616
-0.75880176
-0.75880784
-0.7588145
-0.75882167
-0.7588293
-0.75883746
-0.75884616
-0.7588554
-0.7588651
-0.75887537
-0.7588861
-0.7588974
-0.75890917
-0.7589215
-0.7589343
-0.7589477
-0.7589615
-0.75897586
-0.75899076
-0.75900614
-0.75902206
-0.7590385
-0.75905544
-0.7590729
-0.75909084
-0.7591094
-0.75912833
-0.7591479
-0.7591679
-0.7591885
-0.7592095
-0.75923115
-0.7592532
-0.75927585
-0.759299
-0.7593226
-0.7593467
-0.7593709
-0.75939524
-0.75941956
-0.75944394
-0.7594684
-0.7594928
-0.7595174
-0.759542
-0.7595666
-0.7595913
-0.759616
-0.7596408
-0.75966567
-0.7596905
-0.7597155
-0.7597405
-0.7597655
-0.7597906
-0.75981575
-0.75984097
-0.7598662
-0.7598915
-0.75991684
-0.75994223
-0.7599677
-0.7599932
-0.76001877
-0.7600444
-0.76007
-0.7600957
-0.7601215
-0.76014733
-0.7601732
-0.76019907
-0.76022506
-0.76025105
-0.76027715
-0.76030326
-0.7603294
-0.76035565
-0.76038194
-0.7604082
-0.7604346
-0.76046103
-0.7604875
-0.760514
-0.7605406
-0.76056725
-0.76059395
-0.76062065
-0.7606474
-0.7606743
-0.7607012
-0.7607281
-0.76075506
-0.7607821
-0.7608092
-0.76083636
-0.76086354
-0.7608908
-0.7609181
-0.76094544
-0.7609728
-0.7610003
-0.76102775
-0.7610553
-0.7610829
-0.76111054
-0.76113826
-0.76116604
-0.7611938
-0.7612217
-0.7612496
-0.76127756
-0.7613056
-0.76133364
-0.7613617
-0.7613899
-0.7614181
-0.76144636
-0.76147467
-0.76150304
-0.7615315
-0.76155996
-0.76158845
-0.76161706
-0.7616457
-0.76167434
-0.7617031
-0.76173186
-0.76176065
-0.76178956
-0.76181847
-0.76184744
-0.7618765
-0.76190555
-0.7619347
-0.7619639
-0.7619931
-0.76202244
-0.76205176
-0.76208115
-0.7621106
-0.7621401
-0.76216966
-0.7621992
-0.76222885
-0.7622586
-0.76228833
-0.76231813
-0.762348
-0.76237786
-0.76240784
-0.7624378
-0.76246786
-0.76249796
-0.7625281
-0.76255834
-0.7625886
-0.7626189
-0.7626493
-0.7626797
-0.76271015
-0.7627407
-0.76277125
-0.7628019
-0.7628325
-0.7628633
-0.76289403
-0.76292485
-0.7629557
-0.76298666
-0.7630176
-0.76304865
-0.7630797
-0.7631109
-0.76314205
-0.7631733
-0.7632045
-0.76323587
-0.7632673
-0.7632987
-0.76333016
-0.76336175
-0.7633933
-0.76342493
-0.76345664
-0.7634884
-0.7635202
-0.763552
-0.7635839
-0.76361585
-0.76364785
-0.7636799
-0.763712
-0.7637442
-0.76377636
-0.7638086
-0.7638409
-0.7638733
-0.7639057
-0.7639381
-0.7639707
-0.7640032
-0.7640358
-0.7640685
-0.7641012
-0.764134
-0.7641668
-0.7641997
-0.7642326
-0.76426554
-0.76429856
-0.76433164
-0.7643648
-0.7643979
-0.7644312
-0.76446444
-0.76449776
-0.76453114
-0.7645646
-0.7645981
-0.76463157
-0.7646652
-0.7646988
-0.7647325
-0.7647662
-0.7648
-0.76483387
-0.7648677
-0.7649017
-0.7649357
-0.7649697
-0.7650038
-0.76503795
-0.76507217
-0.7651064
-0.7651407
-0.76517504
-0.76520944
-0.7652439
-0.7652784
-0.76531297
-0.7653476
-0.76538223
-0.7654169
-0.76545167
-0.7654865
-0.76552135
-0.7655563
-0.76559126
-0.76562625
-0.7656613
-0.76569647
-0.76573163
-0.76576686
-0.7658021
-0.76583743
-0.7658728
-0.76590824
-0.7659437
-0.76597923
-0.7660148
-0.76605046
-0.7660861
-0.76612186
-0.7661576
-0.76619345
-0.76622933
-0.7662653
-0.7663013
-0.7663373
-0.7663734
-0.7664095
-0.7664457
-0.76648194
-0.76651824
-0.7665546
-0.766591
-0.76662743
-0.76666397
-0.7667005
-0.7667371
-0.76677376
-0.7668104
-0.7668472
-0.766884
-0.76692086
-0.76695776
-0.7669947
-0.7670317
-0.7670688
-0.7671059
-0.7671431
-0.76718026
-0.7672175
-0.7672548
-0.7672922
-0.76732963
-0.7673671
-0.7674046
-0.7674422
-0.76747984
-0.7675175
-0.76755524
-0.767593
-0.7676308
-0.7676687
-0.76770663
-0.7677446
-0.7677826
-0.7678207
-0.76785886
-0.76789707
-0.7679353
-0.7679736
-0.7680119
-0.7680503
-0.76808876
-0.76812726
-0.76816577
-0.7682044
-0.768243
-0.7682817
-0.76832044
-0.76835924
-0.7683981
-0.768437
-0.76847595
-0.768515
-0.76855403
-0.76859313
-0.7686323
-0.7686715
-0.76871073
-0.7687501
-0.7687894
-0.7688288
-0.7688683
-0.76890785
-0.76894736
-0.768987
-0.7690267
-0.7690664
-0.76910615
-0.76914597
-0.76918584
-0.7692258
-0.7692658
-0.76930577
-0.7693459
-0.769386
-0.76942617
-0.7694664
-0.7695067
-0.769547
-0.7695874
-0.7696278
-0.76966834
-0.7697089
-0.76974946
-0.76979005
-0.76983076
-0.76987153
-0.7699123
-0.76995313
-0.769994
-0.77003497
-0.770076
-0.77011704
-0.7701581
-0.7701993
-0.7702405
-0.77028173
-0.77032304
-0.7703644
-0.7704058
-0.77044725
-0.7704888
-0.77053034
-0.77057195
-0.7706136
-0.77065533
-0.77069706
-0.7707389
-0.77078074
-0.7708227
-0.77086467
-0.7709067
-0.77094877
-0.77099085
-0.77103305
-0.77107525
-0.77111757
-0.7711599
-0.77120227
-0.7712447
-0.77128714
-0.7713297
-0.77137226
-0.7714149
-0.7714576
-0.77150035
-0.7715431
-0.77158594
-0.77162886
-0.7716718
-0.77171475
-0.77175784
-0.77180094
-0.771844
-0.77188724
-0.7719305
-0.7719738
-0.7720171
-0.7720606
-0.772104
-0.7721475
-0.77219105
-0.7722347
-0.7722783
-0.772322
-0.7723658
-0.7724096
-0.7724534
-0.77249736
-0.77254134
-0.77258533
-0.77262944
-0.77267355
-0.7727177
-0.77276194
-0.77280617
-0.7728505
-0.77289486
-0.7729393
-0.7729838
-0.7730283
-0.7730729
-0.7731175
-0.7731622
-0.7732069
-0.7732517
-0.77329654
-0.7733416
-0.7733869
-0.77343243
-0.77347815
-0.77352417
-0.77357036
-0.77361685
-0.7736635
-0.7737104
-0.7737576
-0.773805
-0.77385265
-0.77390045
-0.77394855
-0.7739969
-0.77404547
-0.7740942
-0.7741433
-0.7741925
-0.77424204
-0.77429175
-0.7743417
-0.7743919
-0.7744423
-0.774493
-0.7745439
-0.774595
-0.77464634
-0.77469796
-0.7747498
-0.77480185
-0.7748541
-0.7749067
-0.77495944
-0.77501243
-0.77506566
-0.7751191
-0.7751728
-0.7752268
-0.7752809
-0.7753353
-0.7753899
-0.7754448
-0.7754999
-0.77555525
-0.7756108
-0.7756666
-0.7757226
-0.7757789
-0.7758354
-0.77589214
-0.77594906
-0.7760063
-0.77606374
-0.7761214
-0.77617925
-0.7762374
-0.7762958
-0.7763544
-0.7764132
-0.7764723
-0.7765316
-0.7765911
-0.7766509
-0.77671087
-0.7767711
-0.77683157
-0.7768923
-0.7769532
-0.7770144
-0.7770758
-0.77713746
-0.7771993
-0.77726144
-0.7773238
-0.7773863
-0.77744913
-0.7775122
-0.77757543
-0.777639
-0.7777027
-0.77776664
-0.77783084
-0.7778953
-0.77796
-0.77802485
-0.77809
-0.7781554
-0.778221
-0.7782868
-0.7783529
-0.7784192
-0.7784858
-0.77855253
-0.7786195
-0.77868676
-0.77875423
-0.77882195
-0.7788899
-0.7789581
-0.7790265
-0.7790951
-0.779164
-0.7792331
-0.7793025
-0.77937204
-0.77944183
-0.7795119
-0.7795822
-0.7796527
-0.77972347
-0.7797944
-0.7798656
-0.7799371
-0.78000873
-0.7800807
-0.7801528
-0.7802252
-0.7802978
-0.78037065
-0.7804437
-0.78051704
-0.7805906
-0.7806644
-0.7807384
-0.7808126
-0.7808871
-0.7809618
-0.7810368
-0.78111196
-0.78118736
-0.78126305
-0.78133893
-0.78141505
-0.7814914
-0.78156793
-0.78164476
-0.78172183
-0.78179914
-0.7818766
-0.7819544
-0.7820324
-0.7821106
-0.782189
-0.78226775
-0.78234667
-0.7824258
-0.78250515
-0.7825848
-0.78266466
-0.78274477
-0.78282505
-0.78290564
-0.7829864
-0.7830674
-0.78314865
-0.7832302
-0.7833119
-0.78339386
-0.78347605
-0.7835584
-0.7836411
-0.783724
-0.7838071
-0.7838905
-0.78397405
-0.7840579
-0.78414196
-0.78422624
-0.78431076
-0.7843955
-0.7844805
-0.78456575
-0.78465116
-0.7847369
-0.7848228
-0.78490895
-0.7849954
-0.785082
-0.7851688
-0.7852559
-0.7853433
-0.78543085
-0.7855186
-0.7856066
-0.7856949
-0.7857834
-0.7858721
-0.7859611
-0.78605026
-0.7861397
-0.7862294
-0.78631926
-0.7864094
-0.78649974
-0.78659034
-0.7866812
-0.78677225
-0.78686357
-0.78695506
-0.78704685
-0.7871388
-0.7872311
-0.78732353
-0.7874162
-0.78750914
-0.7876023
-0.7876957
-0.78778934
-0.7878832
-0.78797734
-0.78807163
-0.7881662
-0.788261
-0.78835607
-0.7884513
-0.7885468
-0.7886426
-0.78873855
-0.78883475
-0.78893113
-0.7890278
-0.7891247
-0.7892219
-0.7893192
-0.78941685
-0.78951466
-0.78961277
-0.78971106
-0.7898096
-0.78990835
-0.79000735
-0.7901066
-0.7902061
-0.7903058
-0.7904057
-0.7905059
-0.79060626
-0.79070693
-0.7908078
-0.7909089
-0.79101026
-0.7911118
-0.79121363
-0.7913157
-0.79141796
-0.7915204
-0.7916232
-0.7917262
-0.79182935
-0.7919328
-0.7920365
-0.79214036
-0.79224455
-0.7923489
-0.7924535
-0.7925584
-0.79266346
-0.7927687
-0.7928743
-0.7929801
-0.79308605
-0.7931923
-0.7932988
-0.7934055
-0.79351246
-0.79361963
-0.79372704
-0.7938347
-0.7939426
-0.7940507
-0.794159
-0.7942676
-0.79437643
-0.79448545
-0.7945947
-0.79470426
-0.794814
-0.79492396
-0.79503417
-0.7951446
-0.7952553
-0.7953662
-0.7954774
-0.79558873
-0.7957004
-0.79581225
-0.7959243
-0.7960366
-0.7961492
-0.79626197
-0.796375
-0.7964882
-0.7966017
-0.79671544
-0.79682934
-0.79694355
-0.797058
-0.7971726
-0.7972875
-0.7974026
-0.79751796
-0.7976336
-0.7977494
-0.79786545
-0.79798174
-0.79809827
-0.798215
-0.798332
-0.7984492
-0.79856664
-0.79868436
-0.79880226
-0.7989204
-0.7990388
-0.79915744
-0.7992763
-0.7993954
-0.7995147
-0.7996342
-0.799754
-0.79987407
-0.7999943
-0.8001148
-0.8002355
-0.8003565
-0.8004777
-0.8005991
-0.80072075
-0.80084264
-0.8009648
-0.80108714
-0.80120975
-0.80133253
-0.8014556
-0.8015789
-0.80170244
-0.8018262
-0.80195016
-0.8020744
-0.8021989
-0.8023236
-0.8024485
-0.8025736
-0.802699
-0.8028247
-0.8029505
-0.8030766
-0.8032029
-0.8033295
-0.8034563
-0.8035833
-0.8037106
-0.8038381
-0.8039658
-0.8040938
-0.804222
-0.80435044
-0.80447906
-0.804608
-0.8047371
-0.8048665
-0.8049961
-0.8051259
-0.80525595
-0.80538625
-0.8055168
-0.80564755
-0.80577856
-0.8059098
-0.80604124
-0.80617297
-0.8063049
-0.8064371
-0.80656946
-0.8067021
-0.80683494
-0.8069681
-0.8071014
-0.80723494
-0.80736876
-0.8075028
-0.8076371
-0.80777156
-0.8079063
-0.8080413
-0.80817646
-0.80831194
-0.8084476
-0.8085835
-0.80871964
-0.808856
-0.8089926
-0.8091295
-0.8092665
-0.80940384
-0.80954134
-0.80967915
-0.80981714
-0.80995536
-0.8100939
-0.8102326
-0.8103715
-0.8105106
-0.81064886
-0.81078625
-0.8109226
-0.81105804
-0.81119245
-0.81132597
-0.81145847
-0.81159
-0.81172055
-0.8118502
-0.8119788
-0.8121065
-0.8122332
-0.8123589
-0.8124837
-0.8126075
-0.8127303
-0.8128522
-0.8129731
-0.813093
-0.813212
-0.81333
-0.813447
-0.8135631
-0.81367815
-0.8137923
-0.8139055
-0.81401765
-0.8141289
-0.81423914
-0.8143484
-0.81445676
-0.8145641
-0.81467044
-0.8147759
-0.8148803
-0.81498384
-0.81508636
-0.8151879
-0.8152885
-0.8153881
-0.8154867
-0.8155844
-0.8156811
-0.8157768
-0.8158716
-0.8159654
-0.8160583
-0.8161501
-0.816241
-0.81633097
-0.81641996
-0.81650794
-0.81659496
-0.816681
-0.81676614
-0.8168503
-0.81693345
-0.81701565
-0.8170969
-0.8171771
-0.8172564
-0.8173348
-0.8174121
-0.8174885
-0.8175639
-0.8176384
-0.81771183
-0.81778437
-0.81785595
-0.8179265
-0.81799614
-0.8180648
-0.81813246
-0.81819916
-0.8182649
-0.8183297
-0.8183935
-0.81845635
-0.8185182
-0.81857914
-0.8186391
-0.81869805
-0.81875604
-0.8188131
-0.8188692
-0.8189243
-0.8189784
-0.8190316
-0.8190838
-0.819135
-0.81918526
-0.8192346
-0.8192829
-0.8193303
-0.81937665
-0.8194221
-0.81946653
-0.81951004
-0.8195526
-0.81959414
-0.81963474
-0.8196744
-0.819713
-0.81975067
-0.8197874
-0.81982315
-0.81985795
-0.81989175
-0.8199246
-0.8199565
-0.8199874
-0.82001734
-0.8200463
-0.8200743
-0.8201014
-0.8201275
-0.8201526
-0.8201767
-0.8201999
-0.8202221
-0.82024336
-0.8202636
-0.82028294
-0.82030123
-0.82031864
-0.82033503
-0.82035047
-0.8203649
-0.8203784
-0.82039094
-0.8204025
-0.8204131
-0.8204227
-0.8204314
-0.8204391
-0.8204458
-0.82045156
-0.8204563
-0.8204602
-0.820463
-0.8204649
-0.8204658
-0.8204658
-0.8204648
-0.82046276
-0.82045984
-0.8204559
-0.820451
-0.8204452
-0.8204383
-0.8204306
-0.8204218
-0.8204121
-0.8204014
-0.82038975
-0.8203771
-0.8203635
-0.820349
-0.8203334
-0.8203169
-0.82029945
-0.820281
-0.82026166
-0.8202413
-0.82021993
-0.82019764
-0.82017434
-0.82015014
-0.8201249
-0.82009876
-0.8200716
-0.8200435
-0.8200144
-0.8199844
-0.8199534
-0.8199214
-0.8198884
-0.81985456
-0.8198196
-0.8197838
-0.819747
-0.8197092
-0.81967044
-0.81963074
-0.81959003
-0.81954837
-0.81950575
-0.8194622
-0.8194176
-0.8193721
-0.8193256
-0.8192781
-0.8192297
-0.8191803
-0.81912994
-0.8190786
-0.81902635
-0.81897306
-0.8189188
-0.81886363
-0.8188075
-0.8187503
-0.8186922
-0.81863314
-0.8185731
-0.81851214
-0.81845015
-0.8183872
-0.8183233
-0.8182584
-0.8181926
-0.8181258
-0.818058
-0.81798923
-0.81791955
-0.81784886
-0.8177772
-0.81770456
-0.817631
-0.81755644
-0.8174809
-0.81740445
-0.817327
-0.8172486
-0.8171692
-0.81708884
-0.8170075
-0.8169252
-0.81684196
-0.81675774
-0.8166725
-0.8165864
-0.81649923
-0.81641114
-0.8163221
-0.816232
-0.81614107
-0.8160491
-0.8159561
-0.81586224
-0.81576735
-0.8156715
-0.8155747
-0.81547695
-0.8153782
-0.8152785
-0.8151778
-0.8150762
-0.8149736
-0.81487
-0.81476545
-0.81465995
-0.81455344
-0.814446
-0.8143376
-0.8142282
-0.81411785
-0.8140065
-0.8138943
-0.81378096
-0.81366676
-0.8135516
-0.81343544
-0.8133183
-0.8132002
-0.81308115
-0.8129611
-0.8128401
-0.81271815
-0.81259525
-0.81247133
-0.81234646
-0.81222063
-0.81209385
-0.81196606
-0.8118373
-0.8117076
-0.81157696
-0.8114453
-0.81131274
-0.81117916
-0.8110446
-0.8109091
-0.8107726
-0.81063515
-0.81049675
-0.8103574
-0.810217
-0.8100757
-0.8099334
-0.8097902
-0.80964595
-0.8095008
-0.80935466
-0.8092075
-0.80905944
-0.80891037
-0.80876034
-0.80860937
-0.80845743
-0.8083045
-0.8081506
-0.80799574
-0.80783993
-0.8076831
-0.80752534
-0.8073666
-0.8072069
-0.80704623
-0.8068846
-0.80672204
-0.80655843
-0.8063939
-0.8062284
-0.8060619
-0.8058945
-0.8057261
-0.8055567
-0.80538636
-0.80521506
-0.8050428
-0.80486953
-0.8046953
-0.80452013
-0.804344
-0.8041669
-0.8039888
-0.80380976
-0.80362976
-0.80344874
-0.8032668
-0.8030839
-0.8029
-0.8027151
-0.80252934
-0.80234253
-0.8021548
-0.8019661
-0.80177635
-0.8015857
-0.8013941
-0.80120146
-0.8010079
-0.8008134
-0.8006179
-0.8004214
-0.800224
-0.8000256
-0.7998262
-0.7996259
-0.7994246
-0.7992223
-0.7990191
-0.7988149
-0.7986097
-0.79840356
-0.79819643
-0.79798836
-0.7977793
-0.79756933
-0.79735833
-0.7971464
-0.7969335
-0.7967196
-0.79650474
-0.7962889
-0.7960721
-0.7958544
-0.79563564
-0.795416
-0.79519534
-0.7949737
-0.7947511
-0.79452753
-0.794303
-0.7940775
-0.7938511
-0.7936236
-0.7933952
-0.79316586
-0.79293555
-0.7927042
-0.792472
-0.7922388
-0.7920045
-0.7917694
-0.79153323
-0.7912961
-0.79105806
-0.79081905
-0.790579
-0.79033804
-0.7900961
-0.7898532
-0.7896093
-0.78936446
-0.78911865
-0.7888719
-0.78862417
-0.78837544
-0.78812575
-0.7878751
-0.7876236
-0.78737247
-0.78712195
-0.78687215
-0.786623
-0.7863745
-0.78612673
-0.78587955
-0.7856331
-0.7853873
-0.7851422
-0.7848977
-0.7846539
-0.7844108
-0.7841683
-0.7839265
-0.7836853
-0.7834449
-0.7832051
-0.78296596
-0.7827275
-0.7824897
-0.78225255
-0.7820161
-0.7817803
-0.7815452
-0.78131074
-0.78107697
-0.78084385
-0.7806114
-0.7803796
-0.7801485
-0.779918
-0.77968824
-0.7794591
-0.7792307
-0.7790029
-0.7787758
-0.7785494
-0.7783236
-0.77809846
-0.77787405
-0.77765024
-0.77742714
-0.7772047
-0.77698296
-0.77676183
-0.7765414
-0.77632165
-0.77610254
-0.7758841
-0.77566636
-0.7754493
-0.77523285
-0.7750171
-0.77480197
-0.7745876
-0.77437377
-0.7741607
-0.7739483
-0.77373654
-0.7735254
-0.773315
-0.77310526
-0.7728962
-0.7726878
-0.77248
-0.77227294
-0.77206653
-0.7718608
-0.77165574
-0.7714513
-0.77124757
-0.7710445
-0.7708421
-0.7706403
-0.77043927
-0.7702389
-0.77003914
-0.76984006
-0.76964164
-0.7694439
-0.7692469
-0.7690505
-0.76885474
-0.76865965
-0.7684653
-0.76827157
-0.7680785
-0.7678861
-0.76769435
-0.7675033
-0.76731294
-0.7671232
-0.76693416
-0.7667458
-0.76655805
-0.766371
-0.7661846
-0.7659989
-0.7658139
-0.7656295
-0.76544577
-0.7652627
-0.76508033
-0.76489866
-0.76471764
-0.7645372
-0.7643575
-0.7641785
-0.7640001
-0.76382244
-0.7636454
-0.76346904
-0.7632933
-0.76311827
-0.7629439
-0.76277024
-0.7625972
-0.7624248
-0.76225317
-0.7620821
-0.76191175
-0.76174206
-0.7615731
-0.7614047
-0.761237
-0.76107
-0.76090366
-0.76073796
-0.76057297
-0.7604086
-0.7602449
-0.7600819
-0.7599196
-0.7597579
-0.7595969
-0.75943655
-0.75927687
-0.75911784
-0.75895953
-0.7588018
-0.7586448
-0.7584885
-0.75833285
-0.7581778
-0.7580235
-0.75786984
-0.75771683
-0.7575645
-0.75741285
-0.7572619
-0.75711155
-0.7569619
-0.7568129
-0.7566646
-0.7565169
-0.7563699
-0.75622356
-0.75607795
-0.7559329
-0.7557886
-0.755645
-0.755502
-0.7553597
-0.755218
-0.75507706
-0.75493675
-0.7547971
-0.7546581
-0.7545198
-0.7543822
-0.7542452
-0.7541089
-0.75397325
-0.7538383
-0.753704
-0.7535704
-0.7534374
-0.7533051
-0.7531735
-0.7530425
-0.7529122
-0.7527826
-0.7526536
-0.7525253
-0.7523977
-0.75227076
-0.75214446
-0.7520188
-0.7518939
-0.7517696
-0.751646
-0.751523
-0.7514007
-0.7512791
-0.7511582
-0.7510379
-0.75091827
-0.7507993
-0.75068104
-0.75056344
-0.7504465
-0.7503302
-0.75021464
-0.75009966
-0.7499854
-0.7498718
-0.74975884
-0.7496466
-0.74953496
-0.74942404
-0.7493138
-0.7492042
-0.74909526
-0.748987
-0.74887943
-0.7487725
-0.7486662
-0.7485606
-0.7484557
-0.74835145
-0.74824786
-0.7481449
-0.7480427
-0.7479411
-0.74784017
-0.7477399
-0.7476404
-0.7475414
-0.7474432
-0.7473456
-0.7472487
-0.74715245
-0.7470569
-0.74696195
-0.7468677
-0.74677414
-0.7466813
-0.746589
-0.74649745
-0.74640656
-0.7463163
-0.7462267
-0.74613786
-0.7460496
-0.745962
-0.7458751
-0.74578893
-0.74570334
-0.74561846
-0.74553424
-0.7454507
-0.74536777
-0.7452856
-0.74520403
-0.74512315
-0.7450429
-0.74496335
-0.7448845
-0.74480623
-0.7447287
-0.74465185
-0.7445756
-0.7445001
-0.7444252
-0.74435097
-0.7442774
-0.7442046
-0.74413234
-0.7440608
-0.74398994
-0.74391973
-0.74385023
-0.7437813
-0.74371314
-0.7436456
-0.74357873
-0.7435126
-0.743447
-0.74338216
-0.74331796
-0.7432544
-0.74319154
-0.7431294
-0.74306786
-0.743007
-0.7429468
-0.7428873
-0.7428284
-0.74277025
-0.74271274
-0.7426559
-0.7425997
-0.7425442
-0.74248934
-0.74243516
-0.74238163
-0.7423288
-0.7422766
-0.7422251
-0.74217427
-0.7421241
-0.7420746
-0.74202573
-0.7419776
-0.74193007
-0.7418833
-0.7418371
-0.7417916
-0.7417468
-0.7417026
-0.7416591
-0.74161625
-0.7415741
-0.7415326
-0.7414918
-0.7414516
-0.74141216
-0.7413733
-0.74133515
-0.74129766
-0.7412608
-0.7412247
-0.74118924
-0.74115443
-0.7411203
-0.7410868
-0.74105394
-0.7410218
-0.74099034
-0.7409595
-0.74092937
-0.7408999
-0.74087113
-0.74084294
-0.7408155
-0.7407887
-0.74076253
-0.7407371
-0.7407123
-0.74068815
-0.74066466
-0.7406419
-0.7406198
-0.7405983
-0.7405775
-0.7405574
-0.7405379
-0.7405191
-0.740501
-0.7404835
-0.7404668
-0.7404506
-0.7404352
-0.7404204
-0.7404063
-0.7403928
-0.74038005
-0.74036795
-0.7403565
-0.7403457
-0.7403356
-0.74032617
-0.74031734
-0.74030924
-0.7403018
-0.74029505
-0.7402889
-0.7402835
-0.7402787
-0.7402746
-0.7402712
-0.7402684
-0.7402663
-0.7402649
-0.7402641
-0.74026406
-0.7402646
-0.74026585
-0.74026775
-0.7402703
-0.74027354
-0.74027747
-0.74028206
-0.7402873
-0.7402932
-0.74029976
-0.74030703
-0.74031496
-0.74032354
-0.7403328
-0.74034274
-0.7403533
-0.74036455
-0.7403765
-0.74038905
-0.74040234
-0.7404162
-0.74043083
-0.7404461
-0.740462
-0.74047863
-0.74049586
-0.7405138
-0.740532
-0.7405503
-0.74056876
-0.7405874
-0.74060625
-0.7406252
-0.74064434
-0.74066365
-0.74068314
-0.74070275
-0.74072254
-0.7407425
-0.7407626
-0.74078286
-0.7408033
-0.74082386
-0.74084467
-0.7408656
-0.7408866
-0.7409079
-0.7409293
-0.7409508
-0.7409726
-0.74099445
-0.7410165
-0.74103874
-0.7410611
-0.7410836
-0.74110633
-0.74112916
-0.74115217
-0.74117535
-0.7411987
-0.7412222
-0.74124587
-0.7412697
-0.74129367
-0.74131787
-0.7413422
-0.7413666
-0.74139124
-0.74141604
-0.741441
-0.74146616
-0.74149144
-0.7415169
-0.74154246
-0.7415682
-0.74159414
-0.74162024
-0.7416465
-0.74167293
-0.74169946
-0.7417262
-0.7417531
-0.74178016
-0.7418074
-0.74183476
-0.7418623
-0.74189
-0.7419179
-0.7419459
-0.7419741
-0.7420025
-0.742031
-0.74205965
-0.7420885
-0.74211746
-0.7421467
-0.742176
-0.74220544
-0.7422351
-0.7422649
-0.74229485
-0.742325
-0.7423553
-0.74238575
-0.7424164
-0.74244714
-0.7424781
-0.7425092
-0.7425404
-0.7425719
-0.7426034
-0.7426352
-0.7426671
-0.74269915
-0.7427314
-0.7427638
-0.74279636
-0.7428291
-0.7428619
-0.742895
-0.7429282
-0.7429615
-0.7429951
-0.74302876
-0.7430626
-0.7430966
-0.7431308
-0.74316514
-0.7431996
-0.7432343
-0.7432691
-0.7433041
-0.7433392
-0.74337447
-0.74340993
-0.7434456
-0.7434814
-0.74351734
-0.7435534
-0.7435897
-0.7436261
-0.7436627
-0.7436995
-0.7437364
-0.74377346
-0.7438107
-0.74384815
-0.7438857
-0.7439234
-0.7439613
-0.74399936
-0.74403757
-0.74407595
-0.74411446
-0.74415314
-0.744192
-0.74423105
-0.7442702
-0.74430954
-0.74434906
-0.74438876
-0.7444286
-0.74446857
-0.7445087
-0.74454904
-0.7445895
-0.7446301
-0.7446709
-0.7447119
-0.744753
-0.7447943
-0.74483573
-0.74487734
-0.7449191
-0.744961
-0.7450031
-0.74504536
-0.7450878
-0.74513036
-0.7451731
-0.745216
-0.74525905
-0.74530226
-0.74534565
-0.7453892
-0.7454329
-0.7454768
-0.74552083
-0.745565
-0.74560934
-0.74565387
-0.7456985
-0.7457434
-0.7457884
-0.7458335
-0.7458789
-0.74592435
-0.74597
-0.7460158
-0.74606174
-0.7461079
-0.7461542
-0.7462006
-0.74624723
-0.746294
-0.746341
-0.7463881
-0.74643534
-0.74648273
-0.74653035
-0.7465781
-0.746626
-0.74667406
-0.7467223
-0.7467707
-0.74681926
-0.74686795
-0.74691683
-0.7469659
-0.74701506
-0.7470645
-0.74711394
-0.74716365
-0.7472135
-0.7472635
-0.7473137
-0.74736404
-0.7474145
-0.7474652
-0.747516
-0.74756694
-0.7476181
-0.7476694
-0.7477209
-0.7477725
-0.7478243
-0.7478762
-0.7479283
-0.7479806
-0.74803305
-0.7480857
-0.7481384
-0.7481913
-0.7482444
-0.74829763
-0.74835104
-0.7484046
-0.7484583
-0.7485122
-0.74856627
-0.7486205
-0.74867487
-0.7487294
-0.7487841
-0.74883896
-0.748894
-0.74894917
-0.7490045
-0.74906003
-0.74911565
-0.7491715
-0.74922746
-0.7492837
-0.74933994
-0.74939644
-0.74945307
-0.7495099
-0.74956685
-0.74962395
-0.74968123
-0.7497387
-0.7497963
-0.749854
-0.74991196
-0.7499701
-0.7500283
-0.7500867
-0.7501453
-0.750204
-0.7502629
-0.750322
-0.75038123
-0.7504406
-0.75050014
-0.75055987
-0.7506197
-0.7506798
-0.75073993
-0.7508003
-0.7508608
-0.7509215
-0.75098234
-0.7510433
-0.7511045
-0.7511658
-0.7512273
-0.75128895
-0.75135076
-0.75141275
-0.75147486
-0.75153714
-0.7515996
-0.75166225
-0.751725
-0.75178796
-0.751851
-0.7519143
-0.75197774
-0.75204134
-0.75210506
-0.75216895
-0.752233
-0.7522973
-0.75236166
-0.7524262
-0.75249094
-0.75255585
-0.7526209
-0.7526861
-0.7527514
-0.752817
-0.75288266
-0.7529485
-0.7530145
-0.75308067
-0.753147
-0.7532135
-0.75328016
-0.753347
-0.753414
-0.7534811
-0.7535484
-0.75361586
-0.7536835
-0.7537513
-0.7538192
-0.75388736
-0.7539556
-0.754024
-0.75409263
-0.7541614
-0.7542303
-0.7542994
-0.75436866
-0.75443804
-0.7545076
-0.75457734
-0.75464725
-0.7547173
-0.7547875
-0.7548579
-0.7549284
-0.7549991
-0.75507
-0.755141
-0.7552122
-0.75528353
-0.755355
-0.7554267
-0.7554985
-0.75557053
-0.75564265
-0.75571495
-0.75578743
-0.7558601
-0.75593287
-0.7560058
-0.75607896
-0.7561523
-0.7562257
-0.7562993
-0.7563731
-0.756447
-0.7565211
-0.7565954
-0.75666976
-0.7567443
-0.75681907
-0.756894
-0.75696903
-0.75704426
-0.75711966
-0.7571952
-0.75727093
-0.75734675
-0.7574228
-0.757499
-0.75757533
-0.75765187
-0.7577286
-0.7578054
-0.7578824
-0.75795954
-0.75803685
-0.75811434
-0.758192
-0.7582698
-0.7583478
-0.7584259
-0.7585042
-0.75858265
-0.75866127
-0.75874007
-0.758819
-0.7588981
-0.75897735
-0.7590568
-0.7591364
-0.7592161
-0.75929606
-0.7593761
-0.75945634
-0.75953674
-0.7596173
-0.75969803
-0.7597789
-0.7598599
-0.75994116
-0.7600225
-0.76010406
-0.7601857
-0.76026756
-0.7603496
-0.76043177
-0.7605141
-0.7605966
-0.76067924
-0.76076204
-0.76084507
-0.7609282
-0.7610115
-0.76109487
-0.7611784
-0.76126194
-0.7613456
-0.76142937
-0.7615132
-0.7615971
-0.76168114
-0.76176524
-0.7618494
-0.7619337
-0.762018
-0.7621025
-0.762187
-0.7622716
-0.7623563
-0.76244104
-0.7625259
-0.7626109
-0.7626959
-0.7627811
-0.76286626
-0.76295155
-0.76303697
-0.76312244
-0.763208
-0.7632936
-0.76337934
-0.76346517
-0.76355106
-0.76363707
-0.76372313
-0.76380926
-0.7638955
-0.7639819
-0.7640683
-0.7641548
-0.7642414
-0.76432806
-0.7644148
-0.76450163
-0.7645886
-0.7646756
-0.7647627
-0.7648499
-0.76493716
-0.76502454
-0.765112
-0.76519954
-0.76528716
-0.7653749
-0.7654627
-0.76555055
-0.76563853
-0.76572657
-0.7658147
-0.76590294
-0.7659913
-0.76607966
-0.7661681
-0.7662567
-0.7663454
-0.7664341
-0.76652294
-0.7666118
-0.76670086
-0.7667899
-0.7668791
-0.76696837
-0.7670577
-0.7671471
-0.76723665
-0.76732624
-0.76741594
-0.7675057
-0.7675956
-0.76768553
-0.76777554
-0.76786566
-0.7679559
-0.7680462
-0.76813656
-0.76822704
-0.7683176
-0.76840824
-0.76849896
-0.76858974
-0.76868063
-0.7687716
-0.76886266
-0.76895386
-0.76904505
-0.7691364
-0.7692278
-0.7693193
-0.7694109
-0.7695026
-0.7695943
-0.76968616
-0.7697781
-0.7698701
-0.7699622
-0.7700544
-0.77014667
-0.770239
-0.77033144
-0.770424
-0.77051663
-0.7706093
-0.7707021
-0.770795
-0.7708879
-0.770981
-0.7710741
-0.77116734
-0.7712606
-0.771354
-0.77144754
-0.77154106
-0.7716347
-0.77172846
-0.7718223
-0.7719162
-0.7720102
-0.77210426
-0.77219844
-0.7722927
-0.772387
-0.77248144
-0.772576
-0.77267057
-0.7727652
-0.77286
-0.7729549
-0.77304983
-0.77314484
-0.77324
-0.77333516
-0.7734304
-0.7735258
-0.77362126
-0.7737168
-0.7738124
-0.77390814
-0.774004
-0.7740998
-0.7741958
-0.7742919
-0.774388
-0.7744843
-0.7745806
-0.774677
-0.7747735
-0.77487004
-0.7749667
-0.77506346
-0.7751603
-0.77525723
-0.7753542
-0.7754513
-0.7755485
-0.7756458
-0.7757431
-0.7758406
-0.7759381
-0.77603567
-0.77613336
-0.77623117
-0.77632904
-0.776427
-0.776525
-0.7766232
-0.77672136
-0.77681965
-0.77691805
-0.7770165
-0.7771151
-0.77721375
-0.77731246
-0.7774113
-0.77751017
-0.77760917
-0.77770823
-0.7778074
-0.77790666
-0.77800596
-0.7781054
-0.7782049
-0.7783045
-0.7784042
-0.77850395
-0.7786038
-0.7787037
-0.77880377
-0.77890384
-0.77900404
-0.7791043
-0.77920467
-0.77930516
-0.77940565
-0.7795063
-0.779607
-0.7797078
-0.7798087
-0.7799097
-0.7800107
-0.78011185
-0.78021306
-0.7803144
-0.7804158
-0.7805173
-0.78061885
-0.7807205
-0.7808222
-0.7809241
-0.781026
-0.781128
-0.7812301
-0.78133225
-0.78143454
-0.7815369
-0.7816393
-0.7817418
-0.78184444
-0.7819471
-0.7820499
-0.7821527
-0.7822557
-0.7823587
-0.7824618
-0.78256506
-0.78266835
-0.7827717
-0.7828752
-0.7829787
-0.78308237
-0.7831861
-0.7832899
-0.7833938
-0.7834978
-0.7836019
-0.783706
-0.78381026
-0.78391457
-0.784019
-0.7841235
-0.7842281
-0.78433275
-0.7844375
-0.7845423
-0.7846473
-0.7847523
-0.7848574
-0.7849626
-0.78506786
-0.7851732
-0.7852786
-0.7853842
-0.7854898
-0.7855955
-0.7857013
-0.7858072
-0.7859131
-0.78601915
-0.7861253
-0.7862315
-0.78633785
-0.78644425
-0.7865507
-0.7866573
-0.7867639
-0.78687066
-0.78697747
-0.7870844
-0.7871914
-0.78729844
-0.7874056
-0.7875129
-0.78762025
-0.78772765
-0.7878352
-0.78794277
-0.7880505
-0.78815824
-0.78826606
-0.788374
-0.78848207
-0.78859013
-0.7886984
-0.7888066
-0.78891504
-0.78902346
-0.789132
-0.78924066
-0.7893494
-0.78945816
-0.78956705
-0.789676
-0.7897851
-0.7898942
-0.7900035
-0.7901128
-0.7902222
-0.7903317
-0.7904413
-0.79055095
-0.7906607
-0.79077053
-0.79088044
-0.7909905
-0.79110056
-0.7912107
-0.791321
-0.79143137
-0.7915418
-0.7916523
-0.79176295
-0.79187363
-0.79198444
-0.7920953
-0.7922062
-0.7923173
-0.79242843
-0.7925396
-0.79265094
-0.7927623
-0.7928738
-0.7929853
-0.79309696
-0.7932087
-0.79332054
-0.7934324
-0.7935444
-0.79365647
-0.79376864
-0.7938809
-0.79399323
-0.79410565
-0.7942182
-0.7943308
-0.7944434
-0.7945562
-0.79466903
-0.794782
-0.794895
-0.7950081
-0.7951213
-0.79523456
-0.7953479
-0.7954614
-0.79557496
-0.79568857
-0.7958023
-0.7959161
-0.79603
-0.79614395
-0.796258
-0.7963721
-0.7964864
-0.79660064
-0.7967151
-0.7968295
-0.79694414
-0.79705876
-0.7971735
-0.79728836
-0.7974033
-0.79751825
-0.79763335
-0.7977485
-0.7978638
-0.7979791
-0.7980946
-0.7982101
-0.7983257
-0.7984414
-0.79855716
-0.79867303
-0.79878896
-0.798905
-0.7990211
-0.79913735
-0.79925364
-0.79937
-0.79948646
-0.79960304
-0.7997197
-0.7998364
-0.7999532
-0.8000701
-0.8001871
-0.8003042
-0.8004213
-0.80053854
-0.8006559
-0.8007733
-0.8008908
-0.8010084
-0.80112606
-0.8012438
-0.8013616
-0.8014796
-0.8015976
-0.8017157
-0.8018332
-0.80195
-0.802066
-0.80218136
-0.8022959
-0.80240977
-0.80252284
-0.8026352
-0.8027468
-0.80285764
-0.8029678
-0.80307716
-0.80318576
-0.8032937
-0.8034008
-0.80350727
-0.8036129
-0.80371785
-0.80382204
-0.80392545
-0.80402815
-0.80413014
-0.80423135
-0.80433184
-0.80443156
-0.80453056
-0.80462885
-0.80472636
-0.8048231
-0.8049191
-0.80501443
-0.80510896
-0.8052028
-0.8052958
-0.80538815
-0.80547976
-0.8055706
-0.80566067
-0.80575
-0.80583864
-0.8059265
-0.80601364
-0.8061
-0.80618566
-0.8062706
-0.80635476
-0.80643815
-0.8065208
-0.8066028
-0.80668396
-0.8067644
-0.8068442
-0.8069231
-0.80700135
-0.80707884
-0.8071556
-0.8072316
-0.8073068
-0.8073814
-0.8074552
-0.8075282
-0.8076005
-0.807672
-0.8077429
-0.8078129
-0.80788225
-0.80795085
-0.8080187
-0.8080858
-0.8081522
-0.8082178
-0.8082827
-0.8083468
-0.8084102
-0.8084729
-0.8085348
-0.80859596
-0.8086564
-0.80871606
-0.808775
-0.80883324
-0.8088907
-0.80894744
-0.8090034
-0.80905867
-0.80911314
-0.8091669
-0.8092199
-0.80927217
-0.8093237
-0.8093745
-0.8094246
-0.8094739
-0.80952245
-0.80957025
-0.80961734
-0.8096637
-0.8097093
-0.80975413
-0.80979824
-0.80984163
-0.80988425
-0.80992615
-0.80996734
-0.8100077
-0.8100474
-0.8100863
-0.8101245
-0.81016195
-0.81019866
-0.8102346
-0.81026983
-0.8103043
-0.810338
-0.81037104
-0.8104033
-0.81043476
-0.8104655
-0.81049556
-0.8105248
-0.8105534
-0.8105812
-0.81060827
-0.81063455
-0.8106601
-0.810685
-0.81070906
-0.8107324
-0.810755
-0.8107769
-0.81079805
-0.81081843
-0.81083804
-0.81085694
-0.8108751
-0.8108925
-0.8109092
-0.8109251
-0.8109403
-0.8109548
-0.8109685
-0.81098145
-0.8109937
-0.8110052
-0.8110159
-0.8110259
-0.81103516
-0.8110437
-0.8110515
-0.8110585
-0.81106484
-0.8110704
-0.81107515
-0.81107926
-0.81108254
-0.81108516
-0.811087
-0.8110881
-0.81108844
-0.8110881
-0.81108695
-0.8110851
-0.8110825
-0.81107914
-0.81107503
-0.8110702
-0.81106466
-0.81105834
-0.8110513
-0.8110435
-0.811035
-0.8110257
-0.81101567
-0.8110049
-0.8109934
-0.81098115
-0.81096816
-0.8109544
-0.81093997
-0.8109247
-0.8109088
-0.8108921
-0.81087464
-0.81085646
-0.81083757
-0.8108179
-0.81079745
-0.81077635
-0.8107544
-0.8107318
-0.81070846
-0.8106843
-0.81065947
-0.8106339
-0.81060755
-0.8105805
-0.81055266
-0.8105241
-0.8104948
-0.81046474
-0.8104339
-0.81040245
-0.81037015
-0.8103371
-0.8103034
-0.8102689
-0.81023365
-0.81019765
-0.81016093
-0.8101235
-0.8100853
-0.8100464
-0.8100067
-0.80996627
-0.8099251
-0.8098832
-0.8098405
-0.8097971
-0.809753
-0.8097081
-0.80966246
-0.80961615
-0.809569
-0.8095212
-0.80947256
-0.80942327
-0.8093732
-0.80932236
-0.80927086
-0.8092185
-0.8091655
-0.8091117
-0.80905724
-0.8090019
-0.80894595
-0.8088892
-0.8088317
-0.8087735
-0.8087145
-0.8086548
-0.80859435
-0.8085332
-0.80847126
-0.80840856
-0.80834514
-0.808281
-0.8082161
-0.8081504
-0.8080841
-0.80801696
-0.80794907
-0.80788046
-0.8078111
-0.807741
-0.8076702
-0.8075986
-0.8075263
-0.8074532
-0.8073794
-0.80730486
-0.8072296
-0.8071536
-0.8070768
-0.8069993
-0.80692106
-0.806842
-0.80676234
-0.8066819
-0.80660063
-0.8065187
-0.806436
-0.80635256
-0.80626833
-0.8061834
-0.80609775
-0.8060114
-0.8059242
-0.8058363
-0.8057477
-0.8056583
-0.8055682
-0.8054773
-0.8053857
-0.8052934
-0.80520034
-0.80510646
-0.8050119
-0.8049166
-0.8048206
-0.8047238
-0.8046262
-0.804528
-0.80442894
-0.8043292
-0.8042287
-0.80412745
-0.8040255
-0.8039228
-0.8038193
-0.8037151
-0.80361015
-0.80350447
-0.803398
-0.80329084
-0.80318296
-0.8030743
-0.80296487
-0.8028547
-0.80274385
-0.8026322
-0.80251986
-0.8024068
-0.80229294
-0.8021783
-0.802063
-0.80194694
-0.8018301
-0.8017126
-0.80159426
-0.8014752
-0.8013554
-0.8012349
-0.80111367
-0.80099165
-0.8008689
-0.8007454
-0.8006212
-0.8004962
-0.8003705
-0.80024403
-0.80011684
-0.7999889
-0.79986024
-0.79973084
-0.79960066
-0.79946977
-0.7993381
-0.7992057
-0.79907256
-0.7989387
-0.7988041
-0.79866874
-0.79853266
-0.7983958
-0.79825824
-0.7981199
-0.79798084
-0.7978411
-0.7977005
-0.7975592
-0.79741716
-0.7972744
-0.7971309
-0.79698664
-0.7968417
-0.7966959
-0.79654944
-0.7964022
-0.7962543
-0.79610556
-0.79595613
-0.79580593
-0.795655
-0.7955033
-0.7953509
-0.7951978
-0.7950439
-0.7948892
-0.7947339
-0.7945777
-0.7944209
-0.79426324
-0.79410493
-0.79394585
-0.793786
-0.7936255
-0.7934641
-0.79330206
-0.7931393
-0.7929758
-0.79281145
-0.79264647
-0.7924807
-0.7923142
-0.792147
-0.79197896
-0.7918102
-0.79164076
-0.7914706
-0.79129964
-0.7911279
-0.7909555
-0.79078233
-0.7906084
-0.7904337
-0.79025835
-0.79008216
-0.7899053
-0.7897277
-0.7895493
-0.7893702
-0.78919035
-0.78900975
-0.78882843
-0.78864723
-0.7884664
-0.7882859
-0.78810585
-0.78792614
-0.7877468
-0.78756785
-0.7873893
-0.7872111
-0.78703326
-0.7868559
-0.7866788
-0.7865021
-0.7863259
-0.7861499
-0.7859744
-0.78579926
-0.7856245
-0.7854501
-0.7852761
-0.7851024
-0.7849292
-0.7847563
-0.78458387
-0.7844117
-0.78424
-0.78406864
-0.7838977
-0.78372705
-0.7835569
-0.783387
-0.78321755
-0.7830485
-0.7828798
-0.7827115
-0.78254354
-0.782376
-0.7822088
-0.782042
-0.7818756
-0.78170955
-0.7815439
-0.7813786
-0.78121376
-0.78104925
-0.7808851
-0.7807213
-0.78055793
-0.780395
-0.7802323
-0.7800701
-0.77990824
-0.7797468
-0.77958566
-0.77942497
-0.7792646
-0.77910465
-0.778945
-0.7787859
-0.77862704
-0.7784686
-0.77831054
-0.7781528
-0.7779955
-0.77783865
-0.77768207
-0.7775259
-0.77737015
-0.7772147
-0.77705973
-0.77690506
-0.7767508
-0.7765969
-0.7764434
-0.7762903
-0.77613753
-0.7759852
-0.7758332
-0.77568156
-0.77553034
-0.77537954
-0.77522904
-0.77507895
-0.7749292
-0.7747799
-0.77463096
-0.7744824
-0.7743342
-0.77418643
-0.774039
-0.7738919
-0.77374524
-0.77359897
-0.77345306
-0.7733075
-0.77316236
-0.7730176
-0.7728732
-0.7727292
-0.7725856
-0.77244234
-0.77229947
-0.77215695
-0.77201486
-0.7718731
-0.77173173
-0.77159077
-0.7714502
-0.77131
-0.77117014
-0.77103066
-0.7708916
-0.7707529
-0.7706146
-0.7704767
-0.77033913
-0.7702019
-0.7700651
-0.76992875
-0.7697927
-0.769657
-0.7695218
-0.7693869
-0.76925236
-0.7691182
-0.76898444
-0.76885104
-0.76871806
-0.76858544
-0.7684532
-0.76832134
-0.76818985
-0.7680588
-0.76792806
-0.7677977
-0.7676678
-0.7675382
-0.76740897
-0.76728016
-0.7671517
-0.7670236
-0.76689595
-0.76676863
-0.76664174
-0.7665152
-0.766389
-0.76626325
-0.76613784
-0.7660128
-0.76588815
-0.7657639
-0.76564
-0.7655165
-0.7653934
-0.76527065
-0.7651483
-0.7650263
-0.7649047
-0.76478344
-0.7646626
-0.76454216
-0.76442206
-0.7643024
-0.76418304
-0.7640641
-0.7639455
-0.7638273
-0.7637095
-0.76359206
-0.763475
-0.76335835
-0.76324207
-0.76312613
-0.7630106
-0.76289546
-0.7627807
-0.76266634
-0.7625523
-0.76243865
-0.7623254
-0.7622126
-0.76210004
-0.7619879
-0.7618762
-0.7617649
-0.7616539
-0.7615433
-0.76143306
-0.7613232
-0.7612138
-0.7611047
-0.76099604
-0.7608877
-0.76077974
-0.7606722
-0.76056504
-0.76045823
-0.76035184
-0.7602458
-0.7601401
-0.76003486
-0.75992996
-0.7598254
-0.7597213
-0.7596175
-0.75951415
-0.75941116
-0.7593085
-0.7592063
-0.75910443
-0.759003
-0.75890183
-0.75880116
-0.7587008
-0.75860083
-0.75850123
-0.75840205
-0.7583032
-0.7582048
-0.7581067
-0.7580091
-0.75791174
-0.7578148
-0.75771827
-0.7576221
-0.75752634
-0.7574309
-0.7573359
-0.75724125
-0.757147
-0.75705314
-0.7569596
-0.75686646
-0.7567737
-0.7566814
-0.75658935
-0.7564978
-0.75640655
-0.7563157
-0.7562252
-0.75613517
-0.75604546
-0.7559561
-0.7558672
-0.7557786
-0.7556904
-0.7556026
-0.75551516
-0.75542814
-0.7553415
-0.75525516
-0.7551692
-0.75508374
-0.75499856
-0.7549138
-0.7548294
-0.75474536
-0.75466174
-0.7545785
-0.7544956
-0.7544131
-0.754331
-0.7542493
-0.7541679
-0.754087
-0.7540064
-0.75392616
-0.75384635
-0.75376683
-0.7536878
-0.7536091
-0.7535308
-0.75345284
-0.7533753
-0.7532981
-0.75322133
-0.7531449
-0.75306886
-0.7529932
-0.75291795
-0.752843
-0.7527685
-0.75269437
-0.75262064
-0.7525472
-0.75247425
-0.7524016
-0.75232935
-0.7522575
-0.75218606
-0.75211495
-0.7520442
-0.75197387
-0.7519039
-0.75183433
-0.75176513
-0.7516963
-0.75162786
-0.7515598
-0.75149214
-0.7514248
-0.7513579
-0.75129133
-0.7512252
-0.75115937
-0.751094
-0.75102895
-0.75096434
-0.75090003
-0.7508362
-0.75077266
-0.75070953
-0.75064677
-0.7505844
-0.75052243
-0.75046086
-0.7503996
-0.75033873
-0.7502783
-0.7502182
-0.7501585
-0.7500992
-0.75004023
-0.74998164
-0.74992347
-0.74986565
-0.74980825
-0.74975115
-0.7496945
-0.7496382
-0.7495823
-0.7495268
-0.7494716
-0.7494168
-0.74936247
-0.74930847
-0.7492548
-0.74920154
-0.74914867
-0.7490962
-0.74904406
-0.7489923
-0.748941
-0.74889004
-0.74883944
-0.7487892
-0.74873936
-0.74868995
-0.74864084
-0.74859214
-0.74854386
-0.7484959
-0.7484483
-0.74840117
-0.7483544
-0.74830794
-0.7482619
-0.7482163
-0.748171
-0.7481261
-0.74808156
-0.7480374
-0.74799365
-0.74795026
-0.7479073
-0.74786466
-0.7478224
-0.74778056
-0.7477391
-0.747698
-0.74765724
-0.74761695
-0.74757695
-0.7475374
-0.74749815
-0.74745935
-0.7474209
-0.7473828
-0.74734515
-0.74730784
-0.74727094
-0.7472344
-0.7471982
-0.74716246
-0.74712706
-0.747092
-0.7470574
-0.7470231
-0.74698925
-0.7469557
-0.7469226
-0.7468898
-0.74685746
-0.7468255
-0.74679387
-0.74676263
-0.7467318
-0.74670136
-0.74667126
-0.7466415
-0.7466122
-0.7465833
-0.7465547
-0.7465265
-0.74649847
-0.7464705
-0.7464427
-0.74641484
-0.7463872
-0.7463595
-0.746332
-0.7463045
-0.74627715
-0.74624985
-0.7462226
-0.7461955
-0.74616843
-0.74614143
-0.7461145
-0.7460877
-0.74606097
-0.74603426
-0.7460077
-0.7459812
-0.7459548
-0.74592847
-0.7459022
-0.745876
-0.7458499
-0.74582386
-0.74579793
-0.74577206
-0.7457463
-0.7457206
-0.745695
-0.7456695
-0.745644
-0.74561864
-0.7455933
-0.7455681
-0.74554294
-0.7455179
-0.74549294
-0.745468
-0.7454432
-0.7454185
-0.7453938
-0.74536926
-0.74534476
-0.7453204
-0.745296
-0.7452718
-0.7452476
-0.7452235
-0.7451995
-0.74517554
-0.7451517
-0.7451279
-0.74510425
-0.74508065
-0.7450571
-0.7450337
-0.7450103
-0.744987
-0.7449638
-0.7449407
-0.74491763
-0.7448946
-0.7448718
-0.74484897
-0.74482626
-0.7448036
-0.744781
-0.74475855
-0.74473614
-0.7447138
-0.74469155
-0.7446694
-0.7446473
-0.74462533
-0.7446034
-0.7445815
-0.74455976
-0.74453807
-0.7445165
-0.744495
-0.7444735
-0.7444522
-0.7444309
-0.7444097
-0.7443886
-0.74436754
-0.74434656
-0.7443257
-0.7443049
-0.74428415
-0.7442635
-0.74424297
-0.74422246
-0.7442021
-0.74418175
-0.74416155
-0.7441414
-0.7441213
-0.7441013
-0.7440814
-0.7440615
-0.7440418
-0.74402213
-0.7440025
-0.74398303
-0.7439636
-0.7439442
-0.743925
-0.7439058
-0.74388665
-0.74386764
-0.7438487
-0.7438298
-0.743811
-0.7437923
-0.74377364
-0.7437551
-0.7437366
-0.74371827
-0.74369997
-0.7436817
-0.74366355
-0.7436455
-0.7436275
-0.7436096
-0.7435918
-0.743574
-0.7435564
-0.7435388
-0.7435213
-0.74350387
-0.7434865
-0.74346924
-0.7434521
-0.74343497
-0.7434179
-0.743401
-0.7433841
-0.7433673
-0.7433506
-0.743334
-0.7433175
-0.743301
-0.7432846
-0.7432683
-0.7432521
-0.74323595
-0.7432199
-0.7432039
-0.743188
-0.74317217
-0.74315643
-0.7431408
-0.7431252
-0.7431097
-0.74309427
-0.74307895
-0.7430637
-0.74304855
-0.7430334
-0.7430184
-0.7430035
-0.7429886
-0.74297386
-0.74295914
-0.74294454
-0.74293
-0.7429155
-0.74290115
-0.7428869
-0.74287266
-0.7428585
-0.74284446
-0.7428305
-0.7428166
-0.7428028
-0.7427891
-0.74277544
-0.74276185
-0.7427484
-0.74273497
-0.7427216
-0.7427084
-0.7426952
-0.7426821
-0.7426691
-0.7426562
-0.7426433
-0.74263054
-0.74261785
-0.74260527
-0.74259275
-0.7425803
-0.7425679
-0.7425556
-0.7425434
-0.7425313
-0.74251926
-0.7425073
-0.7424954
-0.7424836
-0.7424719
-0.74246025
-0.7424487
-0.7424372
-0.7424258
-0.7424145
-0.7424032
-0.74239206
-0.742381
-0.74237
-0.74235904
-0.7423482
-0.74233747
-0.7423268
-0.7423162
-0.74230564
-0.7422952
-0.7422849
-0.7422746
-0.7422644
-0.74225426
-0.74224424
-0.7422343
-0.7422244
-0.7422146
-0.7422049
-0.74219525
-0.7421857
-0.74217623
-0.7421668
-0.7421575
-0.7421483
-0.7421391
-0.74213004
-0.74212104
-0.74211216
-0.74210334
-0.7420946
-0.7420859
-0.7420773
-0.74206877
-0.74206036
-0.742052
-0.74204373
-0.74203557
-0.74202746
-0.7420194
-0.7420115
-0.7420036
-0.7419958
-0.7419881
-0.7419805
-0.7419729
-0.7419655
-0.7419581
-0.74195075
-0.74194354
-0.7419364
-0.74192935
-0.7419223
-0.7419154
-0.7419086
-0.7419019
-0.7418952
-0.74188864
-0.7418821
-0.7418757
-0.74186933
-0.7418631
-0.74185693
-0.7418508
-0.7418448
-0.7418388
-0.741833
-0.7418272
-0.7418215
-0.74181587
-0.7418103
-0.7418049
-0.7417995
-0.7417942
-0.741789
-0.74178386
-0.7417788
