1.374802595301296768e-02
1.374771434656517355e-02
1.374740230696672692e-02
1.374708983427468979e-02
1.374677692854608772e-02
1.374646358983792199e-02
1.374614981820715398e-02
1.374583561371071211e-02
1.374552097640550051e-02
1.374520590634838342e-02
1.374489040359619212e-02
1.374457446820572491e-02
1.374425810023375237e-02
1.374394129973700342e-02
1.374362406677217228e-02
1.374330640139591157e-02
1.374298830366483745e-02
1.374266977363553660e-02
1.374235081136457315e-02
1.374203141690847479e-02
1.374171159032373454e-02
1.374139133166681417e-02
1.374107064099412863e-02
1.374074951836205469e-02
1.374042796382694484e-02
1.374010597744512036e-02
1.373978355927286260e-02
1.373946070936640611e-02
1.373913742778195245e-02
1.373881371457566156e-02
1.373848956980364654e-02
1.373816499352198059e-02
1.373783998578670222e-02
1.373751454665380831e-02
1.373718867617925235e-02
1.373686237441895143e-02
1.373653564142878793e-02
1.373620847726460953e-02
1.373588088198222749e-02
1.373555285563741492e-02
1.373522439828589459e-02
1.373489550998335286e-02
1.373456619078542405e-02
1.373423644074770952e-02
1.373390625992576379e-02
1.373357564837509801e-02
1.373324460615118689e-02
1.373291313330945833e-02
1.373258122990528469e-02
1.373224889599399152e-02
1.373191613163085752e-02
1.373158293687111280e-02
1.373124931176994065e-02
1.373091525638247754e-02
1.373058077076381132e-02
1.373024585496898133e-02
1.372991050905299215e-02
1.372957473307079811e-02
1.372923852707731013e-02
1.372890189112738364e-02
1.372856482527582377e-02
1.372822732957739225e-02
1.372788940408680228e-02
1.372755104885871671e-02
1.372721226394774639e-02
1.372687304940845010e-02
1.372653340529534152e-02
1.372619333166288230e-02
1.372585282856548204e-02
1.372551189605750697e-02
1.372517053419326435e-02
1.372482874302700766e-02
1.372448652261294526e-02
1.372414387300523869e-02
1.372380079425800266e-02
1.372345728642530502e-02
1.372311334956115986e-02
1.372276898371951361e-02
1.372242418895425718e-02
1.372207896531922079e-02
1.372173331286818780e-02
1.372138723165489994e-02
1.372104072173305038e-02
1.372069378315628370e-02
1.372034641597820286e-02
1.371999862025235530e-02
1.371965039603223989e-02
1.371930174337129826e-02
1.371895266232291480e-02
1.371860315294042530e-02
1.371825321527710140e-02
1.371790284938615052e-02
1.371755205532072461e-02
1.371720083313391833e-02
1.371684918287876913e-02
1.371649710460825025e-02
1.371614459837528291e-02
1.371579166423272413e-02
1.371543830223337194e-02
1.371508451242997063e-02
1.371473029487520721e-02
1.371437564962169758e-02
1.371402057672200560e-02
1.371366507622864307e-02
1.371330914819406284e-02
1.371295279267065181e-02
1.371259600971074313e-02
1.371223879936660922e-02
1.371188116169046352e-02
1.371152309673446743e-02
1.371116460455071642e-02
1.371080568519125915e-02
1.371044633870809049e-02
1.371008656515313069e-02
1.370972636457824453e-02
1.370936573703523086e-02
1.370900468257582952e-02
1.370864320125172488e-02
1.370828129311454750e-02
1.370791895821587419e-02
1.370755619660721236e-02
1.370719300834001564e-02
1.370682939346567000e-02
1.370646535203549898e-02
1.370610088410076366e-02
1.370573598971266266e-02
1.370537066892234083e-02
1.370500492178088232e-02
1.370463874833930881e-02
1.370427214864857954e-02
1.370390512275958435e-02
1.370353767072315758e-02
1.370316979259007112e-02
1.370280148841103440e-02
1.370243275823669442e-02
1.370206360211762876e-02
1.370169402010433871e-02
1.370132401224725613e-02
1.370095357859674352e-02
1.370058271920309920e-02
1.370021143411656421e-02
1.369983972338732411e-02
1.369946758706550201e-02
1.369909502520114467e-02
1.369872203784422773e-02
1.369834862504466441e-02
1.369797478685230545e-02
1.369760052331693567e-02
1.369722583448827052e-02
1.369685072041596473e-02
1.369647518114961576e-02
1.369609921673874825e-02
1.369572282723281048e-02
1.369534601268118310e-02
1.369496877313318081e-02
1.369459110863803855e-02
1.369421301924492185e-02
1.369383450500293378e-02
1.369345556596111499e-02
1.369307620216844192e-02
1.369269641367381989e-02
1.369231620052608310e-02
1.369193556277400851e-02
1.369155450046630369e-02
1.369117301365160508e-02
1.369079110237848493e-02
1.369040876669545305e-02
1.369002600665095680e-02
1.368964282229337241e-02
1.368925921367101714e-02
1.368887518083215273e-02
1.368849072382498713e-02
1.368810584269766241e-02
1.368772053749824774e-02
1.368733480827475160e-02
1.368694865507511307e-02
1.368656207794721226e-02
1.368617507693886508e-02
1.368578765209782500e-02
1.368539980347176915e-02
1.368501153110829836e-02
1.368462283505495099e-02
1.368423371535920814e-02
1.368384417206849370e-02
1.368345420523016907e-02
1.368306381489152457e-02
1.368267300109978629e-02
1.368228176390212658e-02
1.368189010334565012e-02
1.368149801947739740e-02
1.368110551234433779e-02
1.368071258199337129e-02
1.368031922847134235e-02
1.367992545182502608e-02
1.367953125210112815e-02
1.367913662934629182e-02
1.367874158360709094e-02
1.367834611493002998e-02
1.367795022336155790e-02
1.367755390894805599e-02
1.367715717173583097e-02
1.367676001177112535e-02
1.367636242910011228e-02
1.367596442376890591e-02
1.367556599582356487e-02
1.367516714531009057e-02
1.367476787227441155e-02
1.367436817676239043e-02
1.367396805881983431e-02
1.367356751849248785e-02
1.367316655582602632e-02
1.367276517086606601e-02
1.367236336365816422e-02
1.367196113424781583e-02
1.367155848268044108e-02
1.367115540900139432e-02
1.367075191325597787e-02
1.367034799548942636e-02
1.366994365574690680e-02
1.366953889407351332e-02
1.366913371051427933e-02
1.366872810511417062e-02
1.366832207791808182e-02
1.366791562897084339e-02
1.366750875831722507e-02
1.366710146600193590e-02
1.366669375206961377e-02
1.366628561656483935e-02
1.366587705953213432e-02
1.366546808101596136e-02
1.366505868106072420e-02
1.366464885971076931e-02
1.366423861701037204e-02
1.366382795300375048e-02
1.366341686773506030e-02
1.366300536124838427e-02
1.366259343358773928e-02
1.366218108479707975e-02
1.366176831492029072e-02
1.366135512400119476e-02
1.366094151208355027e-02
1.366052747921105148e-02
1.366011302542733709e-02
1.365969815077599028e-02
1.365928285530053181e-02
1.365886713904442690e-02
1.365845100205108006e-02
1.365803444436383511e-02
1.365761746602597339e-02
1.365720006708072073e-02
1.365678224757125442e-02
1.365636400754069966e-02
1.365594534703212966e-02
1.365552626608856207e-02
1.365510676475295386e-02
1.365468684306820300e-02
1.365426650107714156e-02
1.365384573882254086e-02
1.365342455634711849e-02
1.365300295369352608e-02
1.365258093090436498e-02
1.365215848802217233e-02
1.365173562508942458e-02
1.365131234214854612e-02
1.365088863924189197e-02
1.365046451641175988e-02
1.365003997370039558e-02
1.364961501114998060e-02
1.364918962880263403e-02
1.364876382670042639e-02
1.364833760488537093e-02
1.364791096339943062e-02
1.364748390228451985e-02
1.364705642158249750e-02
1.364662852133516867e-02
1.364620020158428468e-02
1.364577146237154828e-02
1.364534230373860672e-02
1.364491272572705173e-02
1.364448272837842820e-02
1.364405231173423591e-02
1.364362147583592783e-02
1.364319022072491006e-02
1.364275854644254535e-02
1.364232645303014441e-02
1.364189394052896416e-02
1.364146100898021123e-02
1.364102765842504714e-02
1.364059388890459523e-02
1.364015970045992336e-02
1.363972509313204733e-02
1.363929006696193089e-02
1.363885462199048923e-02
1.363841875825859591e-02
1.363798247580708285e-02
1.363754577467674728e-02
1.363710865490834478e-02
1.363667111654258066e-02
1.363623315962011161e-02
1.363579478418154231e-02
1.363535599026743060e-02
1.363491677791828574e-02
1.363447714717457016e-02
1.363403709807669423e-02
1.363359663066503018e-02
1.363315574497991206e-02
1.363271444106163403e-02
1.363227271895044515e-02
1.363183057868655110e-02
1.363138802031011940e-02
1.363094504386127420e-02
1.363050164938009630e-02
1.363005783690662311e-02
1.362961360648084347e-02
1.362916895814270460e-02
1.362872389193211208e-02
1.362827840788892984e-02
1.362783250605298715e-02
1.362738618646406469e-02
1.362693944916191016e-02
1.362649229418623313e-02
1.362604472157670325e-02
1.362559673137295722e-02
1.362514832361460052e-02
1.362469949834120564e-02
1.362425025559231388e-02
1.362380059540743010e-02
1.362335051782602793e-02
1.362290002288753070e-02
1.362244911063132530e-02
1.362199778109675526e-02
1.362154603432313635e-02
1.362109387034974965e-02
1.362064128921584155e-02
1.362018829096061680e-02
1.361973487562324718e-02
1.361928104324287153e-02
1.361882679385860093e-02
1.361837212750950654e-02
1.361791704423462139e-02
1.361746154407294726e-02
1.361700562706345471e-02
1.361654929324508309e-02
1.361609254265674744e-02
1.361563537533733333e-02
1.361517779132570376e-02
1.361471979066069225e-02
1.361426137338110458e-02
1.361380253952572568e-02
1.361334328913331275e-02
1.361288362224259522e-02
1.361242353889227652e-02
1.361196303912104097e-02
1.361150212296755209e-02
1.361104079047044044e-02
1.361057904166831228e-02
1.361011687659974961e-02
1.360965429530331186e-02
1.360919129781752897e-02
1.360872788418089965e-02
1.360826405443190529e-02
1.360779980860899775e-02
1.360733514675060984e-02
1.360687006889516049e-02
1.360640457508105299e-02
1.360593866534666463e-02
1.360547233973035362e-02
1.360500559827045736e-02
1.360453844100530107e-02
1.360407086797320135e-02
1.360360287921245914e-02
1.360313447476136327e-02
1.360266565465819040e-02
1.360219641894119466e-02
1.360172676764861630e-02
1.360125670081868167e-02
1.360078621848960154e-02
1.360031532069957798e-02
1.359984400748680093e-02
1.359937227888944819e-02
1.359890013494568367e-02
1.359842757569365221e-02
1.359795460117149517e-02
1.359748121141734351e-02
1.359700740646932471e-02
1.359653318636555586e-02
1.359605855114414535e-02
1.359558350084319987e-02
1.359510803550081741e-02
1.359463215515509596e-02
1.359415585984413352e-02
1.359367914960602809e-02
1.359320202447887073e-02
1.359272448450075423e-02
1.359224652970975403e-02
1.359176816014393517e-02
1.359128937584135229e-02
1.359081017684004959e-02
1.359033056317808172e-02
1.358985053489351544e-02
1.358937009202441579e-02
1.358888923460883913e-02
1.358840796268484183e-02
1.358792627629048025e-02
1.358744417546381075e-02
1.358696166024288970e-02
1.358647873066577000e-02
1.358599538677050800e-02
1.358551162859516180e-02
1.358502745617779298e-02
1.358454286955647350e-02
1.358405786876928749e-02
1.358357245385432947e-02
1.358308662484969745e-02
1.358260038179349115e-02
1.358211372472382418e-02
1.358162665367882924e-02
1.358113916869665289e-02
1.358065126981544170e-02
1.358016295707334571e-02
1.357967423050851843e-02
1.357918509015912725e-02
1.357869553606334996e-02
1.357820556825937650e-02
1.357771518678540720e-02
1.357722439167964590e-02
1.357673318298030160e-02
1.357624156072559721e-02
1.357574952495376776e-02
1.357525707570306737e-02
1.357476421301176406e-02
1.357427093691813448e-02
1.357377724746046399e-02
1.357328314467705875e-02
1.357278862860624921e-02
1.357229369928637623e-02
1.357179835675580322e-02
1.357130260105289705e-02
1.357080643221604196e-02
1.357030985028364126e-02
1.356981285529411732e-02
1.356931544728591163e-02
1.356881762629749341e-02
1.356831939236735965e-02
1.356782074553402120e-02
1.356732168583600975e-02
1.356682221331187085e-02
1.356632232800017088e-02
1.356582202993949875e-02
1.356532131916846941e-02
1.356482019572572209e-02
1.356431865964992552e-02
1.356381671097976749e-02
1.356331434975396009e-02
1.356281157601123277e-02
1.356230838979033577e-02
1.356180479113003844e-02
1.356130078006913611e-02
1.356079635664645192e-02
1.356029152090083671e-02
1.355978627287116912e-02
1.355928061259635727e-02
1.355877454011534047e-02
1.355826805546708758e-02
1.355776115869059516e-02
1.355725384982488929e-02
1.355674612890902901e-02
1.355623799598209937e-02
1.355572945108322359e-02
1.355522049425155612e-02
1.355471112552628435e-02
1.355420134494663732e-02
1.355369115255187704e-02
1.355318054838129845e-02
1.355266953247423294e-02
1.355215810487004138e-02
1.355164626560811936e-02
1.355113401472789712e-02
1.355062135226883270e-02
1.355010827827042227e-02
1.354959479277219499e-02
1.354908089581371641e-02
1.354856658743458855e-02
1.354805186767446025e-02
1.354753673657302024e-02
1.354702119417000236e-02
1.354650524050518036e-02
1.354598887561836787e-02
1.354547209954943231e-02
1.354495491233827578e-02
1.354443731402484898e-02
1.354391930464913900e-02
1.354340088425118153e-02
1.354288205287106084e-02
1.354236281054889933e-02
1.354184315732485586e-02
1.354132309323913264e-02
1.354080261833196831e-02
1.354028173264363796e-02
1.353976043621445656e-02
1.353923872908479285e-02
1.353871661129506070e-02
1.353819408288570690e-02
1.353767114389721991e-02
1.353714779437012808e-02
1.353662403434500658e-02
1.353609986386247917e-02
1.353557528296321644e-02
1.353505029168793061e-02
1.353452489007738596e-02
1.353399907817239706e-02
1.353347285601382011e-02
1.353294622364256683e-02
1.353241918109959231e-02
1.353189172842591062e-02
1.353136386566258093e-02
1.353083559285070923e-02
1.353030691003145533e-02
1.352977781724603625e-02
1.352924831453572105e-02
1.352871840194182738e-02
1.352818807950573361e-02
1.352765734726887013e-02
1.352712620527272112e-02
1.352659465355882107e-02
1.352606269216875476e-02
1.352553032114416943e-02
1.352499754052676785e-02
1.352446435035830827e-02
1.352393075068060446e-02
1.352339674153553439e-02
1.352286232296503500e-02
1.352232749501110221e-02
1.352179225771579091e-02
1.352125661112120805e-02
1.352072055526953344e-02
1.352018409020301279e-02
1.351964721596395774e-02
1.351910993259473892e-02
1.351857224013778072e-02
1.351803413863556305e-02
1.351749562813063521e-02
1.351695670866560721e-02
1.351641738028314978e-02
1.351587764302599609e-02
1.351533749693694178e-02
1.351479694205886053e-02
1.351425597843469717e-02
1.351371460610745201e-02
1.351317282512019650e-02
1.351263063551605415e-02
1.351208803733820567e-02
1.351154503062989599e-02
1.351100161543444290e-02
1.351045779179523530e-02
1.350991355975572801e-02
1.350936891935944524e-02
1.350882387064997713e-02
1.350827841367097798e-02
1.350773254846617151e-02
1.350718627507935081e-02
1.350663959355437489e-02
1.350609250393517216e-02
1.350554500626573347e-02
1.350499710059012426e-02
1.350444878695248110e-02
1.350390006539700996e-02
1.350335093596798444e-02
1.350280139870974234e-02
1.350225145366670126e-02
1.350170110088334298e-02
1.350115034040421866e-02
1.350059917227395059e-02
1.350004759653724087e-02
1.349949561323887832e-02
1.349894322242373157e-02
1.349839042413674209e-02
1.349783721842292422e-02
1.349728360532736690e-02
1.349672958489522671e-02
1.349617515717173311e-02
1.349562032220219532e-02
1.349506508003199719e-02
1.349450943070659888e-02
1.349395337427153514e-02
1.349339691077241707e-02
1.349284004025494074e-02
1.349228276276488378e-02
1.349172507834809839e-02
1.349116698705051486e-02
1.349060848891813456e-02
1.349004958399704218e-02
1.348949027233339350e-02
1.348893055397342930e-02
1.348837042896347538e-02
1.348780989734994426e-02
1.348724895917933347e-02
1.348668761449822555e-02
1.348612586335328281e-02
1.348556370579124739e-02
1.348500114185893599e-02
1.348443817160324687e-02
1.348387479507116328e-02
1.348331101230974827e-02
1.348274682336614121e-02
1.348218222828755607e-02
1.348161722712129355e-02
1.348105181991474284e-02
1.348048600671536944e-02
1.347991978757072731e-02
1.347935316252845371e-02
1.347878613163627087e-02
1.347821869494199645e-02
1.347765085249353137e-02
1.347708260433886154e-02
1.347651395052605616e-02
1.347594489110326942e-02
1.347537542611874049e-02
1.347480555562079879e-02
1.347423527965786565e-02
1.347366459827845607e-02
1.347309351153117007e-02
1.347252201946469961e-02
1.347195012212783032e-02
1.347137781956944148e-02
1.347080511183849916e-02
1.347023199898405611e-02
1.346965848105525880e-02
1.346908455810135428e-02
1.346851023017166422e-02
1.346793549731559181e-02
1.346736035958263390e-02
1.346678481702238278e-02
1.346620886968452786e-02
1.346563251761885398e-02
1.346505576087523443e-02
1.346447859950363965e-02
1.346390103355413551e-02
1.346332306307688326e-02
1.346274468812213437e-02
1.346216590874023920e-02
1.346158672498164698e-02
1.346100713689690233e-02
1.346042714453664704e-02
1.345984674795161484e-02
1.345926594719262966e-02
1.345868474231060735e-02
1.345810313335655053e-02
1.345752112038155375e-02
1.345693870343680869e-02
1.345635588257359377e-02
1.345577265784327417e-02
1.345518902929731218e-02
1.345460499698727073e-02
1.345402056096480121e-02
1.345343572128164175e-02
1.345285047798961721e-02
1.345226483114064613e-02
1.345167878078674766e-02
1.345109232698004850e-02
1.345050546977277599e-02
1.344991820921725284e-02
1.344933054536589893e-02
1.344874247827123476e-02
1.344815400798587447e-02
1.344756513456253633e-02
1.344697585805404785e-02
1.344638617851334067e-02
1.344579609599343660e-02
1.344520561054745114e-02
1.344461472222860388e-02
1.344402343109022020e-02
1.344343173718572267e-02
1.344283964056864310e-02
1.344224714129262262e-02
1.344165423941139428e-02
1.344106093497879698e-02
1.344046722804876845e-02
1.343987311867534534e-02
1.343927860691266143e-02
1.343868369281496153e-02
1.343808837643658063e-02
1.343749265783196131e-02
1.343689653705565368e-02
1.343630001416231193e-02
1.343570308920669781e-02
1.343510576224367370e-02
1.343450803332820603e-02
1.343390990251536188e-02
1.343331136986031758e-02
1.343271243541835532e-02
1.343211309924486306e-02
1.343151336139533636e-02
1.343091322192537830e-02
1.343031268089069433e-02
1.342971173834709916e-02
1.342911039435051336e-02
1.342850864895695807e-02
1.342790650222254467e-02
1.342730395420348513e-02
1.342670100495609205e-02
1.342609765453678210e-02
1.342549390300207431e-02
1.342488975040859525e-02
1.342428519681307386e-02
1.342368024227234315e-02
1.342307488684333847e-02
1.342246913058309753e-02
1.342186297354877600e-02
1.342125641579764057e-02
1.342064945738706029e-02
1.342004209837450654e-02
1.341943433881755479e-02
1.341882617877389154e-02
1.341821761830130737e-02
1.341760865745770387e-02
1.341699929630109540e-02
1.341638953488960735e-02
1.341577937328148132e-02
1.341516881153505779e-02
1.341455784970879000e-02
1.341394648786124917e-02
1.341333472605111057e-02
1.341272256433716226e-02
1.341211000277829808e-02
1.341149704143351599e-02
1.341088368036191282e-02
1.341026991962270508e-02
1.340965575927521511e-02
1.340904119937888668e-02
1.340842623999326244e-02
1.340781088117800474e-02
1.340719512299289040e-02
1.340657896549781597e-02
1.340596240875278899e-02
1.340534545281792979e-02
1.340472809775347489e-02
1.340411034361976318e-02
1.340349219047725325e-02
1.340287363838652164e-02
1.340225468740825938e-02
1.340163533760325987e-02
1.340101558903242923e-02
1.340039544175678117e-02
1.339977489583744560e-02
1.339915395133565307e-02
1.339853260831274165e-02
1.339791086683016393e-02
1.339728872694948870e-02
1.339666618873238714e-02
1.339604325224064314e-02
1.339541991753614818e-02
1.339479618468090473e-02
1.339417205373703672e-02
1.339354752476677561e-02
1.339292259783246390e-02
1.339229727299655857e-02
1.339167155032163110e-02
1.339104542987037093e-02
1.339041891170558371e-02
1.338979199589018267e-02
1.338916468248719030e-02
1.338853697155974014e-02
1.338790886317107499e-02
1.338728035738455217e-02
1.338665145426365215e-02
1.338602215387196641e-02
1.338539245627320441e-02
1.338476236153118663e-02
1.338413186970984804e-02
1.338350098087325198e-02
1.338286969508556759e-02
1.338223801241106813e-02
1.338160593291414305e-02
1.338097345665929284e-02
1.338034058371113423e-02
1.337970731413439321e-02
1.337907364799390680e-02
1.337843958535463694e-02
1.337780512628166350e-02
1.337717027084017740e-02
1.337653501909548751e-02
1.337589937111302758e-02
1.337526332695834937e-02
1.337462688669711561e-02
1.337399005039510008e-02
1.337335281811819973e-02
1.337271518993242078e-02
1.337207716590388222e-02
1.337143874609882967e-02
1.337079993058361976e-02
1.337016071942472711e-02
1.336952111268874428e-02
1.336888111044238873e-02
1.336824071275249069e-02
1.336759991968600007e-02
1.336695873130998996e-02
1.336631714769165834e-02
1.336567516889832288e-02
1.336503279499741924e-02
1.336439002605650274e-02
1.336374686214325536e-02
1.336310330332547702e-02
1.336245934967107869e-02
1.336181500124808234e-02
1.336117025812463485e-02
1.336052512036901667e-02
1.335987958804963661e-02
1.335923366123502841e-02
1.335858733999384200e-02
1.335794062439484182e-02
1.335729351450690681e-02
1.335664601039903386e-02
1.335599811214033782e-02
1.335534981980006537e-02
1.335470113344757598e-02
1.335405205315234878e-02
1.335340257898398261e-02
1.335275271101219775e-02
1.335210244930683417e-02
1.335145179393786366e-02
1.335080074497536906e-02
1.335014930248955289e-02
1.334949746655073911e-02
1.334884523722937137e-02
1.334819261459601822e-02
1.334753959872136790e-02
1.334688618967622836e-02
1.334623238753152551e-02
1.334557819235831361e-02
1.334492360422776143e-02
1.334426862321115570e-02
1.334361324937990978e-02
1.334295748280555152e-02
1.334230132355972848e-02
1.334164477171421309e-02
1.334098782734089925e-02
1.334033049051180225e-02
1.333967276129906232e-02
1.333901463977493242e-02
1.333835612601179388e-02
1.333769722008214947e-02
1.333703792205862167e-02
1.333637823201395088e-02
1.333571815002099724e-02
1.333505767615274923e-02
1.333439681048232198e-02
1.333373555308295030e-02
1.333307390402798352e-02
1.333241186339089931e-02
1.333174943124528812e-02
1.333108660766485834e-02
1.333042339272344674e-02
1.332975978649501327e-02
1.332909578905364448e-02
1.332843140047355185e-02
1.332776662082906655e-02
1.332710145019464811e-02
1.332643588864487055e-02
1.332576993625442241e-02
1.332510359309811189e-02
1.332443685925087384e-02
1.332376973478775761e-02
1.332310221978393917e-02
1.332243431431471420e-02
1.332176601845549979e-02
1.332109733228184142e-02
1.332042825586939906e-02
1.331975878929395236e-02
1.331908893263140589e-02
1.331841868595778564e-02
1.331774804934924075e-02
1.331707702288203315e-02
1.331640560663255139e-02
1.331573380067731238e-02
1.331506160509295447e-02
1.331438901995622877e-02
1.331371604534401995e-02
1.331304268133334107e-02
1.331236892800132660e-02
1.331169478542523939e-02
1.331102025368246199e-02
1.331034533285050357e-02
1.330967002300698782e-02
1.330899432422965982e-02
1.330831823659638612e-02
1.330764176018515987e-02
1.330696489507409395e-02
1.330628764134141571e-02
1.330560999906547394e-02
1.330493196832473884e-02
1.330425354919781422e-02
1.330357474176343743e-02
1.330289554610047595e-02
1.330221596228792560e-02
1.330153599040490714e-02
1.330085563053066966e-02
1.330017488274459238e-02
1.329949374712617420e-02
1.329881222375504067e-02
1.329813031271093876e-02
1.329744801407374381e-02
1.329676532792345260e-02
1.329608225434019547e-02
1.329539879340422941e-02
1.329471494519594670e-02
1.329403070979585932e-02
1.329334608728459897e-02
1.329266107774292743e-02
1.329197568125173659e-02
1.329128989789204497e-02
1.329060372774499600e-02
1.328991717089185974e-02
1.328923022741403635e-02
1.328854289739305611e-02
1.328785518091057591e-02
1.328716707804837756e-02
1.328647858888836950e-02
1.328578971351259026e-02
1.328510045200319983e-02
1.328441080444249175e-02
1.328372077091287407e-02
1.328303035149688144e-02
1.328233954627717518e-02
1.328164835533654498e-02
1.328095677875790193e-02
1.328026481662428551e-02
1.327957246901886358e-02
1.327887973602493062e-02
1.327818661772589906e-02
1.327749311420531493e-02
1.327679922554685435e-02
1.327610495183432181e-02
1.327541029315165537e-02
1.327471524958291453e-02
1.327401982121228542e-02
1.327332400812408775e-02
1.327262781040277478e-02
1.327193122813292644e-02
1.327123426139925275e-02
1.327053691028658514e-02
1.326983917487988690e-02
1.326914105526424102e-02
1.326844255152485191e-02
1.326774366374704542e-02
1.326704439201627402e-02
1.326634473641811682e-02
1.326564469703827437e-02
1.326494427396257385e-02
1.326424346727695346e-02
1.326354227706749191e-02
1.326284070342038414e-02
1.326213874642193959e-02
1.326143640615859952e-02
1.326073368271692490e-02
1.326003057618361028e-02
1.325932708664546295e-02
1.325862321418941163e-02
1.325791895890251863e-02
1.325721432087197289e-02
1.325650930018508478e-02
1.325580389692930516e-02
1.325509811119221677e-02
1.325439194306152202e-02
1.325368539262505863e-02
1.325297845997078401e-02
1.325227114518678917e-02
1.325156344836129173e-02
1.325085536958263421e-02
1.325014690893928579e-02
1.324943806651984399e-02
1.324872884241304165e-02
1.324801923670772957e-02
1.324730924949288347e-02
1.324659888085760046e-02
1.324588813089110952e-02
1.324517699968275758e-02
1.324446548732201995e-02
1.324375359389849162e-02
1.324304131950189423e-02
1.324232866422206216e-02
1.324161562814895471e-02
1.324090221137265086e-02
1.324018841398334929e-02
1.323947423607136666e-02
1.323875967772714449e-02
1.323804473904125097e-02
1.323732942010437397e-02
1.323661372100734014e-02
1.323589764184110278e-02
1.323518118269674179e-02
1.323446434366545681e-02
1.323374712483857407e-02
1.323302952630754301e-02
1.323231154816393099e-02
1.323159319049942682e-02
1.323087445340584423e-02
1.323015533697512701e-02
1.322943584129933868e-02
1.322871596647066939e-02
1.322799571258144111e-02
1.322727507972410073e-02
1.322655406799122003e-02
1.322583267747549050e-02
1.322511090826973025e-02
1.322438876046688055e-02
1.322366623416000586e-02
1.322294332944229725e-02
1.322222004640707244e-02
1.322149638514776709e-02
1.322077234575794180e-02
1.322004792833128724e-02
1.321932313296161204e-02
1.321859795974285844e-02
1.321787240876909179e-02
1.321714648013450760e-02
1.321642017393342104e-02
1.321569349026027393e-02
1.321496642920963124e-02
1.321423899087618807e-02
1.321351117535476440e-02
1.321278298274029817e-02
1.321205441312784529e-02
1.321132546661258483e-02
1.321059614328982598e-02
1.320986644325500281e-02
1.320913636660366736e-02
1.320840591343150350e-02
1.320767508383431828e-02
1.320694387790804190e-02
1.320621229574871561e-02
1.320548033745250552e-02
1.320474800311570787e-02
1.320401529283474727e-02
1.320328220670617843e-02
1.320254874482668789e-02
1.320181490729308016e-02
1.320108069420227598e-02
1.320034610565131925e-02
1.319961114173738570e-02
1.319887580255777251e-02
1.319814008820990522e-02
1.319740399879132733e-02
1.319666753439970551e-02
1.319593069513284346e-02
1.319519348108866806e-02
1.319445589236523456e-02
1.319371792906072136e-02
1.319297959127344565e-02
1.319224087910184778e-02
1.319150179264449649e-02
1.319076233200008191e-02
1.319002249726741044e-02
1.318928228854541855e-02
1.318854170593316416e-02
1.318780074952982835e-02
1.318705941943472057e-02
1.318631771574727170e-02
1.318557563856703578e-02
1.318483318799370217e-02
1.318409036412708339e-02
1.318334716706712033e-02
1.318260359691388051e-02
1.318185965376756155e-02
1.318111533772847732e-02
1.318037064889706310e-02
1.317962558737386866e-02
1.317888015325957216e-02
1.317813434665498010e-02
1.317738816766101870e-02
1.317664161637873387e-02
1.317589469290930161e-02
1.317514739735402805e-02
1.317439972981435288e-02
1.317365169039184242e-02
1.317290327918818442e-02
1.317215449630518807e-02
1.317140534184477706e-02
1.317065581590900168e-02
1.316990591860004584e-02
1.316915565002021483e-02
1.316840501027193543e-02
1.316765399945774712e-02
1.316690261768031431e-02
1.316615086504242284e-02
1.316539874164697997e-02
1.316464624759701094e-02
1.316389338299566239e-02
1.316314014794619548e-02
1.316238654255199626e-02
1.316163256691657742e-02
1.316087822114357826e-02
1.316012350533676302e-02
1.315936841960002948e-02
1.315861296403738993e-02
1.315785713875299023e-02
1.315710094385110114e-02
1.315634437943611831e-02
1.315558744561255537e-02
1.315483014248505257e-02
1.315407247015837160e-02
1.315331442873739903e-02
1.315255601832713769e-02
1.315179723903271702e-02
1.315103809095939311e-02
1.315027857421254692e-02
1.314951868889768435e-02
1.314875843512042924e-02
1.314799781298652340e-02
1.314723682260182658e-02
1.314647546407231651e-02
1.314571373750409583e-02
1.314495164300339206e-02
1.314418918067655068e-02
1.314342635063003514e-02
1.314266315297042687e-02
1.314189958780442348e-02
1.314113565523884579e-02
1.314037135538063256e-02
1.313960668833683357e-02
1.313884165421461657e-02
1.313807625312127247e-02
1.313731048516422056e-02
1.313654435045100329e-02
1.313577784908928799e-02
1.313501098118685997e-02
1.313424374685161385e-02
1.313347614619155869e-02
1.313270817931481288e-02
1.313193984632961275e-02
1.313117114734431781e-02
1.313040208246740205e-02
1.312963265180746263e-02
1.312886285547322680e-02
1.312809269357354501e-02
1.312732216621738390e-02
1.312655127351383851e-02
1.312578001557211833e-02
1.312500839250156127e-02
1.312423640441161971e-02
1.312346405141187437e-02
1.312269133361202919e-02
1.312191825112189736e-02
1.312114480405141351e-02
1.312037099251062676e-02
1.311959681660969379e-02
1.311882227645888577e-02
1.311804737216858835e-02
1.311727210384930169e-02
1.311649647161165257e-02
1.311572047556638747e-02
1.311494411582438124e-02
1.311416739249663017e-02
1.311339030569425891e-02
1.311261285552851180e-02
1.311183504211075289e-02
1.311105686555246765e-02
1.311027832596527512e-02
1.310949942346092099e-02
1.310872015815127238e-02
1.310794053014831609e-02
1.310716053956415689e-02
1.310638018651101924e-02
1.310559947110124038e-02
1.310481839344727548e-02
1.310403695366169942e-02
1.310325515185720852e-02
1.310247298814660490e-02
1.310169046264280171e-02
1.310090757545883007e-02
1.310012432670783905e-02
1.309934071650309742e-02
1.309855674495799191e-02
1.309777241218601854e-02
1.309698771830079995e-02
1.309620266341607851e-02
1.309541724764570758e-02
1.309463147110365849e-02
1.309384533390401881e-02
1.309305883616098537e-02
1.309227197798887472e-02
1.309148475950211443e-02
1.309069718081524829e-02
1.308990924204293804e-02
1.308912094329996861e-02
1.308833228470123421e-02
1.308754326636174699e-02
1.308675388839664229e-02
1.308596415092117861e-02
1.308517405405073240e-02
1.308438359790079462e-02
1.308359278258697765e-02
1.308280160822500489e-02
1.308201007493071596e-02
1.308121818282005980e-02
1.308042593200910153e-02
1.307963332261402080e-02
1.307884035475111173e-02
1.307804702853678294e-02
1.307725334408756622e-02
1.307645930152011651e-02
1.307566490095120326e-02
1.307487014249771734e-02
1.307407502627666411e-02
1.307327955240516343e-02
1.307248372100044964e-02
1.307168753217987159e-02
1.307089098606089260e-02
1.307009408276108356e-02
1.306929682239812811e-02
1.306849920508982264e-02
1.306770123095407805e-02
1.306690290010891278e-02
1.306610421267244415e-02
1.306530516876289530e-02
1.306450576849859692e-02
1.306370601199799072e-02
1.306290589937964333e-02
1.306210543076222891e-02
1.306130460626452744e-02
1.306050342600543861e-02
1.305970189010398179e-02
1.305889999867928739e-02
1.305809775185059161e-02
1.305729514973724345e-02
1.305649219245870289e-02
1.305568888013453228e-02
1.305488521288440326e-02
1.305408119082810021e-02
1.305327681408551335e-02
1.305247208277664391e-02
1.305166699702160413e-02
1.305086155694061729e-02
1.305005576265401077e-02
1.304924961428221425e-02
1.304844311194576674e-02
1.304763625576532519e-02
1.304682904586164892e-02
1.304602148235559957e-02
1.304521356536813594e-02
1.304440529502033305e-02
1.304359667143338043e-02
1.304278769472857688e-02
1.304197836502733222e-02
1.304116868245116558e-02
1.304035864712171054e-02
1.303954825916071522e-02
1.303873751869002832e-02
1.303792642583160091e-02
1.303711498070749333e-02
1.303630318343986655e-02
1.303549103415098907e-02
1.303467853296323524e-02
1.303386567999909214e-02
1.303305247538114921e-02
1.303223891923209130e-02
1.303142501167470907e-02
1.303061075283189901e-02
1.302979614282667210e-02
1.302898118178214514e-02
1.302816586982154072e-02
1.302735020706818209e-02
1.302653419364549828e-02
1.302571782967702242e-02
1.302490111528638653e-02
1.302408405059732148e-02
1.302326663573366225e-02
1.302244887081934963e-02
1.302163075597842327e-02
1.302081229133502001e-02
1.301999347701337552e-02
1.301917431313783131e-02
1.301835479983283819e-02
1.301753493722295624e-02
1.301671472543284962e-02
1.301589416458728832e-02
1.301507325481114120e-02
1.301425199622937776e-02
1.301343038896707500e-02
1.301260843314942274e-02
1.301178612890170790e-02
1.301096347634932496e-02
1.301014047561776382e-02
1.300931712683262541e-02
1.300849343011960604e-02
1.300766938560450267e-02
1.300684499341321979e-02
1.300602025367176423e-02
1.300519516650623826e-02
1.300436973204285168e-02
1.300354395040792359e-02
1.300271782172786675e-02
1.300189134612918587e-02
1.300106452373848628e-02
1.300023735468247392e-02
1.299940983908794839e-02
1.299858197708180993e-02
1.299775376879105937e-02
1.299692521434280337e-02
1.299609631386424748e-02
1.299526706748269783e-02
1.299443747532556641e-02
1.299360753752036926e-02
1.299277725419472132e-02
1.299194662547633640e-02
1.299111565149303239e-02
1.299028433237271914e-02
1.298945266824339841e-02
1.298862065923317606e-02
1.298778830547024817e-02
1.298695560708290099e-02
1.298612256419952489e-02
1.298528917694860736e-02
1.298445544545872611e-02
1.298362136985855599e-02
1.298278695027686898e-02
1.298195218684253249e-02
1.298111707968450934e-02
1.298028162893185948e-02
1.297944583471374522e-02
1.297860969715942947e-02
1.297777321639827577e-02
1.297693639255974307e-02
1.297609922577339439e-02
1.297526171616889511e-02
1.297442386387600427e-02
1.297358566902457461e-02
1.297274713174455252e-02
1.297190825216598502e-02
1.297106903041901106e-02
1.297022946663387022e-02
1.296938956094088359e-02
1.296854931347046422e-02
1.296770872435311014e-02
1.296686779371940615e-02
1.296602652170004283e-02
1.296518490842580099e-02
1.296434295402756204e-02
1.296350065863629414e-02
1.296265802238306258e-02
1.296181504539902288e-02
1.296097172781542073e-02
1.296012806976360072e-02
1.295928407137499939e-02
1.295843973278115041e-02
1.295759505411368459e-02
1.295675003550433510e-02
1.295590467708491664e-02
1.295505897898732890e-02
1.295421294134356874e-02
1.295336656428571973e-02
1.295251984794595392e-02
1.295167279245654744e-02
1.295082539794985971e-02
1.294997766455833858e-02
1.294912959241451868e-02
1.294828118165102827e-02
1.294743243240058239e-02
1.294658334479597758e-02
1.294573391897011275e-02
1.294488415505597352e-02
1.294403405318663922e-02
1.294318361349527415e-02
1.294233283611512068e-02
1.294148172117950968e-02
1.294063026882186565e-02
1.293977847917569639e-02
1.293892635237460335e-02
1.293807388855226781e-02
1.293722108784246122e-02
1.293636795037904005e-02
1.293551447629595966e-02
1.293466066572725864e-02
1.293380651880706583e-02
1.293295203566960025e-02
1.293209721644917112e-02
1.293124206128017269e-02
1.293038657029708417e-02
1.292953074363446635e-02
1.292867458142696151e-02
1.292781808380930215e-02
1.292696125091630927e-02
1.292610408288289055e-02
1.292524657984403698e-02
1.292438874193482974e-02
1.292353056929043675e-02
1.292267206204611441e-02
1.292181322033720756e-02
1.292095404429914086e-02
1.292009453406742572e-02
1.291923468977764639e-02
1.291837451156547384e-02
1.291751399956665887e-02
1.291665315391702512e-02
1.291579197475246910e-02
1.291493046220896536e-02
1.291406861642256654e-02
1.291320643752941720e-02
1.291234392566573130e-02
1.291148108096780260e-02
1.291061790357201158e-02
1.290975439361482895e-02
1.290889055123280865e-02
1.290802637656257405e-02
1.290716186974082656e-02
1.290629703090435780e-02
1.290543186019004092e-02
1.290456635773481152e-02
1.290370052367567980e-02
1.290283435814973921e-02
1.290196786129416129e-02
1.290110103324619735e-02
1.290023387414317158e-02
1.289936638412248447e-02
1.289849856332162502e-02
1.289763041187815505e-02
1.289676192992971621e-02
1.289589311761402991e-02
1.289502397506889046e-02
1.289415450243217368e-02
1.289328469984182997e-02
1.289241456743588782e-02
1.289154410535244509e-02
1.289067331372967078e-02
1.288980219270580846e-02
1.288893074241917458e-02
1.288805896300815497e-02
1.288718685461121352e-02
1.288631441736689219e-02
1.288544165141380232e-02
1.288456855689063853e-02
1.288369513393616481e-02
1.288282138268921455e-02
1.288194730328869747e-02
1.288107289587359268e-02
1.288019816058295561e-02
1.287932309755591628e-02
1.287844770693166545e-02
1.287757198884946323e-02
1.287669594344864436e-02
1.287581957086862336e-02
1.287494287124888066e-02
1.287406584472897131e-02
1.287318849144851972e-02
1.287231081154722317e-02
1.287143280516484314e-02
1.287055447244122262e-02
1.286967581351628441e-02
1.286879682853002069e-02
1.286791751762249476e-02
1.286703788093384281e-02
1.286615791860426690e-02
1.286527763077404025e-02
1.286439701758349853e-02
1.286351607917304851e-02
1.286263481568317504e-02
1.286175322725443236e-02
1.286087131402743715e-02
1.285998907614286854e-02
1.285910651374146813e-02
1.285822362696404687e-02
1.285734041595148341e-02
1.285645688084472403e-02
1.285557302178477745e-02
1.285468883891272007e-02
1.285380433236968725e-02
1.285291950229687508e-02
1.285203434883554902e-02
1.285114887212704046e-02
1.285026307231275193e-02
1.284937694953415185e-02
1.284849050393277459e-02
1.284760373565020826e-02
1.284671664482809998e-02
1.284582923160815238e-02
1.284494149613211837e-02
1.284405343854182376e-02
1.284316505897915850e-02
1.284227635758606809e-02
1.284138733450454831e-02
1.284049798987665220e-02
1.283960832384450218e-02
1.283871833655027619e-02
1.283782802813621463e-02
1.283693739874462031e-02
1.283604644851785853e-02
1.283515517759835529e-02
1.283426358612860252e-02
1.283337167425113896e-02
1.283247944210855890e-02
1.283158688984351037e-02
1.283069401759869346e-02
1.282980082551686205e-02
1.282890731374083070e-02
1.282801348241346603e-02
1.282711933167767805e-02
1.282622486167642704e-02
1.282533007255272708e-02
1.282443496444966510e-02
1.282353953751036967e-02
1.282264379187802485e-02
1.282174772769586503e-02
1.282085134510718358e-02
1.281995464425533110e-02
1.281905762528371198e-02
1.281816028833579132e-02
1.281726263355509841e-02
1.281636466108521978e-02
1.281546637106979053e-02
1.281456776365249954e-02
1.281366883897708774e-02
1.281276959718735155e-02
1.281187003842712904e-02
1.281097016284031033e-02
1.281006997057083929e-02
1.280916946176270492e-02
1.280826863655993957e-02
1.280736749510662242e-02
1.280646603754687952e-02
1.280556426402488027e-02
1.280466217468483742e-02
1.280375976967101405e-02
1.280285704912772354e-02
1.280195401319932438e-02
1.280105066203022536e-02
1.280014699576488384e-02
1.279924301454780575e-02
1.279833871852353346e-02
1.279743410783666657e-02
1.279652918263184461e-02
1.279562394305375390e-02
1.279471838924712244e-02
1.279381252135671811e-02
1.279290633952733479e-02
1.279199984390380802e-02
1.279109303463101324e-02
1.279018591185387098e-02
1.278927847571734860e-02
1.278837072636645339e-02
1.278746266394622903e-02
1.278655428860176260e-02
1.278564560047817239e-02
1.278473659972061485e-02
1.278382728647427767e-02
1.278291766088437802e-02
1.278200772309617470e-02
1.278109747325496294e-02
1.278018691150608309e-02
1.277927603799491711e-02
1.277836485286688688e-02
1.277745335626744895e-02
1.277654154834210153e-02
1.277562942923637056e-02
1.277471699909582363e-02
1.277380425806607690e-02
1.277289120629277776e-02
1.277197784392161174e-02
1.277106417109829216e-02
1.277015018796857047e-02
1.276923589467822764e-02
1.276832129137307065e-02
1.276740637819893942e-02
1.276649115530171207e-02
1.276557562282729617e-02
1.276465978092163403e-02
1.276374362973070609e-02
1.276282716940052402e-02
1.276191040007712725e-02
1.276099332190658471e-02
1.276007593503499481e-02
1.275915823960848891e-02
1.275824023577323135e-02
1.275732192367541595e-02
1.275640330346127123e-02
1.275548437527705865e-02
1.275456513926906746e-02
1.275364559558361983e-02
1.275272574436706226e-02
1.275180558576577243e-02
1.275088511992614713e-02
1.274996434699461612e-02
1.274904326711764034e-02
1.274812188044171894e-02
1.274720018711338748e-02
1.274627818727921101e-02
1.274535588108577193e-02
1.274443326867968213e-02
1.274351035020758818e-02
1.274258712581615230e-02
1.274166359565205402e-02
1.274073975986200757e-02
1.273981561859275323e-02
1.273889117199105206e-02
1.273796642020369810e-02
1.273704136337750620e-02
1.273611600165931376e-02
1.273519033519598248e-02
1.273426436413439659e-02
1.273333808862146636e-02
1.273241150880412981e-02
1.273148462482934402e-02
1.273055743684408866e-02
1.272962994499536593e-02
1.272870214943018843e-02
1.272777405029559307e-02
1.272684564773864102e-02
1.272591694190641602e-02
1.272498793294602956e-02
1.272405862100460701e-02
1.272312900622929455e-02
1.272219908876726091e-02
1.272126886876568351e-02
1.272033834637175884e-02
1.271940752173270246e-02
1.271847639499574384e-02
1.271754496630812629e-02
1.271661323581710530e-02
1.271568120366995368e-02
1.271474887001394251e-02
1.271381623499634808e-02
1.271288329876447097e-02
1.271195006146562216e-02
1.271101652324712998e-02
1.271008268425633317e-02
1.270914854464058087e-02
1.270821410454723785e-02
1.270727936412367580e-02
1.270634432351727683e-02
1.270540898287542651e-02
1.270447334234551737e-02
1.270353740207494191e-02
1.270260116221109264e-02
1.270166462290136210e-02
1.270072778429314972e-02
1.269979064653386364e-02
1.269885320977091892e-02
1.269791547415173409e-02
1.269697743982373291e-02
1.269603910693435297e-02
1.269510047563103712e-02
1.269416154606123164e-02
1.269322231837238628e-02
1.269228279271196989e-02
1.269134296922745653e-02
1.269040284806632890e-02
1.268946242937607320e-02
1.268852171330419470e-02
1.268758069999821429e-02
1.268663938960565458e-02
1.268569778227404687e-02
1.268475587815091551e-02
1.268381367738379527e-02
1.268287118012022437e-02
1.268192838650774798e-02
1.268098529669390434e-02
1.268004191082623862e-02
1.267909822905230292e-02
1.267815425151966324e-02
1.267720997837588556e-02
1.267626540976853414e-02
1.267532054584517322e-02
1.267437538675337573e-02
1.267342993264070419e-02
1.267248418365473153e-02
1.267153813994303761e-02
1.267059180165319883e-02
1.266964516893279505e-02
1.266869824192941134e-02
1.266775102079063624e-02
1.266680350566405655e-02
1.266585569669725561e-02
1.266490759403781155e-02
1.266395919783329209e-02
1.266301050823126668e-02
1.266206152537930653e-02
1.266111224942498628e-02
1.266016268051587713e-02
1.265921281879955201e-02
1.265826266442357691e-02
1.265731221753551260e-02
1.265636147828291987e-02
1.265541044681335776e-02
1.265445912327438707e-02
1.265350750781356337e-02
1.265255560057844224e-02
1.265160340171657925e-02
1.265065091137552306e-02
1.264969812970280841e-02
1.264874505684596140e-02
1.264779169295249250e-02
1.264683803816989832e-02
1.264588409264566678e-02
1.264492985652728232e-02
1.264397532996222595e-02
1.264302051309797691e-02
1.264206540608200750e-02
1.264111000906178832e-02
1.264015432218478473e-02
1.263919834559844302e-02
1.263824207945018693e-02
1.263728552388742460e-02
1.263632867905755200e-02
1.263537154510794604e-02
1.263441412218597321e-02
1.263345641043899653e-02
1.263249841001436863e-02
1.263154012105942997e-02
1.263058154372151409e-02
1.262962267814793545e-02
1.262866352448599808e-02
1.262770408288299909e-02
1.262674435348622864e-02
1.262578433644296651e-02
1.262482403190047855e-02
1.262386344000602199e-02
1.262290256090683495e-02
1.262194139475015034e-02
1.262097994168319241e-02
1.262001820185317154e-02
1.261905617540727900e-02
1.261809386249270436e-02
1.261713126325662848e-02
1.261616837784621664e-02
1.261520520640861849e-02
1.261424174909096980e-02
1.261327800604039075e-02
1.261231397740398587e-02
1.261134966332883890e-02
1.261038506396201797e-02
1.260942017945058079e-02
1.260845500994156251e-02
1.260748955558198964e-02
1.260652381651887824e-02
1.260555779289922705e-02
1.260459148487001746e-02
1.260362489257821350e-02
1.260265801617075493e-02
1.260169085579456415e-02
1.260072341159654621e-02
1.259975568372358884e-02
1.259878767232256239e-02
1.259781937754031293e-02
1.259685079952366921e-02
1.259588193841942698e-02
1.259491279437436814e-02
1.259394336753525724e-02
1.259297365804883453e-02
1.259200366606182640e-02
1.259103339172094015e-02
1.259006283517287265e-02
1.258909199656428786e-02
1.258812087604183581e-02
1.258714947375214055e-02
1.258617778984180702e-02
1.258520582445742629e-02
1.258423357774557556e-02
1.258326104985281815e-02
1.258228824092569829e-02
1.258131515111074114e-02
1.258034178055444409e-02
1.257936812940327678e-02
1.257839419780367937e-02
1.257741998590207119e-02
1.257644549384484556e-02
1.257547072177838711e-02
1.257449566984905273e-02
1.257352033820318023e-02
1.257254472698708485e-02
1.257156883634706450e-02
1.257059266642939453e-02
1.256961621738031734e-02
1.256863948934604756e-02
1.256766248247276861e-02
1.256668519690664135e-02
1.256570763279380581e-02
1.256472979028037951e-02
1.256375166951246257e-02
1.256277327063613260e-02
1.256179459379743943e-02
1.256081563914241035e-02
1.255983640681705531e-02
1.255885689696736689e-02
1.255787710973932207e-02
1.255689704527887703e-02
1.255591670373196363e-02
1.255493608524448773e-02
1.255395518996232571e-02
1.255297401803133830e-02
1.255199256959736893e-02
1.255101084480623845e-02
1.255002884380374516e-02
1.254904656673566134e-02
1.254806401374773325e-02
1.254708118498567768e-02
1.254609808059518189e-02
1.254511470072190889e-02
1.254413104551149044e-02
1.254314711510953924e-02
1.254216290966164195e-02
1.254117842931335575e-02
1.254019367421020832e-02
1.253920864449770134e-02
1.253822334032130351e-02
1.253723776182645924e-02
1.253625190915859389e-02
1.253526578246309982e-02
1.253427938188534686e-02
1.253329270757067362e-02
1.253230575966439789e-02
1.253131853831181315e-02
1.253033104365818169e-02
1.252934327584873109e-02
1.252835523502866463e-02
1.252736692134316134e-02
1.252637833493737245e-02
1.252538947595642493e-02
1.252440034454542148e-02
1.252341094084944394e-02
1.252242126501354122e-02
1.252143131718273100e-02
1.252044109750200668e-02
1.251945060611634256e-02
1.251845984317069213e-02
1.251746880880998114e-02
1.251647750317910930e-02
1.251548592642295205e-02
1.251449407868635184e-02
1.251350196011413209e-02
1.251250957085109014e-02
1.251151691104200256e-02
1.251052398083162161e-02
1.250953078036468220e-02
1.250853730978590365e-02
1.250754356923997751e-02
1.250654955887157103e-02
1.250555527882531853e-02
1.250456072924582135e-02
1.250356591027765481e-02
1.250257082206536648e-02
1.250157546475347790e-02
1.250057983848648462e-02
1.249958394340885438e-02
1.249858777966504284e-02
1.249759134739947264e-02
1.249659464675653177e-02
1.249559767788057524e-02
1.249460044091591816e-02
1.249360293600684270e-02
1.249260516329761192e-02
1.249160712293245420e-02
1.249060881505557191e-02
1.248961023981113444e-02
1.248861139734328343e-02
1.248761228779613972e-02
1.248661291131380503e-02
1.248561326804035684e-02
1.248461335811984485e-02
1.248361318169628233e-02
1.248261273891365132e-02
1.248161202991590960e-02
1.248061105484698716e-02
1.247960981385078626e-02
1.247860830707117445e-02
1.247760653465197940e-02
1.247660449673700447e-02
1.247560219347002702e-02
1.247459962499478277e-02
1.247359679145498140e-02
1.247259369299430661e-02
1.247159032975641429e-02
1.247058670188493264e-02
1.246958280952345684e-02
1.246857865281555088e-02
1.246757423190475271e-02
1.246656954693456561e-02
1.246556459804847201e-02
1.246455938538992142e-02
1.246355390910233903e-02
1.246254816932912401e-02
1.246154216621363567e-02
1.246053589989920031e-02
1.245952937052911651e-02
1.245852257824665681e-02
1.245751552319506253e-02
1.245650820551754204e-02
1.245550062535727594e-02
1.245449278285741881e-02
1.245348467816109403e-02
1.245247631141140066e-02
1.245146768275141175e-02
1.245045879232416566e-02
1.244944964027266780e-02
1.244844022673989928e-02
1.244743055186882212e-02
1.244642061580236540e-02
1.244541041868342697e-02
1.244439996065487865e-02
1.244338924185957318e-02
1.244237826244032515e-02
1.244136702253991617e-02
1.244035552230109490e-02
1.243934376186658745e-02
1.243833174137909565e-02
1.243731946098128663e-02
1.243630692081579628e-02
1.243529412102523796e-02
1.243428106175219899e-02
1.243326774313924070e-02
1.243225416532890010e-02
1.243124032846369686e-02
1.243022623268611945e-02
1.242921187813863203e-02
1.242819726496367447e-02
1.242718239330364849e-02
1.242616726330093152e-02
1.242515187509786977e-02
1.242413622883677994e-02
1.242312032465994233e-02
1.242210416270960426e-02
1.242108774312798876e-02
1.242007106605729633e-02
1.241905413163970316e-02
1.241803694001736291e-02
1.241701949133241188e-02
1.241600178572695515e-02
1.241498382334307003e-02
1.241396560432279569e-02
1.241294712880815394e-02
1.241192839694115271e-02
1.241090940886378433e-02
1.240989016471800988e-02
1.240887066464576097e-02
1.240785090878894145e-02
1.240683089728942569e-02
1.240581063028907242e-02
1.240479010792971092e-02
1.240376933035313919e-02
1.240274829770112060e-02
1.240172701011539244e-02
1.240070546773766949e-02
1.239968367070963702e-02
1.239866161917295082e-02
1.239763931326924411e-02
1.239661675314012411e-02
1.239559393892716507e-02
1.239457087077191870e-02
1.239354754881591414e-02
1.239252397320065452e-02
1.239150014406760827e-02
1.239047606155821435e-02
1.238945172581389260e-02
1.238842713697603688e-02
1.238740229518602021e-02
1.238637720058518785e-02
1.238535185331485905e-02
1.238432625351632704e-02
1.238330040133085730e-02
1.238227429689969621e-02
1.238124794036405719e-02
1.238022133186512594e-02
1.237919447154405515e-02
1.237816735954197327e-02
1.237713999599999136e-02
1.237611238105919449e-02
1.237508451486064691e-02
1.237405639754539551e-02
1.237302802925446289e-02
1.237199941012885260e-02
1.237097054030954386e-02
1.236994141993748991e-02
1.236891204915361968e-02
1.236788242809885342e-02
1.236685255691409406e-02
1.236582243574021328e-02
1.236479206471805849e-02
1.236376144398845973e-02
1.236273057369222973e-02
1.236169945397015864e-02
1.236066808496302100e-02
1.235963646681157400e-02
1.235860459965655231e-02
1.235757248363866800e-02
1.235654011889860196e-02
1.235550750557701943e-02
1.235447464381456487e-02
1.235344153375186882e-02
1.235240817552953931e-02
1.235137456928816872e-02
1.235034071516832171e-02
1.234930661331054905e-02
1.234827226385538761e-02
1.234723766694334479e-02
1.234620282271491239e-02
1.234516773131055616e-02
1.234413239287072278e-02
1.234309680753583813e-02
1.234206097544630031e-02
1.234102489674248661e-02
1.233998857156475525e-02
1.233895200005343841e-02
1.233791518234885615e-02
1.233687811859130942e-02
1.233584080892107838e-02
1.233480325347843277e-02
1.233376545240362498e-02
1.233272740583689353e-02
1.233168911391845958e-02
1.233065057678852695e-02
1.232961179458728039e-02
1.232857276745489596e-02
1.232753349553154625e-02
1.232649397895738477e-02
1.232545421787254770e-02
1.232441421241715386e-02
1.232337396273130645e-02
1.232233346895509479e-02
1.232129273122859262e-02
1.232025174969185455e-02
1.231921052448492482e-02
1.231816905574783377e-02
1.231712734362058921e-02
1.231608538824318332e-02
1.231504318975559439e-02
1.231400074829778687e-02
1.231295806400970957e-02
1.231191513703128876e-02
1.231087196750244549e-02
1.230982855556308000e-02
1.230878490135307694e-02
1.230774100501230706e-02
1.230669686668063416e-02
1.230565248649791686e-02
1.230460786460400163e-02
1.230356300113871412e-02
1.230251789624186784e-02
1.230147255005325721e-02
1.230042696271266278e-02
1.229938113435986163e-02
1.229833506513462044e-02
1.229728875517669892e-02
1.229624220462585162e-02
1.229519541362182958e-02
1.229414838230437346e-02
1.229310111081321870e-02
1.229205359928809034e-02
1.229100584786869781e-02
1.228995785669473838e-02
1.228890962590589893e-02
1.228786115564185072e-02
1.228681244604226154e-02
1.228576349724678357e-02
1.228471430939505338e-02
1.228366488262669712e-02
1.228261521708132534e-02
1.228156531289853991e-02
1.228051517021793229e-02
1.227946478917909395e-02
1.227841416992160248e-02
1.227736331258503198e-02
1.227631221730894964e-02
1.227526088423291743e-02
1.227420931349649039e-02
1.227315750523922180e-02
1.227210545960065631e-02
1.227105317672032639e-02
1.227000065673775932e-02
1.226894789979246850e-02
1.226789490602396039e-02
1.226684167557174146e-02
1.226578820857531296e-02
1.226473450517416401e-02
1.226368056550776985e-02
1.226262638971559529e-02
1.226157197793709477e-02
1.226051733031171577e-02
1.225946244697889362e-02
1.225840732807805325e-02
1.225735197374861613e-02
1.225629638413000023e-02
1.225524055936162010e-02
1.225418449958287810e-02
1.225312820493316447e-02
1.225207167555186771e-02
1.225101491157836765e-02
1.224995791315203371e-02
1.224890068041222663e-02
1.224784321349830542e-02
1.224678551254962562e-02
1.224572757770554625e-02
1.224466940910541764e-02
1.224361100688858318e-02
1.224255237119438455e-02
1.224149350216216861e-02
1.224043439993128222e-02
1.223937506464107747e-02
1.223831549643091855e-02
1.223725569544016969e-02
1.223619566180819511e-02
1.223513539567435901e-02
1.223407489717801867e-02
1.223301416645852444e-02
1.223195320365523357e-02
1.223089200890750509e-02
1.222983058235469281e-02
1.222876892413614358e-02
1.222770703439120601e-02
1.222664491325923045e-02
1.222558256087956721e-02
1.222451997739157532e-02
1.222345716293461726e-02
1.222239411764805897e-02
1.222133084167126814e-02
1.222026733514360725e-02
1.221920359820443530e-02
1.221813963099310785e-02
1.221707543364897695e-02
1.221601100631138949e-02
1.221494634911970099e-02
1.221388146221326527e-02
1.221281634573144134e-02
1.221175099981359168e-02
1.221068542459907702e-02
1.220961962022726333e-02
1.220855358683752001e-02
1.220748732456922170e-02
1.220642083356174995e-02
1.220535411395449153e-02
1.220428716588683668e-02
1.220321998949817389e-02
1.220215258492789168e-02
1.220108495231537853e-02
1.220001709180002294e-02
1.219894900352121864e-02
1.219788068761836451e-02
1.219681214423087509e-02
1.219574337349817357e-02
1.219467437555969529e-02
1.219360515055488078e-02
1.219253569862317407e-02
1.219146601990402957e-02
1.219039611453691385e-02
1.218932598266129347e-02
1.218825562441665233e-02
1.218718503994248303e-02
1.218611422937827989e-02
1.218504319286354068e-02
1.218397193053777881e-02
1.218290044254051463e-02
1.218182872901128408e-02
1.218075679008962832e-02
1.217968462591509371e-02
1.217861223662723529e-02
1.217753962236562369e-02
1.217646678326983305e-02
1.217539371947944267e-02
1.217432043113404402e-02
1.217324691837325112e-02
1.217217318133668839e-02
1.217109922016399413e-02
1.217002503499481879e-02
1.216895062596881801e-02
1.216787599322566131e-02
1.216680113690502864e-02
1.216572605714661727e-02
1.216465075409013837e-02
1.216357522787530829e-02
1.216249947864184340e-02
1.216142350652946874e-02
1.216034731167792149e-02
1.215927089422695097e-02
1.215819425431632038e-02
1.215711739208580680e-02
1.215604030767520813e-02
1.215496300122433787e-02
1.215388547287302515e-02
1.215280772276110602e-02
1.215172975102842522e-02
1.215065155781483615e-02
1.214957314326020610e-02
1.214849450750443184e-02
1.214741565068741362e-02
1.214633657294907423e-02
1.214525727442935729e-02
1.214417775526822896e-02
1.214309801560567448e-02
1.214201805558170338e-02
1.214093787533634082e-02
1.213985747500962928e-02
1.213877685474163554e-02
1.213769601467244545e-02
1.213661495494216223e-02
1.213553367569090470e-02
1.213445217705881075e-02
1.213337045918603738e-02
1.213228852221277278e-02
1.213120636627922425e-02
1.213012399152562509e-02
1.212904139809221904e-02
1.212795858611927582e-02
1.212687555574707907e-02
1.212579230711592626e-02
1.212470884036612705e-02
1.212362515563801708e-02
1.212254125307195285e-02
1.212145713280831164e-02
1.212037279498749155e-02
1.211928823974989591e-02
1.211820346723595579e-02
1.211711847758612480e-02
1.211603327094087738e-02
1.211494784744069665e-02
1.211386220722607959e-02
1.211277635043755095e-02
1.211169027721565282e-02
1.211060398770095504e-02
1.210951748203405523e-02
1.210843076035557526e-02
1.210734382280615265e-02
1.210625666952643356e-02
1.210516930065708846e-02
1.210408171633881209e-02
1.210299391671231656e-02
1.210190590191832956e-02
1.210081767209760135e-02
1.209972922739091343e-02
1.209864056793907156e-02
1.209755169388291446e-02
1.209646260536329995e-02
1.209537330252110320e-02
1.209428378549722363e-02
1.209319405443258499e-02
1.209210410946813703e-02
1.209101395074484858e-02
1.208992357840371970e-02
1.208883299258577647e-02
1.208774219343206578e-02
1.208665118108365535e-02
1.208555995568162504e-02
1.208446851736708072e-02
1.208337686628114215e-02
1.208228500256494815e-02
1.208119292635965146e-02
1.208010063780642733e-02
1.207900813704647011e-02
1.207791542422100017e-02
1.207682249947126044e-02
1.207572936293851637e-02
1.207463601476406120e-02
1.207354245508921765e-02
1.207244868405534487e-02
1.207135470180383668e-02
1.207026050847610950e-02
1.206916610421359705e-02
1.206807148915776257e-02
1.206697666345010397e-02
1.206588162723214175e-02
1.206478638064541371e-02
1.206369092383147504e-02
1.206259525693190518e-02
1.206149938008831309e-02
1.206040329344232331e-02
1.205930699713558645e-02
1.205821049130978602e-02
1.205711377610664201e-02
1.205601685166790560e-02
1.205491971813536095e-02
1.205382237565080956e-02
1.205272482435607896e-02
1.205162706439302268e-02
1.205052909590351336e-02
1.204943091902945657e-02
1.204833253391279606e-02
1.204723394069550854e-02
1.204613513951959848e-02
1.204503613052710503e-02
1.204393691386010032e-02
1.204283748966068247e-02
1.204173785807098607e-02
1.204063801923318036e-02
1.203953797328946758e-02
1.203843772038209158e-02
1.203733726065333090e-02
1.203623659424549186e-02
1.203513572130090852e-02
1.203403464196195830e-02
1.203293335637104812e-02
1.203183186467062134e-02
1.203073016700315079e-02
1.202962826351113707e-02
1.202852615433711025e-02
1.202742383962363687e-02
1.202632131951331985e-02
1.202521859414879338e-02
1.202411566367272977e-02
1.202301252822783259e-02
1.202190918795682795e-02
1.202080564300247144e-02
1.201970189350756377e-02
1.201859793961494380e-02
1.201749378146747468e-02
1.201638941920805080e-02
1.201528485297960643e-02
1.201418008292511573e-02
1.201307510918759799e-02
1.201196993191011760e-02
1.201086455123577014e-02
1.200975896730769113e-02
1.200865318026905770e-02
1.200754719026308169e-02
1.200644099743301482e-02
1.200533460192214699e-02
1.200422800387381493e-02
1.200312120343139007e-02
1.200201420073828545e-02
1.200090699593794885e-02
1.199979958917386270e-02
1.199869198058955110e-02
1.199758417032857800e-02
1.199647615853454731e-02
1.199536794535110626e-02
1.199425953092192465e-02
1.199315091539070871e-02
1.199204209890121497e-02
1.199093308159724161e-02
1.198982386362262322e-02
1.198871444512123081e-02
1.198760482623698401e-02
1.198649500711383882e-02
1.198538498789578945e-02
1.198427476872687344e-02
1.198316434975117174e-02
1.198205373111279649e-02
1.198094291295591016e-02
1.197983189542471856e-02
1.197872067866347437e-02
1.197760926281647015e-02
1.197649764802803662e-02
1.197538583444254963e-02
1.197427382220442316e-02
1.197316161145810937e-02
1.197204920234809858e-02
1.197093659501892102e-02
1.196982378961514680e-02
1.196871078628138421e-02
1.196759758516228837e-02
1.196648418640254910e-02
1.196537059014690305e-02
1.196425679654012503e-02
1.196314280572704537e-02
1.196202861785255166e-02
1.196091423306157829e-02
1.195979965149910652e-02
1.195868487331015230e-02
1.195756989863978534e-02
1.195645472763312220e-02
1.195533936043532974e-02
1.195422379719162514e-02
1.195310803804727588e-02
1.195199208314759974e-02
1.195087593263796134e-02
1.194975958666378082e-02
1.194864304537052342e-02
1.194752630890369774e-02
1.194640937740886096e-02
1.194529225103160668e-02
1.194417492991758055e-02
1.194305741421247159e-02
1.194193970406201219e-02
1.194082179961199371e-02
1.193970370100825781e-02
1.193858540839668955e-02
1.193746692192321213e-02
1.193634824173380772e-02
1.193522936797451230e-02
1.193411030079140865e-02
1.193299104033063683e-02
1.193187158673839413e-02
1.193075194016091772e-02
1.192963210074450033e-02
1.192851206863548841e-02
1.192739184398027355e-02
1.192627142692529937e-02
1.192515081761706328e-02
1.192403001620211123e-02
1.192290902282704297e-02
1.192178783763851203e-02
1.192066646078323265e-02
1.191954489240796590e-02
1.191842313265952143e-02
1.191730118168475745e-02
1.191617903963058771e-02
1.191505670664398837e-02
1.191393418287198420e-02
1.191281146846164853e-02
1.191168856356010324e-02
1.191056546831453268e-02
1.190944218287217152e-02
1.190831870738029777e-02
1.190719504198624497e-02
1.190607118683740390e-02
1.190494714208122258e-02
1.190382290786520456e-02
1.190269848433690540e-02
1.190157387164393968e-02
1.190044906993398439e-02
1.189932407935477381e-02
1.189819890005409421e-02
1.189707353217979088e-02
1.189594797587976809e-02
1.189482223130198212e-02
1.189369629859444652e-02
1.189257017790523382e-02
1.189144386938247033e-02
1.189031737317433959e-02
1.188919068942908414e-02
1.188806381829500200e-02
1.188693675992045888e-02
1.188580951445388639e-02
1.188468208204377513e-02
1.188355446283866947e-02
1.188242665698717622e-02
1.188129866463795425e-02
1.188017048593972141e-02
1.187904212104125279e-02
1.187791357009138592e-02
1.187678483323901038e-02
1.187565591063308341e-02
1.187452680242262471e-02
1.187339750875671639e-02
1.187226802978449611e-02
1.187113836565516396e-02
1.187000851651798250e-02
1.186887848252227672e-02
1.186774826381743406e-02
1.186661786055289922e-02
1.186548727287818801e-02
1.186435650094287697e-02
1.186322554489661202e-02
1.186209440488909805e-02
1.186096308107009029e-02
1.185983157358941331e-02
1.185869988259696285e-02
1.185756800824270055e-02
1.185643595067665222e-02
1.185530371004889921e-02
1.185417128650959398e-02
1.185303868020894796e-02
1.185190589129723852e-02
1.185077291992480027e-02
1.184963976624203892e-02
1.184850643039942093e-02
1.184737291254747867e-02
1.184623921283681561e-02
1.184510533141810117e-02
1.184397126844207067e-02
1.184283702405952536e-02
1.184170259842133241e-02
1.184056799167843184e-02
1.183943320398182265e-02
1.183829823548256457e-02
1.183716308633178498e-02
1.183602775668068582e-02
1.183489224668052980e-02
1.183375655648265246e-02
1.183262068623845004e-02
1.183148463609937952e-02
1.183034840621695685e-02
1.182921199674277259e-02
1.182807540782848665e-02
1.182693863962582664e-02
1.182580169228658086e-02
1.182466456596260700e-02
1.182352726080582520e-02
1.182238977696822325e-02
1.182125211460184969e-02
1.182011427385882239e-02
1.181897625489131999e-02
1.181783805785159049e-02
1.181669968289194607e-02
1.181556113016477352e-02
1.181442239982252729e-02
1.181328349201773292e-02
1.181214440690298711e-02
1.181100514463095594e-02
1.180986570535436792e-02
1.180872608922601402e-02
1.180758629639874768e-02
1.180644632702549865e-02
1.180530618125925392e-02
1.180416585925307335e-02
1.180302536116008098e-02
1.180188468713347545e-02
1.180074383732653172e-02
1.179960281189259066e-02
1.179846161098505736e-02
1.179732023475739411e-02
1.179617868336312915e-02
1.179503695695586878e-02
1.179389505568928867e-02
1.179275297971714258e-02
1.179161072919325016e-02
1.179046830427150916e-02
1.178932570510590229e-02
1.178818293185049208e-02
1.178703998465941219e-02
1.178589686368687432e-02
1.178475356908716305e-02
1.178361010101462887e-02
1.178246645962368819e-02
1.178132264506882333e-02
1.178017865750458949e-02
1.177903449708561298e-02
1.177789016396659817e-02
1.177674565830232403e-02
1.177560098024763025e-02
1.177445612995742935e-02
1.177331110758670675e-02
1.177216591329052764e-02
1.177102054722403007e-02
1.176987500954242497e-02
1.176872930040099609e-02
1.176758341995510007e-02
1.176643736836016120e-02
1.176529114577168529e-02
1.176414475234525102e-02
1.176299818823651165e-02
1.176185145360118117e-02
1.176070454859503948e-02
1.175955747337393414e-02
1.175841022809379424e-02
1.175726281291062172e-02
1.175611522798049313e-02
1.175496747345955960e-02
1.175381954950405206e-02
1.175267145627026909e-02
1.175152319391458561e-02
1.175037476259344592e-02
1.174922616246336197e-02
1.174807739368093247e-02
1.174692845640283069e-02
1.174577935078580451e-02
1.174463007698668335e-02
1.174348063516237294e-02
1.174233102546986054e-02
1.174118124806620804e-02
1.174003130310856055e-02
1.173888119075412566e-02
1.173773091116017860e-02
1.173658046448407613e-02
1.173542985088323748e-02
1.173427907051515645e-02
1.173312812353740145e-02
1.173197701010761894e-02
1.173082573038353171e-02
1.172967428452292848e-02
1.172852267268366735e-02
1.172737089502368449e-02
1.172621895170099932e-02
1.172506684287370586e-02
1.172391456869996580e-02
1.172276212933801194e-02
1.172160952494615341e-02
1.172045675568277392e-02
1.171930382170634048e-02
1.171815072317540334e-02
1.171699746024858213e-02
1.171584403308458672e-02
1.171469044184220328e-02
1.171353668668028737e-02
1.171238276775777264e-02
1.171122868523367597e-02
1.171007443926709579e-02
1.170892003001721554e-02
1.170776545764329497e-02
1.170661072230466844e-02
1.170545582416074835e-02
1.170430076337101825e-02
1.170314554009503800e-02
1.170199015449245074e-02
1.170083460672297591e-02
1.169967889694640412e-02
1.169852302532259705e-02
1.169736699201149796e-02
1.169621079717312641e-02
1.169505444096758870e-02
1.169389792355506746e-02
1.169274124509581993e-02
1.169158440575017444e-02
1.169042740567853740e-02
1.168927024504139156e-02
1.168811292399929078e-02
1.168695544271286697e-02
1.168579780134282146e-02
1.168464000004993189e-02
1.168348203899505916e-02
1.168232391833914224e-02
1.168116563824319817e-02
1.168000719886832725e-02
1.167884860037570090e-02
1.167768984292656860e-02
1.167653092668226311e-02
1.167537185180418831e-02
1.167421261845381919e-02
1.167305322679271402e-02
1.167189367698250740e-02
1.167073396918491719e-02
1.166957410356173931e-02
1.166841408027483561e-02
1.166725389948615292e-02
1.166609356135771443e-02
1.166493306605162657e-02
1.166377241373007211e-02
1.166261160455531187e-02
1.166145063868968476e-02
1.166028951629560599e-02
1.165912823753557578e-02
1.165796680257217936e-02
1.165680521156807828e-02
1.165564346468601215e-02
1.165448156208880037e-02
1.165331950393933176e-02
1.165215729040056276e-02
1.165099492163552096e-02
1.164983239780731372e-02
1.164866971907911955e-02
1.164750688561418633e-02
1.164634389757583828e-02
1.164518075512748288e-02
1.164401745843260567e-02
1.164285400765477027e-02
1.164169040295760446e-02
1.164052664450482104e-02
1.163936273246020912e-02
1.163819866698763417e-02
1.163703444825103794e-02
1.163587007641443336e-02
1.163470555164191310e-02
1.163354087409764100e-02
1.163237604394585546e-02
1.163121106135087124e-02
1.163004592647707419e-02
1.162888063948893345e-02
1.162771520055100316e-02
1.162654960982790163e-02
1.162538386748432351e-02
1.162421797368504151e-02
1.162305192859489945e-02
1.162188573237881578e-02
1.162071938520179218e-02
1.161955288722890840e-02
1.161838623862532054e-02
1.161721943955626966e-02
1.161605249018706799e-02
1.161488539068310406e-02
1.161371814120984274e-02
1.161255074193283214e-02
1.161138319301771062e-02
1.161021549463019283e-02
1.160904764693607150e-02
1.160787965010120354e-02
1.160671150429151352e-02
1.160554320967300233e-02
1.160437476641174200e-02
1.160320617467387912e-02
1.160203743462564357e-02
1.160086854643332943e-02
1.159969951026330708e-02
1.159853032628203016e-02
1.159736099465603562e-02
1.159619151555193670e-02
1.159502188913642123e-02
1.159385211557624647e-02
1.159268219503824769e-02
1.159151212768933480e-02
1.159034191369649400e-02
1.158917155322678263e-02
1.158800104644733264e-02
1.158683039352535055e-02
1.158565959462811920e-02
1.158448864992299085e-02
1.158331755957739406e-02
1.158214632375883200e-02
1.158097494263488243e-02
1.157980341637320117e-02
1.157863174514151341e-02
1.157745992910761725e-02
1.157628796843938532e-02
1.157511586330475968e-02
1.157394361387175177e-02
1.157277122030844069e-02
1.157159868278298705e-02
1.157042600146362780e-02
1.156925317651868144e-02
1.156808020811653410e-02
1.156690709642565519e-02
1.156573384161458176e-02
1.156456044385192374e-02
1.156338690330636562e-02
1.156221322014666826e-02
1.156103939454166014e-02
1.155986542666024956e-02
1.155869131667141940e-02
1.155751706474422193e-02
1.155634267104777707e-02
1.155516813575127762e-02
1.155399345902398400e-02
1.155281864103523820e-02
1.155164368195446198e-02
1.155046858195114302e-02
1.154929334119484882e-02
1.154811795985522145e-02
1.154694243810197932e-02
1.154576677610490848e-02
1.154459097403385918e-02
1.154341503205874760e-02
1.154223895034955753e-02
1.154106272907635955e-02
1.153988636840929012e-02
1.153870986851855858e-02
1.153753322957444191e-02
1.153635645174728996e-02
1.153517953520752370e-02
1.153400248012563002e-02
1.153282528667216866e-02
1.153164795501776529e-02
1.153047048533312538e-02
1.152929287778902030e-02
1.152811513255628563e-02
1.152693724980583499e-02
1.152575922970865488e-02
1.152458107243579770e-02
1.152340277815838178e-02
1.152222434704758963e-02
1.152104577927467489e-02
1.151986707501096406e-02
1.151868823442786863e-02
1.151750925769687815e-02
1.151633014498955332e-02
1.151515089647753114e-02
1.151397151233250760e-02
1.151279199272624461e-02
1.151161233783058041e-02
1.151043254781742436e-02
1.150925262285876390e-02
1.150807256312665582e-02
1.150689236879322806e-02
1.150571204003067276e-02
1.150453157701125141e-02
1.150335097990729492e-02
1.150217024889120358e-02
1.150098938413545574e-02
1.149980838581258699e-02
1.149862725409520926e-02
1.149744598915601081e-02
1.149626459116774232e-02
1.149508306030321697e-02
1.149390139673532422e-02
1.149271960063702296e-02
1.149153767218133448e-02
1.149035561154135646e-02
1.148917341889025417e-02
1.148799109440125366e-02
1.148680863824765030e-02
1.148562605060281412e-02
1.148444333164018449e-02
1.148326048153327714e-02
1.148207750045566675e-02
1.148089438858099741e-02
1.147971114608298260e-02
1.147852777313540865e-02
1.147734426991212260e-02
1.147616063658703917e-02
1.147497687333414590e-02
1.147379298032749802e-02
1.147260895774121145e-02
1.147142480574946805e-02
1.147024052452651731e-02
1.146905611424668334e-02
1.146787157508436308e-02
1.146668690721401943e-02
1.146550211081018809e-02
1.146431718604746554e-02
1.146313213310051586e-02
1.146194695214408123e-02
1.146076164335297493e-02
1.145957620690207616e-02
1.145839064296633701e-02
1.145720495172077545e-02
1.145601913334047366e-02
1.145483318800057798e-02
1.145364711587630070e-02
1.145246091714291307e-02
1.145127459197575054e-02
1.145008814055021792e-02
1.144890156304177731e-02
1.144771485962595668e-02
1.144652803047835690e-02
1.144534107577464821e-02
1.144415399569056850e-02
1.144296679040192159e-02
1.144177946008457722e-02
1.144059200491446583e-02
1.143940442506758033e-02
1.143821672071997086e-02
1.143702889204775003e-02
1.143584093922708593e-02
1.143465286243421607e-02
1.143346466184544039e-02
1.143227633763712822e-02
1.143108788998571136e-02
1.142989931906768925e-02
1.142871062505962203e-02
1.142752180813813925e-02
1.142633286847993292e-02
1.142514380626175573e-02
1.142395462166042111e-02
1.142276531485280494e-02
1.142157588601584381e-02
1.142038633532653329e-02
1.141919666296192792e-02
1.141800686909913605e-02
1.141681695391532844e-02
1.141562691758772966e-02
1.141443676029362843e-02
1.141324648221037942e-02
1.141205608351539280e-02
1.141086556438615160e-02
1.140967492500019609e-02
1.140848416553511858e-02
1.140729328616857038e-02
1.140610228707825483e-02
1.140491116844193423e-02
1.140371993043743683e-02
1.140252857324264811e-02
1.140133709703551081e-02
1.140014550199402663e-02
1.139895378829626146e-02
1.139776195612034540e-02
1.139657000564446576e-02
1.139537793704686539e-02
1.139418575050584609e-02
1.139299344619976867e-02
1.139180102430705638e-02
1.139060848500617409e-02
1.138941582847564221e-02
1.138822305489403143e-02
1.138703016443996276e-02
1.138583715729211271e-02
1.138464403362921332e-02
1.138345079363005385e-02
1.138225743747347390e-02
1.138106396533836683e-02
1.137987037740367975e-02
1.137867667384842227e-02
1.137748285485166468e-02
1.137628892059252411e-02
1.137509487125017323e-02
1.137390070700384712e-02
1.137270642803283639e-02
1.137151203451647850e-02
1.137031752663416294e-02
1.136912290456534684e-02
1.136792816848954286e-02
1.136673331858631050e-02
1.136553835503526823e-02
1.136434327801609349e-02
1.136314808770852447e-02
1.136195278429236177e-02
1.136075736794745113e-02
1.135956183885368162e-02
1.135836619719098918e-02
1.135717044313936351e-02
1.135597457687883942e-02
1.135477859858950896e-02
1.135358250845151448e-02
1.135238630664504519e-02
1.135118999335034407e-02
1.134999356874770438e-02
1.134879703301747665e-02
1.134760038634005652e-02
1.134640362889588298e-02
1.134520676086545055e-02
1.134400978242931096e-02
1.134281269376806282e-02
1.134161549506236370e-02
1.134041818649291281e-02
1.133922076824046485e-02
1.133802324048582312e-02
1.133682560340984295e-02
1.133562785719343172e-02
1.133443000201754362e-02
1.133323203806318839e-02
1.133203396551141912e-02
1.133083578454334439e-02
1.132963749534012313e-02
1.132843909808296280e-02
1.132724059295311080e-02
1.132604198013187173e-02
1.132484325980059187e-02
1.132364443214067123e-02
1.132244549733355844e-02
1.132124645556075067e-02
1.132004730700380060e-02
1.131884805184432165e-02
1.131764869026398099e-02
1.131644922244449958e-02
1.131524964856765215e-02
1.131404996881526896e-02
1.131285018336922708e-02
1.131165029241144350e-02
1.131045029612387509e-02
1.130925019468853078e-02
1.130804998828745939e-02
1.130684967710274963e-02
1.130564926131654227e-02
1.130444874111101797e-02
1.130324811666839728e-02
1.130204738817094587e-02
1.130084655580096062e-02
1.129964561974077658e-02
1.129844458017276697e-02
1.129724343727935704e-02
1.129604219124301714e-02
1.129484084224625581e-02
1.129363939047162667e-02
1.129243783610172150e-02
1.129123617931916852e-02
1.129003442030663933e-02
1.128883255924685060e-02
1.128763059632256933e-02
1.128642853171660590e-02
1.128522636561181576e-02
1.128402409819109949e-02
1.128282172963740795e-02
1.128161926013373367e-02
1.128041668986311079e-02
1.127921401900862375e-02
1.127801124775340037e-02
1.127680837628061011e-02
1.127560540477346579e-02
1.127440233341522359e-02
1.127319916238917613e-02
1.127199589187865940e-02
1.127079252206705622e-02
1.126958905313780492e-02
1.126838548527438720e-02
1.126718181866033161e-02
1.126597805347920832e-02
1.126477418991462393e-02
1.126357022815022493e-02
1.126236616836969774e-02
1.126116201075677732e-02
1.125995775549524722e-02
1.125875340276893261e-02
1.125754895276169162e-02
1.125634440565742057e-02
1.125513976164005739e-02
1.125393502089358164e-02
1.125273018360201105e-02
1.125152524994940499e-02
1.125032022011986446e-02
1.124911509429751995e-02
1.124790987266654704e-02
1.124670455541115603e-02
1.124549914271560404e-02
1.124429363476419329e-02
1.124308803174127111e-02
1.124188233383122473e-02
1.124067654121848128e-02
1.123947065408750605e-02
1.123826467262280249e-02
1.123705859700890528e-02
1.123585242743039420e-02
1.123464616407189413e-02
1.123343980711807508e-02
1.123223335675364518e-02
1.123102681316335769e-02
1.122982017653200403e-02
1.122861344704441204e-02
1.122740662488544601e-02
1.122619971024000837e-02
1.122499270329303800e-02
1.122378560422951713e-02
1.122257841323446616e-02
1.122137113049295060e-02
1.122016375619007932e-02
1.121895629051099588e-02
1.121774873364088550e-02
1.121654108576496285e-02
1.121533334706846692e-02
1.121412551773666617e-02
1.121291759795487071e-02
1.121170958790842706e-02
1.121050148778271818e-02
1.120929329776315306e-02
1.120808501803517536e-02
1.120687664878425999e-02
1.120566819019592347e-02
1.120445964245571531e-02
1.120325100574922836e-02
1.120204228026208323e-02
1.120083346617993351e-02
1.119962456368847614e-02
1.119841557297344276e-02
1.119720649422060489e-02
1.119599732761577572e-02
1.119478807334480137e-02
1.119357873159356094e-02
1.119236930254796127e-02
1.119115978639393695e-02
1.118995018331745729e-02
1.118874049350451760e-02
1.118753071714114443e-02
1.118632085441339033e-02
1.118511090550733562e-02
1.118390087060910053e-02
1.118269074990483648e-02
1.118148054358073483e-02
1.118027025182300599e-02
1.117905987481789855e-02
1.117784941275169405e-02
1.117663886581070701e-02
1.117542823418129008e-02
1.117421751804982891e-02
1.117300671760274901e-02
1.117179583302649847e-02
1.117058486450754964e-02
1.116937381223240787e-02
1.116816267638760102e-02
1.116695145715968125e-02
1.116574015473523369e-02
1.116452876930086775e-02
1.116331730104322406e-02
1.116210575014897968e-02
1.116089411680484811e-02
1.115968240119756712e-02
1.115847060351390571e-02
1.115725872394065718e-02
1.115604676266465124e-02
1.115483471987275231e-02
1.115362259575186123e-02
1.115241039048890312e-02
1.115119810427082740e-02
1.114998573728460604e-02
1.114877328971724570e-02
1.114756076175578946e-02
1.114634815358731164e-02
1.114513546539890217e-02
1.114392269737768566e-02
1.114270984971080757e-02
1.114149692258544801e-02
1.114028391618880967e-02
1.113907083070811953e-02
1.113785766633063404e-02
1.113664442324363568e-02
1.113543110163443296e-02
1.113421770169035693e-02
1.113300422359876814e-02
1.113179066754705314e-02
1.113057703372262626e-02
1.112936332231292437e-02
1.112814953350541904e-02
1.112693566748760958e-02
1.112572172444702134e-02
1.112450770457120569e-02
1.112329360804774868e-02
1.112207943506425718e-02
1.112086518580836410e-02
1.111965086046772834e-02
1.111843645923002270e-02
1.111722198228293386e-02
1.111600742981416930e-02
1.111479280201146079e-02
1.111357809906257134e-02
1.111236332115528476e-02
1.111114846847741089e-02
1.110993354121678559e-02
1.110871853956126379e-02
1.110750346369872472e-02
1.110628831381707364e-02
1.110507309010424354e-02
1.110385779274817956e-02
1.110264242193685635e-02
1.110142697785827283e-02
1.110021146070045567e-02
1.109899587065144889e-02
1.109778020789931215e-02
1.109656447263213108e-02
1.109534866503801044e-02
1.109413278530507058e-02
1.109291683362145613e-02
1.109170081017533775e-02
1.109048471515491560e-02
1.108926854874840717e-02
1.108805231114404904e-02
1.108683600253010035e-02
1.108561962309484970e-02
1.108440317302661002e-02
1.108318665251371155e-02
1.108197006174450189e-02
1.108075340090734426e-02
1.107953667019062442e-02
1.107831986978274549e-02
1.107710299987213313e-02
1.107588606064724250e-02
1.107466905229653915e-02
1.107345197500851121e-02
1.107223482897166759e-02
1.107101761437454673e-02
1.106980033140570439e-02
1.106858298025371196e-02
1.106736556110716856e-02
1.106614807415469415e-02
1.106493051958493817e-02
1.106371289758658130e-02
1.106249520834832675e-02
1.106127745205889856e-02
1.106005962890703465e-02
1.105884173908150067e-02
1.105762378277107619e-02
1.105640576016456850e-02
1.105518767145080745e-02
1.105396951681865240e-02
1.105275129645698177e-02
1.105153301055469481e-02
1.105031465930071330e-02
1.104909624288397813e-02
1.104787776149344404e-02
1.104665921531808835e-02
1.104544060454691438e-02
1.104422192936894455e-02
1.104300318997321513e-02
1.104178438654878323e-02
1.104056551928471984e-02
1.103934658837011674e-02
1.103812759399408483e-02
1.103690853634575232e-02
1.103568941561426653e-02
1.103447023198879558e-02
1.103325098565852841e-02
1.103203167681267478e-02
1.103081230564047048e-02
1.102959287233117557e-02
1.102837337707407613e-02
1.102715382005848427e-02
1.102593420147372251e-02
1.102471452150912551e-02
1.102349478035404180e-02
1.102227497819783901e-02
1.102105511522990210e-02
1.101983519163964031e-02
1.101861520761648026e-02
1.101739516334987457e-02
1.101617505902928972e-02
1.101495489484421129e-02
1.101373467098413356e-02
1.101251438763856637e-02
1.101129404499703174e-02
1.101007364324907076e-02
1.100885318258424186e-02
1.100763266319211391e-02
1.100641208526227308e-02
1.100519144898432292e-02
1.100397075454788258e-02
1.100275000214257989e-02
1.100152919195805483e-02
1.100030832418396644e-02
1.099908739900999632e-02
1.099786641662584864e-02
1.099664537722123102e-02
1.099542428098586148e-02
1.099420312810948236e-02
1.099298191878184464e-02
1.099176065319271492e-02
1.099053933153187716e-02
1.098931795398912399e-02
1.098809652075426191e-02
1.098687503201711303e-02
1.098565348796751683e-02
1.098443188879531622e-02
1.098321023469035589e-02
1.098198852584249437e-02
1.098076676244160582e-02
1.097954494467758696e-02
1.097832307274034316e-02
1.097710114681980237e-02
1.097587916710590639e-02
1.097465713378861264e-02
1.097343504705788723e-02
1.097221290710370493e-02
1.097099071411604919e-02
1.096976846828492426e-02
1.096854616980034829e-02
1.096732381885236023e-02
1.096610141563100771e-02
1.096487896032635224e-02
1.096365645312846748e-02
1.096243389422744269e-02
1.096121128381337580e-02
1.095998862207638556e-02
1.095876590920660462e-02
1.095754314539417948e-02
1.095632033082927746e-02
1.095509746570207284e-02
1.095387455020275375e-02
1.095265158452152048e-02
1.095142856884858545e-02
1.095020550337416285e-02
1.094898238828848069e-02
1.094775922378177745e-02
1.094653601004430543e-02
1.094531274726631871e-02
1.094408943563809043e-02
1.094286607534990588e-02
1.094164266659206942e-02
1.094041920955489064e-02
1.093919570442869298e-02
1.093797215140381897e-02
1.093674855067060941e-02
1.093552490241941205e-02
1.093430120684058676e-02
1.093307746412450383e-02
1.093185367446153876e-02
1.093062983804207397e-02
1.092940595505649710e-02
1.092818202569520621e-02
1.092695805014861146e-02
1.092573402860712826e-02
1.092450996126118415e-02
1.092328584830121879e-02
1.092206168991767534e-02
1.092083748630100215e-02
1.091961323764166492e-02
1.091838894413013107e-02
1.091716460595688019e-02
1.091594022331239706e-02
1.091471579638717687e-02
1.091349132537172521e-02
1.091226681045655809e-02
1.091104225183220366e-02
1.090981764968919354e-02
1.090859300421806108e-02
1.090736831560935177e-02
1.090614358405362153e-02
1.090491880974144012e-02
1.090369399286338602e-02
1.090246913361005675e-02
1.090124423217204812e-02
1.090001928873996460e-02
1.089879430350442456e-02
1.089756927665606195e-02
1.089634420838552116e-02
1.089511909888345002e-02
1.089389394834050506e-02
1.089266875694735667e-02
1.089144352489468393e-02
1.089021825237317630e-02
1.088899293957353194e-02
1.088776758668645595e-02
1.088654219390265514e-02
1.088531676141283808e-02
1.088409128940772026e-02
1.088286577807802587e-02
1.088164022761448774e-02
1.088041463820785086e-02
1.087918901004886717e-02
1.087796334332829726e-02
1.087673763823690173e-02
1.087551189496544814e-02
1.087428611370470401e-02
1.087306029464543689e-02
1.087183443797843513e-02
1.087060854389449403e-02
1.086938261258440716e-02
1.086815664423897328e-02
1.086693063904898421e-02
1.086570459720523178e-02
1.086447851889850609e-02
1.086325240431960069e-02
1.086202625365931436e-02
1.086080006710844585e-02
1.085957384485779394e-02
1.085834758709815565e-02
1.085712129402033148e-02
1.085589496581511847e-02
1.085466860267332405e-02
1.085344220478575393e-02
1.085221577234321902e-02
1.085098930553653369e-02
1.084976280455651754e-02
1.084853626959399533e-02
1.084730970083978667e-02
1.084608309848471980e-02
1.084485646271961257e-02
1.084362979373528629e-02
1.084240309172256576e-02
1.084117635687227230e-02
1.083994958937522200e-02
1.083872278942222579e-02
1.083749595720408417e-02
1.083626909291159936e-02
1.083504219673556840e-02
1.083381526886678312e-02
1.083258830949602840e-02
1.083136131881409087e-02
1.083013429701174674e-02
1.082890724427977222e-02
1.082768016080894180e-02
1.082645304679002475e-02
1.082522590241378514e-02
1.082399872787098705e-02
1.082277152335238760e-02
1.082154428904874392e-02
1.082031702515081316e-02
1.081908973184933856e-02
1.081786240933504777e-02
1.081663505779865975e-02
1.081540767743087959e-02
1.081418026842239678e-02
1.081295283096389906e-02
1.081172536524606029e-02
1.081049787145954566e-02
1.080927034979500996e-02
1.080804280044310624e-02
1.080681522359447887e-02
1.080558761943976875e-02
1.080435998816960813e-02
1.080313232997462750e-02
1.080190464504544520e-02
1.080067693357268134e-02
1.079944919574694732e-02
1.079822143175883722e-02
1.079699364179893296e-02
1.079576582605780606e-02
1.079453798472601589e-02
1.079331011799411662e-02
1.079208222605265895e-02
1.079085430909218317e-02
1.078962636730322437e-02
1.078839840087631070e-02
1.078717041000195644e-02
1.078594239487066890e-02
1.078471435567293635e-02
1.078348629259923488e-02
1.078225820584002674e-02
1.078103009558576027e-02
1.077980196202687688e-02
1.077857380535380410e-02
1.077734562575696255e-02
1.077611742342676586e-02
1.077488919855361903e-02
1.077366095132791662e-02
1.077243268194003761e-02
1.077120439058035402e-02
1.076997607743922225e-02
1.076874774270697617e-02
1.076751938657394096e-02
1.076629100923042447e-02
1.076506261086672411e-02
1.076383419167311999e-02
1.076260575183987482e-02
1.076137729155724788e-02
1.076014881101546722e-02
1.075892031040474352e-02
1.075769178991527707e-02
1.075646324973725601e-02
1.075523469006085635e-02
1.075400611107623673e-02
1.075277751297354367e-02
1.075154889594291674e-02
1.075032026017448163e-02
1.074909160585835188e-02
1.074786293318461504e-02
1.074663424234333781e-02
1.074540553352455914e-02
1.074417680691829718e-02
1.074294806271454926e-02
1.074171930110328320e-02
1.074049052227444428e-02
1.073926172641795004e-02
1.073803291372370412e-02
1.073680408438158762e-02
1.073557523858146602e-02
1.073434637651318226e-02
1.073311749836656885e-02
1.073188860433143578e-02
1.073065969459756873e-02
1.072943076935473430e-02
1.072820182879266268e-02
1.072697287310105455e-02
1.072574390246959844e-02
1.072451491708795689e-02
1.072328591714576812e-02
1.072205690283264436e-02
1.072082787433817179e-02
1.071959883185191753e-02
1.071836977556342788e-02
1.071714070566222310e-02
1.071591162233779745e-02
1.071468252577962438e-02
1.071345341617714955e-02
1.071222429371979784e-02
1.071099515859696635e-02
1.070976601099802444e-02
1.070853685111230677e-02
1.070730767912911850e-02
1.070607849523773358e-02
1.070484929962739647e-02
1.070362009248731691e-02
1.070239087400667519e-02
1.070116164437461860e-02
1.069993240378026324e-02
1.069870315241269569e-02
1.069747389046097827e-02
1.069624461811414205e-02
1.069501533556118517e-02
1.069378604299106757e-02
1.069255674059272493e-02
1.069132742855505823e-02
1.069009810706693549e-02
1.068886877631719176e-02
1.068763943649462221e-02
1.068641008778798904e-02
1.068518073038602495e-02
1.068395136447743490e-02
1.068272199025089783e-02
1.068149260789506318e-02
1.068026321759855089e-02
1.067903381954993930e-02
1.067780441393777202e-02
1.067657500095056319e-02
1.067534558077678879e-02
1.067411615360488834e-02
1.067288671962325110e-02
1.067165727902022812e-02
1.067042783198412538e-02
1.066919837870321762e-02
1.066796891936575530e-02
1.066673945415995590e-02
1.066550998327400399e-02
1.066428050689603203e-02
1.066305102521413264e-02
1.066182153841634984e-02
1.066059204669069470e-02
1.065936255022513143e-02
1.065813304920758958e-02
1.065690354382596398e-02
1.065567403426809917e-02
1.065444452072179110e-02
1.065321500337479584e-02
1.065198548241481913e-02
1.065075595802952857e-02
1.064952643040654838e-02
1.064829689973346809e-02
1.064706736619783212e-02
1.064583782998713805e-02
1.064460829128884012e-02
1.064337875029034222e-02
1.064214920717899450e-02
1.064091966214209331e-02
1.063969011536688991e-02
1.063846056704058352e-02
1.063723101735031956e-02
1.063600146648318798e-02
1.063477191462623185e-02
1.063354236196644570e-02
1.063231280869076679e-02
1.063108325498607169e-02
1.062985370103919011e-02
1.062862414703690146e-02
1.062739459316591924e-02
1.062616503961289274e-02
1.062493548656442272e-02
1.062370593420706825e-02
1.062247638272732948e-02
1.062124683231165274e-02
1.062001728314642714e-02
1.061878773541798972e-02
1.061755818931262377e-02
1.061632864501655359e-02
1.061509910271594449e-02
1.061386956259690803e-02
1.061264002484550023e-02
1.061141048964771641e-02
1.061018095718950505e-02
1.060895142765675217e-02
1.060772190123528136e-02
1.060649237811085374e-02
1.060526285846917494e-02
1.060403334249588637e-02
1.060280383037657224e-02
1.060157432229674561e-02
1.060034481844185361e-02
1.059911531899727921e-02
1.059788582414834118e-02
1.059665633408030626e-02
1.059542684897838219e-02
1.059419736902771081e-02
1.059296789441337323e-02
1.059173842532038987e-02
1.059050896193372213e-02
1.058927950443826205e-02
1.058805005301883748e-02
1.058682060786022422e-02
1.058559116914713216e-02
1.058436173706419833e-02
1.058313231179599384e-02
1.058190289352702908e-02
1.058067348244174505e-02
1.057944407872451684e-02
1.057821468255965534e-02
1.057698529413140728e-02
1.057575591362395345e-02
1.057452654122141046e-02
1.057329717710782900e-02
1.057206782146719731e-02
1.057083847448341690e-02
1.056960913634031642e-02
1.056837980722165511e-02
1.056715048731112459e-02
1.056592117679233493e-02
1.056469187584881293e-02
1.056346258466400907e-02
1.056223330342129750e-02
1.056100403230398124e-02
1.055977477149529220e-02
1.055854552117839289e-02
1.055731628153636775e-02
1.055608705275222145e-02
1.055485783500888577e-02
1.055362862848922834e-02
1.055239943337603174e-02
1.055117024985199707e-02
1.054994107809975601e-02
1.054871191830187259e-02
1.054748277064083105e-02
1.054625363529903409e-02
1.054502451245880809e-02
1.054379540230239616e-02
1.054256630501197202e-02
1.054133722076963306e-02
1.054010814975740035e-02
1.053887909215720994e-02
1.053765004815091812e-02
1.053642101792030307e-02
1.053519200164706668e-02
1.053396299951282408e-02
1.053273401169910195e-02
1.053150503838733328e-02
1.053027607975886952e-02
1.052904713599497541e-02
1.052781820727682199e-02
1.052658929378549012e-02
1.052536039570197736e-02
1.052413151320719803e-02
1.052290264648197797e-02
1.052167379570705975e-02
1.052044496106309228e-02
1.051921614273063944e-02
1.051798734089018188e-02
1.051675855572210307e-02
1.051552978740669976e-02
1.051430103612417330e-02
1.051307230205463308e-02
1.051184358537809484e-02
1.051061488627448408e-02
1.050938620492363092e-02
1.050815754150527179e-02
1.050692889619904771e-02
1.050570026918450257e-02
1.050447166064108311e-02
1.050324307074814584e-02
1.050201449968494322e-02
1.050078594763064442e-02
1.049955741476431281e-02
1.049832890126492502e-02
1.049710040731136572e-02
1.049587193308241378e-02
1.049464347875675267e-02
1.049341504451296349e-02
1.049218663052951979e-02
1.049095823698479452e-02
1.048972986405705826e-02
1.048850151192447754e-02
1.048727318076512344e-02
1.048604487075696472e-02
1.048481658207786431e-02
1.048358831490558626e-02
1.048236006941778362e-02
1.048113184579199664e-02
1.047990364420566672e-02
1.047867546483613639e-02
1.047744730786064060e-02
1.047621917345630677e-02
1.047499106180015474e-02
1.047376297306909683e-02
1.047253490743992911e-02
1.047130686508934358e-02
1.047007884619392294e-02
1.046885085093014062e-02
1.046762287947436421e-02
1.046639493200285029e-02
1.046516700869174615e-02
1.046393910971709154e-02
1.046271123525480476e-02
1.046148338548068615e-02
1.046025556057042331e-02
1.045902776069958934e-02
1.045779998604364110e-02
1.045657223677792617e-02
1.045534451307767072e-02
1.045411681511799161e-02
1.045288914307389641e-02
1.045166149712026954e-02
1.045043387743187571e-02
1.044920628418335301e-02
1.044797871754921462e-02
1.044675117770384881e-02
1.044552366482152592e-02
1.044429617907638962e-02
1.044306872064246217e-02
1.044184128969365133e-02
1.044061388640374170e-02
1.043938651094638084e-02
1.043815916349509487e-02
1.043693184422327981e-02
1.043570455330419984e-02
1.043447729091099598e-02
1.043325005721667913e-02
1.043202285239413357e-02
1.043079567661610307e-02
1.042956853005519956e-02
1.042834141288391005e-02
1.042711432527458799e-02
1.042588726739946542e-02
1.042466023943063903e-02
1.042343324154007024e-02
1.042220627389959207e-02
1.042097933668091440e-02
1.041975243005560832e-02
1.041852555419510787e-02
1.041729870927072220e-02
1.041607189545363035e-02
1.041484511291487260e-02
1.041361836182535562e-02
1.041239164235585254e-02
1.041116495467700465e-02
1.040993829895931790e-02
1.040871167537315775e-02
1.040748508408874742e-02
1.040625852527618002e-02
1.040503199910540640e-02
1.040380550574622996e-02
1.040257904536831708e-02
1.040135261814119881e-02
1.040012622423426049e-02
1.039889986381674694e-02
1.039767353705776075e-02
1.039644724412627091e-02
1.039522098519110246e-02
1.039399476042093817e-02
1.039276856998432030e-02
1.039154241404965061e-02
1.039031629278518339e-02
1.038909020635902375e-02
1.038786415493913109e-02
1.038663813869332084e-02
1.038541215778926614e-02
1.038418621239449793e-02
1.038296030267639794e-02
1.038173442880220392e-02
1.038050859093900789e-02
1.037928278925374925e-02
1.037805702391321819e-02
1.037683129508405744e-02
1.037560560293275883e-02
1.037437994762566151e-02
1.037315432932895548e-02
1.037192874820868152e-02
1.037070320443073991e-02
1.036947769816088001e-02
1.036825222956469679e-02
1.036702679880763256e-02
1.036580140605497524e-02
1.036457605147186357e-02
1.036335073522327670e-02
1.036212545747404457e-02
1.036090021838883928e-02
1.035967501813218547e-02
1.035844985686845687e-02
1.035722473476187108e-02
1.035599965197648957e-02
1.035477460867621768e-02
1.035354960502480812e-02
1.035232464118585743e-02
1.035109971732280608e-02
1.034987483359893316e-02
1.034864999017736167e-02
1.034742518722105674e-02
1.034620042489283083e-02
1.034497570335534203e-02
1.034375102277108882e-02
1.034252638330240837e-02
1.034130178511147649e-02
1.034007722836030423e-02
1.033885271321074648e-02
1.033762823982450028e-02
1.033640380836309443e-02
1.033517941898790329e-02
1.033395507186014167e-02
1.033273076714086476e-02
1.033150650499096816e-02
1.033028228557118615e-02
1.032905810904208646e-02
1.032783397556407551e-02
1.032660988529739490e-02
1.032538583840211972e-02
1.032416183503816372e-02
1.032293787536527237e-02
1.032171395954303503e-02
1.032049008773088146e-02
1.031926626008807316e-02
1.031804247677371202e-02
1.031681873794673861e-02
1.031559504376592176e-02
1.031437139438987419e-02
1.031314778997704205e-02
1.031192423068570153e-02
1.031070071667396573e-02
1.030947724809977428e-02
1.030825382512089682e-02
1.030703044789493643e-02
1.030580711657932622e-02
1.030458383133132753e-02
1.030336059230803174e-02
1.030213739966636712e-02
1.030091425356309022e-02
1.029969115415479107e-02
1.029846810159788968e-02
1.029724509604862913e-02
1.029602213766308422e-02
1.029479922659717189e-02
1.029357636300663043e-02
1.029235354704702114e-02
1.029113077887373710e-02
1.028990805864200310e-02
1.028868538650687219e-02
1.028746276262322741e-02
1.028624018714577835e-02
1.028501766022906806e-02
1.028379518202746611e-02
1.028257275269517206e-02
1.028135037238621374e-02
1.028012804125444553e-02
1.027890575945354656e-02
1.027768352713702253e-02
1.027646134445821605e-02
1.027523921157029799e-02
1.027401712862626749e-02
1.027279509577894677e-02
1.027157311318098801e-02
1.027035118098486993e-02
1.026912929934289780e-02
1.026790746840720511e-02
1.026668568832975366e-02
1.026546395926233000e-02
1.026424228135654725e-02
1.026302065476384327e-02
1.026179907963548771e-02
1.026057755612257323e-02
1.025935608437601732e-02
1.025813466454656570e-02
1.025691329678478370e-02
1.025569198124106490e-02
1.025447071806562423e-02
1.025324950740850311e-02
1.025202834941956430e-02
1.025080724424850230e-02
1.024958619204483119e-02
1.024836519295788985e-02
1.024714424713684888e-02
1.024592335473069847e-02
1.024470251588825188e-02
1.024348173075814196e-02
1.024226099948882286e-02
1.024104032222857008e-02
1.023981969912548216e-02
1.023859913032748419e-02
1.023737861598232775e-02
1.023615815623759619e-02
1.023493775124070110e-02
1.023371740113888061e-02
1.023249710607919416e-02
1.023127686620852253e-02
1.023005668167357302e-02
1.022883655262087424e-02
1.022761647919677962e-02
1.022639646154746562e-02
1.022517649981893005e-02
1.022395659415699896e-02
1.022273674470731801e-02
1.022151695161535589e-02
1.022029721502640265e-02
1.021907753508556789e-02
1.021785791193777736e-02
1.021663834572777291e-02
1.021541883660011946e-02
1.021419938469921018e-02
1.021297999016925785e-02
1.021176065315429655e-02
1.021054137379817997e-02
1.020932215224459004e-02
1.020810298863702482e-02
1.020688388311880371e-02
1.020566483583306913e-02
1.020444584692278486e-02
1.020322691653073599e-02
1.020200804479953066e-02
1.020078923187159661e-02
1.019957047788918464e-02
1.019835178299437033e-02
1.019713314732904538e-02
1.019591457103492804e-02
1.019469605425356480e-02
1.019347759712632348e-02
1.019225919979439496e-02
1.019104086239879491e-02
1.018982258508036032e-02
1.018860436797974951e-02
1.018738621123744213e-02
1.018616811499374261e-02
1.018495007938877497e-02
1.018373210456248630e-02
1.018251419065465020e-02
1.018129633780487202e-02
1.018007854615258188e-02
1.017886081583703299e-02
1.017764314699730333e-02
1.017642553977229913e-02
1.017520799430074625e-02
1.017399051072119358e-02
1.017277308917201653e-02
1.017155572979141012e-02
1.017033843271739936e-02
1.016912119808783231e-02
1.016790402604037837e-02
1.016668691671253344e-02
1.016546987024161477e-02
1.016425288676476267e-02
1.016303596641894569e-02
1.016181910934096065e-02
1.016060231566743438e-02
1.015938558553481849e-02
1.015816891907938765e-02
1.015695231643724827e-02
1.015573577774433502e-02
1.015451930313640214e-02
1.015330289274903909e-02
1.015208654671766533e-02
1.015087026517753205e-02
1.014965404826371695e-02
1.014843789611112948e-02
1.014722180885450388e-02
1.014600578662839744e-02
1.014478982956719573e-02
1.014357393780511082e-02
1.014235811147618134e-02
1.014114235071427589e-02
1.013992665565308961e-02
1.013871102642614590e-02
1.013749546316679642e-02
1.013627996600821937e-02
1.013506453508342467e-02
1.013384917052525223e-02
1.013263387246637025e-02
1.013141864103927516e-02
1.013020347637628993e-02
1.012898837860956754e-02
1.012777334787108748e-02
1.012655838429266097e-02
1.012534348800593099e-02
1.012412865914237917e-02
1.012291389783331712e-02
1.012169920420989168e-02
1.012048457840307274e-02
1.011927002054366191e-02
1.011805553076229602e-02
1.011684110918944710e-02
1.011562675595541715e-02
1.011441247119033646e-02
1.011319825502417051e-02
1.011198410758671305e-02
1.011077002900758956e-02
1.010955601941625551e-02
1.010834207894200157e-02
1.010712820771396056e-02
1.010591440586110570e-02
1.010470067351224889e-02
1.010348701079604242e-02
1.010227341784097378e-02
1.010105989477536916e-02
1.009984644172739685e-02
1.009863305882506036e-02
1.009741974619619148e-02
1.009620650396845544e-02
1.009499333226936135e-02
1.009378023122625700e-02
1.009256720096632712e-02
1.009135424161659508e-02
1.009014135330392817e-02
1.008892853615503404e-02
1.008771579029645732e-02
1.008650311585458301e-02
1.008529051295563826e-02
1.008407798172569238e-02
1.008286552229065505e-02
1.008165313477627639e-02
1.008044081930814170e-02
1.007922857601167843e-02
1.007801640501216484e-02
1.007680430643472132e-02
1.007559228040431389e-02
1.007438032704575243e-02
1.007316844648368723e-02
1.007195663884261939e-02
1.007074490424689217e-02
1.006953324282069268e-02
1.006832165468805017e-02
1.006711013997283952e-02
1.006589869879878120e-02
1.006468733128944304e-02
1.006347603756824367e-02
1.006226481775845255e-02
1.006105367198318126e-02
1.005984260036538874e-02
1.005863160302787954e-02
1.005742068009330033e-02
1.005620983168415035e-02
1.005499905792278138e-02
1.005378835893138562e-02
1.005257773483200431e-02
1.005136718574653129e-02
1.005015671179670944e-02
1.004894631310413247e-02
1.004773598979023970e-02
1.004652574197632472e-02
1.004531556978353543e-02
1.004410547333287052e-02
1.004289545274517949e-02
1.004168550814116267e-02
1.004047563964136948e-02
1.003926584736620359e-02
1.003805613143592818e-02
1.003684649197066243e-02
1.003563692909037984e-02
1.003442744291491162e-02
1.003321803356394155e-02
1.003200870115700596e-02
1.003079944581350240e-02
1.002959026765268616e-02
1.002838116679367376e-02
1.002717214335544470e-02
1.002596319745683619e-02
1.002475432921653802e-02
1.002354553875309771e-02
1.002233682618491883e-02
1.002112819163026441e-02
1.001991963520725351e-02
1.001871115703385946e-02
1.001750275722790816e-02
1.001629443590708671e-02
1.001508619318895038e-02
1.001387802919091914e-02
1.001266994403027764e-02
1.001146193782417176e-02
1.001025401068961380e-02
1.000904616274348423e-02
1.000783839410253340e-02
1.000663070488336769e-02
1.000542309520245816e-02
1.000421556517614580e-02
1.000300811492063624e-02
1.000180074455200158e-02
1.000059345418617511e-02
9.999386243938953103e-03
9.998179113926001713e-03
9.996972064262853522e-03
9.995765095064914479e-03
9.994558206447458695e-03
9.993351398525626705e-03
9.992144671414425472e-03
9.990938025228730118e-03
9.989731460083287398e-03
9.988524976092717431e-03
9.987318573371511965e-03
9.986112252034032646e-03
9.984906012194517955e-03
9.983699853967079735e-03
9.982493777465710136e-03
9.981287782804285080e-03
9.980081870096562530e-03
9.978876039456173810e-03
9.977670290996627084e-03
9.976464624831307346e-03
9.975259041073479896e-03
9.974053539836292073e-03
9.972848121232769786e-03
9.971642785375822715e-03
9.970437532378233908e-03
9.969232362352671920e-03
9.968027275411687343e-03
9.966822271667711078e-03
9.965617351233050855e-03
9.964412514219901651e-03
9.963207760740342214e-03
9.962003090906336802e-03
9.960798504829736916e-03
9.959594002622276093e-03
9.958389584395576852e-03
9.957185250261150686e-03
9.955981000330387659e-03
9.954776834714561609e-03
9.953572753524842290e-03
9.952368756872298841e-03
9.951164844867894585e-03
9.949961017622483556e-03
9.948757275246812234e-03
9.947553617851521285e-03
9.946350045547149021e-03
9.945146558444131410e-03
9.943943156652800333e-03
9.942739840283388794e-03
9.941536609446027448e-03
9.940333464250741130e-03
9.939130404807452329e-03
9.937927431225981184e-03
9.936724543616040281e-03
9.935521742087243327e-03
9.934319026749112089e-03
9.933116397711076392e-03
9.931913855082465450e-03
9.930711398972504392e-03
9.929509029490322936e-03
9.928306746744955391e-03
9.927104550845338923e-03
9.925902441900311818e-03
9.924700420018620420e-03
9.923498485308913930e-03
9.922296637879747874e-03
9.921094877839580634e-03
9.919893205296776914e-03
9.918691620359604277e-03
9.917490123136234875e-03
9.916288713734754123e-03
9.915087392263158966e-03
9.913886158829356143e-03
9.912685013541172596e-03
9.911483956506339857e-03
9.910282987832506191e-03
9.909082107627238331e-03
9.907881315998018010e-03
9.906680613052241957e-03
9.905479998897216698e-03
9.904279473640163756e-03
9.903079037388217917e-03
9.901878690248425499e-03
9.900678432327753020e-03
9.899478263733090672e-03
9.898278184571248847e-03
9.897078194948958144e-03
9.895878294972867625e-03
9.894678484749546560e-03
9.893478764385482682e-03
9.892279133987082196e-03
9.891079593660674976e-03
9.889880143512512836e-03
9.888680783648766057e-03
9.887481514175526856e-03
9.886282335198807655e-03
9.885083246824546283e-03
9.883884249158607707e-03
9.882685342306785775e-03
9.881486526374799739e-03
9.880287801468294259e-03
9.879089167692844606e-03
9.877890625153951457e-03
9.876692173957042631e-03
9.875493814207476559e-03
9.874295546010542282e-03
9.873097369471450779e-03
9.871899284695341906e-03
9.870701291787284393e-03
9.869503390852274113e-03
9.868305581995230613e-03
9.867107865321007518e-03
9.865910240934392533e-03
9.864712708940103977e-03
9.863515269442797717e-03
9.862317922547061966e-03
9.861120668357419017e-03
9.859923506978325244e-03
9.858726438514171103e-03
9.857529463069288067e-03
9.856332580747939956e-03
9.855135791654322935e-03
9.853939095892567251e-03
9.852742493566744170e-03
9.851545984780864240e-03
9.850349569638879033e-03
9.849153248244677666e-03
9.847957020702083342e-03
9.846760887114860278e-03
9.845564847586718918e-03
9.844368902221308990e-03
9.843173051122222975e-03
9.841977294392996109e-03
9.840781632137109852e-03
9.839586064457990153e-03
9.838390591459009182e-03
9.837195213243485337e-03
9.835999929914683235e-03
9.834804741575813719e-03
9.833609648330035591e-03
9.832414650280452140e-03
9.831219747530116349e-03
9.830024940182025689e-03
9.828830228339125591e-03
9.827635612104314647e-03
9.826441091580442877e-03
9.825246666870316933e-03
9.824052338076693161e-03
9.822858105302281068e-03
9.821663968649746793e-03
9.820469928221709638e-03
9.819275984120738598e-03
9.818082136449352362e-03
9.816888385310021045e-03
9.815694730805164456e-03
9.814501173037160769e-03
9.813307712108344794e-03
9.812114348121007967e-03
9.810921081177398362e-03
9.809727911379724150e-03
9.808534838830144931e-03
9.807341863630773468e-03
9.806148985883679156e-03
9.804956205690888021e-03
9.803763523154387927e-03
9.802570938376132040e-03
9.801378451458040569e-03
9.800186062501990356e-03
9.798993771609816605e-03
9.797801578883314627e-03
9.796609484424245035e-03
9.795417488334332012e-03
9.794225590715252908e-03
9.793033791668652108e-03
9.791842091296146244e-03
9.790650489699318990e-03
9.789458986979719321e-03
9.788267583238863256e-03
9.787076278578230384e-03
9.785885073099267334e-03
9.784693966903384305e-03
9.783502960091965475e-03
9.782312052766362065e-03
9.781121245027888864e-03
9.779930536977822497e-03
9.778739928717403163e-03
9.777549420347839831e-03
9.776359011970310250e-03
9.775168703685967880e-03
9.773978495595936691e-03
9.772788387801307694e-03
9.771598380403137205e-03
9.770408473502452049e-03
9.769218667200251296e-03
9.768028961597509732e-03
9.766839356795177854e-03
9.765649852894176669e-03
9.764460449995397695e-03
9.763271148199704694e-03
9.762081947607926732e-03
9.760892848320865123e-03
9.759703850439302095e-03
9.758514954063995592e-03
9.757326159295682741e-03
9.756137466235072914e-03
9.754948874982852930e-03
9.753760385639680119e-03
9.752571998306187526e-03
9.751383713082976967e-03
9.750195530070627711e-03
9.749007449369694739e-03
9.747819471080708745e-03
9.746631595304183077e-03
9.745443822140606796e-03
9.744256151690453352e-03
9.743068584054180581e-03
9.741881119332228972e-03
9.740693757625021668e-03
9.739506499032962727e-03
9.738319343656433660e-03
9.737132291595803832e-03
9.735945342951420056e-03
9.734758497823603127e-03
9.733571756312654755e-03
9.732385118518864509e-03
9.731198584542511548e-03
9.730012154483859421e-03
9.728825828443157797e-03
9.727639606520638998e-03
9.726453488816516266e-03
9.725267475430990696e-03
9.724081566464251244e-03
9.722895762016474722e-03
9.721710062187827531e-03
9.720524467078462197e-03
9.719338976788515633e-03
9.718153591418107404e-03
9.716968311067350136e-03
9.715783135836346049e-03
9.714598065825188686e-03
9.713413101133959449e-03
9.712228241862729330e-03
9.711043488111557181e-03
9.709858839980491443e-03
9.708674297569566680e-03
9.707489860978807047e-03
9.706305530308226293e-03
9.705121305657832959e-03
9.703937187127623445e-03
9.702753174817590684e-03
9.701569268827725870e-03
9.700385469258014995e-03
9.699201776208438847e-03
9.698018189778967804e-03
9.696834710069568777e-03
9.695651337180200002e-03
9.694468071210812776e-03
9.693284912261349723e-03
9.692101860431743057e-03
9.690918915821921525e-03
9.689736078531803465e-03
9.688553348661300274e-03
9.687370726310319882e-03
9.686188211578768484e-03
9.685005804566550539e-03
9.683823505373570506e-03
9.682641314099731111e-03
9.681459230844926406e-03
9.680277255709048706e-03
9.679095388791997268e-03
9.677913630193664407e-03
9.676731980013945911e-03
9.675550438352730626e-03
9.674369005309907399e-03
9.673187680985361608e-03
9.672006465478971693e-03
9.670825358890621296e-03
9.669644361320197529e-03
9.668463472867585770e-03
9.667282693632674867e-03
9.666102023715355401e-03
9.664921463215521424e-03
9.663741012233063518e-03
9.662560670867875734e-03
9.661380439219848654e-03
9.660200317388879798e-03
9.659020305474863219e-03
9.657840403577694702e-03
9.656660611797276972e-03
9.655480930233517958e-03
9.654301358986329060e-03
9.653121898155625144e-03
9.651942547841319345e-03
9.650763308143324795e-03
9.649584179161558098e-03
9.648405160995935856e-03
9.647226253746381611e-03
9.646047457512822373e-03
9.644868772395199033e-03
9.643690198493461152e-03
9.642511735907566967e-03
9.641333384737485121e-03
9.640155145083187729e-03
9.638977017044652110e-03
9.637799000721867723e-03
9.636621096214829235e-03
9.635443303623545189e-03
9.634265623048029331e-03
9.633088054588305818e-03
9.631910598344410948e-03
9.630733254416386224e-03
9.629556022904278353e-03
9.628378903908142716e-03
9.627201897528050306e-03
9.626025003864079055e-03
9.624848223016319038e-03
9.623671555084872473e-03
9.622495000169851986e-03
9.621318558371378879e-03
9.620142229789586594e-03
9.618966014524624186e-03
9.617789912676654590e-03
9.616613924345851147e-03
9.615438049632401077e-03
9.614262288636507212e-03
9.613086641458381057e-03
9.611911108198251466e-03
9.610735688956359435e-03
9.609560383832954633e-03
9.608385192928300608e-03
9.607210116342674786e-03
9.606035154176368468e-03
9.604860306529688571e-03
9.603685573502952419e-03
9.602510955196492948e-03
9.601336451710656972e-03
9.600162063145810387e-03
9.598987789602332968e-03
9.597813631180621835e-03
9.596639587981086253e-03
9.595465660104151098e-03
9.594291847650262064e-03
9.593118150719882192e-03
9.591944569413491870e-03
9.590771103831585362e-03
9.589597754074679486e-03
9.588424520243310142e-03
9.587251402438028841e-03
9.586078400759404441e-03
9.584905515308026619e-03
9.583732746184505866e-03
9.582560093489466552e-03
9.581387557323553864e-03
9.580215137787435539e-03
9.579042834981796664e-03
9.577870649007334466e-03
9.576698579964763522e-03
9.575526627954819223e-03
9.574354793078250839e-03
9.573183075435826722e-03
9.572011475128330837e-03
9.570839992256574905e-03
9.569668626921387991e-03
9.568497379223613042e-03
9.567326249264113819e-03
9.566155237143767961e-03
9.564984342963473926e-03
9.563813566824150986e-03
9.562642908826735760e-03
9.561472369072187422e-03
9.560301947661484223e-03
9.559131644695625235e-03
9.557961460275632079e-03
9.556791394502545459e-03
9.555621447477421690e-03
9.554451619301332702e-03
9.553281910075367769e-03
9.552112319900640455e-03
9.550942848878292077e-03
9.549773497109484768e-03
9.548604264695403215e-03
9.547435151737252920e-03
9.546266158336260202e-03
9.545097284593666992e-03
9.543928530610730834e-03
9.542759896488733559e-03
9.541591382328984752e-03
9.540422988232818285e-03
9.539254714301592317e-03
9.538086560636689290e-03
9.536918527339519405e-03
9.535750614511510209e-03
9.534582822254113535e-03
9.533415150668805502e-03
9.532247599857089984e-03
9.531080169920491674e-03
9.529912860960552609e-03
9.528745673078844319e-03
9.527578606376966089e-03
9.526411660956543223e-03
9.525244836919216640e-03
9.524078134366648074e-03
9.522911553400533954e-03
9.521745094122591527e-03
9.520578756634558854e-03
9.519412541038201753e-03
9.518246447435308594e-03
9.517080475927686828e-03
9.515914626617169927e-03
9.514748899605617385e-03
9.513583294994916451e-03
9.512417812886983862e-03
9.511252453383760644e-03
9.510087216587213843e-03
9.508922102599341730e-03
9.507757111522172067e-03
9.506592243457751695e-03
9.505427498508155215e-03
9.504262876775488450e-03
9.503098378361888449e-03
9.501934003369511342e-03
9.500769751900539281e-03
9.499605624057182174e-03
9.498441619941669009e-03
9.497277739656256532e-03
9.496113983303220568e-03
9.494950350984862966e-03
9.493786842803511594e-03
9.492623458861518607e-03
9.491460199261260444e-03
9.490297064105148242e-03
9.489134053495613952e-03
9.487971167535124220e-03
9.486808406326166510e-03
9.485645769971256039e-03
9.484483258572928843e-03
9.483320872233748713e-03
9.482158611056307196e-03
9.480996475143220123e-03
9.479834464597131083e-03
9.478672579520714889e-03
9.477510820016667170e-03
9.476349186187711313e-03
9.475187678136588049e-03
9.474026295966065866e-03
9.472865039778935806e-03
9.471703909678018396e-03
9.470542905766168862e-03
9.469382028146263244e-03
9.468221276921205340e-03
9.467060652193926701e-03
9.465900154067383165e-03
9.464739782644556593e-03
9.463579538028451393e-03
9.462419420322099733e-03
9.461259429628561535e-03
9.460099566050927944e-03
9.458939829692314394e-03
9.457780220655860604e-03
9.456620739044735782e-03
9.455461384962138630e-03
9.454302158511295601e-03
9.453143059795457437e-03
9.451984088917906104e-03
9.450825245981953060e-03
9.449666531090935781e-03
9.448507944348219501e-03
9.447349485857195472e-03
9.446191155721277502e-03
9.445032954043898477e-03
9.443874880928512100e-03
9.442716936478603301e-03
9.441559120797693438e-03
9.440401433989331625e-03
9.439243876157087793e-03
9.438086447404563095e-03
9.436929147835386444e-03
9.435771977553216242e-03
9.434614936661738643e-03
9.433458025264660624e-03
9.432301243465708238e-03
9.431144591368633562e-03
9.429988069077207755e-03
9.428831676695234934e-03
9.427675414326545239e-03
9.426519282075003503e-03
9.425363280044504050e-03
9.424207408338965489e-03
9.423051667062328982e-03
9.421896056318573853e-03
9.420740576211710654e-03
9.419585226845772485e-03
9.418430008324816735e-03
9.417274920752932016e-03
9.416119964234231227e-03
9.414965138872853287e-03
9.413810444772968342e-03
9.412655882038777760e-03
9.411501450774501995e-03
9.410347151084389253e-03
9.409192983072718966e-03
9.408038946843801792e-03
9.406885042501981348e-03
9.405731270151634210e-03
9.404577629897157773e-03
9.403424121842982389e-03
9.402270746093559228e-03
9.401117502753363747e-03
9.399964391926902627e-03
9.398811413718708568e-03
9.397658568233340295e-03
9.396505855575373878e-03
9.395353275849418345e-03
9.394200829160112218e-03
9.393048515612121771e-03
9.391896335310139302e-03
9.390744288358881392e-03
9.389592374863087176e-03
9.388440594927530483e-03
9.387288948657009427e-03
9.386137436156344674e-03
9.384986057530384645e-03
9.383834812884003784e-03
9.382683702322107758e-03
9.381532725949624785e-03
9.380381883871512574e-03
9.379231176192756592e-03
9.378080603018370057e-03
9.376930164453390476e-03
9.375779860602879642e-03
9.374629691571932308e-03
9.373479657465672715e-03
9.372329758389245924e-03
9.371179994447821279e-03
9.370030365746595882e-03
9.368880872390796324e-03
9.367731514485678687e-03
9.366582292136526808e-03
9.365433205448652279e-03
9.364284254527390980e-03
9.363135439478101341e-03
9.361986760406167812e-03
9.360838217417000867e-03
9.359689810616042202e-03
9.358541540108763004e-03
9.357393406000658748e-03
9.356245408397250926e-03
9.355097547404085320e-03
9.353949823126726792e-03
9.352802235670769695e-03
9.351654785141832668e-03
9.350507471645560370e-03
9.349360295287626951e-03
9.348213256173732583e-03
9.347066354409598252e-03
9.345919590100976171e-03
9.344772963353639370e-03
9.343626474273383428e-03
9.342480122966026479e-03
9.341333909537416144e-03
9.340187834093419128e-03
9.339041896739926421e-03
9.337896097582856769e-03
9.336750436728149735e-03
9.335604914281776107e-03
9.334459530349732692e-03
9.333314285038042321e-03
9.332169178452750374e-03
9.331024210699929988e-03
9.329879381885680320e-03
9.328734692116126548e-03
9.327590141497425075e-03
9.326445730135758325e-03
9.325301458137339947e-03
9.324157325608406141e-03
9.323013332655219129e-03
9.321869479384067153e-03
9.320725765901264476e-03
9.319582192313151381e-03
9.318438758726095908e-03
9.317295465246495587e-03
9.316152311980770498e-03
9.315009299035365009e-03
9.313866426516746039e-03
9.312723694531401322e-03
9.311581103185841146e-03
9.310438652586598349e-03
9.309296342840231789e-03
9.308154174053322877e-03
9.307012146332473840e-03
9.305870259784311191e-03
9.304728514515485729e-03
9.303586910632674276e-03
9.302445448242574466e-03
9.301304127451909959e-03
9.300162948367432167e-03
9.299021911095921994e-03
9.297881015744182895e-03
9.296740262419049550e-03
9.295599651227386129e-03
9.294459182276084558e-03
9.293318855672062784e-03
9.292178671522266509e-03
9.291038629933667456e-03
9.289898731013254696e-03
9.288758974868043319e-03
9.287619361605069235e-03
9.286479891331387432e-03
9.285340564154073717e-03
9.284201380180226448e-03
9.283062339516966535e-03
9.281923442271439173e-03
9.280784688550812109e-03
9.279646078462272171e-03
9.278507612113030475e-03
9.277369289610322423e-03
9.276231111061405965e-03
9.275093076573561607e-03
9.273955186254090668e-03
9.272817440210317022e-03
9.271679838549583622e-03
9.270542381379250768e-03
9.269405068806703049e-03
9.268267900939342399e-03
9.267130877884598508e-03
9.265993999749920149e-03
9.264857266642778644e-03
9.263720678670666134e-03
9.262584235941099045e-03
9.261447938561612886e-03
9.260311786639763981e-03
9.259175780283138146e-03
9.258039919599340278e-03
9.256904204695992622e-03
9.255768635680743442e-03
9.254633212661265290e-03
9.253497935745251535e-03
9.252362805040421564e-03
9.251227820654517320e-03
9.250092982695306762e-03
9.248958291270578669e-03
9.247823746488142635e-03
9.246689348455836011e-03
9.245555097281518697e-03
9.244420993073062739e-03
9.243287035938355795e-03
9.242153225985306336e-03
9.241019563321841920e-03
9.239886048055909185e-03
9.238752680295482522e-03
9.237619460148558878e-03
9.236486387723150809e-03
9.235353463127298629e-03
9.234220686469068670e-03
9.233088057856546349e-03
9.231955577397839632e-03
9.230823245201077304e-03
9.229691061374412434e-03
9.228559026026015438e-03
9.227427139264070613e-03
9.226295401196783069e-03
9.225163811932377000e-03
9.224032371579104356e-03
9.222901080245230962e-03
9.221769938039039993e-03
9.220638945068844114e-03
9.219508101442976805e-03
9.218377407269797569e-03
9.217246862657688458e-03
9.216116467715048874e-03
9.214986222550297298e-03
9.213856127271871296e-03
9.212726181988230983e-03
9.211596386807853823e-03
9.210466741839239829e-03
9.209337247190909834e-03
9.208207902971408954e-03
9.207078709289296184e-03
9.205949666253151337e-03
9.204820773971562897e-03
9.203692032553136698e-03
9.202563442106501124e-03
9.201435002740308844e-03
9.200306714563236815e-03
9.199178577683981076e-03
9.198050592211256746e-03
9.196922758253792823e-03
9.195795075920335654e-03
9.194667545319650664e-03
9.193540166560522364e-03
9.192412939751759549e-03
9.191285865002183156e-03
9.190158942420622798e-03
9.189032172115928904e-03
9.187905554196972718e-03
9.186779088772648039e-03
9.185652775951862539e-03
9.184526615843539507e-03
9.183400608556623046e-03
9.182274754200076342e-03
9.181149052882879927e-03
9.180023504714031682e-03
9.178898109802545099e-03
9.177772868257451019e-03
9.176647780187794159e-03
9.175522845702641789e-03
9.174398064911073319e-03
9.173273437922188980e-03
9.172148964845104613e-03
9.171024645788955140e-03
9.169900480862889364e-03
9.168776470176075166e-03
9.167652613837692574e-03
9.166528911956932021e-03
9.165405364643003025e-03
9.164281972005135918e-03
9.163158734152574911e-03
9.162035651194581562e-03
9.160912723240431307e-03
9.159789950399416930e-03
9.158667332780848561e-03
9.157544870494055411e-03
9.156422563648385776e-03
9.155300412353205297e-03
9.154178416717895228e-03
9.153056576851855905e-03
9.151934892864505011e-03
9.150813364865275842e-03
9.149691992963617307e-03
9.148570777268999130e-03
9.147449717890910117e-03
9.146328814938852955e-03
9.145208068522349409e-03
9.144087478750938594e-03
9.142967045734175235e-03
9.141846769581627938e-03
9.140726650402879183e-03
9.139606688307516658e-03
9.138486883405140190e-03
9.137367235805363488e-03
9.136247745617815871e-03
9.135128412952142271e-03
9.134009237917998028e-03
9.132890220625050626e-03
9.131771361182983160e-03
9.130652659701494339e-03
9.129534116290298484e-03
9.128415731059120325e-03
9.127297504117694998e-03
9.126179435575764581e-03
9.125061525543085028e-03
9.123943774129422701e-03
9.122826181444552637e-03
9.121708747598265485e-03
9.120591472700365770e-03
9.119474356860670164e-03
9.118357400189010947e-03
9.117240602795230811e-03
9.116123964789186324e-03
9.115007486280742727e-03
9.113891167379772201e-03
9.112775008196155602e-03
9.111659008839785925e-03
9.110543169420557905e-03
9.109427490048380149e-03
9.108311970833168209e-03
9.107196611884846305e-03
9.106081413313350803e-03
9.104966375228628478e-03
9.103851497740634777e-03
9.102736780959323412e-03
9.101622224994653301e-03
9.100507829956588565e-03
9.099393595955098529e-03
9.098279523100162927e-03
9.097165611501768431e-03
9.096051861269901714e-03
9.094938272514563327e-03
9.093824845345762492e-03
9.092711579873517108e-03
9.091598476207855481e-03
9.090485534458809386e-03
9.089372754736424476e-03
9.088260137150751608e-03
9.087147681811850314e-03
9.086035388829787063e-03
9.084923258314636998e-03
9.083811290376478734e-03
9.082699485125399555e-03
9.081587842671500627e-03
9.080476363124888317e-03
9.079365046595668995e-03
9.078253893193952498e-03
9.077142903029860807e-03
9.076032076213521108e-03
9.074921412855060585e-03
9.073810913064611627e-03
9.072700576952310095e-03
9.071590404628293580e-03
9.070480396202701412e-03
9.069370551785681592e-03
9.068260871487382122e-03
9.067151355417949268e-03
9.066042003687534503e-03
9.064932816406291033e-03
9.063823793684379002e-03
9.062714935631965493e-03
9.061606242359224531e-03
9.060497713976331871e-03
9.059389350593459803e-03
9.058281152320777144e-03
9.057173119268459652e-03
9.056065251546684819e-03
9.054957549265628403e-03
9.053850012535473099e-03
9.052742641466399870e-03
9.051635436168593146e-03
