-4.100073790719007717e-03
-7.655699256622470854e-03
-8.423173065064518822e-03
-6.349968791134788862e-03
-3.842074195259859506e-03
-7.239751985842505719e-04
2.254985932478040245e-03
7.085177922987947151e-03
1.056494077728489279e-02
9.645482668128577131e-03
6.930684304544968560e-03
3.103246792151302170e-04
-5.584581136457079931e-03
-6.541365459010899108e-03
-6.536552112227791457e-03
-4.299690099618183603e-03
-3.990308565081775345e-03
-5.128198194309491718e-03
-5.957208936181904863e-03
-6.509635256215918001e-03
-4.504211688234539823e-03
6.645342853353677914e-04
3.323950855833335185e-03
2.331717510499704653e-03
3.188530734974858068e-03
3.828018390880981101e-03
5.284871089278836941e-03
1.458937523568732374e-02
2.630964131039568651e-02
3.096032856420802282e-02
2.037067041222444599e-02
2.336535453750276166e-04
-2.465207648413616018e-02
-4.728711079653775268e-02
-4.958411414823108571e-02
-3.102991150514540497e-02
-1.005127345261766156e-02
6.034421049579691797e-03
1.763620061043899220e-02
2.369766658672254125e-02
2.318212446980206717e-02
1.945886428762933981e-02
1.416777769724567038e-02
6.739701987838186102e-03
-8.841873520206615725e-04
-5.320936873475025884e-03
-9.214635575029050951e-03
-9.931137233912359571e-03
-8.391338431723037450e-03
-4.781211090015806929e-03
2.440134214494226524e-04
5.269300581233112186e-03
3.707266948904299614e-03
8.985399471010259258e-04
-3.753540310772857081e-04
1.150194761051200547e-04
8.150522839945604277e-04
-8.480867301069642096e-04
-5.413447659132570623e-03
-6.201111514779141659e-03
-5.797865875758541343e-03
-5.080566157035500824e-03
-2.008372240210659979e-03
2.868641740579997833e-03
5.477237024252790999e-03
4.460691289900711211e-03
5.742005024837053967e-03
5.423161912065942863e-03
2.443749206748159659e-03
2.089748195783702397e-03
5.775096801895207750e-03
1.044176492852340495e-02
8.880211123237349846e-03
2.413225512602369151e-03
-5.491621817743544236e-03
-1.515200326268489189e-02
-2.149770121305770096e-02
-2.107768250345213451e-02
-1.175107825839687148e-02
-9.322125983060184154e-04
3.550839263452404936e-03
5.185219263211094005e-03
1.020472110597312604e-02
1.459637538458733418e-02
1.354104549450920944e-02
9.487113541158683980e-03
6.957254587637614306e-03
6.448642791037503819e-03
5.360743986753496032e-03
3.355281184552155131e-03
-6.089443324895785832e-05
-6.882805636096383552e-03
-1.951425806333974972e-02
-2.579404835128242326e-02
-1.912536565240835831e-02
-1.144380288792985235e-02
-6.370926865707382362e-03
1.224484113464302699e-03
1.253537347747959649e-02
2.341343535847262639e-02
2.617142471426011155e-02
1.840946665288406212e-02
1.931001184952616488e-03
-1.146577854593519227e-02
-1.280375556725053300e-02
-5.074000825625444265e-03
8.966035976925605319e-04
2.634575527827537865e-03
8.477917517536372877e-04
5.097513938199828287e-04
2.635521545661487393e-03
5.211816240226159469e-03
-5.182735418032103671e-03
-1.796751116501122542e-02
-1.366038735450879685e-02
-2.329073466980560204e-03
2.191795780641956314e-03
3.653762845549194532e-03
4.155848237626623420e-03
6.724307251963092431e-03
6.295955022929315345e-03
3.744109726745310437e-03
3.580636816236353569e-03
3.701355840810758289e-04
-1.587932460951449985e-03
2.587278410884525336e-03
4.935011639511053053e-03
9.867970975277670902e-04
-4.579423523856752248e-03
-5.407345676022377867e-03
-5.813914798346917975e-03
-6.745099134851855437e-03
-6.382827754600390625e-03
-3.806827483143059021e-03
8.712682168362209558e-05
6.091732182795028989e-03
1.027337259835451981e-02
1.098539930671451996e-02
7.032956735618153127e-03
2.653354153316955289e-04
-4.270495462523454452e-03
-5.346034645959581340e-03
-7.988951487717155936e-03
-7.610716819902454099e-03
-4.500752813268526532e-03
-1.212927368246948929e-05
3.130810321027066405e-03
5.253576064637222910e-03
4.691671447704080962e-03
3.890111965704568311e-03
1.923894207593698953e-03
-7.727717385583479474e-04
7.986976425587368096e-04
6.396725030389800292e-04
-1.304937998047694990e-03
-3.262489881430087266e-03
-3.307004669074704601e-03
-3.475510656069353589e-03
-2.136047965378880861e-03
1.436195219410429848e-03
3.855039734085957161e-03
4.947368459306406875e-03
1.649198506796130392e-03
-2.839368574785212148e-03
-2.563787872221467024e-03
-4.117793094240095020e-04
-6.366799832233668941e-04
-7.707587326416880623e-04
8.971241077033621910e-04
1.658219033460724048e-03
1.096341197186398312e-03
-4.395291166203178670e-04
-1.684213977747126044e-03
-3.051917653451808633e-03
-1.144710052986765104e-03
2.090499943118336902e-03
2.869854355774228895e-03
2.132497662772406526e-03
2.640651620907074389e-03
1.807980629918626639e-03
-2.348738126880029007e-03
-3.426359915324390416e-03
-2.350499928231075154e-03
-1.881212093747148661e-03
-3.865841739901087516e-03
-6.942506602327148425e-04
4.558847068222193072e-03
4.541605989972768466e-03
3.798645644766893755e-03
1.528606581513988500e-03
-1.090686836807364286e-03
-4.104725416355497862e-03
-5.117769754046982283e-03
-2.189412649003485891e-03
-1.308931288939399907e-03
2.680423919513599731e-03
7.925679077927062083e-03
8.160730476960909724e-03
4.916753032772806439e-03
1.728116386134068323e-03
-1.508627315517668648e-03
-6.394231995638370580e-03
-1.159923912692479783e-02
-1.240703572300858211e-02
-1.109518995561572033e-02
-5.349309181437957549e-03
1.040337375888917767e-03
3.652802495440504726e-03
2.451020755452555915e-03
3.745497894060389500e-03
9.801948929968721386e-03
1.440595481098889442e-02
1.674639642657946986e-02
1.821877778295772840e-02
1.542412429363146723e-02
5.994783621850316088e-03
-9.692374872980046019e-03
-2.206895030345847053e-02
-2.301895754140477826e-02
-1.927539788274742691e-02
-1.561468447775894719e-02
-8.592623901854643670e-03
-1.198826885224392978e-03
-7.394722387183460047e-04
-5.591911295759532941e-03
-3.258334548002852181e-03
6.552340808395352642e-03
1.829232236650979448e-02
2.572659955888822667e-02
2.373619898354569283e-02
1.303234884486981909e-02
5.189290365180051177e-03
1.903071830420142475e-03
-2.239723615226891455e-03
-8.287638660021315329e-03
-1.441593854881620049e-02
-1.741844384545495825e-02
-1.588202001281284470e-02
-1.123217627027100346e-02
-4.668080949766125788e-03
1.314938835106646033e-03
2.004152808876325659e-03
8.323299845106371100e-04
2.950915522656364070e-03
4.375584627814525264e-03
4.477595129271563085e-03
7.033131412661391794e-03
1.227397902133679254e-02
1.382653653407533642e-02
7.253944384284461040e-03
-1.700412668598651374e-03
-7.937167229467613494e-03
-1.202285772588365838e-02
-7.357190223320460645e-03
9.210955251846867850e-04
1.287818597215203108e-03
-4.015084182266357750e-03
-6.602555681083035859e-03
-1.861961464496176416e-03
1.432883061953268717e-03
2.327108945379473097e-03
1.574231685561039516e-03
1.779746279453595266e-03
8.296999321142422765e-04
4.249915081693178749e-04
4.250505991451972187e-04
-3.993488725815177282e-04
-3.765129405469422666e-03
-5.476633649123045962e-03
-4.740646923185944626e-03
7.109373258274678982e-04
8.056748167410383160e-03
1.716822521813058874e-02
2.115400627858230603e-02
1.445730563878098660e-02
-1.940470342606121119e-03
-1.622746601548860634e-02
-2.176167382484600968e-02
-2.086588566163947306e-02
-1.428427384082860130e-02
-2.853081762253948696e-03
5.632989953464134607e-03
1.121510928164739726e-02
1.092515622989919527e-02
6.401452179980452600e-03
1.586244809839011498e-03
-6.434051377256109691e-04
5.989777479573164115e-04
-5.283025976342385632e-04
-2.714601239808283120e-03
-9.379575462090807101e-05
2.343320510564793433e-03
3.463463146753716234e-04
6.307817645622353173e-04
1.045072124069599401e-03
1.408973377851803011e-03
2.450942018420954223e-03
1.694273616768443439e-03
-3.637698709658813458e-03
-6.697965851167440518e-03
-5.660164285145625508e-03
-2.037956498983362931e-03
-5.326578278808343815e-04
2.720271599547285425e-04
2.760034839176951746e-04
-1.595381210314871900e-04
2.680507291917526118e-03
5.330295314709070087e-03
4.309379635720602363e-03
1.307071038002034606e-03
2.816859824568713881e-04
-1.571747335350061434e-05
6.461971831776736790e-05
-1.213743795682415989e-03
-1.780597709925603195e-03
-9.418022087982892525e-04
-7.474154614958623301e-04
-3.413023553877087154e-04
9.909065241851221228e-04
9.855738855142491645e-06
-1.931093535800144315e-03
-5.904734267023862247e-03
-5.798246249389381497e-03
2.400164834791651644e-04
5.981958914104413584e-03
5.965359273874548847e-03
3.271534796810250580e-03
1.587385877995907500e-03
7.783959182952738913e-04
3.977659608176889309e-04
2.977411431205909749e-04
-2.267648838078265353e-03
-3.485014564594986902e-03
-2.287347486257821673e-03
-2.183642206232301597e-03
-4.392044668814908299e-03
-2.957793915915368083e-03
2.885408251392483983e-03
5.966498800949970177e-03
5.518083121725471732e-03
3.360303594225714022e-03
3.912331669887353391e-04
-1.122832943702981902e-03
-1.816978296302986613e-03
-3.545402451549065082e-03
-1.137503198607946924e-03
3.110308129756845022e-03
3.558001557078848201e-03
-3.829751620989824286e-04
-1.959095046800793383e-03
-4.164093868509491543e-03
-6.007238989958155195e-03
-3.279515837681229711e-03
-1.529117051476312555e-03
-6.577335397521007340e-04
1.873093626593880397e-04
-1.059225225756905584e-03
-6.929644448201246511e-04
2.816835960961898769e-03
6.837501270774115972e-03
1.021625901813282694e-02
1.175671123436563409e-02
1.022667472514832143e-02
7.423342207709240741e-03
1.630181546597936695e-03
-5.037628825806246026e-03
-1.073139800635569338e-02
-1.598613772195872640e-02
-2.218151989757356432e-02
-2.558634976514589585e-02
-1.904265782311372404e-02
-2.662795783226879105e-03
1.416244972962504498e-02
2.417855300982385200e-02
2.803608138443560577e-02
2.694184476853275084e-02
1.852328243116273254e-02
3.232456402505109842e-03
-8.933850483781848040e-03
-1.138915324155353147e-02
-1.711154936460876352e-02
-2.490083405197556984e-02
-2.348022911131765131e-02
-8.115739899559715198e-03
1.130302654907933482e-02
2.216550105242652904e-02
1.707218775552462112e-02
7.259308954914942165e-03
3.981709572485074046e-03
2.187404598526580292e-03
-9.964169614310853477e-05
-4.825618914437462652e-03
-9.628908883543712410e-03
-1.226168046948261300e-02
-1.165835269743705285e-02
-9.619480102879635064e-03
-6.855424698283436001e-03
-2.086798126476665897e-03
5.952450823815988272e-03
1.345909689317363080e-02
1.932387451945357174e-02
1.641991050389685070e-02
6.701877236519681626e-03
7.494230453454877108e-04
-7.627430890246290299e-05
-8.697528650670664861e-04
-3.852523698292490729e-03
-8.960350648914884239e-03
-8.632572823927146810e-03
-7.628591914786643675e-03
-7.601232207267314724e-03
-5.561553059314993351e-03
-2.726115731457883287e-03
5.150001076632375330e-04
2.300599967192098940e-03
4.473594030918493468e-03
7.683052162322344912e-03
7.706232239523630456e-03
1.231728155012857227e-03
-4.541042101837657573e-03
-6.561713634573961354e-03
-3.191652487104059029e-03
2.126802766290711993e-03
4.527553037249353908e-03
3.211620502304328873e-03
2.973909148993507910e-03
5.815415904852439498e-03
7.442176990945801977e-03
5.212131633237692373e-03
1.812815146995872678e-03
-8.243241570025987243e-04
-5.014917925043171215e-03
-9.675007594795404994e-03
-1.305371087666403959e-02
-1.150390701174439090e-02
-7.414926872757046823e-03
-4.640371842344622778e-03
-2.712182801482694930e-03
2.073220630372217717e-03
6.104836515834047989e-03
9.878697881336516440e-03
1.202626696749940598e-02
1.204466198326276452e-02
1.074435211159038665e-02
6.584371237153473395e-03
-6.607851543155253068e-04
-7.143290015965485067e-03
-7.214824027780783640e-03
-4.089345044632197550e-03
-2.500407381075008852e-03
-3.649229619435389628e-03
-6.259744405622479427e-03
-7.790767858186794723e-03
-6.263677273747891155e-03
-2.095397102762092817e-03
9.792290326070128732e-04
9.320389678417118811e-04
2.311028012234962736e-03
5.697592639767858069e-03
8.761327930728639302e-03
9.148335968176470046e-03
6.152528156109770933e-03
8.654490585014518525e-04
-3.211703068960965191e-03
-3.977292038892713162e-03
-2.552084407356688782e-03
-6.520576446767622450e-05
3.722358610096172305e-04
-5.251275656639074405e-04
-6.503535008423716977e-04
-2.449201750416392896e-03
-4.371954482630796383e-03
-5.603559789346108586e-03
-7.592976702307400148e-03
-5.820540068466978530e-03
-7.947307957882946382e-04
2.240056589982514050e-03
2.902457279503261028e-03
5.202867253201624506e-03
1.005561128605953446e-02
1.298335776422340423e-02
1.342387711251020327e-02
1.259913462419898558e-02
3.303502445114356659e-03
-1.176905828503108271e-02
-1.893751551957471163e-02
-1.808132226874932524e-02
-1.316418037243483920e-02
-5.967762466104671072e-03
1.165232381121139409e-03
4.107607147078294954e-03
5.637582766487390408e-03
7.188732419784178533e-03
1.143315984310412994e-02
1.143840641226648303e-02
7.598215188612050634e-03
-6.102238117148576710e-04
-7.454431308180495090e-03
-1.086248686927131744e-02
-9.673477207911904477e-03
-4.703584532477779988e-03
-2.560788220576704077e-03
1.137397836720091711e-03
5.585150468227624738e-03
4.935275262599113713e-03
2.331528893256737487e-03
1.969174736619000356e-03
1.614919877955989409e-03
2.371286713028444675e-03
4.252389512353700780e-03
6.644420707366575744e-03
5.258076304344236861e-03
-2.525977106990894439e-03
-1.536382568237251722e-02
-2.565694478887267302e-02
-2.428330336154766247e-02
-8.537179865569604481e-03
1.343649713304909468e-02
2.659805678377679880e-02
2.975489927974438523e-02
2.731658196427495106e-02
1.510684530440435311e-02
-3.908233983793947021e-03
-1.883804997953213156e-02
-2.564480687761202041e-02
-2.193169122950215308e-02
-1.241618017423650258e-02
-3.271358836171003349e-03
4.287580972694945460e-03
6.981478511482338417e-03
6.324878814712085046e-03
4.951353287402236909e-03
7.362178325862816369e-03
8.010201053229502183e-03
2.425551193959047357e-03
-4.861450576850618287e-03
-8.417696763163598841e-03
-8.783136948638064351e-03
-1.003857398599966762e-02
-9.744263438830816706e-03
1.351997294433789000e-04
1.643793026146811095e-02
2.876659871255115089e-02
2.528627584082376520e-02
9.362648007107387052e-03
-8.664535559201384102e-03
-1.970228815300005890e-02
-2.091802724412359510e-02
-1.510822400254389387e-02
-5.493400398636318245e-03
2.004049260301044542e-03
3.647077656098155277e-03
1.544550752985185058e-03
-6.273704911314334064e-04
2.060369104403355581e-03
5.250344070945104497e-03
4.748033857560098915e-03
4.141050572936591685e-03
4.109610271061146271e-03
1.504957735564634719e-03
-2.414479489492131481e-03
-4.425889332102855324e-03
-4.529777777241850330e-03
-1.676145251437326667e-03
8.969024501925822006e-04
2.379374850888951818e-03
3.171483596691244272e-03
1.224953818342659458e-03
1.049940847105732206e-03
1.055317664266004025e-03
2.099384580264854541e-03
1.392526003621786732e-03
7.430419224027623015e-04
-2.440151388811547840e-03
-5.988300371755231853e-03
-6.480634955363288353e-03
-5.654349517392143372e-03
-6.594675067778795093e-03
-7.639665669523247084e-03
-2.238937732799501073e-03
8.063123525459750529e-03
1.468201439807884437e-02
1.388330530282731734e-02
9.979092429387612442e-03
4.949283487609544389e-03
1.038429277967345757e-03
-5.340027750272999772e-03
-1.169072717773763509e-02
-9.728994064416605220e-03
-3.984611561330568714e-03
-1.416127068990020825e-03
-1.127985210344975157e-04
-1.040726618146162359e-03
-1.481592806674360448e-03
-5.284378366043340769e-04
1.672776022045009432e-03
5.138284179480649000e-03
4.394953091170275376e-03
1.445008379719244992e-03
4.214086968743610746e-04
8.714579304340821717e-04
1.570555768000179682e-03
5.226456301218272964e-04
-2.902038244633548675e-03
-2.776819021991976198e-03
-2.180197184286070816e-03
-3.733297783509140384e-03
-2.274065447689151837e-03
3.699662560395475079e-03
6.690226696963129209e-03
3.628527470205048823e-03
1.215636355427149925e-03
-1.775787142817728589e-03
-3.360515244357782389e-03
-2.153335941704126715e-03
-8.769305434640310964e-04
-1.173168012490867105e-03
-1.772549973557388569e-03
-2.310727700142998099e-03
-2.873812580273605970e-03
-3.239537134801090661e-03
3.526722632243715211e-03
8.941994000902337217e-03
7.870087482055344863e-03
2.639073442121495257e-03
-2.452267542708475544e-03
-2.811284658043316717e-03
-8.725010821112530457e-04
-6.004606313422767780e-04
-1.614714567466082266e-04
4.504196072499865402e-04
-2.791440015973585260e-04
-5.841980079545369513e-03
-9.349198737026847075e-03
-8.641231955085117850e-03
-5.225976262991039768e-03
4.431764433219807287e-04
8.958153004854399817e-03
1.553904703376384616e-02
1.628443691932714849e-02
1.045884806912440214e-02
1.717555509116419112e-03
-4.172748470180735920e-03
-8.475553393334051347e-03
-1.244963508120394517e-02
-1.122980196830618282e-02
-5.409976360490171936e-03
1.560919313109467195e-03
6.284305311408403850e-03
6.024828650040884269e-03
2.982463442051121270e-03
1.085686711473081607e-03
-2.099778611809763502e-03
-3.169526397374076987e-03
-2.805922593834993956e-03
-3.040659101840571376e-03
-4.214178313192444049e-03
-2.547427777035525878e-03
3.829077537574095548e-04
2.226606186394096507e-04
6.581659938177772569e-04
1.264834409172117737e-04
-2.398543899343410016e-03
8.247756210882380536e-04
9.212304697347545313e-03
1.889172574491392032e-02
2.316973541315682159e-02
1.560104973029997899e-02
-9.841852481100180419e-04
-1.521287601832388425e-02
-1.842748752043888230e-02
-1.716683126927948458e-02
-1.620312660506852478e-02
-1.303220153087791301e-02
-9.159315360722088822e-03
-3.848649364007445707e-03
4.335106939780004713e-03
1.216272372075216657e-02
1.430636261404137632e-02
1.048191268878594790e-02
2.369731075002829389e-03
-2.441550759133344524e-03
-6.965918256086863283e-04
-9.625194441699050710e-04
6.260489800928763574e-04
7.854116932824579261e-03
1.527609908900460188e-02
1.280410190009273474e-02
-2.832290731594388697e-03
-1.860603666320834529e-02
-2.088781791018220688e-02
-6.869366689809954830e-03
9.350999070328373797e-03
1.127812911687897310e-02
1.697046701740720451e-03
-8.613181029629234098e-03
-1.537389286467131556e-02
-9.517987777027454854e-03
2.966869375754387257e-03
1.186150410558348481e-02
1.231519366182518699e-02
3.153097858369951177e-03
-6.423518789663786206e-03
-6.767725742534389487e-03
-4.380642231349233825e-06
3.776049701735364333e-03
3.600890929523984513e-03
4.101741583265971006e-03
4.374439181513839481e-03
5.152737701286509882e-03
4.541025025916266278e-03
-6.045097195219494360e-04
-7.952292257894472832e-03
-1.014279029315423922e-02
-9.274793074097183176e-03
-3.927860292935229057e-03
2.145040509676684505e-03
6.580946757269034650e-03
5.049941864479338439e-03
2.697957524423145927e-03
1.327686741791627920e-03
9.228938691080239808e-04
-5.054278481233750488e-04
-3.410597773560232384e-03
-5.948478629788257234e-03
-3.521323357974543485e-03
9.965728288504446981e-04
3.664691657079370817e-03
2.830085368325235742e-03
1.413324510673990165e-03
3.091745865808795228e-03
2.990744490987316817e-03
2.332731864238629226e-03
-8.689315701296178654e-04
-5.093344046700835556e-03
-4.851185913571308926e-03
-1.515582005272641825e-03
1.105067164317601568e-03
4.302785943304855720e-04
-1.688129010669930019e-03
-4.927460254535499275e-04
1.759771169741378757e-03
3.426330426429042685e-03
1.339392420017161255e-03
-3.444634019582517161e-04
-5.216424939380695947e-04
-7.413472941976121018e-05
-8.018102508563652170e-04
-3.872836684868411167e-04
1.652889703832912576e-03
1.531223460837767103e-04
-1.205977222970543074e-03
-2.563351678391387941e-03
-2.843490286687142508e-03
-3.115282960966384192e-03
-4.909193139777819591e-04
1.800621547894292948e-03
1.124910988263804791e-03
3.374879422664650575e-03
5.575461734185297065e-03
6.261249635859627086e-03
6.243488267666153294e-03
3.123371314929941286e-03
-2.443437988431813087e-03
-8.415842550668833216e-03
-8.764214202953467606e-03
-7.348593664214698486e-03
-6.012602325453922196e-03
-3.514893115251532980e-03
-8.731397493284233022e-04
3.359551283876421185e-03
5.151363110554337335e-03
5.358426824560373440e-03
7.122402139641016532e-03
1.021848400915894087e-02
1.089961923393329216e-02
1.438853102118316761e-03
-1.079423973664565654e-02
-1.538342711801912385e-02
-1.442527754378961080e-02
-8.335697032244810539e-03
2.929424813419499209e-03
1.208955174983044473e-02
1.307995970857107719e-02
7.608237534797216393e-03
-1.410739544320760604e-03
-6.957632196260131463e-03
-6.911595361101456440e-03
-3.133849505582659255e-03
1.280358115448559236e-03
5.360355508661701976e-03
4.005848014576496481e-03
-2.614277171761802076e-04
-2.177433738935880686e-03
6.222141992039892985e-04
3.944461999693745988e-03
3.909821555258647177e-03
-1.364757062043320647e-03
-7.489635989518762631e-03
-8.377571507759355718e-03
-4.635398402256184734e-03
1.164447284395866977e-03
2.496063757333674259e-03
-1.818347081774525191e-03
-3.343622299049819283e-03
-1.434650935712844435e-03
4.080449419686878014e-03
1.136871731768924511e-02
1.155397974751352225e-02
7.485944213440251169e-03
5.658104971346009440e-03
2.483977704741137903e-03
-5.314747526351157846e-03
-1.153950754798272957e-02
-1.286203678021170110e-02
-1.201949431589659743e-02
-9.570540390311289142e-03
-6.338577155906289368e-03
-9.781053314245093111e-04
8.486833648535193481e-03
1.472904096378540098e-02
1.269899798554176631e-02
4.951487428239129997e-03
-6.535586302162518443e-04
-3.926902077451349497e-03
-3.653916895648053661e-03
-9.490609220849682186e-04
4.411876385047916634e-03
5.455065015813969319e-03
2.514784821129440427e-03
-2.642047702308796529e-04
-1.780331081230717479e-03
-1.521080526716464022e-03
-2.755858808207334310e-03
-3.371692589293917401e-03
-5.328253827680843810e-03
-8.095701973948977309e-03
-1.003229610560580666e-02
-1.007261485504455135e-02
-6.369099207178641024e-03
1.400309021780442222e-03
8.959511778869350823e-03
1.595881106635974392e-02
2.061745844546268580e-02
1.849232887586318291e-02
9.952297652148509380e-03
-3.630076016946763746e-03
-1.116676187649650633e-02
-8.771571988420698296e-03
-3.552216971096567276e-03
-4.737874157833422105e-03
-7.637972255820356902e-03
-1.132763557134613616e-02
-1.192503515444844411e-02
-5.488301070202666714e-03
4.045873895986487438e-03
8.667699710381457714e-03
7.725772505622602489e-03
6.997739229435423133e-03
6.317725938771885479e-03
4.143434975789135784e-03
1.211017394146259897e-03
-8.419244875062436781e-04
-1.155299137293212212e-03
-1.017794201902107263e-03
-1.726984216778155523e-03
1.452863755251939803e-04
8.553245571881855358e-04
-1.506318383792895664e-03
-3.045699048191559052e-03
-4.441757088347410287e-03
-8.202729233850444834e-03
-1.073763465464730102e-02
-8.316344852354407360e-03
-4.252936457234102706e-03
4.661542031204628581e-03
1.593954514886182505e-02
2.062471336622076490e-02
1.976772066576401934e-02
1.435962308363779305e-02
8.091252123932910975e-03
4.975416923700980750e-05
-1.174549725247619331e-02
-2.482127859940749803e-02
-2.734135660199079818e-02
-1.731228817236752510e-02
-4.860906882288512122e-03
4.246417778230713973e-03
8.748248710992686736e-03
8.210627663920430641e-03
5.296154174065515439e-03
4.521951967854337222e-03
4.762270817940534619e-03
3.197618786083649724e-03
9.458984205976987344e-04
4.579250703023070843e-04
2.154320775480921164e-03
3.202841874672094410e-03
2.403102162758379966e-03
-1.133125243354728557e-04
-1.654160403442129969e-03
-2.297329833821274477e-03
-2.744024752320660919e-03
-2.935131531276906694e-03
-2.652403962947662806e-03
-1.511210706711970872e-03
-1.091921263970685625e-03
-2.954067856986126485e-03
-4.822108636994531204e-03
-1.809038580704911900e-03
2.134599766020461951e-03
3.217159180697831949e-03
4.360509785454637355e-03
3.902467819452661284e-03
4.900094345178281595e-03
5.056493742868054843e-03
2.366617918780613769e-03
-3.354476007117987088e-03
-5.432053852209897324e-03
-2.228433980736624874e-03
-1.410310215601304294e-03
-3.922696841143587763e-03
-2.765274943374274822e-03
7.165531164808184347e-05
1.083642331326364894e-03
8.960978439049502569e-04
1.057231714414276491e-03
1.288254419468540593e-03
8.534187861028903494e-04
1.151113024352765080e-03
8.287748692266448756e-04
5.116430546660006694e-04
2.081590585649865162e-04
-7.944117070685852080e-05
2.562080422449469720e-04
-1.648186238011897732e-04
1.750533914964691061e-04
-1.052583092902131383e-04
-9.532505428419206343e-05
-7.111148096829017756e-04
-5.735773828418767178e-04
-8.905357305524446267e-04
-1.184092518207735274e-03
-1.122459865892802035e-03
-1.132042569284843645e-03
-1.026796085585224847e-03
-6.220030554794616154e-04
-5.011643203814315772e-04
2.686941828583353929e-04
1.081405731275375667e-03
2.077392177074326076e-03
3.226335246514922938e-03
4.327136859551779235e-03
5.772928739573622049e-03
9.470903593232112005e-03
6.906790509856224405e-04
-1.240775965076136578e-02
-1.570341440559786667e-02
-8.943984820416788634e-03
9.722892251498990376e-04
5.643651496281970777e-03
5.539304262917341647e-03
2.214020340932981203e-03
1.966003070793686473e-03
4.235993844636904218e-03
1.756224308405427738e-03
-2.210011727253052491e-03
-4.704271297059727831e-03
-3.837679971281706195e-03
-1.691837558182652081e-03
7.146570368233972487e-04
2.966341625178208624e-03
2.044530776709174540e-03
1.938820904664766229e-03
2.507500843178467331e-03
2.529730139472236277e-03
6.226134334990894321e-04
-3.230432331761423984e-03
-4.472283813856880834e-03
-2.056160094532466943e-03
1.251891895997849901e-03
1.011175726976223802e-03
-5.002302273908606437e-04
6.904450850657888386e-05
-3.336059941440627547e-04
-1.095072075571109586e-03
-2.058080792822583518e-03
-1.664146976817083140e-04
4.618162300726856052e-04
-3.294607129658948795e-04
5.004711351628260809e-04
3.541677068443038149e-03
3.881127194814109130e-03
2.394844248317725029e-03
2.087954795992244279e-03
7.741079093464531789e-04
-1.442912764641062461e-03
-2.316354901245519689e-03
-3.096920422669385137e-03
-2.577350763815689470e-03
-7.515556520039661133e-04
-4.920902326742639023e-04
-2.210846848048874432e-03
-5.235937087780809067e-03
-6.444205588576233483e-03
-3.168110915647969362e-03
2.980554013133637249e-03
8.542694967044617976e-03
9.271598077321073841e-03
6.230344543070636711e-03
5.178846256356622532e-03
2.232077537247353222e-03
-1.943702003650868079e-03
-4.868588342554538637e-03
-3.763665980250119596e-03
4.940005979456856683e-04
4.299048544971231962e-03
8.710791206376468712e-04
-8.444762470940319482e-03
-8.220501692614380629e-03
-6.807162204086345328e-04
1.315378016531539886e-03
-3.453615573913961651e-03
-6.716935560439945586e-03
-5.678251030781073481e-03
-8.951732494027059284e-04
4.466268802551465189e-03
5.529534992150949950e-03
3.015725636322804694e-03
3.230891807477776108e-03
7.224619138596362518e-03
1.490852164114455508e-02
1.911105721902039284e-02
1.306740295539303431e-02
8.151197177629467341e-04
-1.254705881247385885e-02
-2.327458759501667418e-02
-2.605413042701144530e-02
-2.024190171060678486e-02
-8.634071999987120993e-03
1.769185431055814682e-03
7.840524829153457456e-03
1.030823603227644727e-02
1.007332905187178357e-02
8.951438185130018016e-03
8.738956303760540140e-03
9.978818419455305969e-03
7.985729183167785197e-03
2.305409574343743155e-03
-6.027547000773388584e-03
-1.112409133837609539e-02
-1.092731245560464755e-02
-7.506465641737070094e-03
-9.437267968013555650e-04
2.433438907178522848e-03
2.416760278289597531e-03
2.631108965214318685e-03
2.753864985181338383e-03
3.245730547406837363e-03
3.214807734719392178e-03
4.168482658933412980e-04
-1.878154433900799340e-03
-2.210472106428697237e-03
-1.237024911266766235e-03
-3.870289969458400991e-03
-7.381072151410694553e-03
-8.577003028324205539e-03
-4.116822256480129685e-03
7.812103635607267269e-04
3.161340944076039897e-03
7.202111635136054617e-03
1.261117274312491612e-02
1.721509812465437175e-02
1.940236637961580829e-02
1.309591411836683733e-02
-9.028740989664663097e-03
-2.928071940112881785e-02
-2.950198699337218053e-02
-1.256653557940707461e-02
6.815465888455910989e-04
6.679286655986000319e-03
9.376390768507249229e-03
9.546829907975892121e-03
5.847411500729626441e-03
-4.619408092990132607e-04
-6.137640975965909414e-03
-6.875630008233466622e-03
-1.437272024367826622e-03
7.736067976731083283e-03
1.253733030804174420e-02
1.292738342223297837e-02
8.394072162257940409e-03
-2.803534158348513876e-03
-1.447034755011166254e-02
-1.750050912158005942e-02
-1.299126374465934750e-02
-4.303011826636901106e-03
4.009908953859089333e-03
6.043621094386761317e-03
5.830179709768294055e-03
5.275653637369437550e-03
4.763102309529152270e-03
3.604245496575111604e-03
1.561205754207125110e-03
-2.681375822783765329e-03
-4.802594274830447769e-03
-3.846725437508718114e-03
2.356422572183830642e-03
6.817845173172755111e-03
3.004719399222145239e-03
-3.713306185765026177e-03
-6.133117684899532483e-03
-3.151762953307560289e-03
3.856939618920793831e-04
-6.703125911369711351e-04
-4.453807019572935885e-03
-8.040189687600242038e-03
-7.148508905114859396e-03
1.103682199579328685e-03
1.102062026824727863e-02
1.381508384456216904e-02
1.149083723125748566e-02
8.604677097874817437e-03
4.644480305566398015e-03
-1.380242800024971891e-03
-7.106418696202894576e-03
-8.933994798754601313e-03
-5.515657846611308167e-03
-9.434044939809283284e-04
7.585913627268028869e-04
-1.305346720915920907e-03
-5.967441727968564313e-03
-1.076267956631923525e-02
-1.300682545810529639e-02
-1.210169525266726817e-02
-6.353127209219312094e-03
2.882534904851033475e-03
1.467962571166933627e-02
2.287072217021053275e-02
2.319694163543836382e-02
1.833063927945351515e-02
1.146473811677809970e-02
3.575265362923217734e-03
-5.949570332105079927e-03
-1.470649193587455876e-02
-2.091158961636816610e-02
-2.154353909589639196e-02
-1.781683145384515068e-02
-1.227108723966431614e-02
-3.765802030010452300e-04
1.221691321240519351e-02
1.516059749781066557e-02
1.276954071770325730e-02
8.748244149416002646e-03
5.872563448458811668e-03
2.166405887594408282e-03
-4.219289706698916599e-03
-5.240383402314456422e-03
-2.334205440095079524e-03
1.216169375801307625e-03
3.188764865377838580e-03
1.057650312970482469e-03
-3.268655983480518896e-03
-4.202611441551204648e-03
-3.457775885915221562e-03
-4.315092456696105277e-04
4.726772476314600028e-04
-2.526228295589914245e-03
-6.453841548987479700e-03
-5.874916460154422371e-03
-3.778476625620548110e-04
6.179280385529392801e-03
1.023707875285022155e-02
1.203612671182441654e-02
9.202227197097788067e-03
-5.101413035331616927e-04
-1.006278997363523747e-02
-1.289761049187697871e-02
-1.071595606408365896e-02
-6.915254599048225974e-03
-3.231148499198159031e-03
2.856433937317755765e-03
1.583445765405091382e-02
2.583157624912437236e-02
2.342427498133938663e-02
7.123322191606118632e-03
-8.982846888517996217e-03
-2.328779761719497812e-02
-3.093473097134060920e-02
-2.319470924939094972e-02
-4.857661699814942204e-03
7.746480612271520842e-03
1.023334997309205061e-02
8.161534692088920698e-03
5.871657250714180931e-03
4.785733692910148877e-03
2.013835968794752164e-03
-1.727665579085916996e-03
-3.043248589730322869e-03
1.694029386971818195e-03
9.628021801269195587e-03
1.295074568315357846e-02
1.325725662317571787e-02
1.225549171620029555e-02
6.502608913634081583e-04
-1.573800803027696274e-02
-2.327084413550508865e-02
-1.923641915869169633e-02
-1.045890769426602654e-02
-1.387814057446088052e-03
1.476499525647487383e-03
1.022945089551941721e-04
1.095803687270767435e-03
3.626216679157796222e-03
7.184878418862253487e-03
6.984989534240071928e-03
5.843028697229370703e-03
3.786294571658269277e-03
3.687323924729485856e-03
3.171162035766546781e-03
3.313133625262485241e-03
3.456553368825963056e-03
3.664478212553317054e-03
1.986971146071209518e-03
-5.828215236704535618e-03
-1.228146376052657342e-02
-1.382347207796272119e-02
-1.053923775580099462e-02
-2.632525701158009400e-03
4.539485246848441215e-03
5.039865218397026302e-03
3.483420790006090152e-03
2.515210156057669320e-03
5.089777544296827418e-03
5.765000565658161095e-03
1.528998560976788622e-03
-1.795724104555361175e-03
-1.914080386259131746e-03
-8.213984228655563579e-04
-9.870700118865169924e-04
-3.162058202902640037e-04
2.208509569989316589e-03
3.632254449952731015e-03
3.441876695829021969e-03
-9.084652874732323223e-05
-4.716008967528874558e-03
-5.269248895808921647e-03
-4.655144159250186771e-03
-4.233430672498470805e-03
-3.210510016128554842e-03
-3.221562826263160186e-03
-1.013001026202108978e-03
1.936456283789694897e-03
5.053282269026999549e-03
9.882738621042955196e-03
1.214971864742840982e-02
1.167602001004741132e-02
6.127520034818680073e-03
-5.011288164003690863e-03
-1.584960516886518497e-02
-1.652078725667102330e-02
-7.515940444848291484e-03
-1.660948751945328684e-03
3.199436818829111233e-03
5.889925470916809735e-03
6.478268066531242889e-03
3.980619064685887200e-03
-5.932496726270119342e-04
-4.856898108947194266e-03
-5.663951815952671283e-03
-2.318588305076292252e-03
2.655663806371641716e-03
5.646837214835061236e-03
5.764965436920092487e-03
2.855864484650011154e-03
-1.278577521708338782e-03
2.067315674765495936e-05
2.557263537288440025e-03
5.929947806060446554e-04
-3.684987597494084836e-03
-3.361409369942129112e-03
-1.434487973618275326e-03
-1.654803187195689768e-03
-5.863235091327083544e-04
-1.794407681964386037e-03
-4.248259332793905170e-03
-2.932121246077626364e-03
2.607526000324383517e-03
5.969912223675054135e-03
6.103480714530250609e-03
3.030319684377277140e-03
-1.087857790270883689e-03
-2.408429860114931660e-03
1.457129912887557791e-05
-4.129960329220902125e-05
-2.538305559035583699e-03
-3.161573365797306495e-03
4.248029284862568492e-04
1.863085670567709434e-03
-3.194766104595142260e-04
-3.170945287701562327e-03
-4.505948264353073357e-03
-2.909540571367082509e-03
2.106001055061009278e-03
4.603905383128734617e-03
2.900710405919705755e-03
1.700675797311042943e-03
3.398681496149811524e-03
5.031577844244731167e-03
5.913572332060632215e-03
5.966503609545001884e-03
5.883405175720939073e-03
1.037225839696914557e-03
-9.046716412404801066e-03
-1.625587478197654256e-02
-1.777055959406620422e-02
-1.698045933708350330e-02
-1.494836689089128548e-02
-6.764370160661450741e-03
1.064972337044864034e-02
2.371372340259601461e-02
2.398422833989889702e-02
1.316999625671558607e-02
3.425331511379396503e-03
3.005192531911399755e-03
6.203214102232840546e-03
5.424400165036930531e-03
5.706734859919891135e-03
7.204324774609615831e-03
1.405381068111646349e-03
-1.952890913710925505e-02
-4.305525777698639839e-02
-4.340446457030219807e-02
-2.232013346157667860e-02
2.220458974218605767e-03
1.581714607093357566e-02
2.348122739132649586e-02
2.731965130984527826e-02
2.634753132157323374e-02
1.875044861901728824e-02
9.651689534255127739e-03
1.192174360099058049e-03
-6.544042631580150073e-03
-1.261154456269163344e-02
-1.075408437423054989e-02
-8.147069637581683468e-03
-1.072543833276135873e-02
-1.141557878524722923e-02
-8.586279536404299931e-03
-3.297326040031596690e-03
5.123266293984897642e-03
1.037350808658733109e-02
9.083233005122610254e-03
4.003803271949622766e-03
-2.873528243032076428e-03
-5.449416793009981795e-03
-6.347296069162845257e-03
-5.176218244956705752e-03
-6.714164101049697423e-05
5.605144790777457676e-03
9.473478111213403524e-03
1.399309711042188292e-02
1.958122986620523115e-02
1.959442973740289570e-02
3.246946894119550654e-03
-1.705191389320045298e-02
-2.703397201125484414e-02
-2.626447215606151145e-02
-1.622174878235945264e-02
-1.050295783852986560e-03
7.404038150735494338e-03
6.980398660671138095e-03
4.271943776147678513e-03
4.230235468593283692e-03
3.124869379136352258e-03
4.243534460613560184e-04
-1.375535349720812851e-03
2.011600101174623907e-03
5.359369475066533099e-03
7.654420096728452826e-03
8.127509172586306133e-03
9.309410606134689917e-03
6.969931324151375403e-03
6.611824421793757560e-04
-7.790224899517778946e-03
-1.578980919427584034e-02
-1.629526695701974046e-02
-1.016213960577008919e-02
-3.541584314591335152e-03
9.714763239331422259e-04
3.418475790364609510e-03
5.399909197296126964e-03
5.332855853806359007e-03
1.794409675071631689e-03
-1.608660952955671443e-03
-2.187535473547928897e-04
6.628126066961332122e-03
1.010336063882396121e-02
6.074273090150126772e-03
1.209474642191124376e-03
-2.426950160598819600e-03
-5.230705420257775184e-03
-5.011660231682175427e-03
-1.713537043525947823e-03
-2.592336967157385201e-03
-3.593011786043053685e-03
-3.229943704081529501e-03
-2.127047595347100143e-03
-1.492633675926155912e-03
9.971504176323081094e-04
4.173954339233431829e-03
2.302533829144685473e-03
-8.881780270211386830e-04
-4.515297770253927519e-04
1.226102379790930657e-03
2.507982255389808873e-03
3.267152901239863717e-03
3.359730851357157089e-03
2.778796895549710388e-03
1.047424726247426054e-03
1.038516251510533499e-03
2.835944487229137751e-04
-4.137740443655031110e-03
-7.809816505682176495e-03
-8.284371113889868465e-03
-4.926060429217851699e-03
-1.049737542151117642e-03
3.480808096148241986e-04
2.533970806084422708e-03
6.943093588231383749e-03
7.526175646432437492e-03
7.680777282732929694e-03
7.887852148174633038e-03
1.132816306001940831e-03
-9.698487283930173203e-03
-1.380115144989935150e-02
-1.243787228581850687e-02
-7.035857652106368432e-03
-1.476100377613957619e-03
7.517844983880987188e-03
1.664500457337489067e-02
2.060430904204978500e-02
1.698045485380669101e-02
6.861686625694228721e-03
-8.810727258355580821e-03
-2.388783852984088102e-02
-2.806732176215937652e-02
-1.573308492358706581e-02
-5.988802244556038282e-04
6.567874737936146672e-03
1.228211315694748874e-02
1.606893773048742591e-02
1.106235436149467614e-02
4.136511402098592104e-03
4.864717938262873493e-04
-3.701163115087347140e-03
-8.281466678383933577e-03
-9.153636594010972072e-03
-6.808949790240362634e-03
-5.114679977800969980e-03
-5.369797008085397741e-03
-4.787438391781132473e-03
1.664927873296629529e-03
1.194932583268040402e-02
1.908793992408506363e-02
1.635035448108657433e-02
9.008551608697869945e-03
7.330811206036721983e-03
4.170897675167002834e-03
-1.051167181366263054e-02
-2.139651804403833874e-02
-1.707442647066464286e-02
-9.253415828968219667e-03
-5.127730721297018256e-03
-2.033384906777262711e-03
7.977371051366101071e-04
2.377960300064662930e-03
3.454836219716038090e-03
3.742015306955551700e-03
8.265130766783130786e-04
-8.534892520088372195e-04
9.650863733439421152e-04
4.213048484164600392e-03
5.065828415363703152e-03
2.051139172794132735e-03
-2.431604021548659962e-03
1.245554765807443563e-03
1.102482029644005768e-02
1.790629678995065560e-02
1.558112755081606654e-02
6.866306201264449523e-03
-6.640725729163435460e-03
-2.010470496212820105e-02
-2.542213320939464352e-02
-2.203048893181820678e-02
-1.597742757061013444e-02
-5.573441899405139933e-03
5.936165290710500135e-03
1.218564937830390188e-02
1.266835495323961891e-02
1.042184621699734220e-02
7.424662929570440863e-03
3.505612653382090584e-03
1.818939466875983506e-03
5.918309502673481035e-04
-1.237394785300897394e-03
-9.704456231892323245e-04
-2.371483225700435522e-03
-2.387992437612824689e-03
-7.576204539289409581e-04
9.150745980433493132e-04
5.406337750400872291e-04
1.047182124122457772e-03
2.455460576544867858e-03
5.732911969209401090e-05
-3.062906298387923533e-03
-1.818637885385021927e-03
-1.473850607777511118e-03
-2.989954210532463387e-03
-2.870861651136755351e-03
-1.250428282201378411e-03
-2.168823964174145479e-04
7.595193721197918526e-04
2.225228606692595569e-03
1.072592595343274929e-03
-2.755840343570460996e-03
-4.446154534435860922e-03
-3.020308352527322632e-03
-1.192603943429515912e-03
2.404589425562656240e-03
9.400695912059340090e-03
1.283474207292034305e-02
6.923279188963618255e-03
2.021361342198305447e-03
2.662339959923724388e-03
2.844423037247446016e-03
2.224683252836377571e-03
4.939999693392613765e-04
-1.038545763741004213e-02
-2.022448392764455982e-02
-1.753436785824618455e-02
-1.104015070392458386e-02
-6.494808626657294116e-03
-3.796577768504279943e-03
-1.590438588995406709e-03
5.907770711248858109e-03
1.850581131112034525e-02
2.634610111698640691e-02
2.193971193269449171e-02
1.114145460629964099e-02
1.792099857038159585e-04
-6.320333794303166670e-03
-1.172302122668166489e-02
-1.134332515913800445e-02
-7.984735874703007691e-03
-5.966900727490095750e-03
-5.461845559822711520e-03
-3.701918585277371061e-03
-1.228935545452181262e-03
-9.773540783656175374e-04
-6.485882795735659762e-04
5.674199026133018055e-04
3.660204775083881860e-03
7.345494722930696364e-03
5.459262679108297690e-03
-5.409328066792859144e-04
-2.500406589487095578e-03
8.284296038227078370e-05
3.563620993413112604e-03
1.979044101736931929e-03
-1.201328577146839639e-03
-1.464690592466842342e-03
9.518512027499696770e-04
3.204403958471732736e-03
1.986772461244448815e-03
-5.163022675532475466e-05
-3.995844223647222727e-04
4.263705343182621330e-04
-4.118570133113310793e-05
5.004256337862095835e-04
-2.468072558918897250e-03
-7.011472616853578130e-03
-1.160937747335051388e-02
-1.318017857625464889e-02
-1.121358849429589070e-02
-5.346507427978369233e-03
7.820795921700561537e-03
1.883410659760591938e-02
2.154029401565907623e-02
1.658288640366316000e-02
9.564954766779534476e-03
4.643503569158315310e-03
7.266877747387533518e-04
-8.354595447371703301e-03
-1.536023436011051992e-02
-1.136572534233147753e-02
-6.796872080229118297e-03
-4.708995511990498282e-03
-3.216528663802208261e-03
-3.422491952767053348e-03
-3.621604071272274163e-03
-2.230550672419075425e-04
4.150471562960248058e-03
6.446145028835394489e-03
3.927458039743660610e-03
1.024353181819543344e-03
1.631279853363107248e-04
-1.297623852673108688e-03
-2.073409364391432842e-03
2.888225999301754967e-03
9.894334114017572582e-03
1.490237611999943937e-02
1.490192190399842326e-02
8.080416581632488687e-03
-5.854685709950489987e-03
-2.275805516799195641e-02
-2.884099571594253564e-02
-1.896888821934608962e-02
-6.420660950340822438e-03
2.896705942471719010e-03
1.013388696049054120e-02
1.326170397271187948e-02
1.315855008573213816e-02
1.344271860036818506e-02
8.863941942930296525e-03
-3.107179454490227415e-03
-1.099032476779735271e-02
-1.096188450706703926e-02
-8.835259908061530304e-03
-2.814111571230148469e-03
7.662095607887436412e-03
1.490383723508507952e-02
1.777811900635122705e-02
1.179718117512657677e-02
-5.380066002101508392e-03
-2.341086984290939241e-02
-3.070581146225105640e-02
-2.388648489418789683e-02
-8.856861864024612868e-03
1.200449199115170146e-02
2.426613971180572801e-02
2.263769213586928203e-02
1.538138123206578799e-02
1.179189951871434557e-02
6.631737946123784748e-03
-2.772430065819152419e-03
-1.041402801745033337e-02
-1.547685541577341339e-02
-1.652163043807442638e-02
-1.467823304142865971e-02
-7.992969524252394042e-03
2.468890494459309061e-03
8.651242676569638815e-03
9.078856862372409325e-03
6.710645161491710954e-03
6.640606727713030746e-03
5.103228255010221724e-03
1.217467678528839740e-03
-3.167802503889138692e-03
-3.320110758378703401e-03
-1.647728068173921528e-04
2.466899783818137827e-03
2.573989297877973641e-03
2.976483375560694884e-04
-2.225247797948310367e-03
-3.755957437723222991e-03
-4.407996323805508411e-03
-5.951077821544325554e-03
-5.709324607698652680e-03
-2.974884842127650721e-03
-1.304673935613685602e-03
-4.434644232360052921e-04
3.512059683751594941e-03
7.420882253451713782e-03
9.175289395511506893e-03
9.678180507272638594e-03
6.279736744676091796e-03
7.147010267531360428e-04
-1.653349009907672043e-03
-2.502403424812722158e-03
-3.825333977541981595e-03
-7.916693848460392910e-03
-8.968436750616246012e-03
-5.877963364216600393e-03
-2.242283041683985553e-03
-7.102008041152763421e-04
2.814658627380690198e-03
4.826662082162773773e-03
5.046565517491685172e-03
4.432293104607275443e-03
3.648230499286369763e-03
2.756605285872825925e-03
-1.073179662726612797e-03
-2.731251250062505069e-03
-3.510073716650837037e-03
-3.016598346799226164e-03
-2.986669921657103023e-03
-2.665569742551923498e-04
3.419782248681353404e-03
4.977559269806749315e-03
7.006080863815366058e-04
-4.882644456073899353e-03
-4.964835581505660372e-03
-4.808364759663151695e-03
-2.678142594108096596e-03
-1.902933131495076211e-03
-4.015961520041006969e-03
-8.266834299749123774e-04
8.179802660037130760e-03
1.660472193031468230e-02
2.304146455048116521e-02
2.238825575180358046e-02
1.059513370755412603e-02
-8.752473406638759321e-03
-2.929141471143302880e-02
-3.544820203288000238e-02
-2.469867081019068780e-02
-9.237753534390099469e-03
-2.655392888663261701e-04
5.121874823230321803e-03
1.231400985645023094e-02
1.435871249146422092e-02
1.024588314633954889e-02
1.037688076179787804e-02
1.228507676196041037e-02
8.102098633217869050e-03
1.187228213387666285e-03
-5.769860292764074187e-03
-8.449925086109207062e-03
-8.672113252922403898e-03
-6.749099505410131004e-03
-3.150566867384295942e-03
5.944454227381256242e-04
3.434133646696257113e-03
3.123591111522482436e-03
-1.480646020810489792e-03
-2.635052028257290312e-03
-1.255172982406541678e-03
-2.021773446267261627e-04
2.924593815488608244e-04
-1.344405424913029581e-03
-2.692578838156301033e-03
6.710906593703888558e-04
4.789253924295014050e-03
4.640534721565363861e-03
1.151070011146895604e-03
-9.485815167855748270e-04
-2.284758445492878279e-03
-3.810592155391728797e-03
-1.622760517855080867e-03
-2.409861337765717155e-04
-1.778262413704520366e-03
-1.519184217284927927e-03
-2.819708873828720842e-04
2.141922275332268366e-03
6.531313254208008338e-03
1.118767087947953806e-02
1.331600441381899404e-02
1.071464694235243001e-02
1.114283383805183121e-04
-1.549542348778606277e-02
-2.254825403239116635e-02
-1.888883300732112705e-02
-7.493624819327425295e-03
1.544592377602137072e-03
4.897646057308225297e-03
6.144698550998850366e-03
7.061735652950827495e-03
5.624125462324488373e-03
5.912328836943691983e-03
8.336655310228341387e-03
8.715978798740982303e-03
3.311572680351555949e-03
-2.625691834769470004e-03
-6.446925462213429041e-03
-9.472139713719676321e-03
-1.011793346708374057e-02
-8.318825986211701023e-03
-7.357846313205095024e-03
-3.493687907278933934e-03
5.945903230903601573e-03
1.309560779466413354e-02
1.220917039841182446e-02
7.587550797963724808e-03
5.183306852507731446e-03
2.072478798271318833e-03
-5.301799449349705283e-03
-9.679003184294160053e-03
-1.052179883145107700e-02
-8.669180777259758580e-03
-4.043288202852401460e-03
-3.776849093561446768e-04
5.005849020713784570e-03
1.082000073232027709e-02
1.486251483843788190e-02
1.371130426470275332e-02
3.337321010784286522e-03
-1.158293054006630067e-02
-2.010311599728625831e-02
-1.766697129845369585e-02
-7.631956404602096254e-03
2.849001882696899392e-03
8.010061542907499083e-03
8.042021915105534643e-03
5.573937816067385705e-03
4.139519503836710558e-03
6.341035175995475212e-03
8.659899198625206976e-03
4.663535550989509997e-03
-4.925969775358843630e-04
-4.551902805414688967e-03
-6.162689779997018204e-03
-7.614801845751271135e-03
-7.507563394667749086e-03
-9.137829527136744068e-03
-7.987945964434278734e-03
2.623673872628879723e-03
8.798001647581790013e-03
4.272251770341221715e-03
-1.048508638139788486e-03
-2.161675388369447767e-03
1.021107913039263817e-03
5.495626325812360581e-03
8.515907768291579305e-03
8.355047062988639472e-03
2.781731120723577796e-03
-9.902142223168525659e-05
2.448678775046719651e-03
1.091853005166276962e-03
-5.719210961945701659e-03
-1.066723584545305019e-02
-8.235331746112153212e-03
-2.783765976176620117e-03
-2.440556861509210300e-03
-4.299540703328564792e-03
-2.206287518712489112e-03
-4.137532449321477187e-05
1.543456605664842406e-03
4.349196368049306795e-03
4.833996393114189764e-03
4.476631190165203042e-03
4.273177976037353769e-03
5.187972154989364121e-03
4.946372501878431270e-03
1.545431573517228388e-03
-2.468796993660176374e-03
-3.045236197810593202e-03
-1.942366441475600492e-03
-1.682535205189543501e-03
-2.337818901539881564e-03
-6.099338274927994588e-03
-7.810705111152290749e-03
-1.525948859544042503e-04
7.284376616481532882e-03
5.240167896183469884e-03
-7.227132345230032756e-04
-4.262521037611957837e-03
-5.436056621259409243e-03
-4.602007936735615264e-03
4.708853570511437937e-04
8.340356783868465088e-03
1.357876996465295916e-02
8.599097604110674670e-03
-2.920139494673010434e-03
-9.087011889967792910e-03
-9.478529621117245604e-03
-7.356274117185997337e-03
-4.170883472529480183e-03
5.923998829400981686e-04
5.753216022174781341e-03
9.048569867420905299e-03
1.064612477234449725e-02
1.437134969673291816e-02
1.337393524362765797e-02
1.584551340001271076e-03
-1.482667850813749501e-02
-2.399764001190325680e-02
-2.331749730953438723e-02
-1.637083194886276155e-02
-6.075071126374321194e-03
6.070480084038288975e-03
1.523598996509324850e-02
1.720644019570325214e-02
1.278464883784128162e-02
6.856736085461833351e-03
1.969570162859079869e-03
-2.897750105705579858e-03
-6.232325426239554433e-03
-6.883587161998268138e-03
-3.751234541427904672e-03
2.088272625343064182e-03
8.614380671797884290e-03
1.287638643645983363e-02
1.345066970689441296e-02
3.133828385952330386e-03
-1.227114246579419365e-02
-2.019442692961473731e-02
-1.929205015261943254e-02
-1.348852983727952259e-02
-6.485265815106759472e-03
3.658235703023803909e-04
5.603847389197545194e-03
7.637027804706994841e-03
9.449121764636209814e-03
1.277847591385488854e-02
1.260618041434262253e-02
6.756364488540442421e-03
1.688815385071638399e-03
5.984764107153563856e-04
-8.652745213390566654e-05
-3.673670542730834640e-03
-7.240236983761932747e-03
-8.179100729155048752e-03
-6.778497023321800735e-03
-4.226984266670692943e-03
-2.605874648731643269e-03
-1.071158876595108139e-03
-1.265583627099485596e-04
-1.474822544892800784e-03
2.158129532998284401e-04
4.334283024932746378e-03
6.608207367162379116e-03
9.016092793334574973e-03
1.078098586318186961e-02
7.149120657301956915e-03
-4.198979705590129112e-03
-1.398845800012455017e-02
-1.309360341583311500e-02
-6.265573058395246947e-03
-5.324532825381885978e-04
2.430857283578428778e-03
2.944121951542793408e-03
3.929036164097680223e-03
4.497035050415072212e-03
5.439541917470422545e-03
4.648745875509031726e-03
2.000530457473299190e-03
-3.385911864153293648e-04
-2.181020743782170063e-03
-4.399305035747619330e-03
-8.770996677234717612e-03
-9.280277530069403272e-03
-5.242073783176439371e-03
-2.832172220400427931e-03
4.284902368188742670e-03
1.267022879836285712e-02
1.123905592687494785e-02
4.448163746249260940e-03
8.561830323445319176e-05
-1.868147695502086168e-03
-2.370968491580732057e-03
-2.093210272976654164e-03
-6.486663145150858498e-04
-3.607248867677680972e-03
-4.331286903419441850e-03
-3.807411045712836423e-03
-2.709001762134417152e-03
8.939865153706214387e-04
3.447861163414461198e-03
2.780819887898312078e-03
3.289985958252910660e-03
5.565018854515188344e-03
4.557664585657222704e-03
2.400935383042718946e-03
-1.330237352040750185e-04
-5.918567943246993111e-03
-8.656508125230572698e-03
-6.453358171323998575e-03
-4.416773471808827824e-03
-3.673716406977339029e-03
-3.361603446085076764e-03
-6.381967170635096439e-04
3.966664549744758350e-03
7.913426403960827776e-03
1.183178467973297447e-02
1.356424747734328619e-02
9.691228741525559354e-03
-2.633478090469391387e-03
-1.148286268902118205e-02
-8.607268506550377549e-03
6.615002624608705070e-04
1.391267395228032444e-03
-3.930399499016825476e-03
-5.610233824316453698e-03
-3.527944359292775958e-03
-1.793389681610104997e-03
-2.186915034122671048e-03
-8.076879259301277848e-04
9.315913436903635551e-04
2.612754847881524332e-04
-5.485926705229671012e-04
2.137244716181036733e-03
4.762719925397109096e-03
4.047393612642468698e-03
3.235378689566519896e-03
1.715550219899852815e-03
3.108642326098801610e-03
3.979479273488491578e-03
1.931384264529738791e-03
-7.215247308553146078e-04
-2.435237707144230143e-03
-3.338140706291579766e-03
-2.624029825414844058e-03
-6.644918191842960717e-05
2.306199883801451119e-05
-5.248411907699286096e-03
-7.740429994971246078e-03
-7.355438416803121264e-03
-6.705592887228532632e-03
-4.868451875209249893e-03
-1.064452131762388780e-03
5.783385413390000444e-03
1.260684772122364072e-02
1.568672148235420935e-02
1.232039425483933380e-02
4.479243770740780166e-03
1.252204268136758274e-03
2.069772363692793434e-03
-2.061434693179624821e-03
-7.026737491663548330e-03
-9.165783951762370568e-03
-1.288545958061234134e-02
-1.157341657400067815e-02
-4.527299649852110745e-03
1.369261347633629437e-03
5.681998761348955838e-03
6.026860781865894280e-03
4.011634943543223621e-03
2.326592649957430481e-03
3.971810401802303332e-03
3.093512887664016595e-03
3.889158946026221642e-04
3.550906276482977187e-04
-3.104597437503853522e-04
-3.098092484577670298e-03
-4.939879220008277540e-03
-3.550253238006133641e-03
-9.356458987150092360e-04
-9.534091359422714428e-04
-4.621303366507569627e-04
1.980766735557887293e-03
3.983614610441404795e-03
6.494539800472984466e-03
7.855140693969794863e-03
5.028393225826224833e-03
4.749104233850222367e-04
-1.955038461447213428e-03
-3.569862811021098405e-03
-5.330899808606253190e-03
-4.484794028608862955e-03
-5.542465896856232400e-03
-4.254472698221388287e-03
-8.883959824121006113e-04
-6.942385005255810679e-04
-2.930930823463895156e-03
-6.376992713253337199e-03
-6.147541137667314470e-03
-3.636645092146685663e-03
-1.812618990282870244e-03
-5.507995985574170195e-05
2.618428515555787199e-03
1.073991284575371262e-02
2.383733644310204527e-02
3.399536872711204916e-02
3.105832293713514311e-02
1.806988575804420114e-02
-1.809158521758932013e-03
-2.708371397192510174e-02
-4.612498568779989372e-02
-4.567070760241410260e-02
-2.925582939927270920e-02
-6.515879864627501135e-03
9.556602307505233929e-03
1.388380184507135955e-02
1.323753415060260723e-02
1.002517491827347937e-02
7.740802797802675238e-03
7.110476089050843211e-03
5.599619660807217229e-03
2.573499323953529726e-03
4.990458128389984108e-04
4.172286869572568342e-03
8.663626989216988497e-03
1.168624982468123227e-02
9.951172653323431261e-03
2.090751223998168172e-03
-6.123757767845206326e-03
-1.441489368170009548e-02
-1.942273358129050984e-02
-1.559320372630023863e-02
-6.449287888712876456e-03
1.066399935718584206e-03
4.223692777395347993e-03
2.515704015037976624e-03
8.799801094118045008e-05
-8.399089563195585861e-04
6.152597899987408483e-04
1.231610015814355204e-03
5.257950635204735115e-04
-3.167797854786935056e-05
-8.505899694191791649e-04
1.103710879218751557e-03
1.016304719989563100e-02
1.577706645162897658e-02
1.326716550308330335e-02
6.887761672783038538e-03
6.877989986307309414e-04
-2.687227986054354853e-03
-4.562897166935585801e-03
-5.631170974884085363e-03
-1.080868285502020049e-02
-2.067287893223456255e-02
-2.870468061426371953e-02
-2.052471226604737561e-02
2.293480971377970766e-03
2.067902974257908658e-02
2.550508843650019231e-02
1.771517593382324410e-02
5.552724568355554662e-03
-3.239316007557412926e-03
-4.634262783631679615e-03
1.368823959615941312e-03
8.153364582698829910e-03
9.054397324192215227e-03
4.237573460684693205e-03
-4.777958898011169450e-03
-1.159207706678864677e-02
-1.284041905454792916e-02
-8.789183465142466969e-03
-2.713331791131034197e-03
1.398487041038340602e-03
9.810207744187877596e-04
-3.814137527736489596e-04
-1.050138356119447889e-03
-1.037925871216663787e-03
-1.258900029868384972e-03
7.303462318267034403e-04
5.682198196126041038e-03
8.526639195315094746e-03
7.975604639805840973e-03
5.602549189606354126e-03
3.553001300247994945e-03
-6.398890702724920748e-04
-5.198303628076036097e-03
-6.532047209111793880e-03
-6.552979069751716130e-03
-5.494356039142815444e-03
-3.429546825649958455e-03
8.007932342834556474e-04
2.266706831304932286e-03
1.850880916449217355e-03
2.737759759149101420e-03
3.697569658672131970e-03
2.746184348242238036e-03
1.263016612204604337e-03
-1.656313225295837077e-03
-5.233989354463016754e-03
-4.112151656667784906e-03
-1.324555666887630885e-03
2.460879929794108586e-04
3.067452087126169911e-04
5.407462693537438882e-04
7.904494030365821159e-04
3.633135477211904118e-03
7.361676635668289864e-03
7.359446204629860322e-03
5.411934604779873072e-03
-2.057321173367775570e-04
-6.024248568544613575e-03
-9.781664309663082313e-03
-1.102793454182265584e-02
-1.005377934565174908e-02
-6.365514866855577839e-03
-1.131101964710624561e-03
6.321486382791918247e-03
1.147555252082720079e-02
1.087226249021676014e-02
8.511929407445210927e-03
5.779416764262751069e-03
1.749859256374642312e-03
-2.534138685247377086e-03
-3.749307366628299668e-03
-2.690517913372480856e-03
-2.429596080887188019e-03
-3.118517730571613959e-03
-5.797948760678009981e-03
-9.648219692805376849e-03
-1.214389447174239398e-02
-9.060425384990977021e-03
1.547626626180524829e-03
1.032988491239054431e-02
1.234156771276567408e-02
1.160728228351589481e-02
1.012449270663973687e-02
7.400914304146345886e-03
6.711910373483418422e-03
1.069567973435260784e-03
-7.539411490855433759e-03
-1.256423740014487624e-02
-1.248818282953971168e-02
-8.526816123089097504e-03
-4.008398981087255529e-03
-2.233006478223375883e-03
-9.792721277050832687e-04
3.677280626471471706e-03
8.202966094462943447e-03
5.719048836815564772e-03
1.407163224732903631e-03
2.129457426572344686e-03
5.288709942032184842e-03
7.985929644811198477e-03
1.267170617871628269e-02
1.113289799011399003e-02
2.193821880658855452e-04
-1.814577227087994446e-02
-3.177074517139740623e-02
-2.902670163208988588e-02
-1.563855742506494242e-02
-4.476913073233150346e-03
4.865120584986543269e-03
1.536191247893180928e-02
2.337042536893392530e-02
2.669204408562194861e-02
2.333541115441809671e-02
1.990443529188913249e-02
1.528052253614929114e-02
-8.816096115286152848e-04
-2.172502773661920752e-02
-3.322542137233001902e-02
-3.078804207906115156e-02
-1.860827984497518198e-02
-3.854049525600319361e-03
7.309495004978037135e-03
1.322699016825187868e-02
1.231720275565124922e-02
6.871995306604900856e-03
1.054576737311365385e-03
-1.865582366650588540e-03
-3.345219675180539053e-03
-5.921710212774009517e-03
-4.988384224744748206e-03
1.121385962797655537e-03
8.071498907310169571e-03
1.146637939121355337e-02
1.096749299378375724e-02
6.022710916059528276e-03
-3.116805346844363721e-04
-3.952671807365256730e-03
-7.251304934812332660e-03
-7.683155412287676761e-03
-2.407812168156163966e-03
3.202922707804031939e-03
3.361181060069571257e-03
-1.564783674311689098e-03
-6.569292761152566336e-03
-1.009337102721431789e-02
-8.227926004820347236e-03
-1.128673658691430569e-03
7.583582466646244385e-03
9.435550162797073578e-03
2.834482010602109615e-03
-3.744415029060087739e-03
-5.354804019614758069e-03
-5.629939980621576599e-03
-2.758182039213056061e-03
2.876381730700300517e-03
8.838613934305116285e-03
1.643733408046535102e-02
2.004670944895916782e-02
1.382945951888011477e-02
-9.227653510363994713e-04
-1.332622871526189558e-02
-1.630801215383044858e-02
-1.253235366094140879e-02
-7.970969819928766867e-03
-7.768465862638833201e-03
-9.674174823858707611e-03
-6.637520894109259773e-03
-3.973540953060927610e-04
5.369331994620925308e-03
9.300716650078815970e-03
1.080377588150506669e-02
9.729908738067973711e-03
6.969649846594121699e-03
5.052481223745190937e-03
1.885957432463092852e-03
-1.003727562483862704e-03
-2.586066071583878294e-03
-3.690580690798674502e-03
-5.927901170934679782e-03
-5.575095484902280185e-03
-3.483678634435969507e-03
-1.256587579991848801e-03
7.414289930122528599e-04
1.403715493244080820e-03
1.477083817779865221e-03
8.148546463518653148e-04
-8.619103270317185657e-04
-6.101532204929257814e-04
8.653527915489158274e-04
7.340439751925805292e-04
1.389907327837927337e-04
7.288875140829143430e-05
7.637119481745462905e-04
-7.461028044095924674e-06
-1.111413495275067817e-03
-5.150209116347219613e-04
5.966040848793347168e-04
5.650528936805465814e-04
7.672369443628328581e-04
1.495462625753734773e-03
4.324529118053714398e-04
2.826392948185654504e-04
3.281857774713137828e-03
4.334590966651064893e-03
3.261259917064518476e-04
-5.600482759411896591e-03
-9.686037881647849984e-03
-6.941782983585768028e-03
-6.084287735570710967e-04
4.099535804642894486e-03
4.722139082646419420e-03
3.992630744338187924e-03
4.646897692669771894e-03
4.538885595472618578e-03
3.021519394288737907e-04
-3.189060989957256433e-03
-5.178045307328832565e-03
-6.277515487395974279e-03
-3.280631911024066948e-03
1.531121495469626136e-03
2.675636505780077876e-03
2.454556222312237294e-03
1.948298413637708070e-03
5.561814705398598901e-04
-1.904161638391556495e-04
-1.383312114912129711e-04
1.013353398922234912e-03
1.425390714738855244e-03
1.850221156373070509e-03
-1.641479025729674138e-04
-3.710260006375891081e-03
-3.755579226486685952e-03
-2.126370684782746823e-03
-1.815337273840624585e-04
3.019832384929482024e-03
5.836577247804590127e-03
7.250670337329507935e-03
3.358600922688310085e-03
-2.251658227969357932e-03
-6.282017683008165633e-03
-8.013671948841769033e-03
-9.157297461916799955e-03
-9.433850365512922581e-03
-6.889033321673731190e-03
-2.788523693012990093e-03
2.640067197073578224e-03
1.278662808797265127e-02
2.167625466080348381e-02
1.792891831877814479e-02
5.510492948701833753e-03
-3.432180467183343180e-03
-3.968770109097024754e-03
-6.547804538061629924e-04
1.188713985870866810e-03
-3.891089855977968547e-03
-1.321720749481534833e-02
-1.611767335969966491e-02
-1.191906486210440701e-02
-3.838406206914910489e-03
-2.069445389248532059e-04
2.151902584002999413e-03
6.005333120240184848e-03
6.063251954970740910e-03
5.743588432961617939e-03
4.947208416096460053e-03
5.993797944292706022e-03
7.202332209607382324e-03
3.953179871344093474e-03
2.836477004622582816e-04
-1.484773009097326620e-03
-4.707120769755890506e-03
-5.588999021940078971e-03
-2.332685506191828177e-03
-1.537366680769887591e-03
-4.764641094603084930e-03
-4.719383248992034194e-03
-2.337752343185037912e-03
-1.294739873911101950e-03
8.013365882912110063e-05
2.847624195460418672e-03
6.996297125009690379e-03
6.860823658244416708e-03
4.547262567691913275e-03
2.608677152467406106e-03
5.379478621810921367e-04
-1.412995492586917225e-03
-3.295273649585045948e-03
-4.388424054298329866e-03
-5.178062549985669623e-03
-3.231487586536019741e-03
9.086831562301129941e-05
1.466510489648251061e-03
1.406896321669382464e-03
-1.719851327661939950e-04
-2.429759624974573914e-03
-3.761551566419402397e-03
-3.484650347606818056e-03
-7.790659635148658837e-04
1.641826357117638288e-03
3.779831164644355430e-03
5.752389766450452697e-03
6.416832044571186069e-03
6.881467166294663422e-03
6.086722067700088730e-03
6.766968036279064763e-03
5.394827811188425068e-03
1.354626287841636861e-03
-5.632120803097892016e-03
-1.304680926453801251e-02
-1.937355081485672703e-02
-1.768171067849530140e-02
-7.374443963050830546e-03
-4.529247334245653316e-04
1.355395441945397503e-03
2.911704394195606914e-03
5.568146732504394326e-03
7.140013193428066708e-03
6.152407949953020254e-03
5.176051819036756908e-03
7.150876543019994876e-03
1.400686240090960599e-02
2.086919575179814815e-02
1.851271996798290950e-02
3.149322942690247450e-03
-1.621949152800283150e-02
-2.891007461742352985e-02
-2.893522681251875853e-02
-1.894717175183791708e-02
-5.492116750093063195e-03
3.741063832829997875e-03
9.376219548274151647e-03
1.087689477583598553e-02
9.886198041939114195e-03
7.461676943518941348e-03
3.752539708918085741e-03
-7.947243957718069449e-04
-4.837808315205758929e-03
-7.215135502087639818e-03
-3.594185572419763240e-03
2.082138789297779784e-03
8.430043875990500535e-03
1.647652318686529394e-02
2.035975827962783688e-02
1.375026817866031349e-02
-3.724394128634073674e-03
-2.341021589468370370e-02
-3.203553198678789349e-02
-2.604315006634995086e-02
-1.677550512614306086e-02
-6.220289003786389111e-03
7.022122117602475934e-03
1.962826553406764318e-02
2.352571723888104149e-02
1.975468599440778975e-02
1.219403916567101884e-02
6.026299798941424889e-03
2.550261905039603004e-03
1.021704733233375073e-03
-4.076410715440873141e-03
-1.050056388153020916e-02
-1.249665002988107135e-02
-1.039224212915740991e-02
-9.206813932806725415e-03
-7.960185734320108022e-03
-4.399246056655378191e-03
1.031552225236599153e-03
4.265804216323651477e-03
6.605047157689843997e-03
6.922118393546840623e-03
5.461386194614116854e-03
4.131407969486438313e-03
3.901622353550198222e-03
2.508108307681007620e-03
5.557217165182053512e-04
-1.378708348513207199e-03
-2.740907777905554968e-03
-7.026111062313077256e-04
9.974085594766273280e-04
-6.129008439926773855e-04
-1.320933706213138579e-03
-1.623019151814084158e-03
-2.903072434570129479e-03
-2.240127364707321378e-03
-6.462175313095256009e-04
-2.151870600293352091e-03
-4.197053508086343900e-03
-2.520800726162602395e-03
-6.309776042052479134e-04
1.026867443165910943e-04
2.267284523214743285e-03
2.476025147995433804e-03
1.885280055240749503e-03
3.591101748387033089e-03
5.298474514945429245e-03
4.048671123566952024e-03
4.929309781219635631e-04
-3.238384239216788273e-03
-2.000613282976238839e-03
6.426983167764415035e-03
1.387991936526269260e-02
1.082880071145067395e-02
-2.462895369326077201e-03
-1.408907426981922777e-02
-1.635371410069858672e-02
-1.308334266302327645e-02
-9.398891576329728229e-03
-8.972797646970148699e-03
-8.090475927645205192e-03
-2.689538012694819152e-03
4.137467481430444696e-03
7.759983174929385892e-03
1.418818820599503962e-02
2.219605121175324478e-02
1.903207166298794342e-02
9.861682203554123297e-03
3.580287042614325836e-03
-1.427589011410287316e-04
-3.212563188348936151e-03
-7.097668189735025120e-03
-1.280106140878375584e-02
-1.839181932237475559e-02
-1.730499663441060695e-02
-1.083996029353234344e-02
-6.787645318334411051e-04
3.632909634889563803e-03
4.052724012745217812e-03
6.242731160414382793e-03
7.800508535646785875e-03
6.784412099888756202e-03
8.104694231832429083e-03
7.030124123866487822e-03
2.148674115606108610e-03
-2.805897938075735919e-03
-3.989552610936659277e-03
-4.616256963321688916e-03
-3.965996965969310027e-03
-2.770249128949018257e-04
2.852850714333509535e-03
3.034959797512872849e-03
1.538369310995942041e-03
-2.349075746405837693e-03
-3.990405265552609236e-03
-2.854898679007909605e-03
-2.667074003859951168e-03
-1.791831862417764612e-03
5.164537259877339289e-05
2.245969140444001051e-03
1.594148011345171857e-03
7.082870154294432490e-04
2.360041068896694561e-03
3.526191387122941910e-03
5.737542662883009757e-04
-2.044626537980020684e-03
-2.778400409646829793e-03
-2.979958618333776975e-03
-1.869756984728040191e-03
1.174547531557887294e-03
4.481817275669462870e-03
6.224124149751902001e-03
2.129198269416319664e-03
-6.318247570420280380e-04
8.421708526155966641e-04
-4.598899126875076568e-04
-3.757709746170168758e-03
-5.512644467329529813e-03
-5.835774832131346637e-03
-5.590477874914353586e-03
-5.023530721587039262e-03
-3.466828428126835122e-03
-1.024570576623622803e-03
3.095841577654754543e-03
1.057540015073708296e-02
1.726401878878590715e-02
2.157183543158973371e-02
1.699721343025327458e-02
1.445501184487558120e-03
-1.726197078906029428e-02
-2.838875554114191069e-02
-2.208097352559565407e-02
-8.123226063637984523e-03
1.309246917891678484e-03
3.702729717366746824e-03
5.738164145744437811e-03
6.797593168790405475e-03
3.372362630984618130e-03
-1.494054529715820555e-03
-4.326374720402206657e-03
-1.842631279950105588e-03
5.066754523697722910e-03
9.347468846542915030e-03
8.764672106667032239e-03
6.821346531573987786e-03
1.017340604776743179e-02
1.308097743181982700e-02
2.006477896293731942e-03
-1.598022174943859036e-02
-2.233251561786115530e-02
-1.386035880850037573e-02
-3.628962224647668856e-03
-2.638831305703995440e-03
-4.565795215294570462e-03
-3.010133410062946612e-03
5.554622559593063238e-04
2.718422569137350815e-03
5.276562105591847164e-03
7.586530588618285373e-03
8.831850765592411112e-03
7.547634984628743236e-03
4.049126437518753112e-03
-1.101645996532152859e-03
-2.520242739044531530e-03
-9.832192515201961837e-04
-6.745559305524767308e-04
-1.728921740684709926e-04
3.288262484858904891e-03
5.899538017888009828e-03
2.782956675177921876e-03
-4.059827129888485611e-03
-1.153376415010862015e-02
-1.376276273255601021e-02
-8.951218134564394718e-03
-3.656722777807428111e-03
-1.198955639829378528e-03
8.664972610120326541e-06
2.478581801778246326e-03
9.177286790814144848e-03
1.786684631470179807e-02
2.368963489271629086e-02
1.611239279178527245e-02
-6.576431231660865608e-03
-2.429033592237123118e-02
-2.763689134343663353e-02
-1.851911669450742592e-02
-3.634454674754658359e-04
1.379589380726773881e-02
1.962718148284913616e-02
1.554882441755994424e-02
5.322724282653114487e-03
-3.775228564980998881e-03
-8.885821621918633256e-03
-7.746438924017089861e-03
-4.789132191029233862e-03
-3.201919532604650172e-03
-2.638073509055008977e-03
-5.900989813384959794e-04
1.808831080149534906e-03
2.679080424416745154e-03
2.287634119359342050e-03
3.041692193646614289e-03
3.379134258579526932e-03
2.341036382339127270e-03
-1.271120544808030598e-04
-4.316339330523053463e-04
-6.404362237744320140e-04
-2.838696785815495501e-03
-7.146682097604646275e-03
-8.975091640364375387e-03
-5.741569312271074636e-03
2.515703577845622256e-03
1.023564057562875024e-02
1.121505269028768258e-02
8.832597735713591802e-03
7.813346520954339222e-03
6.608014623710100656e-03
3.356544021432451234e-03
-1.349789235543893528e-03
-1.025021902782427205e-02
-1.826052242954961935e-02
-2.070172455924583835e-02
-1.619443789278634041e-02
-5.898563068006350447e-03
5.256027068879411644e-03
1.587801180152551353e-02
1.955107787046882900e-02
1.259759032822038022e-02
3.371320457821785389e-03
4.031041339969906087e-05
-1.166861732800028063e-03
-2.837790181275994840e-03
-2.404078628364726168e-03
-3.733392406633926817e-04
-1.082752816143806376e-03
-1.702816575385950482e-03
-1.840832356392466465e-03
-3.685091765707348803e-03
-2.385208352838689028e-03
1.287493098766473096e-03
3.315593452584229676e-04
-2.463442029860834874e-03
-4.132943535621932257e-03
-3.068437286374997314e-03
-7.029998879989506804e-04
7.690928985773957342e-04
2.808344219326758522e-03
5.028099347956335903e-03
4.424142478270754429e-03
3.761795617561959106e-03
3.028660520092017489e-03
4.584697619333193391e-05
8.502892351286194049e-05
1.837113094002970582e-03
1.846129293685227785e-03
7.754589191779105717e-04
-1.769661720423061115e-03
-4.333136881062864612e-03
-7.109454146863268369e-03
-7.360794148933460547e-03
-5.824156800995989626e-03
-3.662186612841547909e-03
-1.249111416184446946e-03
1.208883324754705989e-03
3.051085062620141099e-03
5.285596395788440260e-03
7.983433094131022270e-03
8.590681795423632527e-03
6.195350614278563421e-03
3.204708232221283558e-03
1.228837644792344502e-03
-1.963728484936538930e-03
-6.027089854973066534e-03
-7.721207979211237166e-03
-3.952234075614522238e-03
-4.600862271406597009e-04
1.006436697156156031e-03
-6.626825538942849800e-04
-5.479348519445494635e-03
-6.407796979666990217e-03
-1.880873884310857534e-03
2.515178860719717146e-03
6.087364776474354922e-03
8.450069867777307633e-03
7.381344110853357496e-03
-2.673499822744761722e-04
-8.198705608380471577e-03
-8.452860290161387513e-03
1.421566611353596195e-03
1.104540533824511714e-02
1.262393086190926987e-02
8.123686155181466390e-03
-4.864435209147535840e-04
-1.015955898988901707e-02
-1.630593653209939584e-02
-1.431418386042138287e-02
-9.621343560057477040e-03
-5.205005072265443157e-03
-1.134774176888542728e-03
4.804472475086533217e-03
1.084206116464330252e-02
1.517551751853810083e-02
2.114907575596006520e-02
2.199139746336531073e-02
8.143444037964351831e-03
-1.274199347023077453e-02
-2.524523374984942448e-02
-2.309955977537829497e-02
-1.192197015708092514e-02
1.784655686347963281e-03
6.517564073034107404e-03
5.763618657959614609e-03
4.415307794933172499e-03
2.050644827173108125e-03
-5.129491161299263788e-04
1.470872885683486696e-04
1.353862713824332490e-03
1.191283265822059689e-03
-2.802917677262655393e-04
-1.180321663572871365e-03
1.121622673052955453e-03
4.817291067887100910e-03
4.881531341669101583e-03
2.688035608266499746e-03
-5.477886440828417559e-04
-3.611112792822841321e-03
-4.366839213054617315e-03
-4.332651220278702260e-03
-3.793254512427845192e-03
-5.156688419321372313e-03
-6.089901580618299962e-03
-2.880279434392458548e-03
2.843872675504988644e-03
9.293665580794533559e-03
1.207085606953359549e-02
9.502749477217475177e-03
9.608517955940762759e-04
-6.882654149270518891e-03
-8.291324143602179716e-03
-6.393588293123243955e-03
-8.165840202888907662e-04
8.353505394330197620e-03
1.203361630406910021e-02
8.172818028934767873e-03
1.149432975238319499e-03
-8.445175457950360870e-03
-1.769733424238639080e-02
-1.831655141339987719e-02
-1.265899871774183415e-02
-1.374943613899713181e-03
1.215424288646108943e-02
1.813873630762179168e-02
1.257120712820734149e-02
1.115755840870617858e-04
-8.517859556436507135e-03
-6.457062869346169229e-03
1.355332316801494651e-03
1.039169084181043590e-02
1.700024314924443100e-02
1.734865282825979321e-02
9.118573298836779584e-03
-7.559314621835994293e-03
-2.581204260602143127e-02
-3.047951862519646810e-02
-1.702174318922398608e-02
-2.041677814769341827e-03
2.651285419487592852e-03
4.220214446288611011e-03
7.267777644251388787e-03
8.627018130881087404e-03
6.495095819016970771e-03
6.059823525833751313e-03
6.819984724086652038e-03
6.848558364990852895e-03
4.773399252973035967e-03
4.205544905735695942e-03
9.306131368442792373e-04
-5.328911114217072843e-03
-9.219699055082717504e-03
-8.439086792145299165e-03
-4.788645448052936994e-03
-3.399722342751370675e-03
-1.587001395290587799e-03
-1.662685763334351141e-03
-2.087313370370527145e-03
-8.311211242474564938e-04
5.686981394976643213e-03
9.010372968796318341e-03
5.114948729554887226e-03
-1.632473579953322949e-03
-5.653704593600143713e-03
-5.506582059917503567e-03
-3.585664756619366244e-03
-3.228110822679582190e-03
-6.306000710329848734e-04
5.229878189693487785e-03
1.106995968532617503e-02
1.403337831834642994e-02
1.291925982514905043e-02
8.652197740393462178e-03
3.841015908520230109e-03
-5.747002767078394046e-03
-1.804438966108142667e-02
-2.710899083778787327e-02
-2.692936679038269651e-02
-1.676530111339709708e-02
-3.599484195151656137e-03
8.676480490869905790e-03
1.709944800394359865e-02
1.899549261499991828e-02
1.714109420431478639e-02
1.547000799503119549e-02
1.295803061827870660e-02
6.673229783016471246e-03
-2.264845913747342253e-03
-8.821470445842992392e-03
-1.257023257505727500e-02
-1.370254539336700564e-02
-1.102229431988820119e-02
-4.674836086600812381e-03
-1.628352214064488802e-03
9.636850689041321152e-04
2.486774919609463421e-03
8.035207366833094927e-05
-2.979596346405798731e-03
-4.159455471101341367e-03
-1.681986787331380979e-03
3.170587883594933650e-03
9.400413790639305586e-03
1.414738591986023503e-02
1.573474419478097103e-02
1.275269736934593612e-02
1.469156457442530143e-03
-1.439519202737085841e-02
-2.411244399933935162e-02
-2.092148452025090893e-02
-7.358659542545039310e-03
7.342129722110009131e-03
1.213402405899973238e-02
1.063552633459202354e-02
5.411636764832385843e-03
1.023844930290577528e-03
2.961838965989011929e-03
7.116642454106834013e-03
4.208907665309396563e-03
-6.016420236140583404e-03
-1.707536433116850841e-02
-1.757428696550231151e-02
-8.301294820060704099e-03
4.329445462400004045e-03
9.488993895929696137e-03
7.027831849507610966e-03
3.648401556591141133e-03
9.915789643931867403e-04
2.951755420977635047e-03
6.210705346892968735e-03
7.102281617050414456e-03
4.208666254004584523e-03
-1.328487768589959196e-03
-6.256911962312035162e-03
-7.339297434242087435e-03
-4.394074292925672851e-03
-2.726861523778068355e-03
-2.593960886126174363e-03
-2.650611630116150321e-04
1.756183368975457529e-03
2.056839800476037861e-03
2.144321818106701121e-03
3.400347900888473916e-04
-3.341645958590634246e-03
-3.993566626299440737e-03
-3.112326307028738699e-03
2.230200252416136494e-03
5.954052231747868767e-03
6.394646772380431672e-03
4.011187346078811701e-03
4.703976253674662018e-04
-8.942352061909086998e-04
-1.029919740676994797e-03
-2.107896200274288635e-03
-3.550511332610326119e-03
-1.872955797608252381e-03
1.997646881454973739e-03
2.421250002063103385e-03
9.497514068940238804e-04
3.777592215051282310e-04
-7.503756419586195747e-04
-4.785203936426508410e-03
-8.414605580609569452e-03
-7.094993015589978053e-03
-3.452349769575936353e-03
-2.105180990473302233e-03
1.004329644411888420e-03
6.085829837715259205e-03
1.116877884523264503e-02
1.529998414007402441e-02
1.579553844505983753e-02
8.550868519824060196e-03
-1.419436265110725522e-03
-1.003591059653013984e-02
-1.520276225331380904e-02
-1.205782621876660271e-02
-4.704500071095044263e-03
-1.163599735235518705e-03
-5.489705760838188564e-04
-2.526914009651551590e-03
-3.506056858312383857e-03
-2.445078135335745483e-03
-2.555557056292773687e-04
4.149537195779573126e-03
6.362094244260706709e-03
3.481386392151825278e-03
2.029259422922725161e-04
-4.316952754212454682e-05
1.085596166939108240e-03
3.555049770919552383e-03
1.002457514724418297e-02
1.456299487383383440e-02
1.288458002453635003e-02
4.960311679265239776e-03
-7.708224042761662766e-03
-2.374602837150365658e-02
-3.089944242754025586e-02
-2.006089915928543910e-02
-3.268931301098836929e-03
1.009218789799289431e-02
1.602810685815901984e-02
1.118826207785535674e-02
3.224053729089752275e-03
1.006257168746212301e-03
1.793399707499520983e-03
3.275723352440178086e-03
6.773245244192150662e-03
6.399984711665724670e-03
2.646243910351057937e-03
-9.730233683810417603e-04
-4.166767156821034497e-03
-7.265553709557185692e-03
-1.182458447944102764e-02
-1.375248520223546628e-02
-1.109230016434461022e-02
-4.177305406437604139e-03
4.514671123152214603e-03
1.187807929133023570e-02
1.478111690916214006e-02
1.646828574223531058e-02
1.694619583713248556e-02
1.008953407262939105e-02
-2.767147452246020330e-03
-1.266042172812283269e-02
-1.854313009770000922e-02
-1.856882883706321638e-02
-1.084048411170725548e-02
-1.160233542830774813e-04
4.329470188240686253e-03
3.194926855419697592e-03
1.955755259307735000e-03
2.153681776682053479e-03
4.892248291057109053e-03
6.703046077123611148e-03
5.331503121742854102e-03
2.320523329471435060e-03
-2.642996740475730098e-03
-5.477205107843704200e-03
-3.659167032552028409e-03
-2.634841555930778154e-03
-1.025802374505983247e-04
2.696399752139263563e-03
3.574263802465539163e-03
4.435760067536758701e-03
6.706254979798323239e-03
8.592839880835135419e-03
3.110188382179122826e-03
-8.633672310416590223e-03
-1.498541597824515868e-02
-1.189550303339703338e-02
-5.201340792480438520e-03
-9.729284632581463547e-05
3.134822491470083163e-03
3.778506911405059114e-03
2.962311977020672289e-03
1.513510501286026606e-03
1.474191854660134027e-03
4.109233764056720133e-03
4.864734500377624650e-03
2.367315350837458088e-03
1.322984343103326271e-03
7.679795893135309243e-06
-5.719842755567982901e-04
1.192656873036817156e-03
3.248853314299864677e-03
2.028228479724793285e-03
-2.356017395536573727e-03
-7.016776196051392744e-03
-9.644581744956573152e-03
-1.018426045907708938e-02
-6.717624592662679514e-03
-1.269013550726672858e-03
9.463014799540076134e-04
2.036427705869120908e-03
5.619129932751116413e-03
1.024609211248162649e-02
9.696572904571008900e-03
8.839671631752423278e-03
7.611506729831928053e-03
4.682377041603355897e-03
2.045097473302807597e-03
-4.583007798037126886e-03
-1.216239344497147684e-02
-1.641741270961974072e-02
-1.304195447854718595e-02
-1.808420372715720086e-03
6.419028001297811918e-03
7.995834288255950634e-03
6.799002094871521400e-03
2.014049512010314749e-03
-2.564885170216689957e-03
-6.631105412494768363e-03
-6.966542214199253867e-03
-4.319045881871943181e-03
-6.674248507171822581e-04
4.123654711669704973e-03
9.851234643558963444e-03
1.062457201684486631e-02
5.845945158904304606e-03
2.803420413604222096e-03
2.788670523376792897e-03
-2.252573226600811801e-03
-7.432311174265397724e-03
-9.251612070479659639e-03
-6.961954438536109568e-03
-1.486422557061702586e-03
2.910468794104957395e-03
3.664580658494002996e-03
3.426126102805827477e-03
4.874674947548521264e-03
1.565827528069300631e-03
-4.825293431912101166e-03
-6.029898484142708244e-03
-4.581935472170652057e-03
-1.156471014269091395e-03
1.152716415919654864e-03
1.831690500149069100e-04
6.465138212046086900e-04
3.133398255629527007e-03
1.663510110424578758e-03
1.573360737840814102e-04
2.227985617076679991e-04
6.929764630811835208e-04
2.659088102651897823e-03
3.519425423615535082e-03
2.169569528315963558e-03
2.516452456897951516e-03
2.040862783879050270e-03
-7.175963988930732273e-04
-2.642028966323518423e-03
-3.811406772964959222e-03
-4.441156999181134456e-03
-5.945764354843496684e-03
-6.816289099664334626e-03
-4.909890199740119497e-03
-1.268488904861664671e-03
1.400457797005066028e-03
6.955439218212958012e-03
1.238470959600211294e-02
9.935406199016876688e-03
4.504051551764008850e-03
2.075664806544756235e-04
-3.887285548565832388e-03
-6.282854070373139650e-03
-6.707410312778334938e-03
-7.178246137613682708e-03
-6.504869606705253673e-03
-1.355457994242563295e-03
3.824611147413978923e-03
5.813719167649980014e-03
7.952421502545263532e-03
8.087489725909556212e-03
4.217653457845501122e-03
-2.757950786734853811e-03
-7.052620555280832496e-03
-6.074821588722971628e-03
-1.949722122291305641e-03
1.005972872667342404e-05
3.089901647270080023e-04
1.454072210819217382e-03
3.223162654294434507e-03
1.746568503083120944e-03
-3.325462984095239709e-03
-8.217760863220534284e-03
-7.936055519561684493e-03
-2.531029933204172102e-03
4.266014746489195375e-03
6.102052301666612000e-03
5.590686289462672674e-03
5.150776945875189076e-03
4.257150445611861990e-03
6.003321914883591459e-03
8.562420859301460990e-03
5.502331746918417803e-03
-4.282855979537212102e-03
-1.106459062037266732e-02
-9.370998319993589093e-03
-8.502480665769458421e-03
-1.039739862798190473e-02
-1.054357329222686129e-02
-3.930512096831646589e-03
7.772991284137939667e-03
1.636232356605788613e-02
1.395334647238214570e-02
6.553720460464563906e-03
9.341967891980896763e-04
-1.477440317983599524e-03
-2.154113989124095598e-03
-1.193648842557144341e-03
-1.128856019369508515e-03
-3.718569215618170581e-03
-6.282063240482528045e-03
-7.343451605860425169e-03
-5.870218288201484343e-03
-3.414063458149119937e-03
-9.141227151820280339e-04
3.124325166876697635e-03
8.041493960043180622e-03
1.055514954200294751e-02
5.210261415184496911e-03
-1.587763327145828504e-03
3.388096625009528345e-04
2.817783723506799530e-03
1.153606438390275416e-03
1.460940981305742159e-03
9.922023108230289615e-04
-1.168852343677077854e-03
-5.162826886191749891e-03
-7.749484491961103859e-03
-6.113590710153355735e-03
-1.826637564263934067e-03
-1.608055626898701081e-03
-6.952810996758234351e-04
1.434090716038972533e-03
2.910602410212016354e-04
-6.648895143100421422e-04
1.571002039142768616e-03
3.281998562715549451e-03
4.701494090011554272e-03
3.901975423685780271e-03
2.741113378631460269e-03
1.824616903044795884e-03
1.270581778233807919e-03
7.137794374231665878e-04
-9.929077106173374474e-04
-2.718555097087159596e-03
-2.571214806835510347e-03
-1.551371225158780683e-03
-1.865834808072175822e-03
-3.259649398793559687e-03
-2.859612660787279586e-03
-2.954673219774289587e-03
-1.231004098785773784e-03
2.664015661036831222e-03
5.439154536615780321e-03
6.410467515809043469e-03
5.207421471275804244e-03
-1.741292204525268436e-03
-1.007301109128623182e-02
-9.783870461852993416e-03
-3.238355045773301435e-03
2.913183097888022953e-03
6.274488640394676464e-03
8.393712453649613756e-03
6.215401476140611052e-03
1.540149177750672893e-03
-1.109708319971080930e-03
-1.504588269507186596e-03
-4.967061633753598691e-04
-1.080328289569585732e-03
-1.517068493447962501e-03
-2.194522525332599436e-03
-2.873004688066250426e-03
-1.154710950279493747e-03
-1.178416668920847805e-03
-1.717188095642708081e-03
-1.978707687408181280e-03
-1.762128038455321134e-03
-3.447958543058487167e-03
-1.629836971289525763e-03
4.059501136907236497e-03
7.108603149113113147e-03
3.885371579424244572e-03
-2.650042032620738923e-04
-2.009265117883136074e-03
1.499993596302988570e-03
8.507839820598944378e-03
1.220575839525047529e-02
8.523036353821440356e-03
-1.420144127638372014e-03
-1.297840646290229077e-02
-1.934249146766922611e-02
-1.595534234492220968e-02
-7.679772255056233586e-03
-4.082677586780573075e-04
2.133265879412084461e-03
2.038461473781684929e-04
1.389149815582609157e-03
1.005777294238226205e-02
2.063474831081430969e-02
2.400248524053522070e-02
1.451863234045748345e-02
-1.280401704394585650e-03
-1.260169252708593160e-02
-1.673915496323486948e-02
-1.524198855862982441e-02
-1.313773674238365857e-02
-1.022636199364449633e-02
-3.215158515916667105e-03
2.220859723818098715e-03
4.091563528946542266e-03
2.701832581927832676e-03
1.548367313530593994e-03
3.944216711184662764e-03
7.967141489997778964e-03
1.026221892904561304e-02
1.000265517047168456e-02
1.011059695062810002e-02
7.803625027255355756e-03
-2.187739539890669674e-03
-1.463220664353464748e-02
-1.759211754794338597e-02
-1.254488514982390716e-02
-2.921150631431048035e-03
6.824678821545121683e-03
1.076647015994157928e-02
1.021008728489038175e-02
4.388988978817059440e-03
-6.844204110548861297e-04
-6.868275053074087734e-03
-1.672370097132908767e-02
-1.887457455313892515e-02
-9.383036400961721271e-03
1.976010833626664492e-03
6.798471310387351613e-03
7.486714370486679745e-03
1.020640076986927686e-02
1.326929771783911735e-02
1.169661359689132783e-02
6.673169993131818599e-03
3.871530510424507979e-03
3.545057689672121391e-03
6.992857712296864613e-04
-5.270653528840092521e-03
-8.568804640743808015e-03
-7.346221909628763806e-03
-4.895536703593974560e-03
-2.152223118992518079e-03
-2.103570400095172190e-03
-2.913056885738216084e-03
-4.327338053298848859e-03
-7.377022710896261569e-03
-1.042285584105862375e-02
-1.039688189897623564e-02
-6.185775747760079678e-03
1.185995732033440393e-03
1.004986518453056081e-02
2.035144495733358025e-02
2.355443126741577423e-02
1.696713355778517104e-02
1.014534626212274838e-02
3.993730201896381581e-03
-2.656131710870988753e-03
-8.900627106324058430e-03
-1.524335153086837577e-02
-1.791782428211224562e-02
-1.358849639237823259e-02
-3.293894913257004210e-03
7.265694508855636939e-03
1.124827335284895105e-02
5.404515761785984480e-03
-7.329490993180702747e-03
-1.280276171244796278e-02
-6.258985158386994388e-03
3.249904763106150718e-04
2.177648895914204713e-03
2.780638091380352277e-03
3.166400905738722509e-03
4.949524284672859355e-03
5.273412338815003722e-03
3.967898664638877873e-03
9.462143161320405935e-04
1.389581683926375145e-03
7.662561527935765442e-03
1.321783949060744041e-02
1.069702904918299995e-02
4.936536835401629866e-04
-1.487173212662712060e-02
-2.447409889616085008e-02
-1.888313257320253444e-02
-4.797512638264022668e-03
6.254345728747576737e-03
8.749250180875826552e-03
5.148658834283125624e-03
2.381230006741073650e-03
3.887742024562876168e-04
1.728592894818285590e-03
1.034312509823529652e-03
-2.024136213965254533e-03
-2.139227776144201482e-03
1.821588713232167027e-04
1.206190826136188969e-03
2.359497901209922123e-03
3.970101241449934017e-03
3.130481677448775524e-03
1.786505919096502979e-03
1.401074419165761545e-03
9.768761766202232241e-04
-3.641645993073955583e-05
-1.885841143033210356e-03
-5.879569859430734333e-03
-7.970322198984769804e-03
-4.395045962349706202e-03
5.467646998694461816e-04
3.039089368900794487e-03
4.478431014609323031e-03
3.383810974892626812e-03
1.231383764101483703e-04
-2.175619046974813092e-03
-2.359259529184283034e-03
-2.017069410944232009e-03
-1.060735773781312612e-03
8.973085693968408565e-04
2.555334659895954538e-03
2.138632692796973555e-03
9.055912931461606360e-04
1.772280877148886286e-03
3.818715239102427397e-03
2.137300813286743470e-03
-8.731419280630279244e-04
-3.896051278964241232e-03
-5.319551357133206308e-03
-4.300273824014229536e-03
1.071479781233559796e-03
5.992756648325287677e-03
2.459720588559386866e-03
-2.725272421565074019e-03
-1.990398476207774162e-03
-8.787871415850666019e-04
-1.568291345191573328e-03
7.909788936525509549e-04
2.207551785425041282e-03
2.208094646031948279e-03
1.701120653874892141e-03
9.934994134329121554e-04
-6.669057575855443995e-04
-2.649310134911105931e-03
-2.939620595983184238e-03
-1.955178121447894834e-03
-1.172174328589578509e-03
6.876070687312271085e-04
2.314172358908565819e-03
4.079422078831791872e-03
3.152016888259345090e-03
5.144162014463484964e-04
-1.632706258819220657e-03
-3.228712314544059971e-03
-3.760374230785576768e-03
-3.484378217390019829e-03
-2.972060494743851249e-03
-2.807457714809195523e-03
-1.454745540075112580e-03
5.043429224613513867e-03
1.131420837672749563e-02
1.318265422562992992e-02
8.589754991549170687e-03
-2.249217241543709049e-03
-8.138529834180622397e-03
-6.575462570316447514e-03
-3.892540381043400714e-03
-4.110024475280776857e-03
-7.404616571979671241e-03
-1.102364411038864178e-02
-7.304490289109659244e-03
1.211986269772234899e-03
7.264202412332612484e-03
9.691585986730054392e-03
1.037122628950676306e-02
1.039397264941898519e-02
5.786656988825523464e-03
-1.197109882259918788e-03
-3.446480218394061545e-03
-1.650863326550966199e-03
-3.527506246178971003e-03
-5.958563538005058093e-03
-5.205066087814977892e-03
-4.681329461305395491e-03
-3.963635848936079495e-03
2.963588836615233869e-04
4.147668958126714440e-03
4.729631678049419329e-03
3.319668040903733103e-03
1.666651967997874028e-03
-3.023692258660855780e-04
-1.587123949641367025e-03
-1.948936134944870453e-03
-1.456515452724838761e-03
-1.252402270983932024e-03
-9.625099611004766121e-04
-3.781030822441732451e-04
2.677142798533723063e-03
3.189104048510347546e-03
3.954151949362432893e-04
-6.893529588539936640e-04
6.561727786212890852e-04
-5.328513225829572110e-05
-6.043796967288869813e-04
2.901241423539803314e-04
2.081598825159956465e-03
3.613027088852989628e-03
4.347312492281393478e-03
5.443586103137484922e-03
3.814596065304215987e-03
-4.203512900988418816e-03
-1.216416654399189202e-02
-1.449402826672315826e-02
-1.275109944416513708e-02
-9.071101951077187309e-03
-4.655070884880844681e-03
1.890787233858402805e-03
1.148217849588431191e-02
1.614319112132972522e-02
1.394176508654950547e-02
7.909293835036466588e-03
4.357728561440166008e-03
5.407072712185963595e-03
8.235229584623141724e-03
1.059126374330177783e-02
6.853593909234662225e-03
-1.072107713959820005e-02
-3.137074539665046791e-02
-3.434974724422322490e-02
-1.958364662449939980e-02
-2.171284318264848391e-03
8.055780196711756491e-03
1.063757249214407341e-02
1.095452252747226851e-02
1.364233876209700394e-02
1.432988745480428053e-02
9.844520774655234757e-03
4.456167191897108908e-03
-1.989063298509672554e-04
-4.507198505591490136e-03
-7.668557472853208302e-03
-6.467802915390790004e-03
-7.015681831762924335e-03
-7.193969493850164466e-03
-3.516768257852353162e-03
-1.306426631227600589e-04
2.629581687981221230e-03
3.661536719002690676e-03
3.076562082018757804e-03
2.807999349064212689e-03
4.779366074796994289e-03
8.006389777010552294e-03
7.532423304835643603e-03
8.429311534838227621e-04
-7.854554958700656758e-03
-1.128443300236537522e-02
-8.098409948541362632e-03
1.813614195227651875e-04
4.586581545352790869e-03
4.504825067237804904e-04
-6.951386855189510723e-03
-9.580745688919745789e-03
-6.260071247756821000e-03
2.960881827007447176e-03
9.467857361253030624e-03
8.887297562085142918e-03
7.485488708334799013e-03
7.057115905173125779e-03
8.129799518552596749e-03
6.765769923546267710e-03
2.507897325343830253e-03
7.391180243734389837e-05
-6.341920135952096825e-03
-1.641833102804063013e-02
-1.880822817683691292e-02
-1.035343145854395949e-02
-6.572243471995144540e-04
4.240926594883081928e-03
4.909513526062574476e-03
4.240491920934082344e-03
3.162288138481010591e-03
3.676360645480753961e-03
2.586742333422234648e-03
1.253274404565448384e-03
1.614649619540743479e-03
2.672381437537199762e-03
2.929046779271103629e-03
2.372074412592891333e-03
9.510707516102311250e-04
-3.247448079144693404e-03
-4.684517369605651661e-03
-1.804074048323967353e-03
1.602739581794455220e-03
5.260144140041399935e-04
-1.337032553690517631e-03
-1.951554472053557143e-03
-2.160743774904332233e-03
-1.562573346521069478e-03
-1.254755015398382415e-03
-6.305036221235844505e-04
1.551699215617223428e-03
3.350560531503482108e-03
1.774585909237269641e-03
-2.028527656164620218e-04
-1.124337434454575173e-03
1.389117165902509221e-03
2.394600374514143856e-03
6.100509111998733691e-04
-2.657394447159281380e-03
-5.193512208439775811e-03
-5.712005202924377856e-03
-4.621864909852635775e-03
-3.116658253398413812e-03
2.466466975808727716e-03
8.435924249851326287e-03
1.305185814315748538e-02
1.652786591935075100e-02
1.615427918797433804e-02
4.782948324793974242e-03
-1.496777403657786887e-02
-2.489886174479419984e-02
-2.341227020760532768e-02
-1.420947854276762359e-02
-6.422847273587122333e-04
7.569801053462519268e-03
9.131238737044964845e-03
1.069982871211957315e-02
1.146160961816995554e-02
8.916962360932503134e-03
1.923217183827497130e-03
-5.801227086922103142e-03
-8.120177105023334771e-03
-5.023716912023639021e-03
-7.945829282904326440e-04
1.183334110404602423e-03
5.142938714468692218e-03
8.290140159116936303e-03
6.607524946653658277e-03
3.535015036136209010e-04
-6.236681194871254545e-03
-1.043860282229867181e-02
-1.301876023030045827e-02
-1.045217868786338031e-02
-2.860456928540771986e-03
2.013670882669483034e-03
4.055037597367854886e-03
5.424302647599139882e-03
9.632295263464910398e-03
1.741314065654928772e-02
1.817718331436071408e-02
8.325225230944666502e-03
-5.385052209567748986e-03
-1.513295608195390669e-02
-1.720664910123535785e-02
-1.091967684396165546e-02
-3.329223166328582929e-03
-1.905039373975393920e-03
-1.253167256816499833e-03
-1.735891944036090876e-03
1.327021064898451311e-04
5.266434198246130842e-03
8.636998578534730436e-03
6.890317149207759832e-03
3.065139210154489875e-03
-2.724065792664984338e-03
-5.206382878187441020e-03
3.961488452501027414e-04
6.312966398025034523e-03
4.738311735035399992e-03
-8.741154183227583391e-04
-3.435663256632411761e-03
-4.271031231001074825e-03
-4.414043251800332628e-03
-3.532923733272876760e-03
7.571420804141155883e-05
3.083425948067312038e-03
4.306207392258670254e-03
4.556299672982540988e-03
4.052705720353485391e-03
4.423518601268813474e-04
-3.107802835574802712e-03
-2.331202625353087123e-03
-1.013418080616556270e-03
-2.292940730080583918e-03
-4.236998975615823872e-03
-4.728323989414479588e-03
-6.355306052689560850e-03
-7.725229760044574276e-03
-5.614271142009586921e-03
-1.713958350528074412e-04
5.675385305821118234e-03
1.245978650431733663e-02
1.684124905785079271e-02
1.709207286017074348e-02
1.325132445610531159e-02
1.946073331590189755e-03
-8.638646194904819539e-03
-1.247133936309340572e-02
-1.205922428971514630e-02
-8.965321217858561106e-03
-8.214834786625654223e-03
-5.464776108398706859e-03
-1.493362193482250001e-03
2.072404241182738624e-03
3.971692965332180268e-03
3.910007606901744204e-03
3.308931699217575531e-03
2.544714952067561077e-03
1.543268708035947998e-03
-2.218561458760888623e-03
-5.182384663857549610e-03
-5.961236392332315906e-03
-3.062612471228737168e-03
2.202346821077432164e-03
5.864056684659678213e-03
1.136163418658719948e-02
1.901564387644880463e-02
1.672750921853032036e-02
4.559722524890985271e-03
-7.991642498958145824e-03
-1.753825688452697804e-02
-2.067280843461576090e-02
-1.577954407146020879e-02
-5.460596911908443575e-03
2.709189034871461489e-03
5.643756323327821754e-03
5.656425771950290664e-03
3.736839544138284824e-03
1.675570572247737401e-03
-8.460748068663932156e-05
-3.247045941388225997e-04
2.176445180680468793e-03
4.207762810423222762e-03
4.069695540335146328e-03
2.485159471491013572e-03
2.292500581618455054e-03
1.884936106318658555e-03
-1.734835836118150520e-03
-6.541690886788706881e-03
-4.415214222965982253e-03
1.164420344332094299e-03
2.138609807541934880e-03
-2.226403086024027374e-03
-6.408179975082996076e-03
-6.870436512929986410e-03
-4.661693645492415335e-03
-1.149260955422800375e-03
2.125794429202347569e-03
4.204050292940646541e-03
7.753446610707865130e-03
1.067399416018340735e-02
1.220282721121438221e-02
1.246341534556460844e-02
1.064712465168122894e-02
1.368602743845578028e-03
-1.402217468019104941e-02
-2.406216765140452643e-02
-2.165338114634570224e-02
-1.183329558460975532e-02
-1.243057563798177952e-03
4.155695338560629233e-03
5.170779920362046471e-03
3.561673555013768026e-03
2.321852773562877933e-03
2.755862404629528216e-03
4.456799491349385661e-03
3.608395373711610621e-03
2.735738198112350889e-03
2.151147046078020694e-03
4.834285939572927071e-03
7.586339137097625022e-03
1.019665057540310692e-02
1.408760875069457394e-02
1.287834382140513184e-02
1.110739596970729270e-03
-1.641242618870479217e-02
-2.917659342734666220e-02
-2.840953279954862645e-02
-1.820720116014747786e-02
-7.598283049063175344e-03
-2.011121911814691722e-03
1.433443020922979885e-03
9.465983170702435556e-03
1.890078715160308648e-02
2.087436727191715677e-02
1.546500516155175850e-02
8.925630347915276819e-03
3.755305804502783416e-03
-3.849832854864323833e-04
-2.538586079814997612e-04
-3.037634844232207465e-04
-1.672378641363311824e-03
-6.125439106305982130e-03
-1.343882495804389621e-02
-1.939416398586493034e-02
-1.500049717773170588e-02
-1.897047161664386535e-03
8.716419062547282881e-03
1.133374533411281478e-02
5.980861392062272915e-03
2.324574779329119725e-03
4.351387970574338419e-04
-3.740078518172330001e-04
1.802053059838183528e-03
3.976348012253103255e-03
2.385556742350468905e-03
-1.878387827552799045e-04
-5.190299066513777339e-04
4.832857912647846700e-04
-1.457099047593886192e-03
-5.282676606535742676e-03
-3.988091473790069709e-03
-4.859325173831871374e-04
2.008920247649749642e-03
2.575133994900592749e-03
1.212887693068835562e-03
3.706890973047515512e-04
1.589276964221071837e-03
1.229976521136240961e-03
8.847675791659376828e-05
-1.487495446375668336e-03
-2.682689438494445435e-03
-2.367817136917976448e-03
-1.714354043680145240e-05
-5.947283646310672989e-04
-5.709166103862235546e-03
-7.668778291389242822e-03
-3.831961507645347681e-03
2.927587136606251209e-03
1.169080889589088623e-02
1.616411636622034492e-02
1.154423627873640140e-02
2.608138974496476865e-03
-4.061554728706386237e-03
-7.999895629312345213e-03
-6.301137060538463189e-03
-2.912655849260736493e-03
-2.213704953039997113e-03
-3.054671603370746717e-03
-3.633690445075480994e-03
-2.257454974099494961e-03
-1.615739825872492940e-03
-3.294304258136347870e-03
-5.343091239981764828e-03
-4.730032116275271863e-03
6.611567239938520493e-04
7.438795524106908696e-03
1.340386371401778264e-02
1.387777436713216565e-02
1.100487425723201823e-02
5.970842913936481693e-03
-2.517048697269948405e-03
-1.028452369736362199e-02
-1.164393584976441270e-02
-8.077627378622715196e-03
-5.936605252024774494e-03
-2.545732397994169942e-03
1.442029136384660563e-03
8.263728753908653954e-04
3.535978168513947213e-04
1.437055239960690223e-03
2.303758168875799130e-03
3.480893427758433370e-03
3.516829682377080584e-03
2.027097717995318855e-03
-1.378341284547605038e-03
-1.910415696290075020e-03
1.241701305307769086e-03
2.468114386619828585e-03
-4.964817614873614539e-04
-2.757915882200822049e-03
-3.401044750427741417e-03
-2.895423157502411554e-03
-2.179753192444903748e-03
-1.899298806055189394e-03
3.401467747844661772e-04
5.699490085999194509e-03
8.003374412708057564e-03
5.796708139732810634e-03
3.264311760260927772e-03
1.539675571786361646e-03
-1.897377554239643768e-03
-6.192771656999420705e-03
-5.431171128314130417e-03
-2.972319324302937979e-03
-1.528629828908633238e-03
-1.943782342799912823e-03
-4.874357282934814635e-03
-5.608908039698742680e-03
-5.370136211710133979e-03
-4.309519443608494926e-03
-1.828141169797998069e-03
2.339036204996017190e-03
9.329130427997271019e-03
1.595223463602279956e-02
1.987414198669391549e-02
2.190756578872065860e-02
1.732558466030717850e-02
4.582687789541516261e-04
-1.941336044603429387e-02
-3.039007721955305427e-02
-2.967949727568876955e-02
-2.113764374415118621e-02
-9.311396217960749705e-03
-2.062962072649299281e-04
5.412154416292472466e-03
1.275898613229870665e-02
2.018672566776585908e-02
2.312811387329898050e-02
1.880659060285916687e-02
7.139451312061231673e-03
-6.519670935200905411e-03
-1.687061334323377779e-02
-1.865801135210408065e-02
-1.016951828292513710e-02
2.198148474641230428e-03
9.900653247989858394e-03
1.141049870316085228e-02
5.816623910061256321e-03
-3.352997196561682651e-03
-8.886724992876753396e-03
-8.885223802472638072e-03
-3.704690514219579310e-03
8.413751285121142537e-04
3.857998556489416683e-03
3.720336849699590939e-03
8.156900778262801341e-04
-2.004612719253549315e-03
-1.415556214533278401e-03
5.760090293798819303e-04
2.859706441317666167e-04
-2.008864041141492952e-03
-2.535886758601122240e-03
1.558227920188483869e-05
3.420341150264823507e-03
5.117279309515094729e-03
4.190668846123500081e-03
3.201374836295912615e-03
1.475904995246166184e-03
1.520690492795160904e-03
6.375662578010826741e-04
-2.810833823639772699e-03
-4.661036727547865181e-03
-5.773176212395371779e-03
-5.461930743685085125e-03
-3.932421604474662345e-03
-2.277361518456333736e-03
4.084499369375854672e-03
1.014779783682266852e-02
7.726196414551043945e-03
1.928355004349599326e-03
-2.578485211639703310e-03
-6.607424811994174786e-03
-7.911020853409431175e-03
-6.984865589500083988e-03
-4.633142269684492436e-03
4.640328032493530098e-04
1.669801188772539972e-03
5.546784611872257421e-04
4.903947932437520939e-03
1.238458906860177844e-02
1.679947744393657516e-02
1.572026108399086908e-02
5.156093937328450581e-03
-9.750654895616991252e-03
-1.852103961694050518e-02
-1.783283126461591636e-02
-1.028293051265002575e-02
-1.170486448791534413e-03
3.646329451151892991e-03
2.482031179552214237e-03
5.672909415551598191e-04
2.718347819720562560e-03
4.173458780425133054e-03
5.995302025515385907e-03
6.822532467553300839e-03
3.777550310008120048e-03
-8.261982141865168230e-04
-4.220047537010626279e-03
-7.000111388153841367e-03
-1.053919831062491257e-02
-1.516313053130909430e-02
-1.298841150582641553e-02
-3.954911979912770041e-03
1.011369082767501863e-02
2.687371224992295832e-02
3.781108787943393557e-02
3.327996868814370179e-02
1.273894076450371796e-02
-1.568456961968455604e-02
-3.363976421891646390e-02
-3.525786260118849574e-02
-2.682085497226107881e-02
-1.728392207536886410e-02
-4.536986189028810630e-03
1.177184119360897771e-02
1.877681915984694139e-02
1.661886439729863552e-02
1.201475441438615462e-02
8.319163430458367814e-03
4.746759308458502365e-03
1.093325022283164923e-03
-1.352069181989477321e-03
-3.467752137345393032e-03
-5.700731561824181476e-03
-8.823262114763646621e-03
-8.280633595192352786e-03
-2.425578560925443529e-03
1.686934141782870343e-03
2.034310548274294132e-03
2.084425539165248031e-03
2.860787073566018347e-03
4.010615338991785524e-03
5.941961400478415131e-03
4.485399183353187824e-03
-1.930560604594061015e-03
-3.424318824714213134e-03
-1.777168076461952469e-05
5.054737136019589808e-04
-4.120250589110033106e-03
-8.351206512227832973e-03
-7.226450222604156176e-03
-3.084503332357793354e-03
1.144739016828466658e-03
3.915378595604885464e-03
5.055690354994599525e-03
5.910544274252810780e-03
4.296687437795274414e-03
5.987164000333467309e-04
-2.388760668601069663e-03
-1.905383289689385837e-03
-7.188548851857310285e-04
-2.572534684748493928e-04
1.530039863808257961e-03
5.293791724942970185e-03
5.407659789693750052e-03
-1.022460806808313293e-03
-7.284597122516208410e-03
-7.734378924364104443e-03
-5.265077965513251766e-03
-9.262502560050270631e-04
3.943725209350318686e-03
6.193946729677454396e-03
4.829473132452815134e-03
1.317327658041930923e-03
-1.175569899893567655e-03
-3.121996742585345357e-03
-5.734409947248056243e-03
-3.792994398581526344e-03
2.146783207550261897e-03
4.684615222600453308e-03
2.848336725449516355e-03
2.854345918230534029e-03
2.998843095466810407e-03
-5.463348641193445376e-04
-3.970730678850315810e-03
-5.899279890865410415e-03
-8.312172969158294900e-03
-8.768791660721924827e-03
-4.230039571678866246e-03
6.491312564007230626e-03
1.493942923507522377e-02
1.246787257030809726e-02
3.814744358853432334e-03
-8.331213961623703049e-04
-1.401076524804420204e-03
-1.511098114356861435e-03
7.283530647953649531e-05
6.059888919163029797e-04
-1.895111125727530921e-03
-4.521687836287307562e-03
-6.177194293791778666e-03
-9.096471250838983336e-03
-9.534520445631286534e-03
-1.428865191268489411e-03
8.185543311362231123e-03
1.091976653456336148e-02
7.552751786833117667e-03
2.379503841011433932e-03
3.075407716067900450e-04
-1.177533537377504619e-05
-7.990922101442370529e-05
-1.765387355622651054e-04
-2.561767447651029476e-03
-3.997121031312412046e-03
-2.305277829628193074e-03
-2.168106186941050686e-03
-3.378740462353580203e-03
-5.422349521160937241e-03
-5.497269786010634991e-03
4.109203634043170580e-04
9.283329281019435039e-03
1.472432788689788039e-02
1.336681078087580132e-02
5.177125193346119800e-03
-5.931236420468975930e-03
-1.209123240166172855e-02
-1.062940900219806750e-02
-5.430984722392599544e-03
3.912375653522633307e-04
3.280945645819792131e-03
4.428950780133487398e-03
5.501670820822595828e-03
2.232243393183224768e-03
-4.746673120699599485e-03
-5.632034087368324553e-03
-2.052202293704587059e-03
-1.272115199705130132e-03
-2.922811329108703816e-03
-1.906238921125482299e-03
1.070066318705530876e-03
6.048401443641301771e-03
1.030665756641259249e-02
8.965997154672932304e-03
2.925465964424910081e-03
-3.118715632383161664e-03
-6.466133274278861552e-03
-6.863178660090805960e-03
-5.275448444780114939e-03
-1.440451847856094938e-03
1.406290990645920475e-03
1.721338799520461330e-03
-2.024935197260109999e-03
-3.262543942570919880e-03
7.737456592183185496e-04
4.463551389389672046e-03
5.851879578926261899e-03
5.272702240716580120e-03
9.214929041758343486e-04
-6.263538529793158047e-03
-1.031360810390515199e-02
-6.181152450035982092e-03
9.511241496116071975e-04
5.586891925562064570e-03
6.950075715491807297e-03
8.526412885063203856e-03
9.214323498944276478e-03
4.090916392944626487e-03
-7.343251541881830498e-03
-1.291829607709478293e-02
-1.128761777744247997e-02
-5.667508244191277363e-03
4.369559413795387677e-04
3.841005672933433569e-03
4.575697813016492768e-03
3.441481230522064685e-03
3.071058565984750594e-03
3.194669814827493914e-03
4.604317964020570968e-03
3.201526632326417033e-03
-6.944120576691326444e-04
-3.260265825379271912e-03
-4.948518210697178295e-03
-5.907630814991699647e-03
-5.523222943897894248e-03
-4.097096274280432292e-03
-2.086626798430762323e-03
1.875098184992857360e-03
6.092020378356816437e-03
8.242503877953062663e-03
8.123532761601656021e-03
6.430250761362205254e-03
3.386072351035138844e-03
-2.318976452222608689e-03
-6.653049251633841657e-03
-6.183607458819228957e-03
-4.629314669945256214e-03
-3.391956596596731877e-03
-3.687758853415772694e-03
-2.578387060367465927e-03
4.662801802444642798e-04
2.495718579800403937e-03
3.633574460887308878e-03
4.323309162034960976e-03
2.573355177666608248e-03
1.120644166785652630e-03
-2.063637333160131266e-04
-2.968778995469812526e-03
-5.393593112402895497e-03
-9.093883436310686019e-03
-9.614654432806221673e-03
-3.457957313943457386e-03
7.639482033800242509e-03
1.883955674920529885e-02
2.098315129823617731e-02
1.707647984291149265e-02
1.208136615829099973e-02
4.390550432264891424e-03
-7.433510158471311538e-03
-2.112279238083772034e-02
-3.037506490351130767e-02
-3.063602424552503214e-02
-2.092498611983677204e-02
-5.825844884331588154e-03
6.019270216285962406e-03
1.057849754228555941e-02
1.221089724485845650e-02
1.691871513257375489e-02
2.331608283724840441e-02
2.764531215784202939e-02
2.483832180922938490e-02
1.279595552243237289e-02
-6.219315449479034287e-03
-2.235025018953632966e-02
-2.741943917737013972e-02
-2.618881490536509662e-02
-2.000734513806032289e-02
-1.091592615843603800e-02
-5.459241046012333794e-03
-1.877217653024439679e-03
4.993918585761666570e-03
1.362673730387018931e-02
1.989668093228115844e-02
1.995796314106800667e-02
1.434632131213145478e-02
9.038631526285575979e-03
3.552109852934482066e-03
-8.059811011231010972e-04
-5.041335754747762639e-03
-9.247384672000260111e-03
-1.258373810125595904e-02
-1.295204757307279013e-02
-1.018678439560385951e-02
-8.490455169646778447e-03
-7.433042111645149670e-03
-4.556277516727738792e-03
-5.788789001813536214e-04
3.022696130730012816e-03
7.957159921951138803e-03
1.360171325398919565e-02
1.637213118710952736e-02
1.382974740782826409e-02
1.169620595326107543e-02
8.447173796994942793e-03
1.582381156106137457e-03
-7.318006459836186653e-03
-1.455187134289778923e-02
-1.716841846270155542e-02
-1.386055216179551443e-02
-9.067230803588378907e-03
-6.402106805967409421e-03
-1.479758172786856292e-03
4.498902251855195489e-03
7.024791415588044728e-03
7.727092634194153431e-03
8.559880689144743621e-03
7.363093795107147031e-03
3.344307406094947956e-03
-7.929979599336006366e-04
-1.295236918076960765e-03
-9.893624750006600396e-04
-1.652340949609324089e-03
-1.719708165699857178e-03
-2.385812795707467973e-03
-3.480756224476935085e-03
-4.078213750540286842e-03
-4.019805716598112873e-03
3.577439673779484104e-04
5.388322039718575727e-03
5.568608117546107461e-03
3.017757759353381641e-03
2.136872507483435647e-03
-7.657832798108167929e-04
-2.061080975694172014e-03
-1.037482790121600930e-04
4.088326975481164957e-05
-1.650552607797324198e-03
-2.140438932626513927e-03
-1.279475211029667886e-03
-1.958970816362687068e-03
-3.703371337879709461e-03
-3.283359224912271983e-03
-1.281236029360233045e-03
1.413553350263371594e-03
4.819794681372624630e-03
6.502812328288305570e-03
5.538469075039460614e-03
3.732799655986500115e-03
1.351081664189862901e-03
2.105846283726553025e-05
-1.838655982780065031e-03
-3.823428418423374317e-03
-4.298306655147559469e-03
-4.053845016131499279e-03
-2.639532266969933996e-03
2.649820259586922592e-04
-3.349316059454705938e-05
-3.784363763850316989e-03
-4.814975036771470401e-03
-6.085439653742271901e-04
3.720315524355974953e-03
4.114622856942875238e-03
2.907933062185535933e-03
3.783139743626549693e-03
4.292659336660826705e-03
7.913266903236676822e-03
1.214827794839489633e-02
7.466907690099717880e-03
-6.358701556660070059e-03
-1.978442527219925404e-02
-2.294422273150325750e-02
-1.067828092224542072e-02
3.889148995589996986e-03
6.436843999574544915e-03
3.717274554820517232e-03
1.268884111666577965e-03
3.710607188041935636e-03
8.170938421441519689e-03
9.468705569325967450e-03
4.686955787470923132e-03
-4.181051530883893460e-04
-1.331143603327265227e-03
-1.484097483802148277e-03
-4.972180056120262606e-04
1.858521580068582979e-04
-2.081152991975290713e-03
-5.187201695289512388e-03
-8.208388530518001547e-03
-1.094706262915674799e-02
-6.761082352300590466e-03
1.409493162198960370e-03
9.273700534454733246e-03
1.331520663302548056e-02
7.729207563783173016e-03
-1.244817854084736587e-03
-4.334535534903841310e-03
-5.110647437418385647e-03
-4.733157561333429381e-03
-1.649997259805752918e-03
9.233661730778932805e-04
3.699722316694956190e-03
3.385307942268075791e-03
1.531684194563641410e-03
2.098626154513107741e-03
5.357728121748328402e-03
1.049639513643339100e-02
1.074765139248226760e-02
-9.495269806483169067e-04
-1.606576100559639272e-02
-2.069045624142573994e-02
-1.505212564815551837e-02
-4.815102949572298320e-03
4.718498650316174832e-03
6.924292120097872046e-03
6.510084311428293059e-03
7.296190165731542346e-03
5.946283199035938896e-03
2.331438102723538790e-03
-7.849634362475732888e-04
-2.790223040076947499e-03
-6.500939937315289470e-04
5.590398134299268216e-04
-2.739070373205509598e-03
-5.602804670881465256e-03
-3.118209429212692556e-03
3.039704442934597697e-03
7.506829900783246190e-03
8.708531201098079419e-03
7.031815558292128093e-03
-1.883668035158639689e-03
-1.325393297691621931e-02
-1.039736981685277124e-02
1.091690041092509798e-03
5.707231222308264788e-03
1.227659307172061960e-03
-4.487609990374113490e-03
-7.994567071552216575e-03
-4.773178082257721784e-03
5.124363562502527031e-03
1.249337972812632896e-02
1.133452345872259202e-02
6.025425447688042939e-03
-1.341620207499334520e-03
-5.156416050378497852e-03
-4.371476054904223536e-03
-2.952848061038359801e-03
-1.786952865031245924e-03
-2.949115832945062299e-03
-5.277473464260914841e-03
-8.037404178699443860e-03
-7.723018591623241613e-03
-3.101657173743415773e-03
4.469343169627571291e-03
1.102989899264395120e-02
1.366715421654455739e-02
1.371017302479429073e-02
8.179331082584000157e-03
-9.068844164423469148e-04
-7.444227111553357139e-03
-1.161260770632529388e-02
-1.559661171453863293e-02
-1.274570895313302879e-02
-5.423329668081364706e-03
2.165727246072533980e-03
1.221395523901089991e-02
2.125516675701493927e-02
2.291108729107549369e-02
9.878211367037904866e-03
-9.127900428693269674e-03
-2.202736294599594302e-02
-2.267286334264069156e-02
-1.297665083870531283e-02
-1.684462017456869569e-03
7.221787519882551416e-03
1.284200459873511765e-02
1.384233015190599637e-02
7.380357319815538351e-03
-3.720352878765790182e-04
-3.540638965681317495e-03
-5.249064292196827831e-03
-8.007680809439449154e-03
-8.833094926908502745e-03
-3.829156818354525430e-03
1.127157579918568187e-03
3.960309062491769970e-03
6.542871760934036718e-03
7.061270802512958564e-03
5.506311123529215347e-03
4.589187355203605892e-03
4.862656674053367732e-03
3.355044391900072025e-03
-3.978493035959187497e-03
-8.969634552155568430e-03
-8.163184361190204893e-03
-3.570874602737547296e-03
-2.055047699688603013e-03
-3.577423897290449122e-03
-4.100566371935656686e-03
-3.681363156061504861e-03
-1.597941639310195786e-03
2.812432289046534013e-04
4.045408852870179331e-03
9.472496438512596414e-03
1.127183534002017089e-02
8.079672642410214850e-03
3.372199052519941724e-03
-1.093219219505768038e-03
-2.676944110269706238e-03
-1.203373295749741740e-03
-1.542222716779196971e-03
-2.914110001335973137e-03
-3.608409808718245071e-03
-4.635165791909818221e-03
-6.818948770211837040e-03
-7.896700717460259158e-03
-6.486387381171567976e-03
-2.245168563380764426e-03
2.595659036819070523e-03
8.102253590106573214e-03
1.113344883400956865e-02
9.297922458026852688e-03
6.287789316086494877e-03
1.499806924658747369e-03
-1.723287573784041543e-03
-2.038213330157228470e-03
-1.771265357946844423e-03
-1.873012493994212361e-03
-7.710594140678197095e-05
-2.487790642201966225e-03
-6.025142783202579871e-03
-7.881251840818037299e-03
-6.892786885617240705e-03
-9.501337204147666110e-04
5.671567184625625306e-03
5.506951249186721985e-03
2.231952722489601720e-03
1.190857619760338562e-03
-2.290086864825358829e-04
-3.300794922294345186e-03
-4.306063722130840966e-03
-3.851055811836995996e-03
-2.600595228079169950e-03
1.617361388232419622e-03
9.996861061370349022e-03
2.001190374729592061e-02
2.496904848257800943e-02
1.844935177050254643e-02
5.875119968062640294e-04
-2.281636981775454764e-02
-3.691180494542249668e-02
-3.120127040947105398e-02
-1.356176870575271504e-02
2.883752331796776529e-03
1.090046558795059427e-02
1.126396389282608400e-02
9.383429061368664045e-03
6.886843204336113265e-03
4.955839134829674412e-03
2.780206729867480166e-03
1.814452754090175972e-03
1.035927427101779146e-03
1.417929693209334021e-04
-3.018242345106400353e-04
-2.064219116692754801e-03
-2.380952720713792881e-03
-5.103680108505754057e-04
1.051917529514652481e-03
8.526271748775923406e-04
-1.053704847305765840e-03
-4.504719281784486551e-05
8.689249276763468498e-04
-1.011207200874021488e-03
-2.879996818748340077e-03
-1.304419155950209581e-03
6.086471497061835684e-04
8.443967916351182140e-04
-4.508508073435058320e-04
-2.191055408568799365e-03
-2.810507139899550560e-03
-1.030559300015983963e-03
9.308825355666832963e-04
1.778201700258448103e-03
1.283807190864121256e-03
2.811314895316375053e-04
-8.679280310947760750e-04
-1.973793825250311391e-03
-8.878933223052578455e-04
2.831670920643119573e-03
4.713919864381586715e-03
3.309806145275688387e-03
3.094053504928014585e-03
4.857371736908637494e-03
4.951200605582881803e-03
-7.354035371564186623e-04
-8.677980171063475953e-03
-1.213127171531179320e-02
-9.054892467622584901e-03
-3.175233022956741070e-03
2.578752850863522995e-03
5.922775462685151392e-03
7.045755491431705993e-03
5.706920929267094572e-03
2.147388107672295633e-03
-1.387485827685876368e-03
-1.719178561126606143e-03
-6.895921793672208852e-04
-1.196630271995303627e-03
-2.467581591239686491e-03
-4.946760382453130496e-03
-7.097545717090058583e-03
-5.563043975291709527e-03
-1.431773725975390380e-03
1.430326710447010242e-03
3.541247687806071617e-03
9.031339001310645376e-03
1.510938182282869219e-02
1.709735004514164464e-02
1.011390139762140955e-02
-3.438082797320989904e-03
-1.339838409489716234e-02
-1.754818286608754094e-02
-1.426827666700749425e-02
-7.407134832401279963e-03
-7.774860828473834432e-04
4.137716198982374464e-03
6.660174294603093265e-03
6.761242870983300013e-03
5.515600827634937857e-03
4.333836697212418640e-03
2.059249047735372054e-03
-2.288878528779968863e-03
-5.093035028053535286e-03
-6.685273476774237535e-03
-6.162826672192001434e-03
-2.003311614040921215e-03
3.656568085677120578e-03
8.370645313651250280e-03
6.629004221220769974e-03
-2.062191960981651570e-03
-8.762058707123725546e-03
-6.391788606293740717e-03
9.532548218509438037e-04
2.272845279063367366e-03
1.480217150980165470e-03
8.399686786316449411e-03
1.511864876650990258e-02
1.232100930602583397e-02
-4.793599669088154948e-04
-1.294200874297498152e-02
-1.624513120814448722e-02
-1.131153670676074419e-02
-4.067266281791745257e-03
5.165611532919013246e-04
3.919880377550454160e-03
7.206490972160606648e-03
5.527520348881885363e-03
-2.867727306876095643e-04
-2.206614945563805177e-03
-1.335241182125300116e-03
3.252854349381140348e-04
3.225522710046736883e-03
4.159756332530586964e-03
6.858158978523933372e-04
-4.149825512729851847e-03
-7.157840216618849109e-03
-8.063428303588155571e-03
-5.240165821977807621e-03
3.214920374061094183e-03
8.487940192515464749e-03
6.148133915331111324e-03
7.214106522923048256e-04
-1.329568431035402405e-03
4.125252873334134436e-03
1.385536598152347851e-02
1.789185933458631653e-02
1.037699023270224549e-02
-4.771210995108179573e-03
-2.009512673756544757e-02
-2.839416850264173814e-02
-2.423773678289372832e-02
-1.265779806622154696e-02
-2.744646225979997627e-03
1.495064896502245645e-03
9.968630023291180642e-03
2.267095185356159462e-02
2.813733132243761981e-02
2.463696813929596927e-02
1.146703836919227629e-02
-7.384899192079749132e-03
-1.865539327194264477e-02
-2.008667001518448306e-02
-1.583527116451789382e-02
-1.112001815310807717e-02
-5.348610661527727732e-03
2.390891051697028626e-03
9.817615022801977342e-03
1.175716607637395175e-02
8.527207537947197394e-03
4.711090270482621786e-03
3.814046398372558655e-03
1.396492355975692545e-03
-2.258641090870206793e-03
-4.277611861284873890e-03
-5.599158860913152312e-03
-7.002155976300706436e-03
-7.270891681580244313e-03
-1.972787420313061417e-03
4.791643426228122185e-03
6.947468342098825009e-03
4.223551542738395760e-03
4.700317034102329873e-04
-2.754028089395229445e-03
-2.826623035437008692e-03
7.307328481335973120e-04
3.505060993056894475e-03
3.057747852822670972e-03
-9.227137861890426056e-04
-2.499916637914250533e-03
-7.794461027456871119e-04
1.008674963576149412e-03
2.073471904129140821e-03
1.013436134046215038e-03
-4.028921906950618317e-03
-6.820599429293615519e-03
-4.328687783551230309e-03
3.806172773053703219e-04
5.008008213191034695e-03
9.698915782784176681e-03
1.063472749632991474e-02
4.611460858574725589e-03
-2.565562061843901925e-03
-9.811445464010581929e-03
-1.312937501788356658e-02
-1.018687712775759313e-02
-4.589603538023135851e-03
1.896156055471884434e-03
4.300797182397846259e-03
4.665875285137038864e-03
4.405728007368945112e-03
5.215562998480344388e-03
7.693638998265414815e-03
1.042507899324969338e-02
9.680344750557158540e-03
4.610999511465676409e-03
-7.164372647087705916e-03
-1.779843691918959678e-02
-1.698539625033772954e-02
-9.652594281657789557e-03
-4.207521995523795001e-03
-9.429801617206580791e-04
1.852483145649046030e-03
3.153793515833749200e-03
5.901043919293945568e-03
1.042662480146018880e-02
1.231006797671246357e-02
1.030804789717858563e-02
5.287093678124418251e-03
1.603278319208894208e-03
1.772844671055837616e-03
-1.905723704268330295e-03
-9.178329819779536616e-03
-1.441533116477383691e-02
-1.743532184938611021e-02
-1.663476817741902161e-02
-9.906916527149549692e-03
1.532817672065489752e-03
1.114656272373946815e-02
1.804027712140284997e-02
1.687273065619032675e-02
7.756462156037087323e-03
-3.972248400563619330e-04
-2.853683322310140470e-03
1.861659879771046262e-03
6.629514408372781317e-03
3.987825715068555113e-03
-3.630265352918311036e-03
-8.457811371666193456e-03
-9.737506077944654143e-03
-7.909063876496917611e-03
-6.276854041837699218e-03
-3.221517291578937341e-03
1.087890116975352359e-03
5.759518513556057852e-03
5.663480184316603029e-03
3.783744415407587144e-03
1.901716700617930335e-03
5.877106061998368242e-04
-6.544851734049681249e-04
-4.005337523287782336e-03
-4.028520275410260414e-03
2.682718488963505596e-04
3.291141056453140805e-03
1.399539118206867896e-03
-2.673147678939050229e-03
-5.163360203815064303e-03
-4.483269158158945805e-03
3.055557008694440219e-04
7.206335909946241965e-03
1.373484817473816927e-02
2.120250798581775620e-02
2.099903182249160741e-02
5.294048412905317559e-03
-1.356019896470282877e-02
-2.192487893468101495e-02
-2.240034144022421889e-02
-1.733195958507562431e-02
-1.124743304732830212e-02
-1.162807494073339089e-02
-1.534938993556554665e-02
-1.161210755983507412e-02
1.691160607381031033e-03
