1.377492100976282323e-02
1.346975151121632477e-02
1.316111794750546987e-02
1.285072182490059126e-02
1.254013254759223615e-02
1.223076930317881089e-02
1.192388633589432957e-02
1.162056173397847322e-02
1.132168986506622808e-02
1.102797754046105569e-02
1.073994389730923045e-02
1.045792386568221953e-02
1.018207516456409202e-02
9.912388491929442769e-03
9.648700820847490311e-03
9.390711331632758951e-03
9.137999694955259086e-03
8.890046288675752112e-03
8.646253931650870611e-03
8.405970631424269229e-03
8.168512936816710313e-03
7.933189385436354921e-03
7.699323563895444332e-03
7.466276353570956356e-03
7.233467000146755373e-03
7.000392419443856630e-03
6.766644411384005464e-03
6.531924573737195490e-03
6.296056527590394511e-03
6.058995218454887172e-03
5.820833162405203084e-03
5.581803541767095360e-03
5.342279990845925398e-03
5.102773270468959413e-03
4.863924691321275771e-03
4.626496615241930226e-03
4.391360074681792403e-03
4.159479787597289251e-03
3.931896904071841524e-03
3.709709849502920535e-03
3.494053550726224176e-03
3.286077496359562488e-03
3.086923069346868189e-03
2.897700527397456885e-03
2.719466179468641148e-03
2.553200069266489073e-03
2.399784730015814150e-03
2.259985275481120066e-03
2.134431409123277792e-03
2.023601516076891163e-03
1.927809262275139487e-03
1.847192888034983761e-03
1.781707535307060176e-03
1.731120592286616508e-03
1.695010319218537504e-03
1.672767770885797171e-03
1.663601952504929109e-03
1.666548143991417215e-03
1.680479358266007486e-03
1.704120614957998960e-03
1.736065881583501039e-03
1.774797345769264399e-03
1.818706754052888284e-03
1.866118353906290285e-03
1.915313168607159786e-03
1.964554102648122941e-03
2.012111484922933860e-03
2.056288634496506850e-03
2.095446952615154668e-03
2.128030137464447750e-03
2.152587132560031171e-03
2.167793380631236489e-03
2.172470076461559870e-03
2.165601011385984240e-03
2.146346869661174168e-03
2.114056619951381472e-03
2.068275848985685200e-03
2.008751909473287071e-03
1.935435854765814008e-03
1.848481069662881058e-03
1.748238702108916628e-03
1.635249963396727272e-03
1.510235436589149778e-03
1.374081649702523639e-03
1.227825114465811275e-03
1.072634105896750831e-03
9.097885709523675490e-04
7.406584419480386535e-04
5.666808594540730841e-04
3.893365770509543840e-04
2.101260422986099953e-04
3.054551940985353352e-05
-1.479362696116150579e-04
-3.239006764004184898e-04
-4.960003684779043520e-04
-6.629790465996633197e-04
-8.236891586518396658e-04
-9.771074328915330121e-04
-1.122347990905865709e-03
-1.258672765397155337e-03
-1.385499159753757203e-03
-1.502404813675655868e-03
-1.609129439562548194e-03
-1.705573749251214615e-03
-1.791795528817917080e-03
-1.868002919218097807e-03
-1.934545193534451240e-03
-1.991901088829881733e-03
-2.040665100070430341e-03
-2.081531865768405064e-03
-2.115279089446819166e-03
-2.142749266842344444e-03
-2.164830592803575291e-03
-2.182437447422080467e-03
-2.196490830927462414e-03
-2.207899057834523341e-03
-2.217539227333799930e-03
-2.226239597452058395e-03
-2.234763447817447474e-03
-2.243794582822472919e-03
-2.253924730370550963e-03
-2.265643149212664704e-03
-2.279328610933563457e-03
-2.295243891821260700e-03
-2.313532778095301820e-03
-2.334219837448026514e-03
-2.357212802141780104e-03
-2.382307559053213186e-03
-2.409195593287458484e-03
-2.437473833267788867e-03
-2.466656606863591727e-03
-2.496189527760573311e-03
-2.525465052337502129e-03
-2.553839336621270377e-03
-2.580650109870615515e-03
-2.605235267536564966e-03
-2.626951715911329983e-03
-2.645194135843512671e-03
-2.659413341808304979e-03
-2.669133783278463540e-03
-2.673969962639055273e-03
-2.673641258390714245e-03
-2.667984981651871316e-03
-2.656967356820278282e-03
-2.640692144642010648e-03
-2.619406738602515858e-03
-2.593505605217520053e-03
-2.563530818170406053e-03
-2.530169771625805867e-03
-2.494250000023974252e-03
-2.456731150389260265e-03
-2.418694164303473049e-03
-2.381327860025020740e-03
-2.345913010031653711e-03
-2.313804255947085609e-03
-2.286410095254258479e-03
-2.265171158493491186e-03
-2.251537185278789776e-03
-2.246943104930452292e-03
-2.252784519047458089e-03
-2.270393083411583954e-03
-2.301012069459848312e-03
-2.345772657714710260e-03
-2.405671257412995718e-03
-2.481548239042498556e-03
-2.574068517444561260e-03
-2.683704322408100949e-03
-2.810720365633208231e-03
-2.955161873913782038e-03
-3.116845554879035547e-03
-3.295353786054592941e-03
-3.490032057724594752e-03
-3.699989933434816303e-03
-3.924105428153273900e-03
-4.161032900997748037e-03
-4.409214267658201000e-03
-4.666893595945400749e-03
-4.932134724297195481e-03
-5.202841820881639288e-03
-5.476782484723129174e-03
-5.751613299671592267e-03
-6.024907268728108695e-03
-6.294182910704001523e-03
-6.556934548850344019e-03
-6.810663351786100037e-03
-7.052908770248362581e-03
-7.281279828027863166e-03
-7.493485907009252676e-03
-7.687366521858094229e-03
-7.860919676854389443e-03
-8.012328405484178337e-03
-8.139985116325193157e-03
-8.242513369529840678e-03
-8.318786738736233533e-03
-8.367944568209391420e-03
-8.389404311288258670e-03
-8.382870260196833428e-03
-8.348338568418562505e-03
-8.286098518271799163e-03
-8.196729986847917440e-03
-8.081096968669279623e-03
-7.940337548500101678e-03
-7.775850181132719884e-03
-7.589276625947670267e-03
-7.382481711532478535e-03
-7.157530261909086054e-03
-6.916661384294678708e-03
-6.662260529831433645e-03
-6.396829830543421941e-03
-6.122956903701937646e-03
-5.843282803959294093e-03
-5.560469299597012305e-03
-5.277166185405576977e-03
-4.995978851133581894e-03
-4.719436736744640586e-03
-4.449962972369029927e-03
-4.189845661042879491e-03
-3.941211181461022443e-03
-3.705999932207055658e-03
-3.485944733610859495e-03
-3.282552246424966149e-03
-3.097087613575159968e-03
-2.930562498088278359e-03
-2.783726679881172450e-03
-2.657063362543019783e-03
-2.550788027796464796e-03
-2.464851032661587518e-03
-2.398943803347859758e-03
-2.352508491264081614e-03
-2.324750927067982271e-03
-2.314656645642764951e-03
-2.321009796148963342e-03
-2.342414489918860816e-03
-2.377318397036964296e-03
-2.424038113596140194e-03
-2.480786077234952824e-03
-2.545698425739189447e-03
-2.616863533674165711e-03
-2.692350710636615130e-03
-2.770238639137359744e-03
-2.848643198475382925e-03
-2.925744207985222882e-03
-2.999810729503036861e-03
-3.069224583717827283e-03
-3.132501660477465030e-03
-3.188310829723055208e-03
-3.235490110834821076e-03
-3.273059911056359298e-03
-3.300233180745041402e-03
-3.316422328493300563e-03
-3.321242815513326431e-03
-3.314513400879136144e-03
-3.296253060192395629e-03
-3.266674692966488672e-03
-3.226175723332851478e-03
-3.175325681802052859e-03
-3.114851158138917404e-03
-3.045618171020464220e-03
-2.968612530483342397e-03
-2.884918147050656578e-03
-2.795693936586157724e-03
-2.702149639753793388e-03
-2.605520874218625500e-03
-2.507043908899323024e-03
-2.407930552853389337e-03
-2.309343474597089652e-03
-2.212372510997305010e-03
-2.118012302230343029e-03
-2.027141496141086213e-03
-1.940504045050629039e-03
-1.858692812686342380e-03
-1.782135803304699031e-03
-1.711085288787274903e-03
-1.645609925917656917e-03
-1.585590084949369590e-03
-1.530716484286347460e-03
-1.480492188252646897e-03
-1.434237941321097557e-03
-1.391100800481778884e-03
-1.350065963540550635e-03
-1.309971634522067970e-03
-1.269526741820223726e-03
-1.227331193783052663e-03
-1.181898457116372552e-03
-1.131680093789691000e-03
-1.075091956529827374e-03
-1.010541543121144629e-03
-9.364561997072073755e-04
-8.513116842660103847e-04
-7.536606517485129782e-04
-6.421607746606505318e-04
-5.156017402564578829e-04
-3.729310022355253611e-04
-2.132777090647496759e-04
-3.597452301192021552e-05
1.594230990968443726e-04
3.731205073275358896e-04
6.050706418022528147e-04
8.549640672931643629e-04
1.122222798842339043e-03
1.405997748853334136e-03
1.705170028948668325e-03
2.018356164684165406e-03
2.343917169096883680e-03
2.679971402550961924e-03
3.024411116364341626e-03
3.374922526961987752e-03
3.729009129770741171e-03
4.084017963134074780e-03
4.437168672293917600e-03
4.785584730445680349e-03
5.126326657148010113e-03
5.456426608577637401e-03
5.772924074400591181e-03
6.072902060943027348e-03
6.353523285105308095e-03
6.612066010094255937e-03
6.845958848918465983e-03
7.052814284771241442e-03
7.230460234597471843e-03
7.376969275565219662e-03
7.490685189257933509e-03
7.570246307270494732e-03
7.614605563583725679e-03
7.623046712139739181e-03
7.595196556933632263e-03
7.531033021559039621e-03
7.430888940031164965e-03
7.295451377259708388e-03
7.125756640250366196e-03
6.923180895414673096e-03
6.689426528605621133e-03
6.426504392367491346e-03
6.136712222189977251e-03
5.822609440299491602e-03
5.486988552933182682e-03
5.132843693163849884e-03
4.763336685548597016e-03
4.381760932878319900e-03
3.991503787750736582e-03
3.596007680986734907e-03
3.198730702023986575e-03
2.803106950911699730e-03
2.412507427832597407e-03
2.030201803569956810e-03
1.659321509909873716e-03
1.302824780856428081e-03
9.634640398359954269e-04
6.437559867177467671e-04
3.459548258907230406e-04
7.202894839919090925e-05
-1.763585981690291959e-04
-3.978656691680332270e-04
-5.914824125299618504e-04
-7.565383432200560674e-04
-8.927050417994482736e-04
-9.999945883058178331e-04
-1.078753489570243073e-03
-1.129652526906841595e-03
-1.153672544118828020e-03
-1.152086404178737002e-03
-1.126437416282442209e-03
-1.078514497024606620e-03
-1.010324507197938758e-03
-9.240620577397951670e-04
-8.220773723653377251e-04
-7.068424761568997770e-04
-5.809163433359069116e-04
-4.469093299747265791e-04
-3.074475343839170802e-04
-1.651374760077189876e-04
-2.253163878145553469e-05
1.179047694962163814e-04
2.538252429707198274e-04
3.830313160860174802e-04
5.034993283248502972e-04
6.134043816518721173e-04
7.111410288862594735e-04
7.953406528348721648e-04
8.648851835480000656e-04
9.189170060259896008e-04
9.568450921067073569e-04
9.783471064613354778e-04
9.833677515928562762e-04
9.721132431274945177e-04
9.450420683068790290e-04
9.028523476745672991e-04
8.464657189136756818e-04
7.770083510648203738e-04
6.957892334154872852e-04
6.042760648846098913e-04
5.040691783330812680e-04
3.968738894674902823e-04
2.844716469350930688e-04
1.686905491868641565e-04
5.137548273275423043e-05
-6.564153040272284511e-05
-1.805704149310899626e-04
-2.916911651058086462e-04
-3.973804564785114236e-04
-4.961365092925833610e-04
-5.866018324904000375e-04
-6.675834552122462831e-04
-7.380704620559542205e-04
-7.972485017809428269e-04
-8.445112024129251176e-04
-8.794682158517600802e-04
-9.019498848904710991e-04
-9.120085167973517254e-04
-9.099161082446104122e-04
-8.961588214029493279e-04
-8.714281092771434785e-04
-8.366087649298566218e-04
-7.927640486486664225e-04
-7.411181314820422961e-04
-6.830361318267232952e-04
-6.200021320006718177e-04
-5.535953665773314658e-04
-4.854650334315892312e-04
-4.173041377404572384e-04
-3.508226780069886429e-04
-2.877206704060954819e-04
-2.296613256168001337e-04
-1.782448017305494176e-04
-1.349828953590416177e-04
-1.012751052923201460e-04
-7.838634757608211061e-05
-6.742661928959832289e-05
-6.933301397195425805e-05
-8.485421881066897653e-05
-1.145376841211135776e-04
-1.587197704511455457e-04
-2.175189256279401137e-04
-2.908319969250973457e-04
-3.783336528748994449e-04
-4.794789994359401281e-04
-5.935092796974249284e-04
-7.194605886320516296e-04
-8.561754258131252463e-04
-1.002316932978313153e-03
-1.156385632665434589e-03
-1.316738350801485539e-03
-1.481609096388070319e-03
-1.649131573845613033e-03
-1.817362962489136452e-03
-1.984308726157597326e-03
-2.147948039527637892e-03
-2.306259435942882661e-03
-2.457246384212697417e-03
-2.598962419501005348e-03
-2.729535525491598533e-03
-2.847191373578849063e-03
-2.950275220239233134e-03
-3.037272098721237497e-03
-3.106825016253170809e-03
-3.157751043209114979e-03
-3.189055121058406890e-03
-3.199941245099801983e-03
-3.189821169513579191e-03
-3.158320344481793836e-03
-3.105281227125660827e-03
-3.030763787780414373e-03
-2.935043452171539387e-03
-2.818606463103501703e-03
-2.682142651240276756e-03
-2.526536016906883678e-03
-2.352853123491699307e-03
-2.162329597072146659e-03
-1.956354859894111637e-03
-1.736455427182811940e-03
-1.504277081217238275e-03
-1.261565968246227418e-03
-1.010149112605950939e-03
-7.519145812037994004e-04
-4.887915015473708307e-04
-2.227302398065149271e-04
4.431698448725363508e-05
3.104148091927389787e-04
5.736626722222186014e-04
8.322116420665243153e-04
1.084279957248736282e-03
1.328167249125961720e-03
1.562267249739129112e-03
1.785078882951020296e-03
1.995215746223778785e-03
2.191413878623819662e-03
2.372537866659661220e-03
2.537585359756509059e-03
2.685689920910820042e-03
2.816122401952382732e-03
2.928290888622536725e-03
3.021739344068231220e-03
3.096145138880237839e-03
3.151315463326614941e-03
3.187182994474844263e-03
3.203800841528592607e-03
3.201336884780232525e-03
3.180067835737332167e-03
3.140373009301587835e-03
3.082728038076457209e-03
3.007698628814528281e-03
2.915934487233475154e-03
2.808163533898142081e-03
2.685186423066031423e-03
2.547871483906545640e-03
2.397150097226994486e-03
2.234012539328426600e-03
2.059504246499083060e-03
1.874722470094914925e-03
1.680813352542838640e-03
1.478969200645286744e-03
1.270426060597643503e-03
1.056461331146370383e-03
8.383914163474462822e-04
6.175691953702724729e-04
3.953812309615407873e-04
1.732446097745964000e-04
-4.739670623977761523e-05
-2.650761533824480131e-04
-4.783095700427625633e-04
-6.856010509893402296e-04
-8.854496659975851641e-04
-1.076357128362300398e-03
-1.256836439786833577e-03
-1.425421537311655521e-03
-1.580677912343962481e-03
-1.721214074218776948e-03
-1.845693901710156659e-03
-1.952849726527578107e-03
-2.041495947690735290e-03
-2.110543099662154278e-03
-2.159012151137557414e-03
-2.186048809235973701e-03
-2.190937617226692939e-03
-2.173115612591581831e-03
-2.132185257585083454e-03
-2.067926408401968372e-03
-1.980307031273523428e-03
-1.869492411941017047e-03
-1.735852591304204136e-03
-1.579967857046099501e-03
-1.402631974268419516e-03
-1.204853056043520172e-03
-9.878518560001105144e-04
-7.530573442710775849e-04
-5.020995536004017315e-04
-2.367994739209578641e-04
4.084377787267922169e-05
3.286686074777466588e-04
6.243693727049820551e-04
9.255172335492274248e-04
1.229583471199369475e-03
1.533964879178931987e-03
1.836011092132545540e-03
2.133053428982057981e-03
2.422434875779292621e-03
2.701540873578401128e-03
2.967830466657352378e-03
3.218867322554419194e-03
3.452350300922276977e-03
3.666143050062217138e-03
3.858302046904654291e-03
4.027102812829599053e-03
4.171063741025960239e-03
4.288967160650977196e-03
4.379877299779845815e-03
4.443154778289306640e-03
4.478467298032922858e-03
4.485796326509534047e-03
4.465439599453575187e-03
4.418009240245410890e-03
4.344425539362150278e-03
4.245906367554082468e-03
4.123952268766615040e-03
3.980327408264953612e-03
3.817036569753884910e-03
3.636298580224068926e-03
3.440516358609054144e-03
3.232244153032046673e-03
3.014152277738558691e-03
2.788990002517217209e-03
2.559547002536060895e-03
2.328614095959538177e-03
2.098943679110177631e-03
1.873210687942371191e-03
1.653974553457071735e-03
1.443642790774905815e-03
1.244436747113272096e-03
1.058360155617421236e-03
8.871710486059593932e-04
7.323573726564382548e-04
5.951168116811208879e-04
4.763411112746516280e-04
3.766051822388568346e-04
2.961612936515843576e-04
2.349382682391246168e-04
1.925459634490591331e-04
1.682847850756548119e-04
1.611601786600037650e-04
1.699019060792056682e-04
1.929877099955432205e-04
2.286711114794431150e-04
2.750128411930499923e-04
3.299152726338080142e-04
3.911594675708456753e-04
4.564441127900708173e-04
5.234257379975169357e-04
5.897594973236198156e-04
6.531397855086336791e-04
7.113401263099962922e-04
7.622515483310591915e-04
8.039187428709387373e-04
8.345735088131268518e-04
8.526647863745680494e-04
8.568848505181458517e-04
8.461911191900675817e-04
8.198232411531091064e-04
7.773151267488242122e-04
7.185017297056884222e-04
6.435204907601753009e-04
5.528073448587810662e-04
4.470874244118799184e-04
3.273605770407866911e-04
1.948820075089998868e-04
5.113835508068770980e-05
-1.021804767445797955e-04
-2.632129591348020986e-04
-4.299606784846800702e-04
-6.003254840505589359e-04
-7.721484638846350850e-04
-9.432498401245098443e-04
-1.111469221659578625e-03
-1.274705479010429087e-03
-1.430955347491785377e-03
-1.578350312778889876e-03
-1.715190746575960459e-03
-1.839977058152672800e-03
-1.951436920723898568e-03
-2.048548262714773409e-03
-2.130557630530582110e-03
-2.196993432060252542e-03
-2.247673895892603538e-03
-2.282709600954303201e-03
-2.302500508643654832e-03
-2.307727524904084910e-03
-2.299338786451534701e-03
-2.278530879524820127e-03
-2.246725440396303824e-03
-2.205541415112937179e-03
-2.156763678369853689e-03
-2.102308465752369612e-03
-2.044186335136274988e-03
-1.984463370211088894e-03
-1.925221344621054747e-03
-1.868517552461567690e-03
-1.816345211451178424e-03
-1.770595035405850368e-03
-1.733018848339428885e-03
-1.705195843518899756e-03
-1.688502207581713465e-03
-1.684084717804910751e-03
-1.692838691569218670e-03
-1.715390867699403878e-03
-1.752087467951263288e-03
-1.802987730969946283e-03
-1.867863038701663174e-03
-1.946201634973368641e-03
-2.037218839224933832e-03
-2.139872648155782212e-03
-2.252884317186410953e-03
-2.374763616224003903e-03
-2.503838280921947147e-03
-2.638286945556032013e-03
-2.776175084326116486e-03
-2.915493187421962836e-03
-3.054196449092228156e-03
-3.190245181946685989e-03
-3.321645094516976517e-03
-3.446486743995583364e-03
-3.562983351718910976e-03
-3.669506189647718866e-03
-3.764616904120390243e-03
-3.847096045098368118e-03
-3.915967286612210760e-03
-3.970516907142000729e-03
-4.010308070594425026e-03
-4.035189563160213565e-03
-4.045298910246620389e-03
-4.041059728859599035e-03
-4.023173457210199068e-03
-3.992605549388034830e-03
-3.950566403940843421e-03
-3.898487436870802948e-03
-3.837992837303658838e-03
-3.770867411370071049e-03
-3.699021325748188659e-03
-3.624452372227863779e-03
-3.549206606217300379e-03
-3.475338076544725111e-03
-3.404868476381733237e-03
-3.339747637837081010e-03
-3.281815560317206254e-03
-3.232766829220063039e-03
-3.194118156479225975e-03
-3.167179689333400258e-03
-3.153030668721749225e-03
-3.152500129407401815e-03
-3.166152704854470566e-03
-3.194280144889387243e-03
-3.236898572856290388e-03
-3.293751614624135585e-03
-3.364319319074194313e-03
-3.447832616455242388e-03
-3.543293174588048322e-03
-3.649497987807165302e-03
-3.765068417242000819e-03
-3.888482949649239850e-03
-4.018112950787297750e-03
-4.152260709728313078e-03
-4.289198866885412555e-03
-4.427210398650409558e-03
-4.564628315309539157e-03
-4.699874088717912075e-03
-4.831494034144465446e-03
-4.958192766384823813e-03
-5.078863075327886591e-03
-5.192611304552469803e-03
-5.298777743980087780e-03
-5.396951538287306747e-03
-5.486979744587491825e-03
-5.568970172322149949e-03
-5.643287915234308783e-03
-5.710545578524862595e-03
-5.771587280151536416e-03
-5.827466789122950908e-03
-5.879420203129376819e-03
-5.928833558109304971e-03
-5.977206142615215309e-03
-6.026110269118717215e-03
-6.077148273684773727e-03
-6.131907717957425959e-03
-6.191915696916194117e-03
-6.258593403764256199e-03
-6.333211833039109097e-03
-6.416849633432627174e-03
-6.510354184436184521e-03
-6.614306738696707454e-03
-6.728992563327482364e-03
-6.854376792284941344e-03
-6.990086663451577052e-03
-7.135400725643455989e-03
-7.289245277869804175e-03
-7.450198519859423628e-03
-7.616502228699912995e-03
-7.786081085091363894e-03
-7.956569330043026037e-03
-8.125344291693053014e-03
-8.289566332864548373e-03
-8.446224549722601213e-03
-8.592187233639006841e-03
-8.724256223731251952e-03
-8.839224057040741614e-03
-8.933932792197910033e-03
-9.005333305919916917e-03
-9.050543789338390960e-03
-9.066906214085838911e-03
-9.052039583301745018e-03
-9.003888713326033480e-03
-8.920767458523480922e-03
-8.801395290103397953e-03
-8.644926416636833366e-03
-8.450970634996597328e-03
-8.219605309312903035e-03
-7.951377990534877135e-03
-7.647299493284734871e-03
-7.308827336951300574e-03
-6.937839705344908681e-03
-6.536600280767359064e-03
-6.107714548413404297e-03
-5.654078170067474741e-03
-5.178818548806377042e-03
-4.685230446146593924e-03
-4.176707112798390409e-03
-3.656668107094503909e-03
-3.128485364168097881e-03
-2.595409030070645971e-03
-2.060494537228120884e-03
-1.526532629452876906e-03
-9.959837143289579451e-04
-4.709181962302603597e-04
4.703592848486924313e-05
5.567369245506809724e-04
1.057563445332113496e-03
1.549438041953134530e-03
2.032839254055342562e-03
2.508801888600158906e-03
2.978905079018175691e-03
3.445248124207557147e-03
3.910414324045204809e-03
4.377423427569276070e-03
4.849673267817052914e-03
5.330871510868510736e-03
5.824959010061437140e-03
6.336025901425792854e-03
6.868222215895826606e-03
7.425664695539830815e-03
8.012341777832769629e-03
8.632018614749130056e-03
9.288144227232774178e-03
9.983762869995685060e-03
1.072143146054998879e-02
1.150314523599868695e-02
1.233027317747889019e-02
1.320350503644666419e-02
1.412281137408156508e-02
1.508741779877011482e-02
1.609579438364668394e-02
1.714566095664222037e-02
1.823400854400447635e-02
1.935713710510881050e-02
2.051070918503262314e-02
2.168981886228895858e-02
2.288907495645340837e-02
2.410269727778475632e-02
2.532462421634732244e-02
2.654862986333010599e-02
2.776844836953450482e-02
2.897790336820857057e-02
3.017103975874675659e-02
3.134225529057733245e-02
3.248642915585853858e-02
3.359904483597819791e-02
3.467630448204997440e-02
3.571523211920998170e-02
3.671376332636590301e-02
3.767081894745361037e-02
3.858636089388217671e-02
3.946142818116535333e-02
4.029815195010914147e-02
4.109974835978477681e-02
4.187048871982578663e-02
4.261564679211505419e-02
4.334142346685843084e-02
4.405484968336214474e-02
4.476366874066647211e-02
4.547619962736841603e-02
4.620118355265271509e-02
4.694761618188688507e-02
4.772456839336938067e-02
4.854099885083181659e-02
4.940556176895922330e-02
5.032641358405171711e-02
5.131102228868292259e-02
5.236598336670498371e-02
5.349684620430189552e-02
5.470795479446929899e-02
5.600230626231037651e-02
5.738143081527717626e-02
5.884529596340493107e-02
6.039223807012052136e-02
6.201892319158389816e-02
6.372033909923623118e-02
6.548981982700045890e-02
6.731910326345079409e-02
6.919842185556349112e-02
7.111662578888068575e-02
7.306133730819282246e-02
7.501913439617299839e-02
7.697576114705025063e-02
7.891636171021543245e-02
8.082573410832619154e-02
8.268859970550984650e-02
8.448988368048146458e-02
8.621500145079233346e-02
8.785014579240679744e-02
8.938256904512575929e-02
9.080085497113773996e-02
9.209517461966275353e-02
9.325752070107747038e-02
9.428191530063290138e-02
9.516458602718587401e-02
9.590410611720093237e-02
9.650149457963540234e-02
9.696027305091861614e-02
9.728647681603223851e-02
9.748861814218219568e-02
9.757760097923440235e-02
9.756658694451286751e-02
9.747081337644467047e-02
9.730736530849927457e-02
9.709490392689021365e-02
9.685335530247565772e-02
9.660356364024184905e-02
9.636691455751242308e-02
9.616493431031090944e-02
9.601887178532922396e-02
9.594927047099424677e-02
9.597553818674582626e-02
9.611552246985347048e-02
9.638510010641908321e-02
9.679778884103501513e-02
9.736438965632575326e-02
9.809266738357012849e-02
9.898707713645520101e-02
1.000485435822306285e-01
1.012742992065844144e-01
1.026577870376064738e-01
1.041886321927071590e-01
1.058526854763753439e-01
1.076321413291702056e-01
1.095057308615482589e-01
1.114489897265616009e-01
1.134345987075805057e-01
1.154327941923475320e-01
1.174118436919074776e-01
1.193385806722514209e-01
1.211789914639489624e-01
1.228988457497644932e-01
1.244643613072943800e-01
1.258428923427357127e-01
1.270036302643743065e-01
1.279183047654361416e-01
1.285618728020697377e-01
1.289131826903810452e-01
1.289556003004805329e-01
1.286775847934842065e-01
1.280732014007761876e-01
1.271425593832487266e-01
1.258921640775678696e-01
1.243351730236432889e-01
1.224915471235905884e-01
1.203880894357708259e-01
1.180583656083085409e-01
1.155425016922918963e-01
1.128868567304206066e-01
1.101435697631075877e-01
1.073699827853963895e-01
1.046279430458198628e-01
1.019829902773026903e-01
9.950343666735210479e-02
9.725934887902419612e-02
9.532144405889554639e-02
9.375991276346105907e-02
9.264318409825419987e-02
9.203664913365439126e-02
9.200136042387441204e-02
9.259272647441131598e-02
9.385922029622434382e-02
9.584112213906346989e-02
9.856931663206765226e-02
1.020641642348718153e-01
1.063344668054651276e-01
1.113765461951447405e-01
1.171734538398998410e-01
1.236943280977424592e-01
1.308939144587592807e-01
1.387122617582066675e-01
1.470746058071483453e-01
1.558914491254915213e-01
1.650588433644272490e-01
1.744588780708657416e-01
1.839603768163756703e-01
1.934197988406161639e-01
2.026823414651557909e-01
2.115832356096582767e-01
2.199492239338851907e-01
2.276002083262315401e-01
2.343510507917508923e-01
2.400135093677739084e-01
2.443982882668334911e-01
2.473171796781359899e-01
2.485852725421714149e-01
2.480232024238097632e-01
2.454594152343370084e-01
2.407324170345072900e-01
2.336929813943957601e-01
2.242062859578961842e-01
2.121539501607278277e-01
1.974359467679102365e-01
1.799723607169715078e-01
1.597049707183573197e-01
1.365986305441498072e-01
1.106424289473231654e-01
8.185061014955891112e-02
5.026323885599215391e-02
1.594659737407348038e-02
-2.100669486744573961e-02
-6.047784554120952394e-02
-1.023223400394804444e-01
-1.463706778612800241e-01
-1.924293904172265646e-01
-2.402823323282409218e-01
-2.896922349029670274e-01
-3.404025072879479086e-01
-3.921392673186080424e-01
-4.446135814672477760e-01
-4.975238902621264558e-01
-5.505585934216321586e-01
-6.033987665631942443e-01
-6.557209798510206245e-01
-7.072001874406477206e-01
-7.575126555469091638e-01
-8.063388964922848512e-01
-8.533665759098939541e-01
-8.982933604409515382e-01
-9.408296741135254715e-01
-9.807013324316975478e-01
-1.017652025005623795e+00
-1.051445619025774159e+00
-1.081868258282984607e+00
-1.108730234940459747e+00
-1.131867614044495873e+00
-1.151143593629793571e+00
-1.166449586764689572e+00
-1.177706015009639673e+00
-1.184862806480946551e+00
-1.187899595155113008e+00
-1.186825621650118512e+00
-1.181679339304003484e+00
-1.172527732880867424e+00
-1.159465360442502702e+00
-1.142613132254497899e+00
-1.122116843554124888e+00
-1.098145480741131053e+00
-1.070889322959652334e+00
-1.040557863295777041e+00
-1.007377575484177612e+00
-9.715895535737399946e-01
-9.334470532354421923e-01
-8.932129637758717822e-01
-8.511572405445968492e-01
-8.075543273842197278e-01
-7.626805979762056875e-01
-7.168118446779156994e-01
-6.702208418606984131e-01
-6.231750094787116279e-01
-5.759342010284218549e-01
-5.287486374584008386e-01
-4.818570069421984070e-01
-4.354847474570588961e-01
-3.898425267816222894e-01
-3.451249313591638335e-01
-3.015093731077448380e-01
-2.591552196799013497e-01
-2.182031514747632406e-01
-1.787747451165687673e-01
-1.409722807406179890e-01
-1.048787673663762049e-01
-7.055817846118569991e-02
-3.805588705371821395e-02
-7.399287610264946267e-03
2.140141000828346685e-02
4.835223089768533183e-02
7.347434766067119372e-02
9.680287420421189448e-02
1.183855606359477119e-01
1.382814098463018837e-01
1.565592365567603506e-01
1.732961894487110299e-01
1.885762570087046730e-01
2.024887767910981407e-01
2.151269674351394268e-01
2.265865012070142348e-01
2.369641339405107461e-01
2.463564076247806989e-01
2.548584391990068032e-01
2.625628075543958717e-01
2.695585486975865530e-01
2.759302671642434035e-01
2.817573696834737573e-01
2.871134253101411682e-01
2.920656540857136663e-01
2.966745442762593332e-01
3.009935966108093219e-01
3.050691920451966688e-01
3.089405778365131860e-01
3.126399654347595813e-01
3.161927322085071879e-01
3.196177176985408042e-01
3.229276044807978807e-01
3.261293726162043938e-01
3.292248162283462065e-01
3.322111102185585363e-01
3.350814151149241749e-01
3.378255079951885120e-01
3.404304274121980889e-01
3.428811209432050533e-01
3.451610843817726759e-01
3.472529820591768179e-01
3.491392390899172304e-01
3.508025967480249974e-01
3.522266236196884281e-01
3.533961760011338216e-01
3.542978024150817973e-01
3.549200881924636786e-01
3.552539371752421182e-01
3.552927891140522099e-01
3.550327721360896915e-01
3.544727911452408287e-01
3.536145539710474073e-01
3.524625378812579202e-01
3.510239004094464765e-01
3.493083387806306672e-01
3.473279032525996568e-01
3.450967701999483883e-01
3.426309811264676708e-01
3.399481541898194403e-01
3.370671749946936857e-01
3.340078735518183795e-01
3.307906940892668679e-01
3.274363644037731058e-01
3.239655711827953422e-01
3.203986469607068011e-01
3.167552745153973115e-01
3.130542135702105710e-01
3.093130539454461703e-01
3.055479991037890475e-01
3.017736827713788372e-01
2.980030210520527301e-01
2.942471013522606760e-01
2.905151089846262358e-01
2.868142913290983587e-01
2.831499589415004126e-01
2.795255221753538133e-01
2.759425613291285329e-01
2.724009279561400709e-01
2.688988740779827413e-01
2.654332060428489237e-01
2.619994591315296106e-01
2.585920890635959868e-01
2.552046760397785330e-01
2.518301370741118927e-01
2.484609423870124956e-01
2.450893315534423411e-01
2.417075253692178571e-01
2.383079295565206923e-01
2.348833268527179829e-01
2.314270540124930831e-01
2.279331610577025879e-01
2.243965502519185418e-01
2.208130928793678172e-01
2.171797223322017578e-01
2.134945024658368717e-01
2.097566708275757086e-01
2.059666565800726823e-01
2.021260736942202818e-01
1.982376902738978985e-01
1.943053752794321187e-01
1.903340245128121999e-01
1.863294677780866215e-01
1.822983594837418730e-01
1.782480554801564587e-01
1.741864786844257162e-01
1.701219764693897851e-01
1.660631726476442249e-01
1.620188171088797757e-01
1.579976360311226569e-01
1.540081854829177810e-01
1.500587109537429853e-01
1.461570155254618419e-01
1.423103387797438613e-01
1.385252484071833046e-01
1.348075463565551746e-01
1.311621906907722568e-01
1.275932344817475861e-01
1.241037821861346591e-01
1.206959639294423181e-01
1.173709277734161782e-01
1.141288495482513099e-01
1.109689596799176420e-01
1.078895861154681030e-01
1.048882120134100177e-01
1.019615468579913031e-01
9.910560927707362522e-02
9.631581980744481630e-02
9.358710163040361019e-02
9.091398724504554107e-02
8.829072890709467603e-02
8.571141084273097011e-02
8.317006101577735511e-02
8.066076062076191211e-02
7.817774925164849842e-02
7.571552401226391837e-02
7.326893089870342712e-02
7.083324721413350455e-02
6.840425356467649820e-02
6.597829453549501622e-02
6.355232731106882915e-02
6.112395779335089152e-02
5.869146383057066707e-02
5.625380554247162018e-02
5.381062302282209331e-02
5.136222186282311114e-02
4.890954704865203145e-02
4.645414626614318560e-02
4.399812338184272420e-02
4.154408350634058306e-02
3.909507072525509469e-02
3.665449995627297064e-02
3.422608444334505201e-02
3.181376021529801201e-02
2.942160914423174942e-02
2.705378191037709212e-02
2.471442239683427702e-02
2.240759488338246036e-02
2.013721515338471810e-02
1.790698675686994146e-02
1.572034337330132162e-02
1.358039812622908668e-02
1.148990058290600205e-02
9.451201887800804446e-03
7.466228372832461185e-03
5.536463956342082063e-03
3.662941140175418001e-03
1.846240557311127880e-03
8.649878414508797083e-05
-1.616576167470021134e-03
-3.263682182570883713e-03
-4.855893909053267572e-03
-6.394627993157219609e-03
-7.881603624759302498e-03
-9.318799218964494979e-03
-1.070840632871623323e-02
-1.205278172402473626e-02
-1.335439867174995250e-02
-1.461579846950369736e-02
-1.583954294968955082e-02
-1.702816910902868117e-02
-1.818414648507775053e-02
-1.930983810489345434e-02
-2.040746550333205969e-02
-2.147907849270426148e-02
-2.252652997599000756e-02
-2.355145602045101427e-02
-2.455526155227886684e-02
-2.553911147859560041e-02
-2.650392739671564302e-02
-2.745038942894545073e-02
-2.837894319587341146e-02
-2.928981129833917174e-02
-3.018300887067229196e-02
-3.105836280489268630e-02
-3.191553392095526631e-02
-3.275404141492378740e-02
-3.357328904485543108e-02
-3.437259227148610485e-02
-3.515120572806642446e-02
-3.590835032130650778e-02
-3.664323930015608854e-02
-3.735510282105438534e-02
-3.804321034106687011e-02
-3.870689049549434074e-02
-3.934554798383235047e-02
-3.995867712133939487e-02
-4.054587196958156503e-02
-4.110683279771148307e-02
-4.164136882310670584e-02
-4.214939737141878279e-02
-4.263093946772820303e-02
-4.308611218240850083e-02
-4.351511794085905632e-02
-4.391823110857514395e-02
-4.429578242536482552e-02
-4.464814156053757699e-02
-4.497569851014644043e-02
-4.527884409490102319e-02
-4.555795027643198131e-02
-4.581335080500417017e-02
-4.604532270302282709e-02
-4.625406904803065072e-02
-4.643970362913243943e-02
-4.660223779904099778e-02
-4.674156992280095041e-02
-4.685747785117789360e-02
-4.694961449419736421e-02
-4.701750672097556455e-02
-4.706055770711289193e-02
-4.707805274360743475e-02
-4.706916850157530363e-02
-4.703298549316103916e-02
-4.696850355266537352e-02
-4.687466010958837165e-02
-4.675035083544551440e-02
-4.659445237747043833e-02
-4.640584659402318540e-02
-4.618344589201762995e-02
-4.592621907807745152e-02
-4.563321725435326437e-02
-4.530359921532423062e-02
-4.493665577919792042e-02
-4.453183255218162023e-02
-4.408875060431766135e-02
-4.360722465026294070e-02
-4.308727833581269678e-02
-4.252915612916923632e-02
-4.193333180158233947e-02
-4.130051302752355685e-02
-4.063164203345947384e-02
-3.992789224217448141e-02
-3.919066089440259582e-02
-3.842155774399605428e-02
-3.762238996748285685e-02
-3.679514356581594509e-02
-3.594196148942083169e-02
-3.506511889060074522e-02
-3.416699594772794335e-02
-3.325004876516717001e-02
-3.231677863810514945e-02
-3.136970056667693491e-02
-3.041131135036926822e-02
-2.944405789447939945e-02
-2.847030632860182014e-02
-2.749231241447653434e-02
-2.651219390324899630e-02
-2.553190515423991655e-02
-2.455321474827689213e-02
-2.357768616247390286e-02
-2.260666214578986935e-02
-2.164125288848239501e-02
-2.068232833539065604e-02
-1.973051465407280047e-02
-1.878619496725575724e-02
-1.784951430845284348e-02
-1.692038874564029058e-02
-1.599851840457798199e-02
-1.508340422247366093e-02
-1.417436801513043652e-02
-1.327057560888099917e-02
-1.237106250314773219e-02
-1.147476157212989206e-02
-1.058053230131759774e-02
-9.687190987092531014e-03
-8.793541397119889261e-03
-7.898405221700773027e-03
-7.000651815831619371e-03
-6.099226636468096235e-03
-5.193177769274618175e-03
-4.281680209054360142e-03
-3.364057297667949909e-03
-2.439798989188317162e-03
-1.508576554738839687e-03
-5.702534805620671941e-04
3.751076229605197158e-04
1.327242323087041891e-03
2.285685846983041836e-03
3.249778697651954477e-03
4.218676388047712215e-03
5.191362997686387211e-03
6.166668411823568452e-03
7.143288813619424679e-03
8.119810090186143151e-03
9.094733728622019300e-03
1.006650461287128713e-02
1.103354045352394203e-02
1.199426188790179981e-02
1.294712301759040965e-02
1.389064163340441270e-02
1.482342858926830910e-02
1.574421570376627680e-02
1.665188180876145743e-02
1.754547624567451627e-02
1.842423941336811949e-02
1.928761996574477472e-02
2.013528831666858837e-02
2.096714613229749141e-02
2.178333156396520393e-02
2.258422013739491002e-02
2.337042124476572738e-02
2.414277017320804949e-02
2.490231583565066104e-02
2.565030433425668013e-02
2.638815865028852625e-02
2.711745469839182271e-02
2.783989426566731151e-02
2.855727511389439741e-02
2.927145885395137856e-02
2.998433709712354858e-02
3.069779643050437115e-02
3.141368283468989886e-02
3.213376617850786932e-02
3.285970530209952889e-02
3.359301441265043209e-02
3.433503120961678423e-02
3.508688747315039103e-02
3.584948251659979268e-02
3.662346001497158998e-02
3.740918863785328702e-02
3.820674673776375263e-02
3.901591152614194979e-02
3.983615275363922709e-02
4.066663122534484864e-02
4.150620209248198633e-02
4.235342290977328616e-02
4.320656638522432647e-02
4.406363761935916390e-02
4.492239554147414715e-02
4.578037826616637718e-02
4.663493196662385487e-02
4.748324282490598569e-02
4.832237158274142741e-02
4.914929004573569127e-02
4.996091911586398454e-02
5.075416773260876813e-02
5.152597196686201086e-02
5.227333389795086466e-02
5.299335947549163595e-02
5.368329490851318081e-02
5.434056090893850388e-02
5.496278443157460308e-02
5.554782727250206359e-02
5.609381118032188279e-02
5.659913916999326916e-02
5.706251255061742939e-02
5.748294363699867071e-02
5.785976392828820480e-02
5.819262753790883924e-02
5.848151003201045028e-02
5.872670268337896321e-02
5.892880214320583843e-02
5.908869599085494334e-02
5.920754414315047148e-02
5.928675665251009752e-02
5.932796815345869890e-02
5.933300951874549700e-02
5.930387700724294026e-02
5.924269958150533283e-02
5.915170478832855461e-02
5.903318383881828862e-02
5.888945631573706124e-02
5.872283518432993427e-02
5.853559248283694144e-02
5.832992630262212597e-02
5.810792952016354679e-02
5.787156069775651474e-02
5.762261757518959832e-02
5.736271343238393688e-02
5.709325673733311318e-02
5.681543423099903733e-02
5.653019767687997299e-02
5.623825439769170043e-02
5.594006156630182414e-02
5.563582440564957682e-02
5.532549809237225641e-02
5.500879333703495577e-02
5.468518534937271552e-02
5.435392613323558608e-02
5.401405968788328127e-02
5.366443990585043761e-02
5.330375075006713731e-02
5.293052834140198060e-02
5.254318464345371364e-02
5.214003224129494518e-02
5.171930983702140161e-02
5.127920812958929736e-02
5.081789558818642499e-02
5.033354373495140671e-02
4.982435155766656854e-02
4.928856886178110963e-02
4.872451804050052099e-02
4.813061418197879526e-02
4.750538307946514105e-02
4.684747718636230601e-02
4.615568925603429074e-02
4.542896349279412771e-02
4.466640426858813767e-02
4.386728236394628333e-02
4.303103874971398596e-02
4.215728605401920792e-02
4.124580771817670105e-02
4.029655506820161576e-02
3.930964241496588685e-02
3.828534046637966509e-02
3.722406817225160092e-02
3.612638334192840722e-02
3.499297221259310697e-02
3.382463829480914647e-02
3.262229071636699174e-02
3.138693227086475357e-02
3.011964742639200096e-02
2.882159056861874000e-02
2.749397467837213366e-02
2.613806058052522280e-02
2.475514695620635933e-02
2.334656125126222809e-02
2.191365157935853264e-02
2.045777972573520689e-02
1.898031519708002005e-02
1.748263045186539480e-02
1.596609720619180176e-02
1.443208388126436190e-02
1.288195395508466568e-02
1.131706525533617697e-02
9.738770055209636234e-03
8.148415814815040958e-03
6.547346449867165116e-03
4.936903985842034173e-03
3.318430420482449891e-03
1.693269589179507333e-03
6.276894712416612938e-05
-1.571718807842877605e-03
-3.208834580222113229e-03
-4.847212162579468166e-03
-6.485478236635364331e-03
-8.122252982352612394e-03
-9.756151448731410769e-03
-1.138578575731152148e-02
-1.300976806118111541e-02
-1.462671435592946025e-02
-1.623524911870025123e-02
-1.783401056767452281e-02
-1.942165660881627412e-02
-2.099687129709690986e-02
-2.255837177355697262e-02
-2.410491538248933988e-02
-2.563530702945279391e-02
-2.714840647442251162e-02
-2.864313548231736672e-02
-3.011848461402264615e-02
-3.157351949412225828e-02
-3.300738639333369168e-02
-3.441931707987407746e-02
-3.580863269301522850e-02
-3.717474654032708326e-02
-3.851716576267753128e-02
-3.983549173265384102e-02
-4.112941916321608687e-02
-4.239873390032888184e-02
-4.364330939696679096e-02
-4.486310192761286397e-02
-4.605814447959308278e-02
-4.722853956901271882e-02
-4.837445090247653040e-02
-4.949609416560480507e-02
-5.059372698605828916e-02
-5.166763836869148196e-02
-5.271813755318686262e-02
-5.374554269692320696e-02
-5.475016956797591761e-02
-5.573232033413989123e-02
-5.669227278385265828e-02
-5.763027016953541776e-02
-5.854651164914583678e-02
-5.944114389903250306e-02
-6.031425373037871407e-02
-6.116586210346222630e-02
-6.199591941127214484e-02
-6.280430231154340848e-02
-6.359081224436692603e-02
-6.435517542144669756e-02
-6.509704451076608889e-02
-6.581600198941199575e-02
-6.651156495056120832e-02
-6.718319146745239945e-02
-6.783028833693728610e-02
-6.845221996754383142e-02
-6.904831838302095959e-02
-6.961789418491834414e-02
-7.016024801675774247e-02
-7.067468259845464951e-02
-7.116051488285095317e-02
-7.161708828258210591e-02
-7.204378455886831234e-02
-7.244003522493380753e-02
-7.280533218850210320e-02
-7.313923743485678530e-02
-7.344139153737520853e-02
-7.371152084918100589e-02
-7.394944312643217388e-02
-7.415507157754143430e-02
-7.432841711813907570e-02
-7.446958878507881074e-02
-7.457879240820680655e-02
-7.465632736628072252e-02
-7.470258155866603411e-02
-7.471802464569625435e-02
-7.470319973513100953e-02
-7.465871350849236088e-02
-7.458522510385834359e-02
-7.448343397256103338e-02
-7.435406686548620692e-02
-7.419786410747836181e-02
-7.401556565300169976e-02
-7.380789710060978170e-02
-7.357555586092943967e-02
-7.331919790451801866e-02
-7.303942525627393767e-02
-7.273677464582954666e-02
-7.241170738229554815e-02
-7.206460087755983679e-02
-7.169574196265950106e-02
-7.130532218070111117e-02
-7.089343508147794015e-02
-7.046007581130002417e-02
-7.000514302930625765e-02
-6.952844308889727376e-02
-6.902969656711099855e-02
-6.850854701871955665e-02
-6.796457198810509914e-02
-6.739729588838272445e-02
-6.680620487109439898e-02
-6.619076317672491216e-02
-6.555043089762467579e-02
-6.488468283067685971e-02
-6.419302806804645656e-02
-6.347503002094988245e-02
-6.273032653156421223e-02
-6.195864967553558339e-02
-6.115984500717881051e-02
-6.033388968164086347e-02
-5.948090930833889456e-02
-5.860119307091092578e-02
-5.769520692989210664e-02
-5.676360445807589888e-02
-5.580723524660127083e-02
-5.482715043919413056e-02
-5.382460544074516018e-02
-5.280105953545215225e-02
-5.175817245376322651e-02
-5.069779766592055065e-02
-4.962197264240148648e-02
-4.853290604649553724e-02
-4.743296193020764967e-02
-4.632464127699154749e-02
-4.521056099599911338e-02
-4.409343065678923007e-02
-4.297602730157975420e-02
-4.186116860170299020e-02
-4.075168488956154578e-02
-3.965039038005802735e-02
-3.856005388810086754e-02
-3.748336971619435631e-02
-3.642292897130050555e-02
-3.538119173266679462e-02
-3.436046068805131276e-02
-3.336285637169572604e-02
-3.239029462062416320e-02
-3.144446656205034107e-02
-3.052682122461821204e-02
-2.963855143509465731e-02
-2.878058289259923658e-02
-2.795356679383861551e-02
-2.715787601838696649e-02
-2.639360507627344643e-02
-2.566057362498973607e-02
-2.495833386659456962e-02
-2.428618124902505102e-02
-2.364316868524063073e-02
-2.302812390930195074e-02
-2.243966982402145760e-02
-2.187624732542910178e-02
-2.133614041390192312e-02
-2.081750318824117721e-02
-2.031838830834817658e-02
-1.983677644263589362e-02
-1.937060621611006936e-02
-1.891780431890916284e-02
-1.847631513492798902e-02
-1.804412960595177043e-02
-1.761931282644061195e-02
-1.720002991343317841e-02
-1.678456975809836105e-02
-1.637136629256880430e-02
-1.595901705841091742e-02
-1.554629870685925695e-02
-1.513217926181014035e-02
-1.471582688606541157e-02
-1.429661516223504174e-02
-1.387412476257836140e-02
-1.344814160504381739e-02
-1.301865140954135310e-02
-1.258583092773313435e-02
-1.215003597910829271e-02
-1.171178655936213654e-02
-1.127174916846109681e-02
-1.083071688283148218e-02
-1.038958743867595194e-02
-9.949339650269431803e-03
-9.511008742808193042e-03
-9.075660983345496327e-03
-8.644367913569156112e-03
-8.218180882839867460e-03
-7.798106157789149763e-03
-7.385081133976472215e-03
-6.979951980186594948e-03
-6.583453153171933865e-03
-6.196189216133130874e-03
-5.818619092692883452e-03
-5.451043185252230257e-03
-5.093593566360232576e-03
-4.746227317341208431e-03
-4.408723224391098393e-03
-4.080681783677510104e-03
-3.761528674357313574e-03
-3.450521454698137012e-03
-3.146759503588734790e-03
-2.849196999151126005e-03
-2.556658634410624575e-03
-2.267857992028444927e-03
-1.981417925354637607e-03
-1.695892937456061839e-03
-1.409793028425137575e-03
-1.121608546546164729e-03
-8.298358181212592277e-04
-5.330028159007420187e-04
-2.296946476144085653e-04
8.142158509318283871e-05
4.015730481746936304e-04
7.318589500173973764e-04
1.073230191979959378e-03
1.426471176585285142e-03
1.792184246822763234e-03
2.170776877707486247e-03
2.562451765635351004e-03
2.967200293507795458e-03
3.384799164037771615e-03
3.814810288687156287e-03
4.256584186266898495e-03
4.709266537036779776e-03
5.171807960712156149e-03
5.642976752286388634e-03
6.121374480248504765e-03
6.605453982680773405e-03
7.093539754288832183e-03
7.583850026085151887e-03
8.074520521146594590e-03
8.563629282252842312e-03
9.049222149117517808e-03
9.529338661299933261e-03
1.000203775430831034e-02
1.046542298852409791e-02
1.091766677466802019e-02
1.135703334182131159e-02
1.178189999374079991e-02
1.219077635139474876e-02
1.258232134076724996e-02
1.295535763637179101e-02
1.330888337019690837e-02
1.364208084657774628e-02
1.395432236565133724e-02
1.424517298351326601e-02
1.451439019073885034e-02
1.476192060108222175e-02
1.498789376622920722e-02
1.519261330685247637e-02
1.537654537515145345e-02
1.554030495611402087e-02
1.568464006331862087e-02
1.581041434751582347e-02
1.591858827893227399e-02
1.601019929697368102e-02
1.608634133593778506e-02
1.614814415670437833e-02
1.619675274283200600e-02
1.623330715823836923e-02
1.625892325789463772e-02
1.627467461328559184e-02
1.628157593728224786e-02
1.628056821740013829e-02
1.627250584108957954e-02
1.625814602308270004e-02
1.623814053025944212e-02
1.621302988402112052e-02
1.618324012252377042e-02
1.614908208216126947e-02
1.611075333100314005e-02
1.606834240282773579e-02
1.602183539349019345e-02
1.597112473969617905e-02
1.591601988094835246e-02
1.585625966174103105e-02
1.579152613944874786e-02
1.572145943306927848e-02
1.564567349326959067e-02
1.556377223224807496e-02
1.547536582706247540e-02
1.538008673963654066e-02
1.527760518743617735e-02
1.516764373845496360e-02
1.504999071220522976e-02
1.492451204358717122e-02
1.479116151111131879e-02
1.464998895894499727e-02
1.450114635938115279e-02
1.434489162639642455e-02
1.418159006792400062e-02
1.401171338000299638e-02
1.383583623348050122e-02
1.365463053704911271e-02
1.346885737286115763e-02
1.327935677497737478e-02
1.308703552256572540e-02
1.289285324958180240e-02
1.269780703444387850e-02
1.250291473289111277e-02
1.230919747482759306e-02
1.211766148483030617e-02
1.192927976344905841e-02
1.174497384732998279e-02
1.156559602766190319e-02
1.139191243219145160e-02
1.122458720112902084e-02
1.106416814041503299e-02
1.091107416595922183e-02
1.076558477218747013e-02
1.062783172515776794e-02
1.049779316590211502e-02
1.037529038670627693e-02
1.025998723221041055e-02
1.015139224850631142e-02
1.004886366524524767e-02
9.951617034927985259e-03
9.858735519592907309e-03
9.769182635205734752e-03
9.681817318923344878e-03
9.595411099846379299e-03
9.508667106143420603e-03
9.420240523161925103e-03
9.328760334084515438e-03
9.232851857184766128e-03
9.131159814101116184e-03
9.022371452258697022e-03
8.905239436664769137e-03
8.778604053289522716e-03
8.641414386016191274e-03
8.492748106400885982e-03
8.331829504717390075e-03
8.158045577964134071e-03
7.970959702646478878e-03
7.770322756598026064e-03
7.556081463945115047e-03
7.328383859371488847e-03
7.087581662844444179e-03
6.834229572546707786e-03
6.569081468555840013e-03
6.293083473927848885e-03
6.007364086978282496e-03
5.713221432623845700e-03
5.412107836733265342e-03
5.105611944743472172e-03
4.795438699028790538e-03
4.483387417621806197e-03
4.171328293181583366e-03
3.861177687937890173e-03
3.554872634911859786e-03
3.254344827962256208e-03
2.961494634948774393e-03
2.678165398052962699e-03
2.406118518221095435e-03
2.147009616250629156e-03
1.902366138457363149e-03
1.673566800850724741e-03
1.461823085958765395e-03
1.268163114172249665e-03
1.093418164945518046e-03
9.382119354575921321e-04
8.029527441812569881e-04
6.878287821290530665e-04
5.928064480806786562e-04
5.176317946010846422e-04
4.618350254301972942e-04
4.247379958421791278e-04
4.054644885179291996e-04
4.029532046541783180e-04
4.159732208965417097e-04
4.431415392095361568e-04
4.829427841628900972e-04
5.337503123085215366e-04
5.938487339882946329e-04
6.614573673845593584e-04
7.347543131388569728e-04
8.119007484069813013e-04
8.910651590811849865e-04
9.704470640613164058e-04
1.048300069080161569e-03
1.122953759259218533e-03
1.192834197425555543e-03
1.256482724064577131e-03
1.312572838267262376e-03
1.359925037249556197e-03
1.397519333151201566e-03
1.424505334090073704e-03
1.440209773664873072e-03
1.444141458073525640e-03
1.435993643842326667e-03
1.415643801955327732e-03
1.383150828858824115e-03
1.338749910023047341e-03
1.282845016900776474e-03
1.215999249138869417e-03
1.138923182666996565e-03
1.052461500811326849e-03
9.575781225708255044e-04
8.553400103491916708e-04
7.468999584100580007e-04
6.334786540573020611e-04
5.163461986349699015e-04
3.968035032913617001e-04
2.761636811098194290e-04
1.557337052135728352e-04
3.679669689628424240e-05
-7.940505613256530076e-05
-1.916860850391986044e-04
-2.989325561821590477e-04
-4.001157147013322283e-04
-4.943038613949930684e-04
-5.806727429648801155e-04
-6.585142099326271809e-04
-7.272431158995373932e-04
-7.864024909456005354e-04
-8.356668593960225443e-04
-8.748437873277695349e-04
-9.038736957401372930e-04
-9.228279362510671043e-04
-9.319053110846779991e-04
-9.314270849806925929e-04
-9.218306487067944466e-04
-9.036618508916243516e-04
-8.775663243247344746e-04
-8.442797812973299723e-04
-8.046175438102305547e-04
-7.594633521675813815e-04
-7.097577604277466919e-04
-6.564862082728036962e-04
-6.006669034146673190e-04
-5.433386487914457870e-04
-4.855488692176127431e-04
-4.283418237372049633e-04
-3.727472270324593343e-04
-3.197693517239280528e-04
-2.703767276151401375e-04
-2.254925161623320756e-04
-1.859856094615654730e-04
-1.526626256494532214e-04
-1.262607021041732764e-04
-1.074412248765248620e-04
-9.678447634300979595e-05
-9.478522485833580310e-05
-1.018493080403133974e-04
-1.182911159592191382e-04
-1.443320646017021884e-04
-1.800999629320986937e-04
-2.256292569336825317e-04
-2.808621396799247942e-04
-3.456504865020023384e-04
-4.197585596905306312e-04
-5.028664495173959959e-04
-5.945741864806007668e-04
-6.944065316096697561e-04
-8.018182757381714853e-04
-9.162000789645402456e-04
-1.036884821309740990e-03
-1.163154324115586160e-03
-1.294246442530364548e-03
-1.429362424722419554e-03
-1.567674624972289436e-03
-1.708334195402054284e-03
-1.850479045741614198e-03
-1.993241803034937788e-03
-2.135757798461812573e-03
-2.277172925254338041e-03
-2.416651442656272877e-03
-2.553383520157138063e-03
-2.686592546222455087e-03
-2.815542100875988423e-03
-2.939542578877234191e-03
-3.057957324393883319e-03
-3.170208269608705467e-03
-3.275781000361018252e-03
-3.374229232172701494e-03
-3.465178533575699864e-03
-3.548329421745537605e-03
-3.623459617009617759e-03
-3.690425570377629024e-03
-3.749163087685988913e-03
-3.799687212783763209e-03
-3.842091151148115460e-03
-3.876544368572860597e-03
-3.903289866365665297e-03
-3.922640625847033727e-03
-3.934975188005401456e-03
-3.940732556587897041e-03
-3.940406326945223095e-03
-3.934538218387350315e-03
-3.923710984652110240e-03
-3.908540861512364330e-03
-3.889669625524051506e-03
-3.867756314237879613e-03
-3.843468793259291645e-03
-3.817475231558634975e-03
-3.790435586085964467e-03
-3.762993210434006659e-03
-3.735766764995387956e-03
-3.709342506422880215e-03
-3.684267053122928116e-03
-3.661040751486001419e-03
-3.640111800269823627e-03
-3.621871044001835627e-03
-3.606647706489364991e-03
-3.594706032619562463e-03
-3.586242932773253938e-03
-3.581386649165111194e-03
-3.580196445554882818e-03
-3.582663389364865256e-03
-3.588712128010851030e-03
-3.598203694709996465e-03
-3.610939310993595969e-03
-3.626665034807131840e-03
-3.645077284200634420e-03
-3.665829029917151011e-03
-3.688536673804223426e-03
-3.712787396156301285e-03
-3.738146887720199783e-03
-3.764167374031793505e-03
-3.790395655585707905e-03
-3.816381151869697574e-03
-3.841683783392538156e-03
-3.865881501394118763e-03
-3.888577363492895338e-03
-3.909406056159582012e-03
-3.928039655870478944e-03
-3.944192662867811866e-03
-3.957626022192062970e-03
-3.968150288242280020e-03
-3.975627657748116196e-03
-3.979973006906490501e-03
-3.981153788017843115e-03
-3.979188896439681856e-03
-3.974146450595576925e-03
-3.966140575645210262e-03
-3.955327238695440818e-03
-3.941899243066641044e-03
-3.926080440035038983e-03
-3.908119317068256028e-03
-3.888282085830487098e-03
-3.866845433278259022e-03
-3.844089023983296438e-03
-3.820287977004553984e-03
-3.795705466747771855e-03
-3.770585628442231756e-03
-3.745146829657410026e-03
-3.719575649674403822e-03
-3.694021474017864046e-03
-3.668592027049079590e-03
-3.643349861233568555e-03
-3.618309885249301056e-03
-3.593438021404187031e-03
-3.568651161317072489e-03
-3.543818256417934423e-03
-3.518762691254789018e-03
-3.493265866026388361e-03
-3.467071890046757171e-03
-3.439893439217031959e-03
-3.411418563830932293e-03
-3.381318390411832547e-03
-3.349255566242413835e-03
-3.314893289243457924e-03
-3.277904720844067917e-03
-3.237982634416483683e-03
-3.194849088051618553e-03
-3.148264887838127246e-03
-3.098038707941597712e-03
-3.044035540303884589e-03
-2.986184491962519567e-03
-2.924485467559570593e-03
-2.859014731606501509e-03
-2.789929180838753714e-03
-2.717469179572474646e-03
-2.641959765036888154e-03
-2.563810269597902296e-03
-2.483512212177172752e-03
-2.401635454748514940e-03
-2.318822594411814805e-03
-2.235781732226881178e-03
-2.153277488512037128e-03
-2.072120557198947350e-03
-1.993155887524839139e-03
-1.917249650372895723e-03
-1.845275135794547218e-03
-1.778097857453165946e-03
-1.716559989210893417e-03
-1.661464538684966291e-03
-1.613559437067974781e-03
-1.573521886711280390e-03
-1.541943159610637687e-03
-1.519314191991167663e-03
-1.506012250643232664e-03
-1.502288949861590919e-03
-1.508259730359847546e-03
-1.523895269743706909e-03
-1.549014801914703077e-03
-1.583281764032737219e-03
-1.626201695312417530e-03
-1.677122595530897023e-03
-1.735237816626255918e-03
-1.799591476193193292e-03
-1.869086475487579703e-03
-1.942494964536749420e-03
-2.018471233431003240e-03
-2.095566826630622121e-03
-2.172247753966620454e-03
-2.246913604684578139e-03
-2.317918250177430830e-03
-2.383591892957173924e-03
-2.442264095177561125e-03
-2.492287551869752735e-03
-2.532062179224729096e-03
-2.560059120448110632e-03
-2.574844460906297247e-03
-2.575102072864175751e-03
-2.559655353468747851e-03
-2.527487438167524969e-03
-2.477759558320846538e-03
-2.409827258068643081e-03
-2.323254148256104733e-03
-2.217822978657895110e-03
-2.093543719974128286e-03
-1.950658572701188852e-03
-1.789643665471895521e-03
-1.611207507647052783e-03
-1.416286055421903936e-03
-1.206034424314499694e-03
-9.818152640817567108e-04
-7.451840377797324397e-04
-4.978712897990469465e-04
-2.417621388880657825e-04
2.112673650641029997e-05
2.886723559146851109e-04
5.586725153681660781e-04
8.288743483747556444e-04
1.097004080731096886e-03
1.360797338920703096e-03
1.618029778357851041e-03
1.866547428038536557e-03
2.104296446897172771e-03
2.329351699755712480e-03
2.539943902547951108e-03
2.734484749739844994e-03
2.911589764765798449e-03
3.070098472169025938e-03
3.209091511048015391e-03
3.327904598356465089e-03
3.426138925827697072e-03
3.503667823661672960e-03
3.560639745452538231e-03
3.597477279206209768e-03
3.614872355319466435e-03
3.613777550438663708e-03
3.595393654391867196e-03
3.561153724429760165e-03
3.512703662854348065e-03
3.451879726888813175e-03
3.380683252406028148e-03
3.301252882884896447e-03
3.215834715401867834e-03
3.126750853396174229e-03
3.036366651087961735e-03
2.947057214236480441e-03
2.861173737922065741e-03
2.781009911318688133e-03
2.708769060909227942e-03
2.646532382043230436e-03
2.596228891963974807e-03
2.559607319577833148e-03
2.538210455028101515e-03
2.533352295239148667e-03
2.546098296311754324e-03
2.577249097968799512e-03
2.627327850771141952e-03
2.696571367126028834e-03
2.784925265690377846e-03
2.892043113965370085e-03
3.017289595889442212e-03
3.159747686692090853e-03
3.318229748707190226e-03
3.491292279964575834e-03
3.677254268803932698e-03
3.874218783826411348e-03
4.080097497275244831e-03
4.292637898300607699e-03
4.509452701014597664e-03
4.728051091628756274e-03
4.945871311158612886e-03
5.160314246770410576e-03
5.368777487998623206e-03
5.568689351098262373e-03
5.757542416921609257e-03
5.932926180209138235e-03
6.092558349417817251e-03
6.234314272006427279e-03
6.356254241702882953e-03
6.456648260015671915e-03
6.533997937561897631e-03
6.587055165384222456e-03
6.614837446672246213e-03
6.616639600609883556e-03
6.592041793535210505e-03
6.540913750307671658e-03
6.463415089837573277e-03
6.359991974851741600e-03
6.231369844774236298e-03
6.078542691481867571e-03
5.902758812970105434e-03
5.705503359209191695e-03
5.488477974413494623e-03
5.253577725740321731e-03
5.002865768113740584e-03
4.738546044875785977e-03
4.462934380344717525e-03
4.178428508265673996e-03
3.887477303621443385e-03
3.592549714081413794e-03
3.296103770359731615e-03
3.000556160790613172e-03
2.708252729564361149e-03
2.421440334235027206e-03
2.142240334165276296e-03
1.872624144392381331e-03
1.614391104083644441e-03
1.369149022144022570e-03
1.138297453266388318e-03
9.230140667053371049e-04
7.242442533675674593e-04
5.426938590223100069e-04
3.788253662742682997e-04
2.328573565305538831e-04
1.047673187188082441e-04
-5.702343558164904030e-06
-9.903527434180994674e-05
-1.759291215434114733e-04
-2.372808270204556497e-04
-2.841695126382500153e-04
-3.178370955809814023e-04
-3.396670547855265782e-04
-3.511616596008768553e-04
-3.539178991457745250e-04
-3.496026787078134390e-04
-3.399274141606155385e-04
-3.266225056319827804e-04
-3.114120969206961385e-04
-2.959893331854327771e-04
-2.819926082763881412e-04
-2.709830560522292955e-04
-2.644235606809834790e-04
-2.636595892566232771e-04
-2.699021858168034371e-04
-2.842130522207737776e-04
-3.074922755937558542e-04
-3.404685762376481674e-04
-3.836922631698135087e-04
-4.375309212354990115e-04
-5.021679517554114396e-04
-5.776038066925748195e-04
-6.636598976662588540e-04
-7.599851043752217043e-04
-8.660647588408553268e-04
-9.812318892553435670e-04
-1.104680444752711684e-03
-1.235480533068447845e-03
-1.372595111013328413e-03
-1.514897981712613187e-03
-1.661192769410491403e-03
-1.810232619506797584e-03
-1.960740295995177032e-03
-2.111428301139966525e-03
-2.261018733863583239e-03
-2.408262555680813852e-03
-2.551958072637442940e-03
-2.690968208254917397e-03
-2.824236456607643990e-03
-2.950801126706816338e-03
-3.069807799422677279e-03
-3.180519720685542635e-03
-3.282326057192588679e-03
-3.374747896274614845e-03
-3.457441978399474185e-03
-3.530201936582390374e-03
-3.592957234699305051e-03
-3.645769858703052767e-03
-3.688828707721969469e-03
-3.722441915513476172e-03
-3.747027241075061819e-03
-3.763100668649627979e-03
-3.771263477914135742e-03
-3.772187974610788537e-03
-3.766602150711504879e-03
-3.755273648256870871e-03
-3.738993165368810143e-03
-3.718557699212881110e-03
-3.694753916155779552e-03
-3.668341905685831763e-03
-3.640039628028139337e-03
-3.610508353332824924e-03
-3.580339358428065097e-03
-3.550042036765833214e-03
-3.520033736531213726e-03
-3.490631479836016089e-03
-3.462045674384721643e-03
-3.434376026386055502e-03
-3.407609578662235562e-03
-3.381621124967046279e-03
-3.356175824032713029e-03
-3.330934060889264355e-03
-3.305458455732127650e-03
-3.279222864583857672e-03
-3.251623314227844626e-03
-3.221990607526376525e-03
-3.189604368500506982e-03
-3.153708325969932329e-03
-3.113526564010590976e-03
-3.068280429658699297e-03
-3.017205735023061747e-03
-2.959570070016615245e-03
-2.894689786428044850e-03
-2.821946401073198180e-03
-2.740802122911618465e-03
-2.650814189803478525e-03
-2.551647631847829469e-03
-2.443086386079817551e-03
-2.325042483897031206e-03
-2.197563078222964164e-03
-2.060835136709033861e-03
-1.915187826851415297e-03
-1.761092314936133722e-03
-1.599159170057721764e-03
-1.430133114668011079e-03
-1.254885513908351709e-03
-1.074404466955239607e-03
-8.897827150790135666e-04
-7.022036347643580319e-04
-5.129254719523657644e-04
-3.232640710173231261e-04
-1.345744433341391642e-04
5.176855186824853774e-05
2.343900373322398221e-04
4.119351197391426384e-04
5.830887425757455209e-04
7.465949062830625404e-04
9.012750604341221092e-04
1.046045250747902914e-03
1.179931683580983217e-03
1.302084384801053879e-03
1.411788851949286700e-03
1.508475245598715200e-03
1.591725123002556055e-03
1.661275370648524928e-03
1.717019573619680151e-03
1.759006423132070422e-03
1.787435426120244971e-03
1.802649793757125050e-03
1.805126810330241922e-03
1.795465775225402747e-03
1.774373708406916340e-03
1.742649130832516890e-03
1.701164211438574349e-03
1.650845690935551788e-03
1.592654826167111924e-03
1.527566895510737129e-03
1.456550537953749070e-03
1.380547477453069032e-03
1.300452997829463055e-03
1.217097543941333048e-03
1.131229927781767517e-03
1.043502401834208023e-03
9.544580910225933679e-04
8.645209410926864421e-04
7.739884668351434353e-04
6.830275143560445234e-04
5.916732526006663207e-04
4.998313204724024730e-04
4.072832985231653177e-04
3.136953056439842542e-04
2.186297345909711380e-04
1.215598813048357154e-04
2.188715178537888140e-05
-8.103929604504871295e-05
-1.879009963777586337e-04
-2.993870790907494916e-04
-4.161699954236413343e-04
-5.388807548364841615e-04
-6.680839929658073228e-04
-8.042534983522353458e-04
-9.477487496847489517e-04
-1.098793012315197291e-03
-1.257453450880802702e-03
-1.423623787068139775e-03
-1.597009977294459480e-03
-1.777119375051299877e-03
-1.963253588131762782e-03
-2.154505499530200759e-03
-2.349760589239926600e-03
-2.547702674530128147e-03
-2.746824174708512988e-03
-2.945440918389436238e-03
-3.141711284488069543e-03
-3.333659545098188043e-03
-3.519203108620808356e-03
-3.696183257719477724e-03
-3.862398964199614208e-03
-4.015643249565544609e-03
-4.153741482840193032e-03
-4.274590987698522783e-03
-4.376201232869744891e-03
-4.456733913322828873e-03
-4.514542171984469061e-03
-4.548208174320962811e-03
-4.556578359830652618e-03
-4.538795476954592123e-03
-4.494326955504944140e-03
-4.422988782931593782e-03
-4.324964324737769379e-03
-4.200817719506614797e-03
-4.051501278630150089e-03
-3.878356667148284871e-03
-3.683109510023350325e-03
-3.467857476564204303e-03
-3.235051790088904963e-03
-2.987472320483716519e-03
-2.728196416812370215e-03
-2.460561943563862458e-03
-2.188124971190988800e-03
-1.914612725005369973e-03
-1.643872417616048078e-03
-1.379816826593476681e-03
-1.126367438418347279e-03
-8.873960525666922498e-04
-6.666658719161360673e-04
-4.677730144802285349e-04
-2.940895313800881341e-04
-1.487089128380844724e-04
-3.439499744909421604e-05
4.646469342683448128e-05
9.190027472328300630e-05
1.003947162419356219e-04
7.091224183853797993e-05
2.919268948160271931e-06
-1.036025699529101733e-04
-2.481516896059645120e-04
-4.297103537224404211e-04
-6.467570051799691666e-04
-8.972871371494435793e-04
-1.178842384830831522e-03
-1.488547524411237529e-03
-1.823154816320616579e-03
-2.179094926161375800e-03
-2.552533795196129055e-03
-2.939434371239176436e-03
-3.335622302483623978e-03
-3.736854366523567963e-03
-4.138888542875931130e-03
-4.537554494444926041e-03
-4.928823161017373625e-03
-5.308874233893943161e-03
-5.674160319338996360e-03
-6.021466461069891092e-03
-6.347964172323515911e-03
-6.651258694724125620e-03
-6.929428602316138434e-03
-7.181057019531006391e-03
-7.405253777310412747e-03
-7.601667983731406550e-03
-7.770490750100497897e-03
-7.912447803726281245e-03
-8.028782072337372136e-03
-8.121226557554513462e-03
-8.191967780340349281e-03
-8.243600328670558017e-03
-8.279073467745822618e-03
-8.301630473657657314e-03
-8.314741953180420503e-03
-8.322034208897485102e-03
-8.327213971344832669e-03
-8.333990803775351286e-03
-8.345998743199854394e-03
-8.366718462040699522e-03
-8.399401631710295968e-03
-8.446998715604517316e-03
-8.512091693274128484e-03
-8.596832982538703608e-03
-8.702891842988202606e-03
-8.831409328495274519e-03
-8.982962680098786901e-03
-9.157539990268540042e-03
-9.354525713499777309e-03
-9.572697315729572498e-03
-9.810233461017257156e-03
-1.006473350857723520e-02
-1.033324808698141313e-02
-1.061232042381240678e-02
-1.089803762803446055e-02
-1.118609113436633967e-02
-1.147184514091913882e-02
-1.175041201821409691e-02
-1.201673322837445469e-02
-1.226566424877818286e-02
-1.249206196679858091e-02
-1.269087290085127093e-02
-1.285722066635596253e-02
-1.298649094731784900e-02
-1.307441231159838478e-02
-1.311713131990359903e-02
-1.311128058175627283e-02
-1.305403824564999905e-02
-1.294317783528824151e-02
-1.277710729142986744e-02
-1.255489654461617276e-02
-1.227629294124068376e-02
-1.194172411906213420e-02
-1.155228829642976872e-02
-1.110973199363976191e-02
-1.061641561409323170e-02
-1.007526743172500704e-02
-9.489726893597125526e-03
-8.863678220418128029e-03
-8.201375658939000918e-03
-7.507361716644286170e-03
-6.786380004627559463e-03
-6.043284406539682456e-03
-5.282946397860004660e-03
-4.510162313364520816e-03
-3.729562420364661117e-03
-2.945523724772418535e-03
-2.162088238614653154e-03
-1.382888389414851796e-03
-6.110811489035172014e-04
1.507076984693785592e-04
9.004278953834075850e-04
1.636636836256288516e-03
2.358518559718102581e-03
3.065889228163803416e-03
3.759188879417168106e-03
4.439459530930474698e-03
5.108310012317731491e-03
5.767868110560522323e-03
6.420721139657498133e-03
7.069845940264420960e-03
7.718529773252367533e-03
8.370283803496553210e-03
9.028750985962718037e-03
9.697610284442248138e-03
1.038047931455824205e-02
1.108081760589645602e-02
1.180183261159916883e-02
1.254639055437533485e-02
1.331693432065915277e-02
1.411541028358945411e-02
1.494320586202479290e-02
1.580109949514794249e-02
1.668922440851867625e-02
1.760704725662111392e-02
1.855336241289367444e-02
1.952630249678258961e-02
2.052336528383981451e-02
2.154145675656031142e-02
2.257694977027851352e-02
2.362575745521799594e-02
2.468342012261883975e-02
2.574520395457311622e-02
2.680620989042024893e-02
2.786149036412857022e-02
2.890617157121879235e-02
2.993557877192090308e-02
3.094536189625800293e-02
3.193161865891834539e-02
3.289101244734238955e-02
3.382088210112286358e-02
3.471934099996767942e-02
3.558536276601746012e-02
3.641885135735346835e-02
3.722069335456371086e-02
3.799279070062164948e-02
3.873807239541838393e-02
3.946048414060372711e-02
4.016495523918051785e-02
4.085734264248654796e-02
4.154435235301349311e-02
4.223343899669924906e-02
4.293268474071639668e-02
4.365065932697144435e-02
4.439626334817263487e-02
4.517855732888689801e-02
4.600657948164618705e-02
4.688915556225384945e-02
4.783470421422105628e-02
4.885104173895316038e-02
4.994519009183346486e-02
5.112319213367030879e-02
5.238993813772813840e-02
5.374900742017402894e-02
5.520252887442324286e-02
5.675106401379473309e-02
5.839351551261563744e-02
6.012706421866337303e-02
6.194713691303643105e-02
6.384740670468187773e-02
6.581982726360385838e-02
6.785470157857723117e-02
6.994078527167692239e-02
7.206542371035820627e-02
7.421472166791658054e-02
7.637374345451337920e-02
7.852674089904633503e-02
8.065740585322771217e-02
8.274914331163561731e-02
8.478536077198196852e-02
8.674976884291309143e-02
8.862668799971537559e-02
9.040135574153429499e-02
9.206022846050271324e-02
9.359127208054510150e-02
9.498423557198072686e-02
9.623090161406734622e-02
9.732530878993049528e-02
9.826394018264252017e-02
9.904587356380314955e-02
9.967288885387387554e-02
1.001495294324922236e-01
1.004831143636987639e-01
1.006836995482363467e-01
1.007639865585712169e-01
1.007391790672393928e-01
1.006267874765972292e-01
1.004463835041962683e-01
1.002193073912650279e-01
9.996833150713470284e-02
9.971728472398838639e-02
9.949064318504141635e-02
9.931309379506078616e-02
9.920907733793039862e-02
9.920231884947032508e-02
9.931535343183403586e-02
9.956905601625912205e-02
9.998218379847841064e-02
1.005709402188792873e-01
1.013485691946267447e-01
1.023249881771416125e-01
1.035064682589844354e-01
1.048953688314098465e-01
1.064899337961973808e-01
1.082841553320420813e-01
1.102677104597526714e-01
1.124259741416165914e-01
1.147401120357750826e-01
1.171872540752508934e-01
1.197407491683614156e-01
1.223704997173989256e-01
1.250433730601301918e-01
1.277236857421366611e-01
1.303737550854706939e-01
1.329545108136912790e-01
1.354261586572512999e-01
1.377488862379355472e-01
1.398836006951397759e-01
1.417926864888167382e-01
1.434407710374490941e-01
1.447954851931759768e-01
1.458282052163448195e-01
1.465147626668050762e-01
1.468361086401734350e-01
1.467789191123258785e-01
1.463361283721257566e-01
1.455073785732718950e-01
1.442993741098340110e-01
1.427261305497608268e-01
1.408091096501594974e-01
1.385772328108852425e-01
1.360667676672196735e-01
1.333210839506815681e-01
1.303902768941423984e-01
1.273306581928506376e-01
1.242041170553292856e-01
1.210773557292310065e-01
1.180210060333180960e-01
1.151086356206154071e-01
1.124156546857099509e-01
1.100181356296014018e-01
1.079915601521274499e-01
1.064095099022944746e-01
1.053423179900368212e-01
1.048557000389721133e-01
1.050093844498232315e-01
1.058557620444076919e-01
1.074385759740808799e-01
1.097916725339347227e-01
1.129378336514149650e-01
1.168877110377770229e-01
1.216388813255155077e-01
1.271750404556511171e-01
1.334653539481842621e-01
1.404639781183349423e-01
1.481097654803276154e-01
1.563261650791373802e-01
1.650213263645279038e-01
1.740884124855280046e-01
1.834061262323158359e-01
1.928394488101371207e-01
2.022405890388729588e-01
2.114501374255483013e-01
2.202984165842851449e-01
2.286070167742803583e-01
2.361905023752322863e-01
2.428582725832626743e-01
2.484165571287134111e-01
2.526705255442689424e-01
2.554264864939085333e-01
2.564941519858172092e-01
2.556889399047143074e-01
2.528342872367764227e-01
2.477639454823677423e-01
2.403242297271645789e-01
2.303761925226687768e-01
2.177976944486024469e-01
2.024853437343524243e-01
1.843562787563526040e-01
1.633497685992192916e-01
1.394286089612632729e-01
1.125802926276854854e-01
8.281793632172533559e-02
5.018094877104203877e-02
1.473542741097562218e-02
-2.342572516741077415e-02
-6.418297096922402634e-02
-1.073905949399909937e-01
-1.528774505765693736e-01
-2.004479881184504653e-01
-2.498835571190297644e-01
-3.009439718004639497e-01
-3.533693242155298564e-01
-4.068820272319281228e-01
-4.611890662895293258e-01
-5.159844363869294792e-01
-5.709517384457537537e-01
-6.257669068889286645e-01
-6.801010388869414003e-01
-7.336232941915471484e-01
-7.860038336860144526e-01
-8.369167641472299302e-01
-8.860430567235256794e-01
-9.330734068241871570e-01
-9.777110038849279317e-01
-1.019674180522027518e+00
-1.058698912016284854e+00
-1.094541139138588637e+00
-1.126978889156898589e+00
-1.155814172578627064e+00
-1.180874635955180274e+00
-1.202014953753096416e+00
-1.219117945892539634e+00
-1.232095410579469474e+00
-1.240888665471208574e+00
-1.245468793963977250e+00
-1.245836596519093176e+00
-1.242022250764503344e+00
-1.234084687244212386e+00
-1.222110691123879711e+00
-1.206213743007008787e+00
-1.186532615355795794e+00
-1.163229743149422735e+00
-1.136489390104810315e+00
-1.106515634083836019e+00
-1.073530196501728540e+00
-1.037770142420020969e+00
-9.994854790450526938e-01
-9.589366809583103057e-01
-9.163921706638273879e-01
-8.721257832764746087e-01
-8.264142435324941527e-01
-7.795346827157467740e-01
-7.317622219880771661e-01
-6.833676472168063176e-01
-6.346151987085263402e-01
-5.857604973296953732e-01
-5.370486264191716153e-01
-4.887123863594319828e-01
-4.409707362081378701e-01
-3.940274343287472059e-01
-3.480698868816825553e-01
-3.032682106022939195e-01
-2.597745131958481557e-01
-2.177223921218315872e-01
-1.772266497105535465e-01
-1.383832199476781322e-01
-1.012692999735204658e-01
-6.594367672655575274e-02
-3.244723736539869424e-02
-8.036499620358803506e-04
2.897980066434744859e-02
5.691123849278607871e-02
8.301310081884558101e-02
1.073209403331543410e-01
1.298821440847627018e-01
1.507545885972373934e-01
1.700052508719267219e-01
1.877087946211225267e-01
2.039461505219562765e-01
2.188031088364801868e-01
2.323689416332430091e-01
2.447350706058324665e-01
2.559937955071936444e-01
2.662370965115012922e-01
2.755555221401300714e-01
2.840371731070474026e-01
2.917667900944134751e-01
2.988249521206390313e-01
3.052873901054148353e-01
3.112244183852212465e-01
3.167004853393275976e-01
3.217738422000454568e-01
3.264963278591117568e-01
3.309132656882459167e-01
3.350634670189100994e-01
3.389793345640281230e-01
3.426870582121382958e-01
3.462068943146881517e-01
3.495535189870803694e-01
3.527364452920511151e-01
3.557604936993765121e-01
3.586263050084606552e-01
3.613308848288694364e-01
3.638681687781517016e-01
3.662295978554907516e-01
3.684046938640933022e-01
3.703816252113411589e-01
3.721477541158894620e-01
3.736901572719648068e-01
3.749961124245747013e-01
3.760535447468572046e-01
3.768514275529598057e-01
3.773801331017047067e-01
3.776317303659747493e-01
3.776002274777413570e-01
3.772817579322940706e-01
3.766747103218810455e-01
3.757798026097559640e-01
3.746001026979577930e-01
3.731409979614884742e-01
3.714101171499548104e-01
3.694172088007205978e-01
3.671739806727199462e-01
3.646939053951953613e-01
3.619919976855918153e-01
3.590845688785943013e-01
3.559889645588404372e-01
3.527232911028139184e-01
3.493061368238338238e-01
3.457562934116344411e-01
3.420924828866495626e-01
3.383330949527835751e-01
3.344959394534878228e-01
3.305980178267033387e-01
3.266553171440828574e-01
3.226826296373758729e-01
3.186934001432045749e-01
3.146996030829787294e-01
3.107116500648732238e-01
3.067383287137913639e-01
3.027867726054576103e-01
2.988624615203315238e-01
2.949692508210959296e-01
2.911094284491986817e-01
2.872837971639610744e-01
2.834917796098569420e-01
2.797315433160664222e-01
2.760001425401566455e-01
2.722936737890712111e-01
2.686074414303042390e-01
2.649361300263494701e-01
2.612739799148389719e-01
2.576149626431022410e-01
2.539529530354824316e-01
2.502818948934611987e-01
2.465959574171890933e-01
2.428896798182897665e-01
2.391581019244902184e-01
2.353968788618104879e-01
2.316023784331643076e-01
2.277717599513413571e-01
2.239030336786742292e-01
2.199951007087599386e-01
2.160477732840678788e-01
2.120617757759160338e-01
2.080387272338058702e-01
2.039811065174245985e-01
1.998922012480701116e-01
1.957760422844024573e-01
1.916373254363899492e-01
1.874813223758963476e-01
1.833137829749872938e-01
1.791408311497272587e-01
1.749688563772925920e-01
1.708044033221738645e-01
1.666540615577462026e-01
1.625243575745816960e-01
1.584216510301262593e-01
1.543520370872751013e-01
1.503212564789183081e-01
1.463346147875925762e-01
1.423969121105889690e-01
1.385123841393740562e-01
1.346846554121117479e-01
1.309167051176077234e-01
1.272108457466460674e-01
1.235687146166965650e-01
1.199912779272960528e-01
1.164788468660705872e-01
1.130311050997398065e-01
1.096471467212404155e-01
1.063255235817802541e-01
1.030643008426153084e-01
9.986111940979704171e-02
9.671326387319981177e-02
9.361773449977585371e-02
9.057132166911564808e-02
8.757068140837187542e-02
8.461241050167683797e-02
8.169311989450958600e-02
7.880950489628048283e-02
7.595841107730484654e-02
7.313689467078593465e-02
7.034227660548234007e-02
6.757218944496927449e-02
6.482461642567731441e-02
6.209792212152563662e-02
5.939087462955036645e-02
5.670265894090139452e-02
5.403288163599000854e-02
5.138156700238951519e-02
4.874914508811084568e-02
4.613643211285375911e-02
4.354460377227868662e-02
4.097516229998426213e-02
3.842989811942165712e-02
3.591084682010399487e-02
3.342024259604230163e-02
3.096046900803062912e-02
2.853400826040151245e-02
2.614338981403467252e-02
2.379113935602119451e-02
2.147972923174470625e-02
1.921153099930392530e-02
1.698877102739932560e-02
1.481348993146179224e-02
1.268750640499738055e-02
1.061238592023001047e-02
8.589414936412036530e-03
6.619580676336177076e-03
4.703556885035298750e-03
2.841695384424998330e-03
1.034023644007810638e-03
-7.197518999884799278e-04
-2.420236982562210502e-03
-4.068335475117209644e-03
-5.665230635212420256e-03
-7.212362033049862266e-03
-8.711398819890766795e-03
-1.016420985330224701e-02
-1.157283143041243183e-02
-1.293943312026162723e-02
-1.426628257608760636e-02
-1.555570978538712429e-02
-1.681007153245380609e-02
-1.803171665268116924e-02
-1.922295266890898177e-02
-2.038601435013444318e-02
-2.152303455454283865e-02
-2.263601794607001186e-02
-2.372681775376382293e-02
-2.479711594506407712e-02
-2.584840690811716912e-02
-2.688198490921975964e-02
-2.789893518879085765e-02
-2.890012881234415784e-02
-2.988622104759857886e-02
-3.085765323532961221e-02
-3.181465785380405142e-02
-3.275726650032346338e-02
-3.368532058072022661e-02
-3.459848424966344843e-02
-3.549625920244568050e-02
-3.637800115954015201e-02
-3.724293734428364699e-02
-3.809018486740369663e-02
-3.891876937833339822e-02
-3.972764381880301843e-02
-4.051570675790633347e-02
-4.128182009700143151e-02
-4.202482592723314619e-02
-4.274356218146659753e-02
-4.343687686948426163e-02
-4.410364090135491383e-02
-4.474275928996945817e-02
-4.535318059890236508e-02
-4.593390478943203820e-02
-4.648398937050266660e-02
-4.700255387252814249e-02
-4.748878295763209190e-02
-4.794192804521943407e-02
-4.836130773571102603e-02
-4.874630723127892223e-02
-4.909637690301477120e-02
-4.941103023318585419e-02
-4.968984122833154660e-02
-4.993244169026586632e-02
-5.013851841963915673e-02
-5.030781048882616846e-02
-5.044010689465135838e-02
-5.053524463826268576e-02
-5.059310727119529366e-02
-5.061362422577637965e-02
-5.059677074261198504e-02
-5.054256850024417547e-02
-5.045108707450896707e-02
-5.032244599807977892e-02
-5.015681744443159507e-02
-4.995442944319689743e-02
-4.971556954957172952e-02
-4.944058874705023476e-02
-4.912990550415755747e-02
-4.878400968002871013e-02
-4.840346633493977646e-02
-4.798891909754045976e-02
-4.754109291370571533e-02
-4.706079605953408102e-02
-4.654892131453581411e-02
-4.600644598232916938e-02
-4.543443076350606180e-02
-4.483401743088916841e-02
-4.420642510941168862e-02
-4.355294517832566242e-02
-4.287493479396264906e-02
-4.217380902525164066e-02
-4.145103169733591053e-02
-4.070810503397540719e-02
-3.994655818820519455e-02
-3.916793477459060147e-02
-3.837377965380826123e-02
-3.756562517591461453e-02
-3.674497703709373592e-02
-3.591330008100748761e-02
-3.507200419876901204e-02
-3.422243064156693659e-02
-3.336583895504457997e-02
-3.250339484994752004e-02
-3.163615920162553274e-02
-3.076507838797799474e-02
-2.989097625106710426e-02
-2.901454777010548103e-02
-2.813635467627755016e-02
-2.725682305367048419e-02
-2.637624309177428322e-02
-2.549477097809313419e-02
-2.461243292738008945e-02
-2.372913133301623664e-02
-2.284465302815095328e-02
-2.195867938088664692e-02
-2.107079829463497436e-02
-2.018051766734894198e-02
-1.928728026897385747e-02
-1.839047976511532650e-02
-1.748947756644566101e-02
-1.658362020663928238e-02
-1.567225697871631879e-02
-1.475475743821029646e-02
-1.383052857606584078e-02
-1.289903124674764319e-02
-1.195979553787561780e-02
-1.101243487525704889e-02
-1.005665850656868587e-02
-9.092282194596831846e-03
-8.119236818675604900e-03
-7.137574801932695424e-03
-6.147474133754922063e-03
-5.149240001907166506e-03
-4.143303941759757074e-03
-3.130220389422020636e-03
-2.110660866127592270e-03
-1.085405761085821543e-03
-5.533390027888007750e-05
9.785899285766367847e-04
2.015329279411419081e-03
3.053791966180269182e-03
4.092847246617871242e-03
5.131343986779542642e-03
6.168129470107423101e-03
7.202068563134483327e-03
8.232062680342646863e-03
9.257068482523540462e-03
1.027611575757687856e-02
1.128832411241163271e-02
1.229291825271636163e-02
1.328924150533080696e-02
1.427676733458884545e-02
1.525510851915571307e-02
1.622402394561419867e-02
1.718342272637596660e-02
1.813336558143944718e-02
1.907406342483751807e-02
2.000587309445374037e-02
2.092929040316019937e-02
2.184494046332239453e-02
2.275356544210855800e-02
2.365600995906755669e-02
2.455320441582021368e-02
2.544614643176529994e-02
2.633588079199128754e-02
2.722347813954460044e-02
2.811001287584647193e-02
2.899654060876234035e-02
2.988407551175649435e-02
3.077356805723853797e-02
3.166588348815957410e-02
3.256178144027557786e-02
3.346189699321044930e-02
3.436672367858612659e-02
3.527659853814536089e-02
3.619168973594429767e-02
3.711198681589832071e-02
3.803729386271493401e-02
3.896722571219057157e-02
3.990120733674210746e-02
4.083847637436538447e-02
4.177808881994585916e-02
4.271892787855038898e-02
4.365971577578579149e-02
4.459902838941288278e-02
4.553531247350154493e-02
4.646690519264441016e-02
4.739205569880795832e-02
4.830894833754043050e-02
4.921572718299375981e-02
5.011052137729254952e-02
5.099147100560091211e-02
5.185675297764249375e-02
5.270460643024975356e-02
5.353335737518267329e-02
5.434144203066323259e-02
5.512742847766786275e-02
5.589003633615977767e-02
5.662815403072393727e-02
5.734085330136545755e-02
5.802740080606615808e-02
5.868726655687733773e-02
5.932012899405059853e-02
5.992587662088209866e-02
6.050460616669091352e-02
6.105661718228592993e-02
6.158240326783163965e-02
6.208264000041049946e-02
6.255816968553194746e-02
6.300998316995595760e-02
6.343919909350731468e-02
6.384704081366555928e-02
6.423481134338125675e-02
6.460386676298250641e-02
6.495558845282392579e-02
6.529135469641539347e-02
6.561251195376475998e-02
6.592034635450595703e-02
6.621605596007873462e-02
6.650072399542027168e-02
6.677529368772147644e-02
6.704054513551913064e-02
6.729707434112806863e-02
6.754527502647744708e-02
6.778532340078907703e-02
6.801716609071378761e-02
6.824051157442780069e-02
6.845482506045803828e-02
6.865932714428543693e-02
6.885299611017338395e-02
6.903457389067127470e-02
6.920257564708319487e-02
6.935530276516757575e-02
6.949085917100478182e-02
6.960717061661889082e-02
6.970200676332745371e-02
6.977300565161458079e-02
6.981770025506250921e-02
6.983354671744276820e-02
6.981795375101573775e-02
6.976831294526734950e-02
6.968202938748725705e-02
6.955655228727954109e-02
6.938940502184347270e-02
6.917821432210344290e-02
6.892073799805180367e-02
6.861489100127880769e-02
6.825876934589984735e-02
6.785067163067659557e-02
6.738911781621526043e-02
6.687286510407294826e-02
6.630092058188130633e-02
6.567255068365249193e-02
6.498728720303637019e-02
6.424492991098013084e-02
6.344554575738854674e-02
6.258946472332613253e-02
6.167727243992799507e-02
6.070979982424785926e-02
5.968810973730108438e-02
5.861348107061725016e-02
5.748739054857762015e-02
5.631149246033041733e-02
5.508759672730918072e-02
5.381764565243741388e-02
5.250368970673120056e-02
5.114786278929510377e-02
4.975235724254689629e-02
4.831939913897084771e-02
4.685122401597998504e-02
4.535005361977301891e-02
4.381807386894435996e-02
4.225741433717564860e-02
4.067012960078068839e-02
3.905818258024024159e-02
3.742343016175462417e-02
3.576761130230009245e-02
3.409233758936271869e-02
3.239908643421374884e-02
3.068919695246570198e-02
2.896386851148240876e-02
2.722416171517117942e-02
2.547100201561058180e-02
2.370518562817487684e-02
2.192738764994922596e-02
2.013817214115911844e-02
1.833800403234796608e-02
1.652726259289500135e-02
1.470625599939855838e-02
1.287523692577824397e-02
1.103441886239658193e-02
9.183992765895996127e-03
7.324143806311929523e-03
5.455067852555301605e-03
3.576987482717082674e-03
1.690167273604462235e-03
-2.050719375363541357e-04
-2.108340099220866980e-03
-4.019166351452249479e-03
-5.936989059271847134e-03
-7.861147554709667709e-03
-9.790875837620980487e-03
-1.172529808571264563e-02
-1.366342627839571208e-02
-1.560415969922832220e-02
-1.754628639659037981e-02
-1.948848663460674493e-02
-2.142933807355473091e-02
-2.336732262959621831e-02
-2.530083502873657283e-02
-2.722819258096339373e-02
-2.914764630571142073e-02
-3.105739294578898149e-02
-3.295558784356251297e-02
-3.484035837936080154e-02
-3.670981779718307525e-02
-3.856207908576633758e-02
-4.039526882557797210e-02
-4.220754070426931126e-02
-4.399708850475777394e-02
-4.576215841107545562e-02
-4.750106035647187752e-02
-4.921217844684269010e-02
-5.089398017926995837e-02
-5.254502427844165435e-02
-5.416396727570718661e-02
-5.574956857828036044e-02
-5.730069411019812764e-02
-5.881631838595188788e-02
-6.029552525444799305e-02
-6.173750710805762237e-02
-6.314156271352776295e-02
-6.450709383191564894e-02
-6.583360057248764663e-02
-6.712067573938086673e-02
-6.836799822464069420e-02
-6.957532564826834909e-02
-7.074248629928213405e-02
-7.186937070065385624e-02
-7.295592287873607640e-02
-7.400213148778796157e-02
-7.500802101426655433e-02
-7.597364312967165578e-02
-7.689906849187781723e-02
-7.778437900343759814e-02
-7.862966069000583424e-02
-7.943499739885566402e-02
-8.020046527071300613e-02
-8.092612824746772682e-02
-8.161203458674222422e-02
-8.225821436045981094e-02
-8.286467808427983028e-02
-8.343141645504362214e-02
-8.395840108088908904e-02
-8.444558633098461775e-02
-8.489291221468979465e-02
-8.530030806573746238e-02
-8.566769716744235263e-02
-8.599500210401812839e-02
-8.628215073781361766e-02
-8.652908273345254198e-02
-8.673575644298953113e-02
-8.690215602949706575e-02
-8.702829872694901880e-02
-8.711424210340476537e-02
-8.716009116109925403e-02
-8.716600509694323595e-02
-8.713220363691426273e-02
-8.705897292085490458e-02
-8.694667063163735721e-02
-8.679573036973604883e-02
-8.660666521258479633e-02
-8.638007032883093794e-02
-8.611662457166072149e-02
-8.581709106611500049e-02
-8.548231661564528738e-02
-8.511323019104061194e-02
-8.471084026926657684e-02
-8.427623102704169533e-02
-8.381055759234019853e-02
-8.331504025411072545e-02
-8.279095777566217174e-02
-8.223963987084345617e-02
-8.166245888710219059e-02
-8.106082083132858107e-02
-8.043615590410219118e-02
-7.978990859310340633e-02
-7.912352739561537285e-02
-7.843845444354063945e-02
-7.773611502921852490e-02
-7.701790725805854332e-02
-7.628519195267040309e-02
-7.553928283395944243e-02
-7.478143723400450249e-02
-7.401284740018720942e-02
-7.323463249631156913e-02
-7.244783145000906199e-02
-7.165339670926161586e-02
-7.085218897784961722e-02
-7.004497304017794079e-02
-6.923241470226712546e-02
-6.841507886746867051e-02
-6.759342885126501388e-02
-6.676782692336778735e-02
-6.593853601602372994e-02
-6.510572268201765544e-02
-6.426946118306228750e-02
-6.342973878564966972e-02
-6.258646207124876626e-02
-6.173946422392823097e-02
-6.088851325773986939e-02
-6.003332107214066904e-02
-5.917355324604942762e-02
-5.830883936998343398e-02
-5.743878388038826249e-02
-5.656297722924255589e-02
-5.568100734795834728e-02
-5.479247103178837980e-02
-5.389698531610517124e-02
-5.299419874810359921e-02
-5.208380208663979105e-02
-5.116553865477380114e-02
-5.023921407607312428e-02
-4.930470515271664911e-02
-4.836196794186782555e-02
-4.741104484641665839e-02
-4.645207056014753755e-02
-4.548527690727676570e-02
-4.451099638039098666e-02
-4.352966443969864124e-02
-4.254182034984888006e-02
-4.154810671277257145e-02
-4.054926759523372337e-02
-3.954614524780397655e-02
-3.853967541788842072e-02
-3.753088144403655263e-02
-3.652086703110800359e-02
-3.551080782105130867e-02
-3.450194187797068351e-02
-3.349555914517683003e-02
-3.249299004697119020e-02
-3.149559336859349828e-02
-3.050474353569782027e-02
-2.952181739618623887e-02
-2.854818079044298129e-02
-2.758517497086078116e-02
-2.663410308340438334e-02
-2.569621686337985808e-02
-2.477270380727085441e-02
-2.386467489567946007e-02
-2.297315300310352401e-02
-2.209906234953735657e-02
-2.124321885457781944e-02
-2.040632180576457469e-02
-1.958894687172130916e-02
-1.879154040013408800e-02
-1.801441537202751533e-02
-1.725774890432657527e-02
-1.652158136751136555e-02
-1.580581724591998902e-02
-1.511022764065251059e-02
-1.443445440422191396e-02
-1.377801597696528407e-02
-1.314031472580463877e-02
-1.252064581233460969e-02
-1.191820741754784016e-02
-1.133211222039402256e-02
-1.076140003700197870e-02
-1.020505129979600717e-02
-9.662001391867638955e-03
-9.131155523019409206e-03
-8.611404065541030523e-03
-8.101637891053998022e-03
-7.600763823890475772e-03
-7.107719762143864702e-03
-6.621489306181578723e-03
-6.141115756042388359e-03
-5.665715200818675044e-03
-5.194488545704367688e-03
-4.726732249660556100e-03
-4.261847643846729435e-03
-3.799348742791713255e-03
-3.338868355122830492e-03
-2.880162372791449533e-03
-2.423112208145914402e-03
-1.967725424100173846e-03
-1.514134340620846295e-03
-1.062592798686923029e-03
-6.134710389573406987e-04
-1.672487359020838674e-04
2.754936177497177259e-04
7.140849883578042658e-04
1.147775386281866487e-03
1.575748892701053349e-03
1.997137672633077232e-03
2.411036867348095337e-03
2.816520203747705647e-03
3.212655972903190760e-03
3.598523219424089748e-03
3.973227860824186421e-03
4.335918449201820075e-03
4.685801455189868292e-03
5.022155687976467831e-03
5.344345677249358502e-03
5.651833876405212495e-03
5.944191420616241200e-03
6.221107177543347237e-03
6.482395161551089517e-03
6.727999977619298147e-03
6.958000283024412709e-03
7.172610220544829197e-03
7.372178744028175940e-03
7.557186860370155787e-03
7.728242746469748611e-03
7.886074883841073108e-03
8.031523373144330152e-03
8.165529374383442146e-03
8.289122894714246598e-03
8.403409156088019819e-03
8.509553735898229068e-03
8.608766639723741329e-03
8.702285594972675870e-03
8.791358787134724573e-03
8.877227367729122881e-03
8.961107993470891764e-03
9.044175585736937903e-03
9.127546664105853913e-03
9.212263484365466187e-03
9.299279206551344309e-03
9.389444442581659084e-03
9.483495267146249338e-03
9.582042934192814068e-03
9.685565444486021053e-03
9.794401153434949964e-03
9.908744517817310443e-03
1.002864406626276413e-02
1.015400252163245823e-02
1.028457915759833918e-02
1.041999449117952080e-02
1.055973703038525467e-02
1.070317202583639937e-02
1.084955225244141688e-02
1.099803050231436957e-02
1.114767350370853699e-02
1.129747736690378708e-02
1.144638400879202308e-02
1.159329846094291593e-02
1.173710679016675210e-02
1.187669425896211751e-02
1.201096346042932438e-02
1.213885231985635527e-02
1.225935133419434921e-02
1.237152013192777990e-02
1.247450283241818315e-02
1.256754210312072996e-02
1.264999166893463443e-02
1.272132702380753336e-02
1.278115419418904448e-02
1.282921646621248447e-02
1.286539886806087676e-02
1.288973039903246187e-02
1.290238403078779010e-02
1.290367439369563898e-02
1.289405315086589350e-02
1.287410219627502933e-02
1.284452481236259165e-02
1.280613484038411500e-02
1.275984409145791004e-02
1.270664826160948328e-02
1.264761145580737406e-02
1.258384958494719943e-02
1.251651296697012944e-02
1.244676831302739782e-02
1.237578054414402440e-02
1.230469457595218322e-02
1.223461742743841597e-02
1.216660085259322135e-02
1.210162487218748029e-02
1.204058249228391088e-02
1.198426575761663178e-02
1.193335338846317033e-02
1.188840014414137281e-02
1.184982820674675662e-02
1.181792065517667419e-02
1.179281708066232115e-02
1.177451146136537438e-02
1.176285230399914776e-02
1.175754510881656459e-02
1.175815707591369198e-02
1.176412389842622711e-02
1.177475867341543254e-02
1.178926269105234903e-02
1.180673788861637610e-02
1.182620100266720993e-02
1.184659892611171841e-02
1.186682518959633788e-02
1.188573716856448567e-02
1.190217393576265166e-02
1.191497433572484034e-02
1.192299503759988027e-02
1.192512832208529258e-02
1.192031932079658935e-02
1.190758240714560878e-02
1.188601651300227532e-02
1.185481916744604743e-02
1.181329898608756562e-02
1.176088647517166928e-02
1.169714297108646363e-02
1.162176766999977080e-02
1.153460251977956284e-02
1.143563496456530618e-02
1.132499852900126051e-02
1.120297123846404792e-02
1.106997189754231614e-02
1.092655430262316416e-02
1.077339953185796166e-02
1.061130634204596537e-02
1.044117994280134229e-02
1.026401920049159130e-02
1.008090261238093165e-02
9.892973142160524022e-03
9.701422218340152726e-03
9.507473119654611532e-03
9.312364056547173252e-03
9.117331112039038857e-03
8.923591301609764756e-03
8.732326044165270723e-03
8.544665263910915590e-03
8.361672317514841357e-03
8.184329989227563315e-03
8.013527759241327250e-03
7.850050456281867234e-03
7.694568498431436469e-03
7.547629800154496624e-03
7.409653469690421525e-03
7.280925359559977869e-03
7.161595475532850710e-03
7.051677306875056735e-03
6.951049058959732005e-03
6.859456629103912080e-03
6.776518442036488614e-03
6.701731866819142340e-03
6.634481315628794167e-03
6.574047636008813721e-03
6.519618872427311411e-03
6.470302030609560717e-03
6.425135774968043084e-03
6.383103918035428273e-03
6.343149382364747686e-03
6.304188500713679352e-03
6.265125441123043336e-03
6.224866640329108219e-03
6.182334883965988348e-03
6.136483029263162942e-03
6.086307116571461687e-03
6.030858625984619227e-03
5.969255955324151083e-03
5.900694792295382678e-03
5.824457301541060249e-03
5.739920190453316230e-03
5.646561375948726605e-03
5.543965378288833075e-03
5.431827176599781856e-03
5.309954807443209926e-03
5.178270489032551008e-03
5.036810358330606578e-03
4.885722889140110825e-03
4.725266059277447202e-03
4.555803255384602117e-03
4.377798067842168968e-03
4.191808066873503255e-03
3.998477588812653430e-03
3.798529773950988075e-03
3.592757839750832915e-03
3.382015757478443185e-03
3.167208505500579679e-03
2.949281954357312573e-03
2.729212478645706361e-03
2.507996546967938573e-03
2.286640187052788129e-03
2.066148670670344203e-03
1.847516356863902363e-03
1.631716853944601515e-03
1.419693537538272007e-03
1.212350641233213506e-03
1.010544735048842912e-03
8.150768587475216336e-04
6.266854110724777958e-04
4.460396702205326265e-04
2.737340298418708146e-04
1.102830652504858695e-04
-4.388264239177659784e-05
-1.884198724586741262e-04
-3.230752894218734904e-04
-4.476871521332277258e-04
-5.621861914607077489e-04
-6.665957048437362977e-04
-7.610307859216199891e-04
-8.456968343559439832e-04
-9.208872075504467803e-04
-9.869801519288344625e-04
-1.044435041400570714e-03
-1.093787893252852472e-03
-1.135646212927695145e-03
-1.170683197212304266e-03
-1.199631354287214631e-03
-1.223275600751032267e-03
-1.242445803717339651e-03
-1.258008862762666344e-03
-1.270860444694780740e-03
-1.281916298567990341e-03
-1.292103336257652323e-03
-1.302350422054840157e-03
-1.313579091298309673e-03
-1.326694072342773272e-03
-1.342573928164178662e-03
-1.362061684543649761e-03
-1.385955641195866931e-03
-1.415000464719138196e-03
-1.449878584788683988e-03
-1.491202018642293504e-03
-1.539504749782149044e-03
-1.595235687531094309e-03
-1.658752338690106876e-03
-1.730315277805189291e-03
-1.810083519129871994e-03
-1.898110821763066176e-03
-1.994342979777831860e-03
-2.098616265938719160e-03
-2.210656977633137284e-03
-2.330082231518445721e-03
-2.456401930543601793e-03
-2.589022007946991007e-03
-2.727248887322061138e-03
-2.870295172860288721e-03
-3.017286591227795554e-03
-3.167270058638710015e-03
-3.319222897082886418e-03
-3.472063036321187436e-03
-3.624660165822040161e-03
-3.775847739599769593e-03
-3.924435684097377260e-03
-4.069223697681544766e-03
-4.209014973500993864e-03
-4.342630149562539538e-03
-4.468921435747991340e-03
-4.586786580294080831e-03
-4.695182676297307220e-03
-4.793139490243666923e-03
-4.879772205589735443e-03
-4.954293331846072561e-03
-5.016023687730198841e-03
-5.064402273421821608e-03
-5.098994820843342872e-03
-5.119500996006029307e-03
-5.125760019834734588e-03
-5.117754669658611082e-03
-5.095613561431850368e-03
-5.059611643457854156e-03
-5.010168920619765057e-03
-4.947847295189557702e-03
-4.873345587874789060e-03
-4.787492833461473411e-03
-4.691239830381292199e-03
-4.585649047061496862e-03
-4.471883033887956091e-03
-4.351191534333744698e-03
-4.224897333924618019e-03
-4.094381072201670226e-03
-3.961065258595583040e-03
-3.826397638930406023e-03
-3.691834181636801694e-03
-3.558821922685043160e-03
-3.428781833686922985e-03
-3.303092099957927012e-03
-3.183071790267278690e-03
-3.069965405835369671e-03
-2.964928413654118258e-03
-2.869013979326841095e-03
-2.783161086411884734e-03
-2.708184284500725261e-03
-2.644765043475163450e-03
-2.593445019865617176e-03
-2.554621237587828293e-03
-2.528543305479792787e-03
-2.515312663587712140e-03
-2.514883883647994929e-03
-2.527067969820665210e-03
-2.551537670636846392e-03
-2.587834662421558372e-03
-2.635378534990023922e-03
-2.693477338862583937e-03
-2.761339669414825029e-03
-2.838087996664291016e-03
-2.922773021012321261e-03
-3.014388896378508969e-03
-3.111889046634988033e-03
-3.214202270624991371e-03
-3.320248994119671601e-03
-3.428957336383542387e-03
-3.539278709442445197e-03
-3.650202768878783085e-03
-3.760771451701063698e-03
-3.870091897395653863e-03
-3.977348003231998344e-03
-4.081810504692629654e-03
-4.182845341132513869e-03
-4.279920257638097913e-03
-4.372609494975007553e-03
-4.460596560675092991e-03
-4.543674959431115434e-03
-4.621746965951287200e-03
-4.694820416209097291e-03
-4.763003639007397372e-03
-4.826498569558522120e-03
-4.885592199985753017e-03
-4.940646566486140041e-03
-4.992087361504271049e-03
-5.040391407847754669e-03
-5.086073322496068895e-03
-5.129671461971436509e-03
-5.171733444193172234e-03
-5.212801601464102895e-03
-5.253398437117481369e-03
-5.294012512316276925e-03
-5.335084959746522193e-03
-5.376996825282765943e-03
-5.420057542497562324e-03
-5.464494627753553428e-03
-5.510444924613330971e-03
-5.557947496974465634e-03
-5.606938282727447036e-03
-5.657246619849119404e-03
-5.708593734982731448e-03
-5.760593217635732836e-03
-5.812753480602099281e-03
-5.864482206793253383e-03
-5.915092720906919496e-03
-5.963812090707679842e-03
-6.009791003956554273e-03
-6.052115057889814742e-03
-6.089817497821850556e-03
-6.121893019208498286e-03
-6.147312539549925833e-03
-6.165038603250651110e-03
-6.174041242272531801e-03
-6.173313955694480736e-03
-6.161889636085255036e-03
-6.138856096110616688e-03
-6.103371045864443983e-03
-6.054676129149156802e-03
-5.992109951008226833e-03
-5.915119744926883132e-03
-5.823271616009563327e-03
-5.716259056574216242e-03
-5.593909709291936157e-03
-5.456190229583744895e-03
-5.303209144868887420e-03
-5.135217718593059269e-03
-4.952608868006516327e-03
-4.755913914237813560e-03
-4.545797466836946563e-03
-4.323050484268990516e-03
-4.088581540738849517e-03
-3.843406524066913296e-03
-3.588636909865236188e-03
-3.325466779563745600e-03
-3.055158848910059528e-03
-2.779029659433474540e-03
-2.498434303418286487e-03
-2.214750726614542111e-03
-1.929364104714952240e-03
-1.643651335078750867e-03
-1.358965923721410732e-03
-1.076623581503969836e-03
-7.978886517675689129e-04
-5.239616153895266431e-04
-2.559678814963991058e-04
5.052072998319561785e-06
2.581510475018712809e-04
5.024817695539831892e-04
7.373018677241367867e-04
9.619772624282503905e-04
1.175983650387198111e-03
1.378906379970321104e-03
1.570438637811172105e-03
1.750378061661062457e-03
1.918621901296923508e-03
2.075160815237671146e-03
2.220071570064632328e-03
2.353508764920815739e-03
2.475695667748873102e-03
2.586914511476547801e-03
2.687496361963675334e-03
2.777810862263340504e-03
2.858255991803957188e-03
2.929248047964832374e-03
2.991212113875075206e-03
3.044573188141097824e-03
3.089748056690415617e-03
3.127138153798334971e-03
3.157123500906058779e-03
3.180057880105534047e-03
3.196265246025196093e-03
3.206037505032892365e-03
3.209633659824074649e-03
3.207280226795539667e-03
3.199173036776937866e-03
3.185480310686608467e-03
3.166346825974114629e-03
3.141899236955787104e-03
3.112252211811721622e-03
3.077515364251993870e-03
3.037800705717921823e-03
2.993230568075614263e-03
2.943945679672809682e-03
2.890113246373607423e-03
2.831934793056855356e-03
2.769653587304159691e-03
2.703561403050861074e-03
2.634004511276140034e-03
2.561388628166433746e-03
2.486182723355988798e-03
2.408921573482501136e-03
2.330206877887671443e-03
2.250706842243320547e-03
2.171154195175155777e-03
2.092342705859056608e-03
2.015122065026608497e-03
1.940391157736956387e-03
1.869089872555571409e-03
1.802189509642706340e-03
1.740681864923987032e-03
1.685567223360059626e-03
1.637841327045185327e-03
1.598481602679935592e-03
1.568432815734946417e-03
1.548592413876124672e-03
1.539795746709595034e-03
1.542801449995484780e-03
1.558277283038738770e-03
1.586786570743153445e-03
1.628775612909635429e-03
1.684562158393825742e-03
1.754325314508036523e-03
1.838097027775120003e-03
1.935755207641520889e-03
2.047018883120677122e-03
2.171445286270336575e-03
2.308429100676787950e-03
2.457203998328125714e-03
2.616846302690127666e-03
2.786280869821366329e-03
2.964289231441822464e-03
3.149519791632888512e-03
3.340500044085863152e-03
3.535650692024960764e-03
3.733301415627349878e-03
3.931708155129025849e-03
4.129071717608311966e-03
4.323557364730798089e-03
4.513315174593067816e-03
4.696500890767846791e-03
4.871296972013198015e-03
5.035933535463842786e-03
5.188708966899093986e-03
5.328009803726172292e-03
5.452329641790742629e-03
5.560286871155574982e-03
5.650640946406746551e-03
5.722306912212601383e-03
5.774368050071550414e-03
5.806086444546363495e-03
5.816911282297709644e-03
5.806484828571906176e-03
5.774646003744565888e-03
5.721431414337366413e-03
5.647073978029089857e-03
5.551999126338884837e-03
5.436818558573448291e-03
5.302321721961850143e-03
5.149465171969802753e-03
4.979359919887118777e-03
4.793256999262145331e-03
4.592531444983809739e-03
4.378664884585898448e-03
4.153227100737343601e-03
3.917856776472753225e-03
3.674241595563867285e-03
3.424098151338100891e-03
3.169151901001444286e-03
2.911117339648187138e-03
2.651678798129421689e-03
2.392472005401138826e-03
2.135066773161009308e-03
1.880950928796092060e-03
1.631515805065417591e-03
1.388043350468061952e-03
1.151695095184772279e-03
9.235030058672503680e-04
7.043624042252908703e-04
4.950269562647588656e-04
2.961057819755309435e-04
1.080626093694697567e-04
-6.878292503657345636e-05
-2.342521109472674927e-04
-3.883020466242474147e-04
-5.310187771247854927e-04
-6.626088056817063237e-04
-7.833892063109413164e-04
-8.937764638730247247e-04
-9.942743091640345032e-04
-1.085460691622346097e-03
-1.167974151470291180e-03
-1.242499860144348533e-03
-1.309755527715609829e-03
-1.370477335234958219e-03
-1.425406133465162688e-03
-1.475274258673962184e-03
-1.520793029720244596e-03
-1.562641076389223536e-03
-1.601453757527944964e-03
-1.637813741279926880e-03
-1.672242911337617783e-03
-1.705195644202422370e-03
-1.737053549978377631e-03
-1.768121741450517839e-03
-1.798626640439862385e-03
-1.828715251966583086e-03
-1.858455950053561172e-03
-1.887840677200246405e-03
-1.916788520295395959e-03
-1.945150519577192559e-03
-1.972715647572084816e-03
-1.999217690672333309e-03
-2.024343141404956817e-03
-2.047739671562394045e-03
-2.069025198325257203e-03
-2.087797304941896564e-03
-2.103642839125700534e-03
-2.116147586752469174e-03
-2.124905781587973445e-03
-2.129529318975142537e-03
-2.129656508355618188e-03
-2.124960245917267843e-03
-2.115155497166659911e-03
-2.100005868084160818e-03
-2.079329323169553604e-03
-2.053002883355913109e-03
-2.020966238502902232e-03
-1.983224255728652675e-03
-1.939848344604539442e-03
-1.890976713515698290e-03
-1.836813528147175374e-03
-1.777626882094879377e-03
-1.713745776893759853e-03
-1.645556161655622107e-03
-1.573496018592072509e-03
-1.498049735955157922e-03
-1.419741697969233163e-03
-1.339129318993312551e-03
-1.256795627811931786e-03
-1.173341511929929925e-03
-1.089377735378093586e-03
-1.005516879685380231e-03
-9.223653610409468908e-04
-8.405155830504219740e-04
-7.605383970655124701e-04
-6.829759579450897337e-04
