-3.661216681837429414e-04
2.482667526007627137e-04
-2.042553066092501438e-04
1.068283644461776781e-04
-3.984625036961396828e-05
2.705000864648961310e-04
-3.103630052314409549e-05
-1.822836448812450462e-04
2.738477941884232729e-04
-1.890237810286998267e-04
-4.528070781366166599e-05
-5.783004375320028185e-05
-3.789112291652730257e-04
2.128291906955790834e-04
1.924144724597568552e-04
1.712742526251861920e-04
-2.011791524816318381e-06
-3.262707960561082171e-04
-3.746278848179099568e-05
1.024277984844728642e-04
2.467284680702379915e-04
-2.144505452810072858e-04
-3.654450716732605834e-04
5.564714399789758925e-04
2.619220674955064616e-04
-2.925426546532706312e-05
-1.655596451237028764e-04
4.390931481134069987e-06
-4.361189727586782831e-04
1.903185302254942375e-04
5.180678120664110895e-05
-8.929175103460249235e-05
-8.069155085693236525e-05
7.755603486044957014e-05
-7.216265355722892955e-05
-7.179942992943791130e-05
2.315798978412750818e-04
7.537874729137962427e-05
2.228317821465303173e-04
6.382156262061730167e-05
-2.488722845212394934e-04
-1.047077375725141853e-04
-2.663896472669145051e-04
1.819189105518844232e-04
-1.326837314586909835e-04
1.635410696799854534e-04
2.945079921506578943e-06
1.489105151772461956e-04
-8.532361963644232103e-06
-1.132157302267743484e-05
1.407504840554555010e-04
-1.625470948151889041e-04
-4.634108360799732494e-04
3.062320390791813834e-04
1.001138971472858824e-05
-1.316327562072041582e-04
3.386499163131196223e-04
4.699123185533176587e-05
6.077665171157231074e-05
-2.311869761815712652e-04
8.574118266396398306e-05
2.477730774610365145e-04
-5.087553048508816839e-04
2.570389268825015380e-04
-4.910343601731550150e-05
-2.064578867471119153e-04
-6.213444090338160605e-05
7.923410005860907009e-05
-8.681274857100308479e-05
2.034662830503748796e-04
3.405211218620315212e-04
-1.326822945028297170e-04
-3.000045398826521300e-04
2.967939214859227799e-04
-1.730004542393843916e-04
-3.070148646383506481e-05
1.134548440233402609e-04
-4.567639806375493986e-05
-5.036773013322239664e-05
-5.329583404764129888e-05
-5.459244195838691542e-05
2.507482426387980159e-04
-3.581831739819108917e-04
4.071927760093132457e-04
-4.737930137066154819e-05
1.088919998142447534e-04
-1.923435947917837897e-04
-1.883187624382711366e-04
1.208865551198847735e-04
-2.764020959212423447e-05
1.291700252362895510e-04
-1.882332868195740305e-05
-4.713631916475214539e-04
2.976863770240048665e-04
3.048866054535168384e-04
-2.970764129541517899e-04
1.762814461876999075e-05
3.332588178450986778e-04
-1.134979984361729596e-04
5.014700423832107865e-05
6.068046084090187214e-05
-2.350625831251645763e-04
-2.272417611354142053e-04
2.363401234090882366e-04
-2.178477683794558363e-04
2.411643798776294447e-04
-2.176250428572679098e-04
8.441259248158178524e-05
3.845766252836735517e-04
-7.978241636836784652e-05
-2.402225938660435315e-04
5.620303864962506238e-05
-2.582312759194393026e-04
1.901770307047941544e-04
2.855193363364320007e-05
2.022543741764941427e-05
1.655416014085906861e-04
-1.455754310875863918e-04
2.597681883044530804e-06
-1.794320113437938403e-07
-1.538840825443201941e-04
-8.251276500274647021e-07
-1.515330445208083732e-04
3.092219951366892384e-04
1.603161707160072498e-04
1.641596518072303531e-04
-1.376069800006491501e-04
-1.352259516369314139e-04
-1.343825876846641996e-04
1.716335456752377713e-05
1.410675009944028573e-05
9.150110010783886176e-06
-3.025311369260949004e-04
3.003160399456302073e-04
-1.267693476901622739e-05
-2.006262649062149110e-05
-2.629718038964643298e-05
-3.076387690916722496e-05
1.195726524360903151e-04
-3.282112300518255361e-05
2.749833383500143672e-04
-2.537591824901917347e-05
-3.239954570900694525e-04
1.414722471582081963e-04
-2.929099682380767940e-06
1.576623214617572336e-04
1.229769012903250668e-05
-4.394941697742608564e-04
2.268404449270018880e-05
2.541341488629804174e-05
2.649060900253530994e-05
3.312449280235410043e-04
-2.808035103582612281e-04
1.742326595564630965e-04
-1.344723114780337504e-04
1.397410838187823889e-05
1.619486568133894589e-04
1.569599942027675836e-04
-1.535075684994188382e-04
-6.436500670813142536e-06
-3.172382847987120259e-04
1.349650944315423581e-04
-1.754708202990082160e-04
1.250161254367602732e-04
1.211660547921836737e-04
1.183724601606735334e-04
-3.582363370706333173e-05
-1.888173193209293497e-04
1.170557598943517037e-04
1.186530906549462816e-04
-3.171705550734753298e-05
1.233926020729613382e-04
-3.318496742447372993e-04
2.807812020800674359e-04
-1.750810399985413982e-04
-2.097263181870967106e-05
-1.722873171194219753e-04
-1.842618507274849753e-05
-1.684077678163879596e-05
1.379535771865836422e-04
1.410132123026116614e-04
1.450192360831594255e-04
-1.552857365182315908e-04
1.553673123630182958e-04
-1.441284425365705257e-04
1.664383729949547007e-04
-1.341423653173202761e-04
-1.307889223722087310e-04
1.761832181321483341e-04
-1.288883445884406978e-04
-1.304069522743592593e-04
1.930593361736167583e-05
-2.896776157732831782e-04
3.164451854192401798e-04
7.131594096732288159e-06
3.506432551308324680e-06
1.532390357631139611e-04
1.512041656587514169e-04
1.498328676846221754e-04
-3.785092655934838199e-06
-1.574743220176866895e-04
-4.642360734091883199e-04
-3.140550857201916202e-04
2.928547986302477068e-04
4.408814813078782736e-04
-2.253877649383641312e-05
-2.918331374589392465e-05
-3.663974628729214922e-05
1.079244770309559882e-04
-3.581089673146880333e-04
9.154178142595329219e-05
2.366524220627772078e-04
-3.800077234374883229e-04
7.316588493171152200e-05
2.233991328926884920e-04
-2.340569493335660327e-04
7.436805434276430083e-05
8.064154412569999838e-05
8.979161910367968011e-05
-5.115849212959412966e-05
1.149413600502050600e-04
-2.305358753173537156e-05
-1.608705472256653855e-04
3.109170663179731042e-04
-1.344198463188450981e-04
2.831784937015172001e-05
-1.168237450059312710e-04
-2.647859391877896255e-04
-1.101843950230234343e-04
1.948948781210597882e-04
-1.117719420741052332e-04
3.874473204498082011e-05
-1.157131298000756169e-04
3.410034745664446143e-04
1.885528977169294729e-04
1.899213011568193037e-04
-1.129195915320270905e-04
-1.101333412957666429e-04
-1.075580974753980492e-04
4.670648831462308138e-05
-1.056994654824342466e-04
-1.074256157861494705e-04
-4.164122440575213817e-04
3.407024671835538515e-04
3.331534244067979947e-04
-1.334296570562994643e-04
1.622119190055258090e-04
-3.052019197446594013e-04
-9.201295227712845190e-06
-1.736556673927538646e-05
1.285037420253504789e-04
1.235223357358654198e-04
-3.373692361487834858e-04
2.716347199388016980e-04
1.192247813917188352e-04
1.205255400353680837e-04
-3.012995570891423844e-05
-1.806527341216638812e-04
-2.628474591029591263e-05
-1.776348533127292877e-04
-2.439577685708428959e-05
1.284408241506908451e-04
-3.290878543464346236e-04
4.346089313678219062e-04
-1.738599421026614845e-04
-1.768464669442561905e-05
-1.192553982463535437e-05
1.488711541981166148e-04
1.595627508633268657e-04
-1.326783360104868287e-04
3.457901545278468388e-05
-1.023467890310262787e-04
6.597936636661991619e-05
8.077991236967095004e-05
-5.896856720741193414e-05
-4.902966400814824421e-05
1.098344281374754293e-04
1.119484025901495104e-04
-1.954428490840393149e-04
-2.017784629851498708e-04
-5.905253882068333261e-05
8.108811629704833310e-05
-2.379162188216299141e-04
2.059801256885645127e-04
-1.117692430168424689e-04
1.832968387685342574e-04
3.291134336163306856e-04
2.099054961703770050e-05
-1.306617943529260353e-04
2.639432015506666765e-05
3.370464085210362384e-05
4.292685358033323498e-05
-4.047561096778372184e-04
2.154730309310464765e-04
-8.099897151414266541e-05
-7.427453969378623039e-05
-7.012374622281073605e-05
2.362664180843678571e-04
8.182524543833897450e-05
-7.559654982664817209e-05
-8.312703537562398520e-05
-9.290196934859108443e-05
-2.569285378846346366e-04
3.409782176498575286e-04
1.756146932385198279e-04
1.055739088618939582e-05
-1.048046664173199007e-06
-1.639198488062963276e-04
-1.994146009158135404e-05
-1.792131050598380604e-04
2.739454075539675642e-04
2.714737445000559458e-04
-4.918469615134821084e-04
-3.251419039773470888e-05
1.233564441565008607e-04
-2.457112976064210397e-05
-1.897218196199743838e-05
1.396149730954733493e-04
2.979850329861181372e-04
-2.277665207467770045e-06
1.149595601945758027e-06
-3.025800240466221085e-04
-3.034051505963698738e-04
1.512353239598850660e-04
-6.521059487934050568e-06
-1.323291866413941899e-05
-2.080664195313189151e-05
-2.847627404470189202e-05
1.170911815424449708e-04
1.113443511950780202e-04
1.072955995936057314e-04
1.051231522741009243e-04
-3.530119624772445224e-04
2.584703918700900988e-04
1.080530502428607789e-04
-4.187112597537084749e-05
-3.925631598636018370e-05
-3.423194065170877872e-04
-3.583345315343879848e-05
-3.544409401856705565e-05
-3.592316082723340893e-05
1.154937639996793440e-04
1.138653867804740986e-04
2.645943661510952779e-04
-4.249767328595962829e-05
1.082212737243501042e-04
-1.987226886639032191e-04
-4.776024025784534011e-05
-4.916631116100580540e-05
-5.020553836704030415e-05
-5.064521562783690252e-05
-5.018025591733232631e-05
-2.010604240397031474e-04
4.125534688844544485e-04
1.124126898304152774e-04
-3.384800011852247682e-04
1.278574899660801518e-04
1.377894780506422085e-04
1.485380226212708028e-04
6.822132109323747624e-06
-1.355405528801114777e-04
1.784610530269825017e-04
-2.725108919558364524e-04
-1.155950429370954823e-04
-1.138988056908677408e-04
3.786119047083231202e-05
-1.177281886578832829e-04
-1.223821419961746196e-04
3.296703234572116508e-04
4.760602855476302924e-04
1.208040188004042680e-05
-2.990024981051342683e-04
-3.044124661471644868e-04
3.011048515585955116e-04
-8.320120787767513800e-06
-1.645938370279455591e-04
1.374377324472226029e-04
-1.703408873448894055e-04
1.328052662767408097e-04
-2.117626980382640077e-05
-2.185230795764758288e-05
-1.743195521432327013e-04
-2.076654054674538269e-05
2.862027778970060283e-04
-1.646053660786267903e-05
-1.344930775699616485e-05
1.423206697520429755e-04
-1.599121318320961393e-04
1.475205077311397080e-04
-1.565117321677107840e-04
-4.241706410100827986e-06
-6.237840471262535081e-06
-1.625488754534731861e-04
1.373127671067391625e-04
-2.186422561083838068e-05
-2.925571820047874054e-05
1.157302215117252272e-04
-4.400425327631954841e-05
-5.000516524603229796e-05
9.839158376393168507e-05
-2.085783540302732313e-04
9.766084352932626013e-05
-5.071896323204687704e-05
2.618832427238793254e-04
-3.281462133893028627e-05
-1.722894559883461250e-04
-1.571962716672931440e-04
4.693636891642308760e-04
-2.772826146016777707e-04
4.313457788050020401e-05
5.615623156940842653e-05
6.584570802296274539e-05
-2.339342831226336953e-04
5.293945868984564632e-04
-2.385320652059167692e-04
-9.625608911345041874e-05
-2.639547330115237672e-04
-2.828575508062476369e-04
1.536470051716693549e-04
1.317829607890727247e-04
-4.136977865176387850e-05
-5.876824246057070825e-05
8.122694623127505397e-05
2.272712195207498849e-04
2.274992911607982826e-04
8.204853922980838584e-05
-2.095253629874634213e-04
-1.904179355471642503e-04
1.380112203896482397e-04
1.120525656048122405e-05
1.903830516867055305e-04
-8.906369303467691215e-05
-3.708444859086481183e-04
1.068215840408285705e-04
-3.012099522202474854e-05
-1.716609039733641199e-04
1.400294228430225968e-04
-1.627609521528930090e-04
1.413206618228796303e-04
-1.505674969882974400e-05
2.844449069382576378e-04
2.776351818994696966e-04
-3.400303895580999796e-04
-4.217996430738757982e-05
-4.915553419028038853e-05
9.705567532334397009e-05
-6.115273074538340678e-05
-3.711144474222320471e-04
2.352880463391821399e-04
7.950816312137857209e-05
2.294918158466148093e-04
-7.795713246208643764e-05
7.236554287642864140e-05
-8.282791421056709695e-05
-8.609248668286210342e-05
-9.024818707584650692e-05
5.719458571249939731e-05
5.112517667012649503e-05
4.436852151108451299e-05
-1.152670451758780999e-04
-2.746719151453999846e-04
1.770980569930664255e-04
-1.326578359092116146e-04
3.224440420355912805e-04
-1.357230053304075035e-04
3.240127739985223794e-04
2.305369911652786394e-05
-2.760257635830181593e-04
3.657577733484041155e-05
1.972569787979018975e-04
5.274161166563613896e-05
-2.450121042014782478e-04
-3.913265343042306881e-04
2.238310314818409434e-04
7.445564668098581071e-05
7.612088604242757536e-05
-2.287637068710402085e-04
7.557183827013365808e-05
2.264412936183755941e-04
-8.111765687311730372e-05
6.856314201207226841e-05
2.177791449587107824e-04
-2.438277800207697718e-04
5.699718374346951245e-05
-1.004687413521667224e-04
4.675477975406613213e-05
-1.115518107775116869e-04
-1.173923991624275208e-04
2.955013066222688777e-05
2.446180320812596135e-05
2.027893243568634567e-05
1.698588728476780046e-04
-2.896080995621552962e-04
3.202899020595168411e-04
1.682380255390205758e-04
-2.884564077471213090e-04
1.702971666635782013e-04
-1.346701435228839087e-04
1.692259826941621076e-04
1.658403458801778767e-04
-2.978521635033843143e-04
-1.539149685408707185e-04
-3.177461956402926387e-04
2.792143733729038975e-04
1.118113132666222144e-04
-5.608794343801916144e-05
2.343180423362218104e-04
-3.892141473532263318e-04
-9.466738046260585789e-05
5.084005491220638983e-04
1.998467772874304351e-04
-1.045118874295931650e-04
-5.572497053915324069e-04
2.146840639345178156e-04
7.460155021530788489e-05
8.998595966035797492e-05
-4.509792908877944764e-05
1.262818004229310394e-04
1.455212021096841232e-04
-2.933364495625219188e-04
-1.228357476097994107e-04
-1.064126053833514777e-04
-2.443892233284440294e-04
3.785896570560518502e-04
8.398416078670388474e-05
-6.012514975977508119e-05
2.513907512232116653e-04
-4.966834356239955769e-05
-4.789471932610332011e-05
1.039995562010771302e-04
-5.183075246379119675e-05
-2.101978805807506177e-04
-3.709559918421107363e-04
3.817196880140503361e-04
6.462610708039842286e-05
-1.009835762595379772e-04
1.906847042667679157e-04
-1.278400148075171873e-04
1.647790389017778111e-04
-1.515684015123390928e-04
-1.608291300442815511e-04
1.374295502880368194e-04
-1.720090005877519736e-04
2.843046387155114506e-04
-1.721164692163673832e-04
1.369812475179891728e-04
1.430801048662741850e-04
-1.543857393791059753e-04
1.594290084907226321e-04
-1.369136693696479889e-04
-1.286035772824194060e-04
3.113924317983790785e-05
-1.159412109986882955e-04
3.453673943299612236e-04
-1.109314331189079794e-04
4.112581563607909312e-05
-2.662999429626889498e-04
-1.172437720640455509e-04
-1.215127128183770221e-04
1.792298577989629251e-04
1.751416629901718185e-04
3.243456306381564138e-04
-1.359478251687607994e-04
-1.377012109520815968e-04
1.662169703109736140e-04
1.244287164347477008e-05
-1.417478265175898123e-04
-1.442315103037992801e-04
1.572201728071765975e-04
-1.531114961231558682e-04
-7.095736470092524840e-06
1.377379868837777142e-04
-1.759353474911754304e-04
1.206054201477067611e-04
-1.926257950455423200e-04
1.058318252527703460e-04
1.011706225864646505e-04
-5.341867905236873343e-05
-5.234442126959093993e-05
1.045688530501784477e-04
2.646373707898579857e-04
-1.828622608134972355e-04
-3.230282949259205430e-04
3.010685819929199330e-04
9.980053405970951139e-06
2.335454314314757101e-05
3.497342326996162045e-05
1.964876594730436560e-04
-2.557764528884426619e-04
-1.015594907395442239e-04
-1.038901992411809367e-04
4.269750506595374211e-05
-4.240883803213945855e-04
3.277416356426824154e-04
1.048453217962651311e-05
3.037780647517297934e-04
-1.197435622748722500e-05
1.322890157609171280e-04
-3.308219912268654762e-04
1.250464579456953571e-04
-2.576416077371168520e-05
1.322497656077198543e-04
-3.166884695789016699e-04
1.528471433186571354e-04
-1.382439899990100141e-04
2.994891176232227718e-05
4.614855812622691559e-05
2.145065294291687681e-04
7.618974405176713724e-05
2.405131212964839308e-04
-5.636473232439574992e-05
-3.573331943507851828e-04
-5.101045953321969991e-04
2.483801471766674228e-04
8.761671533948577582e-05
7.665340789434944044e-05
6.412346048158672229e-05
-1.011751826096403466e-04
-2.652414040878505732e-04
1.835758581413752643e-04
2.562405365268018951e-05
3.297043055112354503e-04
-1.246448567582859066e-04
1.882241130538269531e-04
-1.056556597773525882e-04
2.133809973230101943e-04
-2.292322897267856164e-04
-6.156744323047787541e-05
1.047283277835756770e-04
-1.891970669328621099e-04
-2.858938597814664087e-05
-2.419409219462256117e-05
-3.286013522825783598e-04
1.266532545582990091e-04
1.214812315648630670e-04
1.144097157826724542e-04
1.062250570314680290e-04
-2.075533593773997430e-04
2.417071365225273005e-04
8.100477258501149493e-05
7.332878410870180953e-05
-8.666002143722715656e-05
-2.466941293624888131e-04
5.058581731171187109e-05
4.182735867132307452e-05
1.844392613696671480e-04
-2.847615269467262912e-04
-1.451669406973114004e-04
2.981197115143829576e-04
-2.277711454178979228e-05
-1.919405132559549984e-04
9.631498338682413334e-05
-7.294580344611696979e-05
3.690256924238848155e-04
-1.030150375626630245e-04
-1.151766782199847676e-04
-2.772756871916728190e-04
-1.311109500242207601e-04
4.762070362298648956e-04
1.892461642669386579e-05
2.283783277550987243e-05
-1.227072448170890215e-04
-1.130431910645782027e-04
2.037389233409334630e-04
6.390179162140187678e-05
-7.564384949883555444e-05
8.944177346490334458e-05
-3.571140349586092054e-04
2.625668551943229024e-04
-1.881290495173553183e-04
1.217015171961296387e-04
-2.856298473637234516e-05
-3.334539908085476685e-04
4.281935405237363365e-04
-1.844529277912587933e-04
1.180455245018822194e-04
-3.699839769396882157e-05
-3.870136127962624532e-05
1.133544711441648867e-04
-3.831693185586252423e-05
1.167643916175078675e-04
-3.176573202669840464e-05
-1.788620292268114375e-04
1.330237001651750958e-04
-1.644877007959680488e-04
1.490297029886031332e-04
1.577898395628438372e-04
-2.910074094612620163e-04
2.319897370120655442e-05
1.848263352715665269e-04
-1.112629595053810794e-04
5.058475842489484935e-05
-3.975495879279172589e-04
2.230343494972059624e-04
8.150741284124571773e-05
9.356228329406824046e-05
-4.591996814281541978e-05
-1.844371387046252013e-04
2.881206424749543134e-04
1.506624939052120867e-04
-1.395473606889235908e-04
1.798762909471366734e-04
-4.174828875355107412e-04
5.156954136348909212e-05
-9.173409591672782048e-05
6.801257247178193229e-05
7.310945607618261921e-05
7.637381464748446214e-05
-7.442170297122684055e-05
-7.365388517240251988e-05
-7.342717318840070030e-05
7.930984530213942439e-05
-2.254086353375157187e-04
5.385515784735212148e-04
-7.012820773698853045e-05
-6.789737178637733682e-05
8.722727370789468409e-05
-2.154755313605625849e-04
9.168378187644181528e-05
-5.982710616455640248e-05
9.258142340906034922e-05
9.090917504406305903e-05
-5.227022876801828413e-04
2.354427140825106379e-04
-7.588061378551506063e-05
6.947312669175326996e-05
-9.114227340453302459e-05
3.580609727781974014e-04
4.397303501747147386e-05
3.478874900614616105e-05
-1.272719004906053221e-04
-1.371174085379007698e-04
-1.474502889252882686e-04
1.467937373008218656e-04
-1.741211773161896399e-05
1.228163620441684192e-04
-4.289642793410323692e-05
-5.678481954875613347e-05
-7.141619156346037500e-05
6.582603181702796494e-05
-1.027984412604653964e-04
1.856532545636361273e-04
-1.369620850588701519e-04
1.499966523329817453e-04
1.309169224212402931e-04
-4.169501256800479635e-05
-6.270035105118231097e-05
6.795723275754454794e-05
-2.598791665808663121e-04
2.226726057963718188e-05
-1.531887299289450975e-04
1.299478127880226985e-04
-3.482819041572563705e-04
5.490923114781508284e-04
-7.645075375838721022e-05
2.169788707102199841e-04
-9.622649403994611573e-05
-2.530844305106197661e-04
5.140727001104374722e-05
2.065372589846930845e-04
-9.337469327269924853e-05
6.659866489596988077e-05
-2.297120854605147217e-04
8.517789628126944557e-05
9.517062736610299519e-05
1.049695718680108763e-04
-3.435356788749324621e-04
-2.984897237624048341e-05
1.304338545376285412e-04
1.373658607748342198e-04
-8.906339893978753710e-06
1.495891009950642747e-04
-6.076128080774412200e-04
3.137183439255171826e-04
1.461281547618029764e-05
2.107884566274017925e-05
1.805595001745553688e-04
3.521309671375664888e-05
-1.099591325748446253e-04
4.998244620701982970e-05
5.702723391552285098e-05
-8.902605866140607979e-05
-2.356946236026283270e-04
7.481012809942616439e-05
-7.287540937102336333e-05
8.447200720899282955e-05
-6.313764889612688341e-05
2.476172873074096318e-04
-2.036251201886296949e-04
-4.333133877014389089e-05
1.182433942937752009e-04
1.284283842468117345e-04
-1.656401706057210310e-04
1.511049741378350081e-04
9.937736943930285721e-06
2.050447850654092170e-05
2.949264295183846263e-05
-1.163436445294873246e-04
4.025546720814489332e-05
-1.113337726673642669e-04
1.918442539652368765e-04
-2.705817258135896131e-04
-1.246815312968566829e-04
2.009186726391971791e-05
1.222177504702304971e-05
5.421597075041018821e-06
-1.518518641311795015e-04
3.041720041103517761e-04
3.058864509744034965e-04
1.585874580367907245e-04
-1.380018079582729133e-04
-1.267433374290815185e-04
-4.188729070540603175e-04
3.578667797920192378e-04
-8.641897485513586367e-05
7.829864137216407960e-05
-2.169951866090899615e-04
-5.748836338816163229e-05
2.511524321507839995e-04
9.833263469065659163e-05
-5.816810399092084416e-05
-6.548505917813540159e-05
-3.808529900801416700e-04
3.697753333375945360e-04
5.110822666751091837e-05
-2.676808282455367827e-04
1.774496867874040889e-04
1.427262660565185305e-05
-1.459181577175378225e-04
2.793839727922939432e-06
3.113034531255042569e-06
3.129432897170068297e-04
-1.360493173350924056e-04
1.814376729194584683e-04
-1.087845143816170470e-04
-2.449273754920490561e-04
2.294594876616093090e-04
-6.028692918743677645e-05
1.052146957806283293e-04
1.144506205510993608e-04
-3.347690840405622353e-05
-1.865221846666569668e-04
-4.973959345355943949e-04
4.075108399239897139e-04
-2.176551061808334152e-04
6.957290667239185921e-05
2.023567143552774852e-04
-1.231179641581529817e-04
1.625789065886118273e-04
-7.515166673498149581e-06
-2.214771704912256911e-05
-3.331669904073389197e-05
-4.077018872068986376e-05
2.605861809571359284e-04
1.074338394341939351e-04
-1.956636286495675424e-04
-3.911255388334076413e-05
-1.866579581944844627e-04
1.238800316793926294e-04
1.289254757955421557e-04
-1.719808305167111386e-04
-1.615229304652347303e-05
-3.191600973815792277e-04
2.924277997850117613e-04
1.404231642041950617e-04
-1.644672627899670969e-04
1.410659468694402550e-04
-1.075979552749878664e-05
1.432537879302874548e-04
-7.079018203543116225e-06
-1.565135681996815029e-04
-1.524852324116630225e-04
-1.476922541588133206e-04
3.154303825165352183e-04
-1.367022144795817932e-04
1.739830415185803262e-04
2.629832023091747153e-05
1.826384821663868633e-04
3.210391660681899753e-05
-1.206037093082996877e-04
-2.757985192784211028e-04
1.767935113829150037e-04
-2.884989084272612456e-04
7.291280111866001752e-06
-3.196239753450534379e-06
-1.385528817201210157e-05
-2.368860942210133580e-05
1.208348718332378482e-04
2.679030490142419920e-04
1.128622078341725383e-04
-3.888830895597207744e-05
-3.483401727329292941e-05
-1.804800981235491148e-04
-1.858324806219062929e-05
-7.546720940900239571e-06
-1.480641728364958179e-04
1.693221848478508010e-05
3.341951048537806276e-04
4.019199375249750915e-05
-1.026371837575820674e-04
-2.472609217294942309e-04
-8.874709063017389369e-05
-8.496397441833527869e-05
3.744568261463006829e-04
6.891878613264585752e-05
-8.588821193426251317e-05
-8.977108325649318953e-05
5.748041294188397342e-05
5.091388181075362680e-05
-1.092331561826384530e-04
3.505720286694246940e-05
2.629393312531513239e-05
-1.352329821103267072e-04
1.611304575705740656e-04
-1.524245972516932951e-04
1.451045193417824003e-04
-1.411569593962617673e-05
-1.947879246499281615e-05
1.292372872401651752e-04
-1.781334408062738579e-04
-2.591856615150839684e-05
-2.437337184138371534e-05
-1.734657495356046780e-04
2.896898898609723814e-04
1.442278513831841947e-04
-1.523745859150540656e-04
-1.427642498878194523e-04
1.725411342533231262e-04
1.825973664795215075e-04
-1.132179983108160231e-04
-1.051509546104616773e-04
5.369604483025506355e-05
-2.474080647185478632e-04
2.120320966562924182e-04
-9.388253114819096121e-05
5.571295454980189734e-05
-1.018016499326724152e-04
4.436253556215402540e-05
3.694698921396021794e-05
-1.235316146128962421e-04
2.116201936700056884e-05
1.662286879535766011e-04
6.738535975707109561e-06
3.057328393345171104e-04
-1.575203584765989329e-04
-1.624391400925881185e-04
-1.436007672621688492e-05
-3.237831229921111381e-04
1.298964036291209620e-04
2.785321921076393216e-04
1.221616918227699138e-04
-3.393942450554767213e-05
-4.947918310874457838e-04
2.656836631905196014e-04
-4.110491257798138114e-05
-4.164535131514440042e-05
1.116505673970703984e-04
-3.889009652346487532e-05
1.170575823111625062e-04
1.215692092956921066e-04
-2.564767397435205646e-05
-1.724088642666345573e-04
-4.717845639512285925e-04
6.015797078236557885e-04
1.479836031044559662e-04
-1.546040656460982840e-04
-1.540151264159258181e-04
3.020496509165506750e-04
-1.598064156248340498e-04
-1.661751905439461682e-04
-1.744640701584687583e-04
-3.150606103984129219e-05
-4.172770770586159406e-05
2.534709095339525453e-04
9.197570063425471436e-05
8.486045748882527608e-05
8.008764299917581631e-05
-7.458786730667429682e-05
-7.385831185272824842e-05
-7.036933293929920757e-05
8.825327634821286465e-05
-2.086754403207271896e-04
-1.986369823320155632e-04
5.756502877165328149e-04
-2.256286267053299538e-05
-1.016059829908028140e-05
-1.505804398466499452e-04
-1.390762751830941881e-04
-1.285662333512172710e-04
3.331773921930781558e-05
4.127725817060362025e-05
2.004307777864205325e-04
-2.521919772936028403e-04
3.618393345382864799e-04
5.882521650273695552e-05
5.939955648844423845e-05
-2.468407068182819786e-04
-9.694692056081037688e-05
5.142819558558559239e-05
-1.066539106651524419e-04
-1.130668995949152072e-04
3.264986527785466205e-05
1.784184221917013160e-04
1.956297891534097269e-05
1.668685144909989328e-04
-1.422804412079334421e-04
7.834154276548841816e-06
6.911942089367816804e-06
-1.451293009646578984e-04
9.271089265146548953e-06
1.646293692057886212e-04
1.537573753049986252e-05
-2.863579468198717420e-04
3.270566595912775864e-04
2.408593998568805223e-05
2.500802030502911714e-05
-1.282609917606163346e-04
-1.307110592549818240e-04
1.702733130442201314e-04
-1.405960319181539587e-04
-1.473498753416068851e-04
-1.969815560057064907e-06
-1.615143779592369592e-04
2.902626676185957760e-04
2.858883713336315795e-04
-2.156107752465454843e-05
-2.144904005538541788e-05
-1.714731161560566187e-04
-1.401082743012009863e-05
-1.597348300826472844e-04
1.538258838515486296e-04
1.631493334132142392e-04
-2.850136387740933837e-04
3.345169100291169300e-04
3.741056024140908709e-05
-2.614268421905080204e-04
4.785742817469108249e-05
-1.031791592974716938e-04
2.008675373264494476e-04
-2.606142786044672913e-04
3.854666623731540457e-05
3.069206489773710381e-05
-2.836127482210063465e-04
4.695278526211878645e-04
-1.507200790651065333e-04
1.449404003600907064e-04
-1.643717401805652116e-05
-2.430429621979586741e-05
1.214009759655704549e-04
-1.897124232386564180e-04
1.103763570632362525e-04
-4.654674206848720907e-05
-2.027759677715569662e-04
2.520559605241519136e-04
-5.523763314493406417e-05
-3.615296356708344117e-04
9.636437477672965719e-05
9.799904688987007382e-05
1.013527474027141150e-04
1.065424681487267316e-04
1.135483357846949620e-04
-3.038832101863411415e-05
-3.255767333560763335e-04
2.956832723179865551e-04
1.858932411365125034e-06
-1.394317958881192987e-04
-1.286677920339333728e-04
-1.188723398523226175e-04
4.215876077208294303e-05
2.014981627237602622e-04
2.062480669921080902e-04
-9.646942348768961883e-05
-2.491561047911734035e-04
2.057313936871398399e-04
1.999349790637281214e-04
-1.139848561537854519e-04
-1.255508968335417453e-04
-2.922196129049123444e-04
-3.142217583928717949e-06
1.319977432204218009e-04
2.665815898110111219e-04
-5.629626207992428173e-05
-2.254242343692382114e-04
3.703552509246845685e-04
-2.518953487841555554e-04
-1.079692390114633132e-04
-1.130057795029955917e-04
1.909382792649767650e-04
4.086890376188148319e-05
1.994260536491502243e-04
2.083163026849295862e-04
-2.383502954358659499e-04
-2.258716918287001420e-04
9.231529556887288382e-05
-4.751653843033272609e-05
-3.567327320883856398e-05
-2.522325834939050419e-05
2.887310031587049302e-04
-3.145843015361884563e-04
1.485988030873939517e-04
-1.524802036282448035e-04
3.301624711087994689e-06
-1.465074237794255444e-04
3.141079166073086019e-04
-1.403121573891006073e-04
1.689905888591185235e-04
2.143890461430808352e-05
2.733459788112089302e-05
3.388356221941902439e-05
-1.118204028836363611e-04
4.761713687885444398e-05
5.407944051749358520e-05
-2.452965102779518822e-04
-8.772218324617842889e-05
6.903507113327351217e-05
7.252774252861069241e-05
7.560210506832778913e-05
7.859352527037305296e-05
-2.233095494508415273e-04
-2.194133883555634277e-04
2.431378210413937945e-04
2.489601741536552029e-04
-2.019676313317062867e-04
1.108515725797255217e-04
1.189193853036782091e-04
-2.570115947264304797e-05
-1.844204348056181997e-05
-1.250890703770138119e-05
-1.610429753401840182e-04
-1.592956441987538284e-04
-7.530928199903336587e-06
1.415685468399171360e-04
-3.222968816337236191e-04
4.320843738474493137e-04
-3.647823676021033981e-05
2.558969221509433648e-04
-6.383162685582552702e-05
-7.986312995390053662e-05
5.554498891121598602e-05
-2.675326833797976415e-04
-1.330199405291237482e-04
1.992412698614529475e-06
-1.431768184034866791e-05
4.292001507049610131e-04
-3.451664658093109316e-04
-4.796995044199758705e-05
-5.207045320860510622e-05
2.530588570531776835e-04
2.569540241945053333e-04
1.118070150983363812e-04
-3.042620260333418454e-05
-1.705265975630845994e-04
-3.093151298340274832e-04
1.628047077726398214e-04
-2.806561199580552665e-04
3.834158976035383862e-05
-1.011570309798213090e-04
3.688437698357108501e-04
-2.301757913892421949e-04
2.379582501605367905e-04
-5.792683252635574321e-05
1.026577580322963194e-04
-1.961317205973770665e-04
4.186014942487220267e-04
-3.720569394190402827e-05
-1.906364339051365615e-04
-4.193633545787075036e-05
-2.014988342138221400e-04
9.382786738834080777e-05
-2.235918002715157568e-04
6.766398650666702449e-05
2.055485067530579506e-04
-2.667255696736695568e-04
3.302674451675453784e-04
-1.388582795629524633e-04
1.576023734471037393e-04
1.519362882812770816e-04
-1.557267064423015950e-04
-1.551729085140985851e-04
6.305399268684577222e-07
5.926390466224928389e-06
1.651528370243289512e-04
-1.328832554885138440e-04
1.790480792237112340e-04
3.197241173705355491e-05
3.548543852436106678e-05
-2.687506115134046924e-04
3.446845731228716930e-05
-1.229970651794163770e-04
1.746709868283524388e-04
-1.400547059676279414e-04
1.775002983689888715e-06
-1.617782379277812454e-04
2.858816936847265048e-04
-1.800985701043813288e-04
-3.296834929114245073e-05
2.701295107378811071e-04
1.191419101004174356e-04
-2.822673881081285883e-05
-1.723873273666169973e-04
1.437067821051342734e-04
3.581519530050479187e-06
-1.360792917321902403e-04
1.813812715807861431e-04
3.940813317250157664e-05
-2.576763368845796714e-04
-1.001262212422296248e-04
-2.511985530739353940e-04
5.201640180808552697e-05
1.993866098571023097e-04
3.439055699693495307e-04
1.809226390149521726e-04
-5.941445834518274422e-04
3.081551572427576125e-04
1.419012161773240840e-04
-3.292807252944499790e-04
-3.657032330433902681e-05
1.052131507011902799e-04
-5.583817167213389544e-05
-2.139434983707698315e-04
8.913200983335728628e-05
2.433116971005968535e-04
-5.655567215283054908e-05
2.573870930588483138e-04
-3.610355910778494820e-05
-1.748754132021152461e-04
-1.598974494863043957e-04
1.603506007209765105e-04
1.744407716575351421e-04
-1.186226333630912525e-04
-1.093182098809817340e-04
2.017640832171537911e-04
-4.063723495049524365e-04
2.025353109581615077e-04
-1.073887275082856653e-04
3.778598705366744326e-05
2.856408268801202249e-05
-1.340728260031829797e-04
8.640094745991460084e-06
-1.506395484503294926e-07
1.454466025036188308e-04
2.932832026631132646e-04
-1.668769927162867166e-04
1.380452709343169980e-04
-1.657389895157417698e-04
1.417660135935756578e-04
-1.609603396274628215e-04
-6.623597426210575116e-06
-6.298520541126350845e-06
-7.939317560846869166e-06
-1.184915831368669370e-05
-1.706533682967620595e-04
-1.789547823246612646e-04
2.688627531286004197e-04
1.052769631605888416e-04
-2.112837185284296971e-04
2.353639869274854715e-04
7.250792262481173017e-05
-8.904668122768338162e-05
-9.640820694222003591e-05
2.031626869454457079e-04
4.674190624269146355e-05
-2.605859700848435902e-04
4.395741872065870410e-05
4.465022058510128596e-05
-1.061179433268403887e-04
-1.033539250870006801e-04
2.053727412686169617e-04
5.699384350912089012e-05
6.176398372085264499e-05
6.703799126819726139e-05
-7.977643233420138769e-05
-3.786181377985914928e-04
8.616896790390455967e-05
9.406056361816081369e-05
-4.957784835293850654e-05
1.131637724335266335e-04
-2.802128914996862541e-05
-1.680648521421142184e-04
1.505020043145277424e-04
1.642471683148139785e-04
4.828523808699890620e-04
-4.203508201273677093e-04
4.781355378031793251e-05
-2.496219211897164137e-04
-9.250501492912662947e-05
-9.147502629889336175e-05
-9.393319011837276944e-05
2.055978945181739597e-04
3.499050566247253265e-04
-1.180364218570947139e-04
-1.292490410994942324e-04
-2.931629226319821223e-04
3.066644500265019611e-04
-1.599829932046602807e-04
-1.394973775368092690e-05
1.348829336854954423e-04
1.341259969408798054e-04
-1.632001305188169823e-05
1.409174462165813503e-04
-5.153947867317361225e-06
-1.501769161261544774e-04
-4.476456833171571308e-04
4.748302550022709054e-04
2.244869719551414983e-05
1.782126727206080001e-04
-2.789858945496432219e-04
2.402714640235068379e-05
-1.332484249928744249e-04
-2.925283625656130188e-04
1.573333007717520743e-04
1.492049553741107450e-04
-1.067922666029087694e-05
-1.613716889091048489e-05
-1.892388802231522262e-05
-1.848126088815195769e-05
4.431675582357310315e-04
-1.600181122021819785e-04
2.495427194112401733e-06
1.436066218923730174e-05
2.714086978112061581e-05
-1.128664093766425973e-04
-2.541600593693118409e-04
2.126583206958668443e-04
-8.643921883048818469e-05
6.878382573919277008e-05
-8.478281532421286367e-05
6.333654444296349579e-05
-9.681547679226425358e-05
-1.068575060758393942e-04
3.398706277533961913e-05
3.265772682722514059e-04
-2.963396487545831592e-04
3.022616028299124650e-04
-1.317760347385027883e-05
-1.740298875204014607e-04
-2.737518647810515188e-05
-1.834219841661766863e-04
2.733083409900871250e-04
-3.071242540904370544e-05
1.248071520215779156e-04
1.289599858222456369e-04
-1.714915315102081216e-04
-1.668754032910526838e-04
-1.041982154799361378e-05
1.447490763429002693e-04
-6.931447915433658521e-06
-7.899673233786151327e-06
-1.074186892401213877e-05
-1.678380444818698897e-04
-2.102577440919090360e-05
1.250741118593194439e-04
-3.405452049161348279e-05
1.126424445213761665e-04
-1.970927332508320441e-04
1.054576575785761214e-04
1.052420359828376740e-04
2.603412718917730187e-04
-1.920382633160464100e-04
-3.121368864499931564e-05
-3.254708879558926922e-04
-7.001916379838680410e-06
-1.443638161872864577e-04
4.825603684437659900e-04
4.197448118822492806e-05
5.886545460172181257e-05
-7.812677542887663069e-05
-6.488521166591783849e-05
9.757229649791703213e-05
-4.939123496744755968e-05
1.039497813097221916e-04
-5.304541488262705081e-05
-5.202660034130377788e-04
2.287019513456021406e-04
5.856308025280678874e-05
-1.138935613330615778e-04
-1.346062670286477610e-04
1.505572949709446174e-04
1.327089490366453490e-04
-3.432428998066029842e-05
1.081203935428715778e-04
2.553539675827492671e-04
-5.033259420975308971e-05
1.062446913179132286e-04
-1.911033749318855090e-04
-1.803101165259031978e-04
-1.493390678213114241e-05
-3.062966412471147706e-04
1.654038345747784009e-04
1.786713258530671692e-04
1.906007004185494380e-04
4.806733754321943495e-05
-2.493236590436964314e-04
6.112722352845258286e-05
-8.877089987571130567e-05
-2.411700380747049523e-04
6.191340421362619530e-05
5.785174782717167363e-05
2.047578482190131396e-04
1.977920965396787233e-04
3.724628948561438282e-05
2.853945030484361710e-05
-4.384657207776280910e-04
9.736452989154827789e-06
9.154618197374825504e-08
-1.619649067850167945e-04
1.341807057672188567e-04
1.258187657603601856e-04
2.708770083913177940e-04
1.116725303928174727e-04
-1.992017627610459540e-04
-2.040225070036902442e-04
-2.080107774249891127e-04
2.465804598257658299e-04
-6.092388975554860269e-05
9.024941188594262577e-05
-6.274206049366811582e-05
-6.203122264619102388e-05
2.450589870900288930e-04
-2.095289474965298065e-04
1.000988566537458133e-04
1.057952811977252468e-04
-3.451036571504512217e-04
2.731684912276485756e-04
1.294196182633266048e-04
-1.661470791837263959e-04
-3.323934342857796526e-06
-1.451765220773211875e-04
1.854404070618522566e-05
2.998872561274827046e-05
4.165984748370931052e-05
5.344753860395771712e-05
-8.739400470549238116e-05
2.292633522867267850e-04
-2.175800972156124188e-04
-5.499996691466535232e-05
1.062284073394502697e-04
1.130578711324183695e-04
1.176122869405277601e-04
-1.857126411930748856e-04
-3.432336428425116425e-05
-3.878825876330770561e-05
-1.991586052823619715e-04
4.002268169702661769e-04
-7.136642477104095334e-05
-2.401556727149367415e-04
4.708095031540021440e-05
-1.244504248768001271e-04
8.966830981412085661e-06
1.429146823579659556e-04
2.780722736344684132e-04
1.098228936983782882e-04
-2.088203465968996688e-04
8.538770768253017189e-05
-2.280379362470894846e-04
-2.334065695644573868e-04
6.940846027424671882e-05
7.014074401706577369e-05
7.398443709430953317e-05
8.085632715340064242e-05
-6.204665792076019841e-05
2.552652417894671539e-04
-1.884125214068036358e-04
1.321867968854104265e-04
-1.569048016718789464e-04
1.174057490925867901e-05
-1.254609316818294047e-04
4.128477898565264159e-05
2.063616382116369521e-04
-8.830127328528426149e-05
-2.325239096147214588e-04
7.882349460685799379e-05
-2.223185503482290337e-04
3.900511678497622838e-04
8.502770675860369233e-05
-6.912837993562368573e-05
8.029605348485255182e-05
-2.295309641632040348e-04
6.961007892483886557e-05
6.231100606805758957e-05
-2.512798194209792894e-04
1.971370123364277573e-04
3.448871919708266522e-05
2.395855865603870982e-05
-2.919605539133463597e-04
1.551004511341357744e-04
1.446721971270742803e-04
-1.787259963996336938e-05
-1.797978952786063631e-04
1.167555294523750113e-04
1.088965463702437484e-04
2.544043157574878231e-04
-5.148315581077299438e-04
9.002704981618772531e-05
-6.719488551921364104e-05
8.171711773813947286e-05
7.913572356935309553e-05
-7.478334198279763595e-05
7.787613048382225830e-05
-7.311081411803319724e-05
8.268753068230689867e-05
-6.506423240529121850e-05
-2.112524371920107460e-04
2.543234955481777802e-04
1.107158235986220406e-04
-3.205688447039464902e-05
-2.180880044396220265e-05
-1.156545952141405731e-05
-1.757498268343383952e-06
7.234999437690689879e-06
-1.374693632493097630e-04
-1.308805464108348936e-04
-1.256629508009299767e-04
3.359614938997349302e-04
3.336372526593985342e-05
1.873487859475834051e-04
-1.175013890602214298e-04
-1.181350446882347137e-04
-2.721927491486905498e-04
3.359980402351333173e-04
1.807341403074324150e-04
-1.274220997868040646e-04
-2.830474999581175243e-04
1.931381476374582006e-05
-1.355676329577077972e-04
3.207106392065110561e-04
1.509768692248992479e-05
1.586806271457998020e-05
1.790456955899448059e-05
2.116356186137973900e-05
2.551444010810981385e-05
-1.218224764942591566e-04
-1.158967178045586742e-04
4.305368184777636994e-05
-2.555659283465734123e-04
2.086930537230850379e-04
3.674347158311199444e-04
-2.374238732122617825e-04
7.222655748937158410e-05
-7.728318839244025049e-05
-7.596824794619232027e-05
2.284442564984887731e-04
-2.323818594705853149e-04
2.199336911848747799e-04
5.959455878146237046e-05
-4.079479658041591165e-04
3.848403893853416600e-05
2.625547482613987857e-05
1.392132642322582051e-05
2.338962535142165704e-06
-7.651222883395574346e-06
2.898654122554039040e-04
-3.252517310858013609e-04
2.835574960470529709e-04
-1.724618593116395598e-04
-1.505474385676597009e-05
-7.632023090471326882e-06
3.068785955430775926e-04
1.646906651087935312e-04
-1.299348970033565817e-04
-2.727015874558047352e-04
-1.117627584035242583e-04
-1.054054325361848996e-04
5.128057077566789681e-05
-9.948264579860849886e-05
2.054346252801096705e-04
-1.017616909071323314e-04
2.000004254492534193e-04
-2.622297950081148949e-04
3.428577724429494617e-04
1.843531314898360295e-04
1.778279483196641187e-04
-2.870793480421946538e-04
-2.948354059338469395e-04
2.066989408114359591e-06
-6.487716825245261030e-06
-1.493278320985784952e-05
-1.753383781537860701e-04
-2.936135627216482455e-05
2.709617110207538943e-04
-3.688338484383996119e-05
1.154317987883578055e-04
1.175017193031919593e-04
2.741696907089220749e-04
-1.780778544024345543e-04
-1.718624141896228413e-04
-1.315366210937310915e-05
-1.604557068370510153e-04
3.011678626974216089e-04
-3.071229240232348310e-04
-1.543950701700381979e-04
-3.461460981402939541e-06
1.460145883481961729e-04
1.419276302123293420e-04
1.374181012842263312e-04
-1.721383040385564137e-04
-2.330816065441229719e-05
-2.604557335385581279e-05
1.251028842103610263e-04
1.251100178367292994e-04
-1.785880869551307909e-04
1.294520690881962438e-04
-3.242276259071587416e-04
1.386147475471896618e-04
-8.161708957817592961e-06
1.506856174895007596e-04
-1.480793450256020181e-04
1.077373624326421514e-05
1.691987063319395944e-04
2.177101719938254870e-05
-1.265258889753537782e-04
2.937102978316524662e-05
-1.209052426945815355e-04
-1.195041032454273846e-04
3.375140641686260278e-05
3.392290202426832628e-05
1.864434724745464697e-04
3.378582074903635035e-05
3.389860025734149884e-05
-1.182743215546800449e-04
3.508713187512057640e-05
3.622500302277475201e-05
-2.674777699048476259e-04
3.945514442875947350e-05
1.940187673448344951e-04
4.354809838346877473e-05
4.572136483738135297e-05
4.786461144295949070e-05
-2.552732408356770104e-04
-2.533966421843044021e-04
5.345493752268218844e-05
2.074772718177383133e-04
2.086021656047951014e-04
5.671208124513531603e-05
-9.577529268142446280e-05
5.611323428786320154e-05
-9.817019447697471614e-05
-1.010067102247743656e-04
-1.050390997837401984e-04
4.237669978336740403e-05
3.623111398660479505e-05
2.936647430758956208e-05
-1.304988527981908121e-04
1.673016652453709592e-04
7.522355437637499223e-06
-1.518585216078734525e-04
2.996387316477117828e-04
-1.123562520587287031e-05
1.361965119536377353e-04
-1.736442713439363672e-04
-1.778481398596867206e-04
-2.896407408304655750e-05
-3.203189478021613317e-05
1.183593844737594256e-04
-1.878323713749610027e-04
1.178447873035007326e-04
-3.242081483346796327e-05
1.245164237842724838e-04
-2.164422547138198727e-05
-1.328585100315931966e-05
1.492272809754059866e-04
7.555588108368357457e-06
-2.864689223634402462e-04
1.817997223418204309e-04
3.433120480230847176e-04
-2.605966520203024245e-04
2.003544098630033455e-04
-4.106202449666716174e-04
-2.627279907627644534e-04
3.389264262463061281e-04
-1.311347867895986232e-04
6.242068288477731744e-06
-1.098465876029377512e-05
1.233779913722101893e-04
1.051963861369981768e-04
-6.454733404959281428e-05
7.276631068712473684e-05
-9.252798033766882152e-05
5.041782461106525788e-05
1.967344961571644839e-04
-1.112090750762214156e-04
-1.104885676774318664e-04
-2.590021676316404866e-04
5.336851095427878693e-05
2.159470804542803341e-04
-7.686379537025953511e-05
-6.265160235462479083e-05
1.053617274667849140e-04
2.738609403284066762e-04
-1.570350110969671528e-05
-1.179454640432402365e-06
-2.936339074805729586e-04
2.189279877701740310e-05
2.951462143652055820e-05
-4.234731490902586418e-04
3.415199639829260159e-04
3.600700888476267248e-05
3.376430072062075200e-05
1.827821871075768951e-04
2.591193343882840542e-05
-2.836533508095834526e-04
-1.350056670956207129e-04
1.456065068433249985e-05
1.279812439365225962e-05
1.650522902091126323e-04
3.187043666780529417e-04
-1.368328276014269310e-04
1.873441247484185321e-05
1.745361859537346804e-04
-2.803187856636321293e-04
-2.781839604273109666e-04
1.806209581970506914e-04
-1.247296669330313619e-04
2.655363278106913523e-05
1.769799488711984523e-04
-1.308036313414856564e-04
1.921390399714043717e-05
-1.354242059732208567e-04
-1.365487917303003602e-04
3.212732551453895830e-04
1.699815060239569329e-04
3.249322525429664639e-04
-2.823675874358932796e-04
-1.265617171212857716e-04
2.883503349667848484e-05
-1.218805467886019774e-04
3.125245110515877990e-05
-1.223089071218950508e-04
-1.247644624605096658e-04
1.767309667152153620e-04
-1.329106405971881421e-04
3.201616228093085879e-04
-2.944987398369707378e-04
1.599234798445537330e-04
5.460051063761235786e-06
1.580027600073453833e-04
7.400847963577409618e-06
-2.937309258916538418e-04
1.740547551110160440e-05
1.775767262417030686e-04
-1.188174018197528430e-04
1.958112112659183060e-04
-9.983419506509834450e-05
6.174667926412179882e-05
-8.297002350484292891e-05
-7.672141844273503754e-05
8.012326341597115619e-05
8.218798808899517713e-05
-7.053493157825340722e-05
-7.267731627329544471e-05
-7.644588772896527933e-05
-8.130394072475803776e-05
6.597262901747582642e-05
-9.171895279499469472e-05
2.091622260855287578e-04
5.355073884805665031e-05
-1.005294695276836865e-04
2.047110449449245984e-04
5.353889093603345285e-05
5.590676434606521713e-05
5.870540241208079788e-05
-2.437947941877188210e-04
-2.417364703272899360e-04
6.451951577093528929e-05
-2.407426734703380978e-04
6.316181509886581772e-05
2.134079580227220643e-04
2.101857160142289673e-04
5.370370828163162520e-05
4.932485103775154556e-05
-2.605659214419792872e-04
-2.655058749263193010e-04
3.458700582805728798e-05
3.345971966090136376e-04
1.768071393589685277e-04
1.716165299290279644e-04
-2.912451659287575308e-04
-1.435081725385378552e-04
-3.004381496064139397e-04
1.279703251386104979e-06
-8.380207834288878973e-07
1.514387055439807381e-04
1.533185771739201738e-04
5.012758736212704289e-06
1.642534115934859388e-04
2.038163862717424851e-05
-1.220021571260598186e-04
-1.111087341455627359e-04
2.047000356465917864e-04
6.147221567821828316e-05
-8.400918180548927103e-05
-8.001437221890227625e-05
-5.375554734899978598e-04
2.214183872278992682e-04
6.051853709488097283e-05
3.531204589499353547e-04
3.140934700401591824e-05
1.639964223388226802e-04
-1.137138484007670153e-05
-4.938124118616307864e-04
-2.141364737819512773e-04
6.595637512375466713e-05
4.262682771708278936e-05
3.275580418116493951e-04
-1.461575155215113066e-04
-4.259320886404763784e-06
1.435401831720904762e-04
-7.685794591934750548e-06
1.522508841046174653e-04
-1.401488496353139955e-04
2.973791714379683815e-05
5.038902922155348254e-05
-2.321249641272977212e-04
-5.627645424076479521e-05
1.187860291696547668e-04
2.917938734501105682e-04
-1.486757673181722127e-04
1.727973176354749758e-05
-1.263347887482799061e-04
-1.218501907700058788e-04
-2.741558465162612698e-04
3.329101509025951706e-04
2.179144696749506796e-05
-1.383124807128895790e-04
-1.462612066300630908e-04
3.041987535754763156e-04
1.458603682750020630e-04
-1.628551756823125275e-04
2.939421316801655226e-04
-9.560707705236493398e-06
-1.580299232939200930e-04
7.352324405857721034e-07
-1.441185596374620957e-04
1.721922172875143371e-05
-1.261249120565659330e-04
3.573207518248812690e-05
4.462090104777360119e-05
-9.981151942500526961e-05
2.124641020749606164e-04
-8.698183757972100677e-05
6.964494994508541547e-05
3.768423717761213983e-04
-3.864043127311980025e-04
-8.412530053587985869e-05
6.281046860977723342e-05
2.069604872629696483e-04
-4.144809780239875913e-04
2.985105644823360231e-05
1.671473215108020623e-04
1.506280015746191872e-04
-1.715431237805433720e-04
4.221730918011355662e-04
-5.087456476317639810e-04
-2.168269340401595487e-04
7.806917513759829949e-05
7.149287488076954116e-05
2.217367910248646892e-04
7.129484737852964822e-05
7.786667280985829864e-05
-6.412275134907421872e-05
-5.020616646437576499e-05
1.186579844034673639e-04
-3.215960280505019732e-04
3.062977871833921719e-04
-1.350717049339988506e-04
3.169036356819341727e-05
4.275803918369596709e-05
-4.076864002052128680e-04
2.058746842637637208e-04
5.231624494636897941e-05
4.737300529038063012e-05
1.915009338687468927e-04
-1.249841190339808276e-04
-2.908931866065997689e-04
1.524972444470284560e-04
1.380967997577896029e-04
-3.330727855166590551e-04
1.132230257439309772e-04
2.570713178194721209e-04
-5.354540027515165032e-05
-2.079739183384002744e-04
2.515577006379989705e-04
-4.852396288720566095e-05
1.119416958097194440e-04
1.218577982010625335e-04
-3.248195788552736725e-04
1.443033935551913424e-04
2.516638546762520269e-06
-1.405100106638147966e-04
-1.326596910045659634e-04
2.583926854932051158e-05
2.982548757170705488e-05
1.847029509716175820e-04
-1.194877777171286559e-04
3.327524071186014872e-05
-1.194163384952613986e-04
3.329033312770378187e-05
3.403978318396139961e-05
3.568000614380717380e-05
3.828349798484408843e-05
-1.108690813305791785e-04
5.034272543102610853e-04
-1.029376470593461204e-04
-9.944530506841307079e-05
-9.695437250395807930e-05
-9.584194423970598899e-05
-9.627274423801071286e-05
-2.507413628630212775e-04
2.040420811882648333e-04
-1.046527965711747715e-04
1.971531993293417298e-04
4.205896987057209470e-05
-2.641219327446815961e-04
3.471996599935390625e-04
1.978062430353007565e-04
-1.019517924316113642e-04
5.803782573558636626e-05
-2.381841269074404569e-04
-7.564910636902614301e-05
8.726323921304723289e-05
-5.523495003781777013e-05
1.066458998496243993e-04
-1.905150682368589136e-04
1.210128968103616896e-04
-1.797565713910351725e-04
1.276931410010611538e-04
2.803247156030579113e-04
-2.705172173697620948e-05
-3.142366199056917386e-05
-1.903839802946460729e-04
-1.984788698785796830e-04
9.726191741173882384e-05
-6.563677228968193222e-05
2.288584311175924683e-04
-8.686839399896941860e-05
2.083344472344768165e-04
4.672025739357563731e-05
-2.662565883610981026e-04
1.851274801619536730e-04
2.771357707320941220e-05
-2.806461911951322729e-04
1.756348542230799727e-04
-4.344651412040690351e-04
3.304541812900421596e-04
1.815057274984707713e-04
-1.185297114446980652e-04
4.043184316963540254e-05
4.765901986173724022e-05
5.526168702045437955e-05
-8.989598951957655348e-05
-2.358071165360549630e-04
7.471654624680509351e-05
7.820083750249501114e-05
7.935881531536503441e-05
2.304194496257047956e-04
-7.918646514898586763e-05
-8.655258159180240804e-05
-9.666197521161534788e-05
-2.616585315263822149e-04
2.950025605188202069e-05
1.477081213875475959e-05
3.055280888515338840e-04
-4.704697192069120680e-04
2.817357733194960842e-04
-3.107526031150674862e-05
2.700631767504265432e-04
1.172078060685486376e-04
-3.204228001432124864e-05
-1.781531217058095065e-04
1.359421374929895216e-04
-3.112968965118130516e-04
3.102993135971631486e-04
-4.415279375485597186e-04
2.645497376957569018e-05
3.514681173221408431e-05
3.469905547099416459e-04
1.986870199788392654e-04
-2.574026652766410136e-04
-4.110229724059526711e-04
-1.095575269567223658e-04
1.893643340453562073e-04
4.859514948003238518e-04
-1.350714404670479076e-04
1.576310279847752322e-04
1.436786494976106173e-04
-3.291149503476289680e-04
-1.921110232152308081e-04
-2.075761476116512341e-04
-6.952118579615828502e-05
2.229534517438543648e-04
-9.219932178911270637e-05
3.590825189188382805e-04
-4.063054822452193777e-04
3.584359035112467690e-04
2.117474891645239679e-04
-8.395507338011083068e-05
8.083610010017234246e-05
-5.788475817001764267e-05
-4.351414273025192416e-05
-2.975454065555103653e-05
-3.227233190511027776e-04
-7.566615853350767692e-06
-1.527565621177365935e-04
1.571913496902722831e-04
1.595625101195223083e-04
7.363241409502729134e-06
6.298498752591024490e-06
4.344174546448126640e-06
1.546262269417666144e-04
-1.477579092040228998e-07
-3.070081139295002186e-04
3.024441421706816060e-04
-1.552485783627215675e-04
-1.532035939927164314e-06
-1.519445204203721280e-04
3.751173667971195755e-06
7.564925211293209200e-06
1.643264994885023018e-04
1.683975090629226553e-04
1.718103851267566541e-04
-2.837965332073360907e-04
1.743008975912677865e-04
-2.854035080909006158e-04
-1.372898360707746712e-04
1.608653656465615573e-04
-1.036232714460186019e-06
-1.647274233580452456e-04
-2.432636101075678789e-05
2.684148727110300921e-04
-4.856653875108110977e-05
-3.640965300794107634e-04
2.380292275573467255e-04
-7.279141565009829870e-05
5.346683613961383547e-04
-7.595044307055743259e-05
-7.399705687625318141e-05
8.215624714706964602e-05
-2.185517460787893675e-04
-6.128840650526851987e-05
-5.697854189990478671e-05
-5.340651680572554392e-05
1.018864685941694146e-04
-2.013350735913679130e-04
1.053701166802092660e-04
-1.982307778811026621e-04
1.090937502704699449e-04
2.648974076938916079e-04
1.169662088176006668e-04
1.232593816334388739e-04
-3.265825441014094470e-04
-1.646484765222719045e-04
3.035149144986601290e-04
-1.432925168950197569e-04
2.023046111233227162e-05
3.053489841097022079e-05
3.961930204793496406e-05
1.995561488001086398e-04
-2.529826106162216598e-04
-9.750957073316147354e-05
-9.697647539556075486e-05
-9.859768491305638300e-05
6.609536114744836086e-04
-5.643708874782203807e-04
-1.118398086422763606e-04
1.881359607822163731e-04
3.097641907916109960e-05
2.751542545056663265e-05
3.306602070924285282e-04
-1.275704818102658923e-04
2.607267569548681003e-05
-1.241172891657913596e-04
1.845356283241788946e-04
-5.741398943921077790e-04
1.935697083837544495e-04
-2.591693802091646738e-04
3.562303633430158540e-04
2.084813512097456105e-04
-9.232151630478757816e-05
6.388778995771017359e-05
6.646169871850782923e-05
6.772034622581605157e-05
-2.377031975674676187e-04
-3.921169200580468641e-04
6.231232536767230775e-05
2.102579273441277741e-04
5.201170188504204456e-05
4.566223206664355501e-05
3.892027956645376791e-05
-1.205777933829550985e-04
2.505066140187808241e-05
1.706315348054253682e-04
1.088031564193763850e-05
-1.492211307701029168e-04
-4.735256194509002767e-06
1.389307539161389632e-04
-2.356847407365050270e-05
-3.452404228320570141e-05
-4.641850103998877670e-05
-5.895566066918915673e-05
8.094826283830714743e-05
-2.363815068549681515e-04
2.105665261180416595e-04
-5.609894489273776043e-04
1.963416177060054552e-04
3.469687114274990674e-04
4.383727698798779715e-05
2.024674559386326175e-04
5.951499606192258514e-05
-8.062070318139310209e-05
-6.642026679113542567e-05
-2.043036264362417726e-04
1.147934851348858737e-04
-1.784453439783399015e-04
1.356808499042143096e-04
1.409316863624525060e-04
-1.630514645172690725e-04
-1.329409259422097347e-05
-1.970858254718689610e-05
-2.888638257682490633e-05
-1.922720797960266435e-04
1.018570479028808645e-04
-6.055317608746232081e-05
-6.772284160303307246e-05
2.341665805287606770e-04
8.306767944333381243e-05
-6.281292665850189282e-05
2.542172549248407809e-04
-3.455329169080724287e-05
-1.672626801228536237e-04
1.597981263194748764e-04
-2.758010900102658399e-04
3.551592349060340428e-04
-2.379186071640512355e-04
3.848130175541663082e-04
-3.718224832741720423e-04
8.549516895266847261e-05
-2.269491911632999504e-04
-2.404758350451139521e-04
4.608336454403684263e-05
2.404329253123208021e-05
-1.520109784764687706e-04
2.829785137426799892e-04
-4.226346578572494350e-05
2.472575550709109143e-04
8.464884604597919899e-05
-7.169235537041754531e-05
2.360047815631829862e-04
-6.096168651798953902e-05
-2.007397978694064930e-04
1.203955492055036949e-04
-1.673220752318037459e-04
1.551275337976392495e-04
-2.871020287067749840e-04
3.357539687357684105e-04
-1.134517107095880456e-04
-1.093131461626321702e-04
-2.621843434645802860e-04
-1.138568563137535504e-04
1.838978393529399670e-04
2.179539430627177733e-05
-1.412311499375118050e-04
4.588765633570598295e-04
1.445876917648164126e-04
-1.679105318436980524e-04
-2.051451365835479674e-05
-1.761401676245420451e-04
2.804879889777435573e-04
-2.438169845115907390e-05
-2.322073322769372487e-05
-1.744157158774149404e-04
-1.733634225769851772e-04
2.846618117371533152e-04
-1.739086727182266806e-04
1.293131844175512035e-04
-2.625017081194699209e-05
-1.825177133262030518e-04
2.713428025602296909e-04
-1.899463393290953676e-04
-3.983956048088978388e-05
1.119794925486593360e-04
-3.906547363410882049e-05
-3.474996686890448111e-05
-1.799925276237423252e-04
2.881470772139342390e-04
-3.910603702557625897e-06
3.165447358792452181e-04
2.797169314105305200e-05
-2.603004192144330086e-04
-9.161116265343832645e-05
7.520568441345311253e-05
-3.711333525331592933e-04
3.997137577762258824e-04
-2.066901693238525615e-04
-5.426804825174551787e-05
9.417109736639409849e-05
8.642784904724671192e-05
7.569753136444566611e-05
-8.982757838841109164e-05
-1.040686709407744764e-04
3.394637244005122847e-05
-1.325645376913335961e-04
1.602635172006320740e-04
-1.548829803623588783e-04
2.959028012457447883e-04
-1.287570917455438376e-05
1.396081801588888607e-04
-3.148958328137124014e-04
-3.468151208668229087e-06
5.204845777685435211e-06
1.557178963866329163e-05
3.319736188288075884e-04
-2.671807073916489467e-04
2.008727756908017898e-04
-2.483107455645324336e-04
-2.421022797584607080e-04
3.716156765797342396e-04
6.671893353000225000e-05
-2.412699222897875207e-04
5.823620449691437300e-05
5.017056421502864990e-05
-1.122249578547694204e-04
2.961162467921086357e-05
-1.337940976682705930e-04
8.786783723539287900e-06
3.824546599271500876e-07
2.993801408036527237e-04
-9.359326266621092520e-06
-1.019482649131897975e-05
-8.466686385294316662e-06
-4.587194907201892152e-06
8.420733012267083476e-07
1.596952068743414234e-04
-2.917075779717197368e-04
1.924172217273963288e-05
-1.287143146250981248e-04
1.795766520105311810e-04
2.841793548404475704e-05
2.820110683894738740e-05
-2.786040009620886489e-04
1.765109724261275522e-04
-2.844196613187663521e-04
1.702007849640525697e-04
1.675888526872207536e-04
1.332176963970449484e-05
1.654036697967653893e-04
-1.390542018667234787e-04
-1.372521907624456414e-04
1.791394574097920569e-05
1.734184024435390774e-04
2.356520770289240375e-05
2.556979326904095532e-05
-4.314387662360886556e-04
1.779810090306813565e-04
1.750488328427760487e-04
1.736645382432266098e-05
-1.424739597795586748e-04
8.774550931423401921e-07
-1.625952910708641319e-04
1.305218397633366742e-04
1.178666513862454250e-04
1.052490218728968126e-04
-2.118653549704251158e-04
-2.225258892718591410e-04
7.377346137739967773e-05
6.704303968676578402e-05
2.152183187083378903e-04
6.048853411106122700e-05
6.035252320920455937e-05
2.143654506852196110e-04
-2.409660670431566809e-04
-2.380993710806016833e-04
-8.271202372470872464e-05
-8.034329942353259871e-05
7.398939389467964925e-05
-7.750561796844793595e-05
2.282150562124846008e-04
7.581342699308494712e-05
7.587129437641693900e-05
-7.654762988485430133e-05
-7.603401288643764193e-05
7.763738774428440926e-05
-2.256649111241547064e-04
8.239100295124252634e-05
8.648766184350244819e-05
9.199547241014546946e-05
-5.350492311046687200e-05
-4.470650807052523528e-05
-1.867038269691625324e-04
-2.171971522661115856e-05
1.449908445018680187e-04
8.050879990895274771e-06
2.487537597919716904e-05
4.236864801793228128e-05
5.987427339949112588e-05
-7.596369935075163030e-05
3.969785610244988636e-04
-4.795328604233043985e-05
-1.906888031446416409e-04
-3.367925097152874307e-04
-2.856771332563007651e-05
-2.866548020375311531e-05
1.213002070864408713e-04
-1.881396338791184203e-04
1.121599180564605592e-04
-4.487435055695262489e-05
1.046144737274614045e-04
2.561246613661935165e-04
1.048292462195511178e-04
-4.410324942696024078e-05
-3.842343036679541799e-05
-3.131462453129696313e-05
1.290680189164785231e-04
-1.580329922960801848e-05
-1.614127842901187085e-04
-3.082110786617398490e-04
-1.511964397601973670e-04
3.097505116831331140e-04
-1.456955868777197818e-04
1.614921396643087959e-04
1.125372364373276633e-05
1.456252393480415753e-05
-1.332522939735088295e-04
1.784724101923136771e-04
1.868651779558968792e-04
-1.082678284316265739e-04
5.557363452936597874e-05
6.740194035729264461e-05
-2.261318464026508145e-04
-6.289171170909877806e-05
9.859294657533300269e-05
1.050734577402390386e-04
-3.491332954163545253e-04
1.089373054447666245e-04
1.058550972475137615e-04
-2.057564083322664368e-04
3.949908715692458227e-04
-7.524190189709222660e-05
-9.018254594492374778e-05
-1.071377989985308993e-04
2.697558814275444726e-05
7.486650046312713648e-06
-1.253707960901430706e-05
-3.267934114693567558e-05
9.996367150774004319e-05
-7.218597114234462917e-05
2.138499584307713302e-04
-1.101508172687058973e-04
2.369571207423338844e-05
4.723829680897877448e-06
1.377690104233882692e-04
-1.878206782675664887e-04
9.587727617339512399e-05
-2.318649426776311874e-04
2.024309548110858256e-04
2.589342564840713994e-05
-3.030700178046946865e-04
-2.068983159061030177e-05
-4.154576732385793905e-05
9.309539657041107424e-05
7.893775868242052375e-05
6.924849086169154234e-05
6.441445396320564652e-05
2.170603861478456991e-04
-8.349319228681829886e-05
-2.275587392783831044e-04
8.910437326529595681e-05
1.024401355189030809e-04
-3.615829858300268461e-05
-2.268007600587758967e-05
-1.074318700425390975e-05
-1.149608346585271779e-06
-1.469890912361203686e-04
1.619300566394701489e-04
-2.949081297626523135e-04
-2.963017321108996896e-04
3.110729332884836244e-04
1.547925799288159656e-04
-1.321505481802991732e-06
1.486942155742380900e-04
1.476904581693775362e-04
-1.565198801561106564e-04
1.517764623029281492e-04
-1.481236516712429875e-04
-2.934219203920070563e-04
-1.317678446548666124e-04
3.365381889936174095e-04
4.303622798242656981e-05
5.546281909132373027e-05
6.824110726309960619e-05
-2.242102615367459241e-04
-2.119279195348663469e-04
2.573246141631209860e-04
2.677176378956684145e-04
-1.809968085455479784e-04
-3.260722635542873940e-04
-1.506399184248167032e-05
1.415688886938981314e-04
-8.856266002283313398e-06
2.964952577438307538e-04
-1.061597514223514261e-05
1.377961304536663224e-04
-1.738890867607834415e-04
-1.827305147149499225e-04
2.640188021285553958e-04
-3.591546970698613435e-04
-6.801508054572990821e-05
2.227182253340303565e-04
-4.015098806469333953e-04
3.491736717673315799e-04
3.439747807923236014e-05
-1.242284987477216879e-04
1.791512489316141250e-04
2.938392315619516373e-05
3.684115357203869361e-05
-2.565922531910885232e-04
6.390262109735156794e-05
2.343651571121427367e-04
1.009458052652804856e-04
-3.258173574130744931e-05
-1.504731355283540906e-05
-3.328934780587854384e-07
-2.946478411905073189e-04
1.694644441638185474e-04
-1.340843599103183170e-04
-4.420932069310374744e-04
1.616623606048862816e-04
1.523476980875478613e-04
1.415796274493787978e-04
2.832919244258290392e-04
-1.841587737164664595e-04
-3.892756994090210577e-05
1.095469445485475831e-04
-1.958637992100370224e-04
-3.930650972386224597e-05
-1.837235327831971473e-04
2.860706443167097173e-04
1.486954506329847699e-04
1.351480941427756447e-05
3.187473346379616850e-05
-1.028081003905827374e-04
-8.681635393610557931e-05
7.846958136828184106e-05
8.670202390226428002e-05
2.422146643381702590e-04
-5.235174505372493627e-04
2.310064955840005852e-04
-5.453460337022539252e-04
4.771853257658207107e-05
1.806718263889639379e-04
7.880260939996773590e-06
-1.104647966000357400e-05
1.256123305228569031e-04
1.141006574399107886e-04
1.079870291322729910e-04
-4.486118951773070823e-05
1.132218870951712654e-04
-2.873659115705098829e-05
-1.403945942359887250e-05
-3.018483874613713241e-04
1.743561802711222442e-04
3.962988241111395523e-05
5.533798579300600447e-05
2.201138001907733952e-04
-2.300268110977164531e-04
-3.801881819952851612e-04
-7.794776883418398443e-05
2.192345051652661806e-04
-9.827143009421488969e-05
3.869247443234138278e-05
1.736027014633296649e-04
2.588639435773761725e-06
-1.534006500913979380e-05
-3.168890275872154926e-05
1.069709346055381169e-04
-5.657332856038837089e-05
8.827248871499487589e-05
8.369056739069728528e-05
-7.063136885594003590e-05
-7.002786456418148928e-05
-6.772243808569907808e-05
-6.440077086634363797e-05
2.444464379796437064e-04
-2.098847091183297280e-04
9.802043916320951438e-05
-5.284703625492065990e-05
-5.226249522017238034e-05
9.983157136312125802e-05
-5.409615261763361038e-05
-5.589869847328165337e-05
-5.766643208625780504e-05
9.375299962520492424e-05
9.376111923977878924e-05
-5.710726408015621459e-05
9.935299387089384826e-05
-1.994922875688136038e-04
-3.798111724698658218e-05
1.260600767088290632e-04
-1.282291885033468819e-05
2.633666748425719137e-06
1.717209105777503704e-04
3.579261438375048424e-05
-1.009719122671742027e-04
6.557296579521218450e-05
7.669204169322540033e-05
-3.736111077485181542e-04
-6.522384119988357623e-05
2.386093332759217579e-04
8.013099632639029361e-05
-2.351675445345758708e-04
5.625311681170645794e-05
3.970679950963898355e-05
2.139333717899286638e-05
2.450210009530914800e-06
-1.594739464975686581e-05
-3.266420493498687223e-05
-1.992689999665598363e-04
2.480092202707974143e-04
8.905032951979619763e-05
-6.550207859683114845e-05
2.421010541927947203e-04
-5.656155657850262225e-05
-1.991043288526258182e-04
-3.367787985915494497e-05
1.336893436956758017e-04
-3.082545090253391252e-04
1.654773465582354253e-04
1.807532778548195517e-04
-1.105949505043728198e-04
5.372647770497072104e-05
-2.423244579715342370e-04
6.899709222172997140e-05
7.194166883917312710e-05
7.160652360690550604e-05
6.804760056234317688e-05
-2.437291389477178169e-04
2.046930973315702531e-04
4.044056137124922177e-05
-1.256065846360702716e-04
1.649480082796183852e-04
-3.078759490326259118e-04
-1.741218632908256346e-05
-3.096555071184237942e-05
1.100037885574017057e-04
2.535833427350688831e-04
-2.100685294697501567e-04
-5.995647421140832059e-05
9.360909088307457586e-05
9.781811412077529337e-05
-4.780448679667014477e-05
1.138115051909038925e-04
-2.853879917883895439e-05
-1.802634642347651707e-05
1.444239268186057448e-04
-1.523621318267767515e-04
-2.986716962707864969e-04
1.027304421768226337e-05
1.139734053512459208e-05
9.988585142918241376e-06
1.589467497149042318e-04
1.535451542082145516e-04
-1.582839873222563433e-04
-1.306860784240352902e-05
-2.066229579313191419e-05
1.245378240737457965e-04
-1.874899798893281736e-04
1.115858080664676038e-04
1.063356177966149225e-04
-5.066559603858140947e-05
-5.434441561009633963e-05
9.514095606805403099e-05
-6.014475925732056769e-05
9.001147910088879290e-05
8.778571566001515012e-05
-3.719424875401701794e-04
-6.827732613494646562e-05
2.361701552680294555e-04
-6.851578415379970424e-05
-6.631632478110880628e-05
9.066044162591011988e-05
-2.075431288324846126e-04
1.074235061753540639e-04
2.726356252787662856e-04
1.352590766737734641e-04
-4.692676044694243721e-08
-4.392202131343857772e-04
3.748730935004441632e-05
2.082924790508685307e-04
-8.052391468230620289e-05
8.545942468026513923e-05
9.489078394698536570e-05
-5.303939652845752827e-05
-5.368970286445962770e-05
9.275681510121707655e-05
-7.123877990400372150e-05
-3.924313159192632404e-04
4.577872367288806114e-05
1.766969743738015634e-04
-1.506074028951906831e-04
-1.886131605260079575e-05
1.158406231855089362e-04
1.023384510215470227e-04
-5.832584969727935571e-05
9.215931074313957671e-05
2.486139155112248407e-04
-4.728209398209115132e-05
1.189497256657159012e-04
-1.696466183818760550e-04
-1.517890160690186943e-04
1.821775048465031446e-05
1.861764293394021119e-04
-2.596170752952194592e-04
5.315338734832131631e-05
5.586003816892248753e-05
5.367074568542399817e-05
-4.106860114260763982e-04
-1.155691475694785325e-04
1.773621287940711116e-04
1.182154466249955614e-05
-3.337792602100974475e-07
2.948499839876683325e-04
1.355189705375060740e-04
-1.985111366482062161e-05
1.342190411840418372e-04
-1.270507289776139110e-05
-3.084385304862696754e-04
-1.432619636555072752e-04
1.768808324361377624e-04
-1.117741511547608855e-04
5.806451619960356126e-05
-7.733051042299864683e-05
-6.093087705176738090e-05
1.065839415215949607e-04
1.194110054085935482e-04
-2.302686065890822932e-05
-1.686626081026694349e-04
2.924104797864238072e-04
1.391546603096677052e-04
-1.825573903724650058e-05
-1.797864873992841299e-04
-1.925557463022628155e-04
-2.085734363404454211e-04
-7.440589387650382500e-05
2.109968579974318343e-04
3.843334220431138574e-05
-1.332089920571388601e-04
1.548050906542882408e-04
2.928396304058973306e-04
1.287025150828371566e-04
-3.236702675076230098e-05
-3.800987182049580897e-05
-1.938413505081309997e-04
-1.952341094964219067e-04
1.098418894385682688e-04
1.105473227699237685e-04
-3.460723304913649635e-04
1.130500457458209870e-04
1.145380170566439188e-04
1.161851134751156563e-04
-1.870720221163051122e-04
1.204559353160104850e-04
1.234259138160666042e-04
-2.538664591760179804e-05
-2.062621118952411584e-05
-1.673032796824151065e-04
-1.601000885486030900e-04
1.536722993669356076e-04
1.110593080162312833e-05
2.247929401387653453e-05
3.499476365347163229e-05
4.828675348880710609e-05
6.183501996910494903e-05
2.275780265982062310e-04
-2.181530470916325513e-04
-2.079853504927805456e-04
-4.777674671166457193e-05
4.145060999945340070e-04
-1.948021540063192222e-04
-3.499818749136660609e-04
2.542137009737478379e-04
-6.038727649140574220e-05
-7.258976522051483469e-05
2.182530484144517950e-04
4.995490596982683800e-05
-1.189078133074700553e-04
1.702602858086074797e-04
-1.498393972352914810e-04
-1.629097082740990740e-04
-1.734383287831549054e-04
2.769035082602084989e-04
1.203977692990490712e-04
1.201741961424397382e-04
-1.815693777991198379e-04
-2.215926020402865832e-05
1.401713833050558780e-04
-1.529747365802302703e-04
1.318137148847203667e-05
2.747928333409275896e-05
4.169297406341030706e-05
5.505770861059431330e-05
-8.567899141043557390e-05
-7.586115695644259148e-05
8.416984956628320851e-05
-6.349468659644311056e-05
9.154680370934809128e-05
-3.660097682495851352e-04
9.006891027671764236e-05
8.691791915230211640e-05
8.272983984890514280e-05
2.304592232006908911e-04
-7.998787945948608981e-05
6.704559315022940585e-05
6.122012265965515155e-05
-2.501257791367093820e-04
-1.041707738246051970e-04
-2.639805291424053785e-04
3.384481306585817011e-04
2.455829840160793546e-05
3.201632185226731459e-04
-1.480595094851444484e-04
-6.791426325361580144e-06
-1.714371310173303453e-04
-3.138980287315932719e-05
1.085871939021592443e-04
-5.611003472104707202e-05
-6.701103047429595111e-05
-2.285022822970590760e-04
-8.202706282416418469e-05
2.205241718697218691e-04
2.218825035373183827e-04
-7.775495106332672699e-05
8.438875212628194273e-05
2.500136987252677421e-04
-3.951443802202312728e-05
-2.237234282567216966e-05
1.476163570518501265e-04
-4.462887269984569657e-04
-2.792657336867525775e-04
3.753270057844338109e-05
1.984367861410226363e-04
5.067286947680979021e-05
-1.004976211428558832e-04
5.040018036357270850e-05
4.605082863811054241e-05
1.921679552489088418e-04
3.156893081665039448e-05
2.261299161146097260e-05
-2.918657665927861964e-04
4.255959430149847750e-06
-3.961813801013440191e-06
1.418054492022133512e-04
-3.208784270699440518e-04
1.342701969599954326e-04
1.342220945485642124e-04
1.368205420749001662e-04
-1.064940563945384435e-05
-3.348409663370246994e-06
-2.995663469600960954e-04
1.681324953904144359e-04
2.567032886736352059e-05
3.514408195640921656e-05
-1.094636217452854836e-04
2.014210333257280227e-04
5.162569092284761583e-05
5.106177403295683408e-05
-1.056126903447598638e-04
-2.656473235734861877e-04
-2.759377712240403298e-04
3.221324203360664482e-04
3.807873567812916511e-06
-1.615088473190449644e-04
-1.991263856769676885e-05
1.246234995584314894e-04
-3.212588798824282763e-05
2.733623392355383447e-04
1.257049448709848403e-04
1.349395951636180046e-04
-3.100167054328458534e-04
1.630703350433620818e-04
-1.255207777361934038e-04
-1.089857991558391070e-04
5.885689176222413011e-05
-8.078951914204662724e-05
-7.091044782813285020e-05
8.808016424449195952e-05
-6.164604593984152948e-05
9.052602071878918595e-05
-3.703914111772325869e-04
2.348059681114489838e-04
7.590233395511222726e-05
-8.332682301246722664e-05
6.302954537186466197e-05
2.103520713305233238e-04
-9.879288816596400484e-05
2.038029198265615689e-04
4.990733192735530678e-05
-1.029841453754241437e-04
-4.078014591859375993e-04
2.032329330419652721e-04
5.138099408479111351e-05
-1.005873863943914493e-04
-2.527346512576797931e-04
2.053131915337034661e-04
-9.967210111287168718e-05
5.305866433610830683e-05
3.583036986687961317e-04
5.298721162390901559e-05
-2.527954930479778197e-04
5.095312774011136062e-05
4.830185283790442693e-05
4.403546483619096312e-05
-2.673332406382202572e-04
1.821405732887252358e-04
-1.334028851636843418e-04
6.978194695560264309e-06
1.459877657859980462e-04
-2.086433037031792378e-05
-1.875287264183605877e-04
1.047710094791445644e-04
-5.840869665153055110e-05
-2.182366673511486148e-04
-6.858888166405932053e-05
2.386652567969420747e-04
2.461472128924970882e-04
1.064191698660925449e-04
-2.840092380312981744e-05
-6.619717981869365204e-06
-2.872509854308549337e-04
1.963204470523209882e-04
6.918051873322977668e-05
9.265851873910404624e-05
-1.924715878808459129e-04
-2.446166044996252328e-05
-3.196612185743209701e-04
-1.034844721505698388e-05
4.457621208588631112e-04
-1.715708265256114741e-04
-3.356581546185683461e-04
4.123342736558707907e-04
-2.151849682628294714e-04
-8.071344461283889386e-05
2.066048551465662052e-04
1.900531318211794380e-04
-1.295546503888052987e-04
1.638500017015582448e-04
2.414766601383060507e-06
-1.560880864799448961e-04
-3.118617674773364315e-04
2.976666499109146690e-04
-1.590424048790283070e-04
1.485012893586723514e-04
1.515746217453737687e-04
-1.504347494276072825e-04
4.840172752938429596e-06
1.591509257136449731e-04
-1.456177678317652224e-04
-1.467091075148658195e-04
3.293503103374101661e-06
-1.531876837152010686e-04
1.471227599436201496e-04
1.417192233733695816e-04
-1.689290196374760612e-04
1.311497831770786914e-04
2.793879685894926014e-04
-1.817077345369163177e-04
-3.127356157738728437e-05
-1.847784083360788697e-04
-3.189971341890292006e-05
2.746719326250165343e-04
-1.807575157207404496e-04
1.274678063056972359e-04
-3.268013088005635065e-04
2.871850478389225162e-04
1.380514073863105685e-04
-1.157216867330051131e-05
1.432310960638431439e-04
-1.606385654361750437e-04
-3.128435010903092605e-04
-8.043553408983792266e-06
-8.833659489161783845e-06
-9.547845417615982887e-06
1.429714631838868179e-04
-8.475198028023664217e-06
-5.653232616677502776e-06
1.517387847267631467e-04
6.015177525497992821e-06
1.476885451674228115e-05
-1.275905303655855861e-04
3.607491264148182409e-05
1.998073536969554383e-04
-9.502350601582687051e-05
-2.389344667703448689e-04
3.776431678246830676e-04
-2.295470119010805201e-04
7.535243657908762579e-05
-2.336172052427965093e-04
6.448624895356722597e-05
-9.790136128759623145e-05
4.298172020772833546e-05
1.829828336291730335e-04
-1.345291905771818421e-04
-1.454756499365757216e-04
1.511842637012219181e-04
-6.646566265511529916e-06
1.445290125421443638e-04
-5.429937458999296039e-06
1.073455169718797113e-06
-1.416750160894365200e-04
3.283954773174119299e-04
-1.157191185305856773e-04
5.057928266954371478e-05
-2.421406497944175826e-04
2.256018194407667036e-04
7.951191800773717440e-05
-2.233229029194149634e-04
7.976972162073669135e-05
-3.843167673217183695e-04
6.351240480938661150e-05
-1.016148752993116077e-04
-1.154917510162015485e-04
3.284280276888276512e-04
1.074118709881924875e-05
3.058056311979004556e-04
-6.373803032575740846e-06
-3.151700017225253134e-04
1.421829506471050100e-04
2.969827663407892176e-04
-3.094546475597286807e-04
3.053762828382946670e-04
4.035007548689887342e-06
-1.464905523487546404e-04
-1.470960173905308988e-04
-3.035014490981164086e-04
-5.478816620417749558e-06
-1.566404800588807407e-05
-2.820714298904818991e-05
2.630074363852337189e-04
-5.647360445348655771e-05
2.351288134040166705e-04
7.066496283720079675e-05
-9.132545429107490260e-05
-9.770999047654054361e-05
5.181484126498076210e-05
5.214940009181065922e-05
-9.682965625443420825e-05
6.235312854374942012e-05
-2.336595875801241438e-04
-6.985741182033437704e-05
2.479913373215935409e-04
-4.370221898232358291e-05
2.750798210785822544e-04
-1.696430282249582883e-04
-5.227824761149726291e-06
1.574235008622782339e-04
-1.398475531494474072e-04
-2.868812425732449717e-04
2.153449681470236132e-05
-1.298695669200349370e-04
3.274624074931268506e-04
-1.317901076140454793e-04
1.714398131801498000e-04
-1.355697999770233073e-04
1.683628989398751731e-04
-1.371169673187463229e-04
1.688923995118576731e-04
1.832644156186256825e-05
-1.311287112252384752e-04
-1.270578294572318487e-04
3.354868006163209265e-04
-1.170296009460632369e-04
-1.115411531823151344e-04
-2.585822979964161566e-04
5.206498924043771563e-05
5.736454377346718748e-05
2.149922868579296127e-04
6.707422367535954030e-05
7.121948223798364621e-05
-3.831255370943665423e-04
3.822718689059319600e-04
-7.423205778766842565e-05
-7.437662276960246941e-05
-2.286538480308502621e-04
7.323988741705239353e-05
6.842394342373189602e-05
2.148284947004792001e-04
-9.763212835288415103e-05
-1.056662561278834975e-04
-2.666163449709995303e-04
3.355106091343319687e-04
2.272443019321725231e-05
-1.364115372419252284e-04
1.107052720878464023e-05
7.683602001200766674e-06
1.587491565471882112e-04
-1.460873967617796663e-04
8.544282976864234233e-06
1.199034846747072665e-05
1.690019152295519256e-04
2.130521441043532933e-05
2.611822956532675955e-05
-1.222579530499986122e-04
-2.716790587730109115e-04
3.529794977658124648e-05
3.555611415540662723e-05
3.423139105028775753e-05
1.839846656033794253e-04
-1.253832917558678802e-04
2.185444092375624100e-05
1.556844248837167198e-05
8.576290071091833230e-06
3.062859814206331287e-04
-3.117668088453909433e-04
-1.427253705164537301e-05
-1.742437805484471169e-04
-2.844209191176813687e-05
1.182581071535676132e-04
2.661301541469522029e-04
-3.475534585445040278e-04
2.609743653434784235e-04
1.080962923751956583e-04
-4.331769150350936633e-05
-4.082493749480487790e-05
-3.423833442920492208e-04
1.199038618181580098e-04
-2.748296739538934601e-05
1.307459341934467305e-04
1.365742284372701415e-04
-1.628581704369841247e-04
1.476887856615582582e-04
-1.870040170504028348e-07
-1.489840300347078025e-04
6.263967210262466643e-06
7.662186399311689904e-06
1.603525897973215764e-04
-2.985310003608233963e-04
1.570707066551112565e-04
1.541442398558184683e-04
-3.069555018577251678e-04
1.474655913739756664e-04
-3.132337810188832485e-04
1.423798638669425659e-04
4.464891999917081989e-04
-1.636656904968380782e-04
-9.574622373860539246e-06
-6.850633061314573287e-06
-1.556800537898866889e-04
3.066306171663180612e-04
-2.986465609487662918e-04
-1.406927593861584619e-04
1.699608599821307066e-04
1.754459033364235245e-04
2.832772648335132924e-05
-2.713350450782677685e-04
3.952788744354076200e-05
-2.596038533779434121e-04
3.573483921993280896e-04
5.949933612346804877e-05
-3.901244864275445049e-04
2.291378398340216608e-04
-6.656158779175075336e-05
4.008625301528994300e-04
-4.759820571653540044e-05
1.132847071267909818e-04
-3.269057608269153325e-05
-2.835376208245855124e-05
-4.844650881494876049e-04
-2.788154282049005398e-05
-3.369309784023032280e-04
1.146582436136137507e-04
4.119208592435052042e-04
2.503016430969776628e-04
8.813834088288650904e-05
-7.411416543010504172e-05
-8.356262511375228989e-05
-2.452218350479497895e-04
-1.012871983924183055e-04
1.956022319647490466e-04
3.497571383169765304e-05
1.796071038442104693e-04
-2.862181974182750627e-04
1.632012562065370497e-04
1.855886555797584356e-06
1.452274956155043359e-04
-1.695493256105516904e-04
-1.793175580140804091e-04
-3.629905789847714958e-05
-4.517677439115902872e-05
-5.279350195878069416e-05
3.991876088728244041e-04
-3.672049123937507105e-04
3.949531227108566377e-04
-6.078726429340129103e-05
-5.606412149998957770e-05
-4.898357166351000188e-05
1.124885752081633653e-04
-1.827175354273765002e-04
1.326915410102759874e-04
1.423340612261302953e-04
-2.012293752220317485e-06
-3.010357929458175753e-04
1.602953815521779778e-04
8.441061211776493275e-06
-2.988106756586054471e-04
