-1.005094004393023051e-05
-4.615801637678725359e-04
1.536369608816950570e-04
-6.061065906224642665e-04
7.685865139646524437e-04
5.271655979776064658e-06
3.228031602891864200e-06
-3.205499685285120686e-07
1.474122341609027218e-04
-1.110205668843769960e-05
-1.704016306399044032e-04
-3.301362517074009871e-04
2.730466579801544527e-04
-8.018095824181850845e-04
8.707778162467531185e-04
1.031733877121940790e-04
9.993698235168438620e-05
-5.441164074878941957e-05
-5.480621725445189272e-05
-5.405732350226636463e-05
-5.244038614505984230e-05
-2.028123390246228781e-04
1.049585892194677663e-04
-5.025712566316444798e-04
7.210869176974062534e-04
-1.914113382367015330e-04
1.168130578064586025e-04
-3.277545425869689185e-05
1.226781425898898535e-04
-2.726211239031849169e-05
-2.489052085271445429e-05
-3.279755500149455247e-04
1.316614480018574933e-04
-4.769093080174429560e-04
4.404613774181264383e-04
1.373283122637758826e-04
1.396403901073670214e-04
-1.039278688549918152e-05
-7.717518253133469786e-06
-5.105634679141780602e-06
3.024292674166579914e-04
-6.111224221035477201e-04
8.028456520052668207e-07
-6.082582509178593826e-04
7.662812334026371198e-04
1.574491309614697940e-04
-1.456201244314628057e-04
9.916616941314161551e-06
1.385787053765983451e-05
1.881506424610650738e-05
2.468384507593709206e-05
-1.213417800275164035e-04
3.433706684201681333e-04
-1.022950465439207476e-03
9.672905978687966694e-04
5.760151649403692445e-05
-9.026009311734822999e-05
-2.395088830276284868e-04
-8.512568471613937390e-05
6.770884636839986741e-05
6.656617230877944023e-05
-2.408316179556460167e-04
2.140527492187192132e-04
-8.571236134935017676e-04
9.711469380836015635e-04
3.586637920823735454e-04
-1.003291354939817921e-04
-1.005336563481002945e-04
-9.967820114417819414e-05
-2.503385572638104693e-04
-9.470133924797191833e-05
-9.040891067896804616e-05
2.204904251254567542e-04
-6.876702184327685438e-04
6.947982160032771656e-04
4.006597747739369967e-04
-4.433090146494546709e-05
-3.013607070204013327e-05
-3.201697533975239227e-04
1.531102766927922162e-04
-1.367714090174009444e-04
-1.222516109503586960e-04
1.962105773112815098e-04
-5.550185703774060094e-04
5.230036532172283210e-04
7.321327046977504059e-05
-7.339373878407235026e-05
8.317579111647529675e-05
-6.739224297682941975e-05
8.533982871769813362e-05
8.375398068703690405e-05
-3.771108456620461398e-04
-7.626863105609423010e-05
-5.392664601600366450e-04
9.808197935313256802e-04
2.118347398165083936e-04
-9.940458167744937025e-05
-1.053249737681367053e-04
-1.109864836972771618e-04
-1.162743588236921322e-04
-1.210378880805083429e-04
-2.776678974891643630e-04
4.821690690079806019e-04
-8.931035839732362133e-04
9.371568353204862535e-04
2.189892276508281608e-05
1.754583463021836790e-04
1.765339472329070325e-04
-1.282379666409755553e-04
-2.819417366279192150e-04
1.980564099306472231e-05
-1.391420577100683630e-04
-1.487952662267410251e-04
-7.721681077566682231e-04
8.900963484113403029e-04
2.607406116829811497e-04
8.683149412068987634e-05
-8.887818389231504307e-05
-2.658830263802764511e-04
1.666512212650697979e-04
1.410778546943857999e-04
-1.895444168211212789e-04
2.433873124999085110e-04
-1.001025317971820754e-03
5.027775477118028198e-04
1.776317821373281369e-04
7.555526079662972017e-06
-7.230017287341333893e-06
4.384819211294891501e-04
-2.876020370874557349e-05
-1.885701660779988116e-04
-3.465353269365200944e-04
1.072588849802618246e-04
-5.060598992633037968e-04
7.123373046394795025e-04
1.000768989879071964e-04
-5.420708956175754426e-05
-2.083768268942033360e-04
-5.725826096637859954e-05
9.407646492015907811e-05
9.324531007858774447e-05
-3.646399024026748185e-04
2.466299358732787213e-04
-6.666232045611943493e-04
7.105307363468410476e-04
1.057104225158746663e-04
-3.980360121035084983e-05
1.210536953577775104e-04
1.299795827938000730e-04
-1.662733268953553608e-04
-5.445857694892978431e-06
-3.036591825223065280e-04
6.787038487046471559e-06
-6.001624501661686692e-04
9.273311823962355821e-04
1.645410403114081377e-04
-2.940124028460394212e-04
-2.950532825863171212e-04
1.622217972146266878e-04
1.056043268617415921e-05
-2.914225621404099614e-04
3.251431329128013302e-04
1.823603402810503623e-04
-7.194702232391652665e-04
5.187866716305648872e-04
2.346120584918209612e-04
-4.690168320106888978e-05
1.308907129224686882e-04
3.694839428877837901e-06
2.782047783957456409e-05
-1.032995122446285383e-04
-3.908335212093361514e-04
2.325210290165908255e-04
-8.276045063367888080e-04
7.013340975366664240e-04
-6.297557478174334560e-05
2.372314305290609078e-04
-7.545613204768790579e-05
6.824762486308981805e-05
-9.341235050262622385e-05
-1.015672843262910795e-04
-4.130435757111197638e-04
4.987207083933484523e-04
-4.176835680788816975e-04
6.523945649944978440e-04
4.638253558899916017e-05
2.048409984709868229e-04
-9.406262330410988587e-05
6.393986089038211965e-05
-3.904703774182891334e-04
-8.496866861963202203e-05
-3.934326975874026478e-04
5.729750068606815060e-05
-2.583342334195885999e-04
6.440195372050676629e-04
1.874660555208828373e-05
1.557696705686632517e-04
-1.190354164200618049e-05
-2.545483151667978140e-05
-1.891329420608280868e-04
-4.441647103855266872e-05
-3.536941151823157171e-04
4.092147886148646296e-04
-5.022646819501326359e-04
7.262389596584575531e-04
1.267692054312154605e-04
1.397466304392341559e-04
-1.515714521501587339e-04
-1.381471767829652779e-04
-2.790011147723056128e-04
3.516681600272147679e-05
-2.644892089131538337e-04
6.527428281887225634e-04
-8.751854817734659600e-04
6.453243674396639444e-04
-2.781509165712310887e-04
1.700391503666840321e-04
-1.452795609937154058e-04
-2.358114417682359173e-06
1.419671907529336627e-04
1.358248452860364439e-04
-1.729354665695884488e-04
2.839243679254098798e-04
-6.300191588616296887e-04
7.468664578326888624e-04
-1.116568071130190001e-05
-1.583626008769716323e-04
-7.486328289883555131e-07
3.163609155093830018e-06
-2.997565507629979063e-04
-1.468332033238075468e-04
-1.483781971294501957e-04
4.588602292821314832e-04
-6.134298906304200792e-04
4.500403789432845959e-04
1.403107750546852704e-04
1.362808634415289312e-04
1.330205771252371911e-04
1.305825286712071986e-04
-2.371536417803106689e-05
-1.774421441362896139e-04
-3.307216255251995839e-04
-1.783921210803416171e-04
-4.832670145469484505e-04
4.333583033456924307e-04
1.303479394016429855e-04
4.389571867314246128e-04
-1.406267601849959706e-05
1.444193880799687826e-04
-1.471919956790493935e-06
-1.470300245196234804e-04
-1.401587992362246017e-04
1.873058356068199403e-05
-7.387269880775253856e-04
6.391764305279588583e-04
-2.724680901217108151e-04
3.413143991358349029e-04
-2.657192099723490594e-04
3.481554809969381373e-04
-1.056550178859106656e-04
5.139383782335394844e-05
-9.632628674885869262e-05
-9.134209327604082926e-05
-3.918903785457617840e-04
8.324497025254389438e-04
-2.337725795698813015e-04
3.759230117513844374e-04
-8.580187601824454445e-05
-2.462388899284449783e-04
-1.056677203805069589e-04
-1.217241148671635261e-04
-2.938202005186954817e-04
-1.057460610396552370e-05
-3.387228493037085383e-04
8.595413886199652171e-04
-5.340718993935344777e-04
5.172384324136407524e-04
4.724884378306995724e-05
4.022403122289509842e-05
3.855046981305504540e-05
4.194055511241380799e-05
-1.028300942722566979e-04
6.114071371419143978e-05
-5.352130900217384225e-04
3.960110639748542095e-04
-3.503182682152059207e-04
2.769569437019720587e-04
-1.639674956479419033e-04
5.159751485238759328e-06
-1.312689854230712175e-04
3.708588272829781439e-05
2.050297172131109954e-04
2.198792957910297718e-04
-3.763497347066250718e-04
5.522101948001470690e-04
-3.518605111657456454e-04
1.152264798979929646e-04
-3.072464681604156320e-05
-2.723654502174243007e-05
-2.718308374351678395e-05
-3.060392853046898278e-05
-3.724826329393248690e-05
1.060221257950459656e-04
-8.206787473278907927e-04
3.880016957689753801e-04
-8.155367370257131984e-05
5.182519706818403083e-04
2.045935367469904793e-04
4.611166274788310282e-05
-1.095866675478718966e-04
-1.100311685343655446e-04
-2.607695052714473455e-04
2.005865576897464546e-04
-5.576768808894472197e-04
6.680752289802506299e-04
-3.953391082947235887e-04
3.712542994936767187e-04
6.804281777707564061e-05
-2.374028414610857615e-04
6.487302457174105885e-05
2.117365667716263424e-04
-2.545234397276118421e-04
3.971046608157088458e-05
-7.360178446194270757e-04
6.234685126019997616e-04
-1.533055246503824750e-04
2.916288710844925627e-04
-1.769872179475897494e-04
1.201198278130609446e-04
-3.718668050815123952e-05
2.669030956818718519e-04
-1.883247166342506883e-04
2.753157436708393623e-04
-6.314964766085261368e-04
4.475105734875071874e-04
-4.557045968968471343e-04
3.201741497048454180e-04
1.803721375861498438e-04
-1.128941390601167274e-04
-1.024825858428209905e-04
2.111286550982015308e-04
-2.404758857974619414e-04
6.847894096077021596e-05
-6.929739237248302899e-04
6.797571884904471179e-04
-2.380300288911459821e-04
3.687393805025001485e-04
5.900626067848165280e-05
5.375274377602951139e-05
-2.571681858060184136e-04
4.192106919388318131e-05
1.882115465933214985e-04
-2.759146288641631511e-04
-4.347449929097030080e-04
6.274772505511142353e-04
-4.459240309896174968e-04
3.125895909539272845e-04
1.566485813646611460e-04
1.923134366840390301e-06
-1.515271401264466750e-04
1.451885289613631030e-06
3.004952077830491811e-06
5.570403802271205641e-06
-6.014051654544121670e-04
6.232269699216267918e-04
-1.355527130381904959e-04
3.262101301109009035e-04
2.442633703550809696e-05
2.675030379601048980e-05
-1.249907684795227819e-04
-1.259010919892260911e-04
-1.286509765334833456e-04
1.950149538689950618e-05
-7.491736471012009702e-04
6.176446308370945682e-04
1.533205283855247896e-04
2.998881863217929544e-04
-1.628437601982826862e-04
1.387517738738236115e-04
-1.684729964145445112e-04
-1.643345653225597225e-05
1.369443932537387182e-04
-1.375775181092455098e-05
-7.739897040735983520e-04
7.551489035972761867e-04
-3.094014250093644002e-04
3.045984490005481673e-04
-1.496343119251185175e-04
-1.464030932539957535e-04
1.615439658348388589e-04
3.163156092099337572e-04
-1.399287075193300894e-04
1.351181676219605720e-05
-7.491471331036999659e-04
6.240521035136129858e-04
-4.442385201832836118e-04
3.187772126440082104e-04
1.668411137987545559e-04
-1.368535458096653264e-04
-1.344047912557769058e-04
3.267738893954731595e-04
1.784265511115741575e-04
-1.219385555388956987e-04
-5.746474485110209278e-04
4.984226864486023803e-04
-4.125640808475415275e-04
3.542501026181588348e-04
-1.004748816830705339e-04
2.068222608418017504e-04
-2.497290272522037155e-04
-9.674551683982653431e-05
5.558205515151222687e-05
2.074554206554548306e-04
-5.564496683771526534e-04
5.106066487070975166e-04
-2.534185968510620549e-04
3.557592978805802623e-04
-1.034694182039301124e-04
4.703029215330905432e-05
1.964930998427238007e-04
-1.132665343286496951e-04
3.293948845177109309e-05
2.459411703027693729e-05
-9.011626382220784331e-04
4.603703684387325788e-04
-3.152462161750957653e-04
4.348876743711274206e-04
2.702322710998452879e-04
-4.544226012244289599e-05
-3.588482158793360449e-04
2.460427397654346465e-04
9.102548747576873905e-05
-6.095478096502904801e-05
-5.153197200075750224e-04
7.110987452594464547e-04
-3.496473458771315909e-04
4.215228979933109709e-04
-2.799022194934613748e-05
-1.731018341094694502e-04
-1.670418029734802305e-04
-1.020762643240583854e-05
-7.866923457134235959e-06
-1.597898774785353599e-04
-4.654595851091761064e-04
6.017253613386538795e-04
-1.617676922274155504e-04
4.491846017995568437e-04
-6.192298610276930462e-06
-1.608434915072293890e-06
-1.472565044475289289e-04
-1.380483378232516762e-04
2.571136012053895794e-05
1.909525069550767513e-04
-5.584703232188423542e-04
6.758999417371089639e-04
-3.791631120906549697e-04
3.954421803120417999e-04
-2.053528061906704637e-04
1.066570361154554398e-04
-1.948491769873696969e-04
-1.945635498977994423e-04
2.601345750948433019e-04
-5.117223191459040714e-05
-5.176234385272706360e-04
5.399238354976355816e-04
-2.346953532081830945e-04
3.636455819780258351e-04
1.994384565219850069e-04
-4.215262644723009682e-04
2.711394951580632949e-05
1.724173361788714832e-04
-1.379816097713705959e-04
1.641384666942197884e-04
-5.996906352565067400e-04
6.221832931621750938e-04
-5.955017898679065575e-04
4.771512138761680637e-04
1.775897946702433157e-04
3.114871615179701762e-05
-1.153676337308737356e-04
-2.625723393100712843e-04
1.993353981501719318e-04
4.922620965571992182e-05
-5.605690335050813244e-04
5.061128933030652763e-04
-4.127200252559875605e-04
4.979043889035766283e-04
-1.185551429932075855e-04
2.718631233924829674e-05
-1.324852396170480759e-04
1.328240895863023801e-05
7.191752567630598984e-06
2.227134170286901386e-06
-4.590849208316408756e-04
7.596356133869522744e-04
-1.563247462944969608e-04
-2.808782030845947409e-06
-8.613287868901595645e-07
-1.509332147687802203e-04
3.094167598060679094e-04
-1.461668404353232598e-04
-1.447812973119941380e-04
1.607387836460025591e-04
-9.081492988695586809e-04
7.685194161817062363e-04
-1.496063859375167170e-04
3.050612549139399715e-04
-3.383525838102848230e-06
-6.519896444086905846e-06
-9.256006063251687849e-06
-1.639512834974365886e-04
-1.264662698230248903e-05
-1.294112694278738761e-05
-4.698863656817714647e-04
7.528092551818118877e-04
-3.121712873537587111e-04
-2.869183234838109825e-06
1.545580783975399584e-04
1.597193190537304637e-04
1.647421743715818735e-04
-1.360090147751672059e-04
-1.325568034656996624e-04
-1.302828276324608935e-04
-5.869320968440351486e-04
4.813916951565306592e-04
-2.817985832712487245e-04
3.283954948948455250e-04
2.370507857838861221e-05
2.527235173049827442e-05
1.807547051033167552e-04
3.239453854716965031e-05
3.772005158024793080e-05
-1.088841974024104271e-04
-4.079958092217417253e-04
5.130410995969333443e-04
-2.455546617991736093e-04
2.148739190784869010e-04
-2.422545680183138506e-04
6.138613838582712831e-05
-9.481018145587038484e-05
-1.001580532064699904e-04
1.984705032608066332e-04
-1.137652455501444732e-04
-5.783514345598859659e-04
9.416587104972763038e-04
-4.359643498016828474e-04
3.245442699612736200e-04
1.893006012948433506e-05
-1.323011058384136144e-04
-1.296100082984294629e-04
4.841014341023026804e-04
-1.230083582597552483e-04
-2.732828337683122755e-04
-4.252200996260457194e-04
4.887212512723281520e-04
-2.783953167714080072e-04
3.250839035102149320e-04
1.630855048448172514e-04
-1.536217093563614362e-04
-1.666067901877553675e-04
-1.801530209638832795e-04
-4.060397638650385844e-05
2.532051119245226547e-04
-6.708632345021307711e-04
8.503201242695788975e-04
-2.178776340049810845e-04
3.974271352181560097e-04
-5.031862696079118048e-05
-3.407741892826177512e-04
1.357059184435815665e-04
4.858788021739882884e-06
-1.241099938962206284e-04
2.053360674109114888e-04
-5.339049089195742380e-04
5.561900934726939126e-04
-3.400920900507891005e-04
1.333352679525388971e-04
-1.604123697510421705e-04
3.040957754094217248e-04
7.450409356957522375e-07
-1.549574519802084961e-04
-1.022770968996458696e-05
2.827542546763546277e-04
-8.012859811789906994e-04
7.057074845310912182e-04
-3.833633609738848523e-04
2.049129247696231213e-04
3.007733106014920106e-05
8.543086724192574752e-06
1.410896872130775446e-04
-2.940154958621799805e-05
-4.466848604480165563e-05
-5.694869202450947824e-05
-6.763918132689598081e-04
6.910427782367828528e-04
-2.272297657632264454e-04
3.831797734662451926e-04
8.037612506612362652e-05
-6.816254767377819760e-05
-6.315629408532018611e-05
-5.790830804738218051e-05
-5.303597618123331013e-05
1.036090078175836202e-04
-6.562994508956531163e-04
4.138501191672915437e-04
-1.952247885562111596e-04
2.634399278039238818e-04
-4.077186274325400752e-05
1.132503753833745327e-04
-3.712859508168937724e-05
1.185981476145598631e-04
1.226588414829079480e-04
-2.510246548826604031e-05
-4.775381071313017215e-04
4.434977371488790462e-04
-3.140782940506850300e-04
1.486163202132714410e-04
3.071284521185702867e-07
-3.013784836230353230e-04
3.116254165754156003e-04
1.608839361595976343e-04
9.439301306698323461e-06
-1.425461618462004637e-04
-6.000403589309257065e-04
6.208292523234308549e-04
-4.470084243389867867e-04
4.690568499742053614e-04
-1.404590966136249556e-04
1.657448654955429956e-04
-1.384598080402061270e-04
3.198551639789712635e-04
1.669865095920539013e-04
-1.396759624369733454e-04
-7.529589613708202690e-04
3.107588337518845984e-04
-1.526265966346588047e-04
1.462036427922441784e-04
-1.274456710773611920e-05
-1.828490269964182544e-05
-2.214279175921376344e-05
4.342379141463387280e-04
-1.743833566647964254e-04
1.360584142630770390e-04
-6.179104065851850599e-04
4.627766208703127651e-04
-4.369613623814138097e-04
3.443226271813472090e-04
2.117094114043751142e-04
7.958039826567569466e-05
9.923281088844441891e-05
-1.884219121357042111e-04
-2.167079139885447713e-05
-1.644482814870138821e-04
-4.648209116573746576e-04
4.502542240518246489e-04
-3.182208370691696478e-04
4.346577701689706679e-04
-1.894030840322470514e-04
2.521134420731852314e-04
-2.231802051891703569e-04
6.449468588353454799e-05
4.830688814233781908e-05
-1.179833915184731849e-04
-4.334000010679437656e-04
4.760434113716086480e-04
-2.884878631422825059e-04
4.772656767173229578e-04
1.787767094583990219e-04
-1.167936857499779388e-04
4.702683552151460522e-05
5.839250694738984805e-05
-8.422802528085605639e-05
-2.296439059544501003e-04
-6.841435668798375716e-04
6.877809038217839403e-04
-2.340261976909311151e-04
3.652876223773219894e-04
-1.077174010457443150e-04
2.631905650892845349e-05
-2.995586358565558382e-04
1.366930347263771428e-04
-3.679452404124890582e-05
9.690032620700907455e-05
-5.290858901634778620e-04
8.328304504185875257e-04
-3.943232735244401026e-04
5.199517437239046689e-04
-8.657553748895223465e-05
-2.307370752494497751e-04
-6.586550220074619216e-05
1.019529035981687169e-04
-3.342719448331267067e-05
-1.517742408006936760e-05
-6.070691656627640086e-04
4.790253919583534171e-04
-1.143707697825547474e-04
2.063212802871860986e-04
6.749478690520778468e-05
7.926169614032103265e-05
-6.372618654765811860e-05
-5.639247181708432192e-05
-5.133785924217423760e-05
-4.847785273121261735e-05
-3.528083666622157540e-04
5.618047095179564895e-04
-5.086908488234363540e-04
2.506873384796947735e-04
2.461770423535093559e-04
-6.431030203854849520e-05
8.222102791016023746e-05
-7.718342112313938096e-05
2.203735873275000287e-04
-2.458229978030956604e-04
-5.601707884711438698e-04
8.034121536482228187e-04
-5.797773144407628856e-04
1.735470998129320323e-04
1.218967473031020969e-05
4.858011535316909680e-06
1.521066673098407098e-04
-3.085567364560636450e-04
1.490225594113934939e-04
3.041944214938062559e-04
-6.061841591893449288e-04
6.217625548750775133e-04
-2.851437930870407192e-04
3.342925890217815217e-04
3.764046701530501419e-05
4.458091869310866446e-05
-2.561247659032262467e-04
-2.547480896133050114e-04
4.845357670380554487e-05
4.328946155377357241e-05
-5.748455648476204346e-04
6.363665764958149245e-04
-4.418122682252503103e-04
6.168762851979612020e-04
-3.063118361017207105e-04
-6.122676241322561528e-06
1.447312292811488296e-04
1.464303969212783080e-04
-1.264188741363290345e-06
1.587797929603595440e-04
-5.950921270426735550e-04
6.351259358722884671e-04
-4.242750621634679489e-04
3.453829759424001714e-04
-1.086644137381376782e-04
-1.086466713836159009e-04
-1.126174356232092946e-04
-1.204054069409557693e-04
2.121172008482530839e-05
8.098556694926907821e-06
-6.161756986193606600e-04
7.438495507313741192e-04
-3.354596489218086776e-04
4.195359625503663581e-04
-4.213495439481126204e-05
2.634644047232428585e-04
-3.718531775829909475e-05
-2.926510713094387825e-05
-1.903260599124345921e-05
1.447968810706731942e-04
-6.072414951263095358e-04
4.702121013121615851e-04
-1.333067601626941037e-04
2.305877261387351528e-05
-2.814839973644145421e-04
-1.310271644883208091e-04
-1.351225757810890109e-04
1.651017506881681659e-04
1.605540672778413465e-04
1.576413528491881584e-04
-4.529610391834455393e-04
6.182408056644474181e-04
-2.906390625425328729e-04
3.296501005660299670e-04
1.895493584266627369e-04
-1.017090054765334230e-04
6.487666894336019798e-05
-2.276176963470182685e-04
-2.175067168673253354e-04
-5.832705510694669455e-05
-5.135531722954721949e-04
5.529633076559517784e-04
-3.679576041844698979e-04
3.864766504109297765e-04
2.231873764319873229e-04
5.873835449128265415e-05
-1.058077110326474045e-04
-1.168459938586892725e-04
-1.260483607149973106e-04
1.993826503302822977e-05
-4.412654288396480212e-04
4.742781044360793743e-04
-1.326289610092076549e-04
4.842063086508820798e-04
3.521628018622131379e-05
4.522502916118597969e-05
-9.737010130943162607e-05
-8.869093842171170948e-05
-2.350925164443600738e-04
2.254550006832261287e-04
-5.386301751840826381e-04
3.717350495904798795e-04
-5.526220373512021099e-04
1.985397503354464357e-04
3.373804263498101914e-04
1.758638660537675125e-05
3.176437784011941936e-06
1.425049013461241788e-04
-1.740587697797542821e-04
2.746411135851673153e-04
-6.474558645401528060e-04
5.690721278647670623e-04
-1.959831644481558005e-04
2.612063817144847744e-04
1.089580575187981242e-04
-3.482031558884169753e-04
-4.274191020437071922e-05
1.093897749033916224e-04
-1.971941331295659747e-04
-4.693855517167678859e-05
-3.551207744018962343e-04
7.097348922172913186e-04
-2.087894547001336611e-04
9.417744705545148538e-05
-2.119617462298579210e-04
-5.876506102326561404e-05
2.487446570325334305e-04
2.527621176673414908e-04
-4.694213731073814338e-05
1.121906941633986728e-04
-7.961896719983013954e-04
5.843572767527540441e-04
-4.768476480109553575e-04
4.448691933377259549e-04
-7.700391895038655123e-06
-1.562564873326046798e-04
-1.534479401700155124e-04
1.533491072178701329e-04
3.064880444722060796e-04
-1.516172836641660178e-04
-6.104002669555006573e-04
6.088330982877745426e-04
-4.609922739235858204e-04
4.527471141779156917e-04
2.983864125203898490e-04
-1.611143689364926735e-04
-1.628465276700452374e-04
-1.646174966432025421e-04
-1.385634891220941808e-05
1.368839650172731738e-04
-6.278357154292971663e-04
7.438616761551401909e-04
-3.255477509556296899e-04
2.838763312279287830e-04
1.307236326072099583e-04
-2.214364995831609174e-05
-2.226418467113630220e-05
-1.749474385305359444e-04
-1.751126067154812403e-04
1.298050714503945458e-04
-4.808402444018827489e-04
5.870642126485633517e-04
-1.758631969304060981e-04
1.296608942764552986e-04
1.303923844824364563e-04
-1.737103177456140969e-04
1.327499164911311003e-04
-1.854166124143565464e-05
-1.746971077062264767e-05
-1.685723607531726195e-05
-6.272555079622036149e-04
5.926008071691110483e-04
-1.720571485112930895e-04
5.882939345320871731e-04
-2.543167882396246904e-05
-3.345803188140937350e-04
-3.388371182440581895e-04
-3.774702656315537160e-05
1.115016761583229645e-04
1.095451005506826845e-04
-6.533638262953434667e-04
8.749977370908553365e-04
-3.405464008699363686e-04
5.827284510822184748e-04
-1.770693067054350918e-05
-6.332066758991698360e-06
-1.469876827272429385e-04
-1.354550029896784205e-04
-1.251916011498553194e-04
3.572941332501253822e-05
-5.685939530377501130e-04
5.031791212233968549e-04
-2.582599329940257825e-04
3.518537350374531655e-04
-1.073540978786520717e-04
4.313453358587234258e-05
1.934605288542695482e-04
3.882963365182221259e-05
3.725266278639249585e-05
-2.689196358841124059e-04
-4.219251882645250868e-04
6.462529033260868295e-04
-4.215000215192170178e-04
1.892594230365154029e-04
1.893999022020170949e-04
3.633935374765889060e-05
3.491928419405988907e-05
3.229000112978488887e-05
-1.242568906960989322e-04
-1.294640807964968319e-04
-5.933658164928829566e-04
4.682245907072046082e-04
-1.483249709477613989e-04
1.517657321421234790e-04
-4.052343709685204963e-06
1.477454189669722155e-04
1.497354535105333690e-04
1.963287386244158194e-06
1.619391911553890936e-04
1.879725745673335122e-05
-8.859333351356547858e-04
4.986851313941322418e-04
-1.006669639036713459e-04
3.669321712660368780e-04
-8.292164086438353471e-05
-2.301629638508069303e-04
7.733168014247381711e-05
2.289643581922193056e-04
-2.330235703004341914e-04
6.493121770128094461e-05
-5.551059007019083129e-04
5.016153789460267532e-04
-2.735112794077056760e-04
3.248473265569076698e-04
8.838578622035545018e-06
2.292281309243553041e-08
-1.586834437967102492e-04
-9.062108563558989927e-06
1.439141113394850811e-04
3.001903688942330695e-04
-6.086457866692379952e-04
6.212483181651854130e-04
-4.358314141465065533e-04
1.866561638417060678e-04
-1.060502818063283162e-04
-9.397780229457311442e-05
6.964134599047062794e-05
7.910671102531365701e-05
-6.596821365256147918e-05
9.193622316600531038e-05
-5.154055051307411929e-04
5.534149452808997905e-04
-5.162168748650890161e-04
5.482883563832451458e-04
8.496778451653135651e-05
7.762046418986298549e-05
-2.365097891887472654e-04
5.835173567038667381e-05
-1.055550766251598592e-04
3.520418973171881091e-05
-5.868459086208827535e-04
3.178659015653208459e-04
-1.490334888468222284e-04
4.546065297189879977e-04
-6.855961811542567531e-06
-1.597849724340143890e-04
1.484531768327662540e-04
1.546491493392443157e-04
1.082728995316041613e-05
2.136088074933960881e-05
-8.828302963393784130e-04
6.541432701468954556e-04
-9.898833410108552372e-05
3.663193266867583613e-04
6.558181243381025732e-05
-3.914865657506421607e-04
-8.972376487335303032e-05
5.530092554235729619e-05
4.388944958060194665e-05
2.925688073808536017e-05
-9.032299833699615997e-04
9.096066284936940236e-04
-1.768581850769569133e-04
4.160794168240122349e-04
-5.725280764493937763e-05
-7.028170050604885170e-05
-8.030691089029899296e-05
6.551381378334486354e-05
6.209098174940717591e-05
6.197870819034497142e-05
-8.504631937673615095e-04
5.289408078524554914e-04
-3.776787780791672836e-04
3.966382859308628011e-04
2.574421545205793078e-04
-3.294030285712575733e-05
-1.751037197106346835e-05
1.502687173832284017e-04
-1.408665267921757342e-04
2.375357353639241811e-05
-5.772886893262147269e-04
3.443214001750719250e-04
-4.160208840091687279e-04
4.986009209036986519e-04
3.662433893556156977e-05
2.947240817513996689e-05
1.724765502402124905e-04
8.497316900219638021e-06
-4.617372409210263886e-04
-1.670879275954722701e-05
-1.814283527459448111e-04
4.182552287233007424e-04
-3.531189561344926821e-04
2.516189898647255081e-04
9.656363253297883863e-05
9.725043219915816841e-05
-5.181934333073160841e-05
2.590841671207651719e-04
1.135904400161841487e-04
-1.840773707658693609e-04
-7.874411941712327473e-04
5.915214357459714408e-04
-3.202191775145270627e-04
2.917405847845179240e-04
-1.401417632524727517e-05
-1.652271086352849130e-05
-1.730638077646975438e-04
1.273712615680806825e-04
-2.998419596631720534e-05
1.185937091834511078e-04
-6.468756902092677669e-04
5.733526035446933440e-04
-1.876547025367227418e-04
7.322881841913380643e-04
-1.765514435258175785e-04
-1.546445389809749960e-05
-1.583685216639495988e-04
-3.007714984971793779e-04
1.445556725599310340e-05
2.386547127804787327e-05
-4.254740061621553799e-04
4.973048490435274952e-04
-2.596240344341928219e-04
5.080816350495016625e-04
-9.873597206482981608e-05
5.615201277714613570e-05
-9.538786993955420410e-05
-9.560794490941809296e-05
5.550721697255106649e-05
-9.973243819079170283e-05
-4.085926908540945201e-04
6.550220441928276786e-04
-2.655524100163735631e-04
1.869139029209501430e-04
-1.235119380049108900e-04
-1.284373533810111026e-04
1.978951963858182809e-05
1.687680013982605163e-04
1.344530467638404756e-05
1.642266014189695670e-04
-5.996034305645940544e-04
6.210578486559189225e-04
-4.463592633204981237e-04
3.178812160997968039e-04
-1.381319093246638756e-04
1.649729194961552266e-05
-1.339133592824986259e-04
1.734309631699856066e-04
2.287099048016418828e-05
2.463818525126383618e-05
-5.843189002593633793e-04
6.372951684244057861e-04
-1.253360349312904794e-04
2.682197535625275377e-05
2.550217179054151993e-05
-1.294522413689079131e-04
1.958224488899529557e-05
1.673346348495987203e-04
8.610696941130079073e-06
1.538529367829594488e-04
-4.648248862668475831e-04
2.891903733897934641e-04
-6.353318697540456328e-04
2.717586920257261478e-04
-4.064253670194160515e-05
1.065086277471298488e-04
2.558479000318763575e-04
2.549293058185580162e-04
-4.898729695743553341e-05
-4.598210996448445954e-05
-4.996456544019328748e-04
5.728832926076955030e-04
-4.913177209383318318e-04
2.742853757092850609e-04
1.225022485919405985e-04
-3.367178959795705880e-04
-3.541514180277575827e-05
1.109890890288957912e-04
-2.023293870970520650e-04
3.984744579313997297e-04
-5.273129430330656406e-04
5.305867091122748588e-04
-3.943663938858049385e-04
2.080156231624944862e-04
2.020390657638183494e-04
4.584860427307612182e-05
4.484806743152657096e-05
-1.060334161254158561e-04
-2.541797664658809373e-04
2.107585684684940561e-04
-5.422754695576253612e-04
2.332994327036856978e-04
-5.653759116833808208e-05
2.665786639989507203e-04
1.343029775382176250e-04
4.000908730639182288e-06
-1.249067724669839733e-04
5.201232573132401668e-05
7.612866844574485523e-05
-5.348887276239292133e-05
-3.377737981570420119e-04
4.431004405979532866e-04
-6.108074920924863290e-04
3.145671445899774952e-04
1.669941320370460990e-04
1.668800607767147984e-04
-1.436404169628638676e-04
1.510800030288419582e-04
-1.692897031312870927e-04
-1.885757190402432431e-04
-3.636219712499748217e-04
5.274314808063510851e-04
-4.132654311208919782e-04
3.251881730891048616e-04
-2.467819170589794320e-06
-1.743787961043109628e-04
2.681063853465926318e-04
1.048457764465730418e-04
2.515789366022064049e-04
-5.475057460272680481e-05
-6.619451483705270653e-04
2.604620963780391631e-04
-1.874086655263761884e-04
1.299022465367865545e-04
1.434932181576314893e-04
1.577751563662153586e-04
1.945528252395024150e-05
-1.194791328729905228e-04
-1.068906862068371089e-04
2.095440346455909868e-04
-8.487083837336201761e-04
5.331575196494579361e-04
-3.748606282625818503e-04
3.947690007669597931e-04
2.482252413152494968e-04
1.010535776167907656e-04
-3.521014173684693300e-04
4.142665481890823380e-04
-4.176465282719714881e-05
-4.230399205212156082e-05
-5.034133841490656116e-04
5.581562660449284653e-04
-6.724644512294804342e-04
3.824580835800583641e-04
-9.139710638735878100e-05
-1.097564699308516757e-04
1.756251323064637177e-04
2.772326586597603132e-06
-1.694761480895596868e-05
1.174536068645395931e-04
-3.560749187138783083e-04
3.942483831769012705e-04
-2.250540727505018614e-04
3.802860671683234994e-04
-2.311174628283851581e-04
-7.584737852586112149e-05
-2.224634483184208809e-04
2.439350076738707905e-04
2.544687654111493823e-04
1.134663564951124973e-04
-4.851127163191148095e-04
2.889781556611704331e-04
-4.641109287037449289e-04
3.068819783794578043e-04
7.683935830700676649e-06
1.641217675936661288e-04
-1.391670857076383243e-04
-4.440641671146381363e-04
3.180457433595975996e-04
1.641017711658535798e-04
-6.001344097501022266e-04
6.198406981350578762e-04
-1.428951507060152195e-04
3.161755880674351079e-04
1.659718391735037172e-04
-1.359321939701539162e-04
-1.320552327664027052e-04
-2.804506794556448643e-04
-1.235768226688424424e-04
1.858661155938112416e-04
-5.728307290914208929e-04
4.995576914784818695e-04
-1.064481585206449016e-04
3.556830651160537466e-04
2.072822359646276779e-04
-9.425854171873984395e-05
6.090403850371999960e-05
-9.073799714677104620e-05
-9.194780434897478760e-05
-9.569505984865294096e-05
-5.598990079718539582e-04
4.991950893719361961e-04
-2.749711204153369834e-04
3.225422182262563365e-04
1.562504843623527468e-04
-1.008111673793151683e-05
-1.756105071325697240e-04
-3.435542927063357836e-05
1.092348147210919193e-04
-4.941219618221097989e-05
-5.098619706242334560e-04
4.065695467958059159e-04
-4.674548156261495329e-05
4.186709484545637493e-04
1.237161405601234425e-04
-1.695599397248926895e-04
-1.570392266171756392e-04
1.601676833126933609e-04
-1.345063497226813996e-04
-1.263931274247316356e-04
