-1.749524590802159149e-02
-1.749710240054437593e-02
-1.749895853159517262e-02
-1.750081430090896090e-02
-1.750266970822083115e-02
-1.750452475326597784e-02
-1.750637943577969605e-02
-1.750823375549739533e-02
-1.751008771215460669e-02
-1.751194130548696520e-02
-1.751379453523021004e-02
-1.751564740112019833e-02
-1.751749990289290515e-02
-1.751935204028440621e-02
-1.752120381303087435e-02
-1.752305522086859690e-02
-1.752490626353397224e-02
-1.752675694076350627e-02
-1.752860725229380204e-02
-1.753045719786156323e-02
-1.753230677720360800e-02
-1.753415599005685513e-02
-1.753600483615832401e-02
-1.753785331524513810e-02
-1.753970142705450416e-02
-1.754154917132373301e-02
-1.754339654779022914e-02
-1.754524355619149420e-02
-1.754709019626513045e-02
-1.754893646774885116e-02
-1.755078237038047023e-02
-1.755262790389789176e-02
-1.755447306803912394e-02
-1.755631786254227208e-02
-1.755816228714553867e-02
-1.756000634158722332e-02
-1.756185002560571584e-02
-1.756369333893949974e-02
-1.756553628132715220e-02
-1.756737885250732670e-02
-1.756922105221876348e-02
-1.757106288020029994e-02
-1.757290433619087405e-02
-1.757474541992952097e-02
-1.757658613115535215e-02
-1.757842646960755192e-02
-1.758026643502538788e-02
-1.758210602714821089e-02
-1.758394524571545853e-02
-1.758578409046665514e-02
-1.758762256114141873e-02
-1.758946065747944362e-02
-1.759129837922051784e-02
-1.759313572610451265e-02
-1.759497269787136525e-02
-1.759680929426109611e-02
-1.759864551501379853e-02
-1.760048135986965953e-02
-1.760231682856893548e-02
-1.760415192085196256e-02
-1.760598663645916023e-02
-1.760782097513102079e-02
-1.760965493660810594e-02
-1.761148852063106757e-02
-1.761332172694063392e-02
-1.761515455527760607e-02
-1.761698700538285797e-02
-1.761881907699732949e-02
-1.762065076986204723e-02
-1.762248208371810024e-02
-1.762431301830664696e-02
-1.762614357336890480e-02
-1.762797374864617100e-02
-1.762980354387981910e-02
-1.763163295881128509e-02
-1.763346199318207089e-02
-1.763529064673374780e-02
-1.763711891920795305e-02
-1.763894681034639325e-02
-1.764077431989084094e-02
-1.764260144758313456e-02
-1.764442819316516808e-02
-1.764625455637890139e-02
-1.764808053696635681e-02
-1.764990613466962260e-02
-1.765173134923084253e-02
-1.765355618039221586e-02
-1.765538062789601126e-02
-1.765720469148457025e-02
-1.765902837090030028e-02
-1.766085166588567471e-02
-1.766267457618323627e-02
-1.766449710153559366e-02
-1.766631924168542145e-02
-1.766814099637546709e-02
-1.766996236534854395e-02
-1.767178334834751049e-02
-1.767360394511528765e-02
-1.767542415539486919e-02
-1.767724397892930788e-02
-1.767906341546171545e-02
-1.768088246473525915e-02
-1.768270112649315828e-02
-1.768451940047869111e-02
-1.768633728643520531e-02
-1.768815478410611791e-02
-1.768997189323490843e-02
-1.769178861356511881e-02
-1.769360494484033958e-02
-1.769542088680422370e-02
-1.769723643920046927e-02
-1.769905160177282638e-02
-1.770086637426510762e-02
-1.770268075642118452e-02
-1.770449474798499803e-02
-1.770630834870054113e-02
-1.770812155831186230e-02
-1.770993437656307595e-02
-1.771174680319834507e-02
-1.771355883796188468e-02
-1.771537048059796879e-02
-1.771718173085091996e-02
-1.771899258846511629e-02
-1.772080305318499832e-02
-1.772261312475506903e-02
-1.772442280291987998e-02
-1.772623208742404519e-02
-1.772804097801223763e-02
-1.772984947442916848e-02
-1.773165757641959744e-02
-1.773346528372834671e-02
-1.773527259610029744e-02
-1.773707951328036894e-02
-1.773888603501353606e-02
-1.774069216104482219e-02
-1.774249789111928544e-02
-1.774430322498203941e-02
-1.774610816237823935e-02
-1.774791270305307866e-02
-1.774971684675180281e-02
-1.775152059321970233e-02
-1.775332394220211635e-02
-1.775512689344444298e-02
-1.775692944669214277e-02
-1.775873160169072137e-02
-1.776053335818573303e-02
-1.776233471592277707e-02
-1.776413567464749446e-02
-1.776593623410557821e-02
-1.776773639404276642e-02
-1.776953615420484578e-02
-1.777133551433764114e-02
-1.777313447418703979e-02
-1.777493303349897413e-02
-1.777673119201941820e-02
-1.777852894949438420e-02
-1.778032630566992248e-02
-1.778212326029213891e-02
-1.778391981310717754e-02
-1.778571596386122056e-02
-1.778751171230049180e-02
-1.778930705817124980e-02
-1.779110200121979471e-02
-1.779289654119246139e-02
-1.779469067783562633e-02
-1.779648441089569377e-02
-1.779827774011910266e-02
-1.780007066525233356e-02
-1.780186318604190868e-02
-1.780365530223440226e-02
-1.780544701357642673e-02
-1.780723831981463612e-02
-1.780902922069572264e-02
-1.781081971596642707e-02
-1.781260980537352837e-02
-1.781439948866384709e-02
-1.781618876558424894e-02
-1.781797763588163774e-02
-1.781976609930296940e-02
-1.782155415559522754e-02
-1.782334180450544786e-02
-1.782512904578069726e-02
-1.782691587916807735e-02
-1.782870230441473136e-02
-1.783048832126783723e-02
-1.783227392947460063e-02
-1.783405912878224808e-02
-1.783584391893803384e-02
-1.783762829968925379e-02
-1.783941227078325586e-02
-1.784119583196740882e-02
-1.784297898298911611e-02
-1.784476172359581586e-02
-1.784654405353499132e-02
-1.784832597255414308e-02
-1.785010748040082376e-02
-1.785188857682261029e-02
-1.785366926156710388e-02
-1.785544953438194041e-02
-1.785722939501478007e-02
-1.785900884321330734e-02
-1.786078787872524484e-02
-1.786256650129834991e-02
-1.786434471068041804e-02
-1.786612250661927595e-02
-1.786789988886276423e-02
-1.786967685715874776e-02
-1.787145341125512266e-02
-1.787322955089981624e-02
-1.787500527584078708e-02
-1.787678058582601107e-02
-1.787855548060348493e-02
-1.788032995992122967e-02
-1.788210402352729753e-02
-1.788387767116976848e-02
-1.788565090259676763e-02
-1.788742371755644781e-02
-1.788919611579699656e-02
-1.789096809706662572e-02
-1.789273966111357486e-02
-1.789451080768612867e-02
-1.789628153653260306e-02
-1.789805184740134170e-02
-1.789982174004071946e-02
-1.790159121419915636e-02
-1.790336026962510707e-02
-1.790512890606705404e-02
-1.790689712327349012e-02
-1.790866492099295673e-02
-1.791043229897402306e-02
-1.791219925696528256e-02
-1.791396579471535647e-02
-1.791573191197289722e-02
-1.791749760848658848e-02
-1.791926288400514169e-02
-1.792102773827729950e-02
-1.792279217105182884e-02
-1.792455618207750706e-02
-1.792631977110314273e-02
-1.792808293787756524e-02
-1.792984568214964214e-02
-1.793160800366825833e-02
-1.793336990218232646e-02
-1.793513137744077307e-02
-1.793689242919254551e-02
-1.793865305718660499e-02
-1.794041326117192664e-02
-1.794217304089751330e-02
-1.794393239611239907e-02
-1.794569132656564925e-02
-1.794744983200636038e-02
-1.794920791218364634e-02
-1.795096556684665223e-02
-1.795272279574454052e-02
-1.795447959862649795e-02
-1.795623597524174248e-02
-1.795799192533951982e-02
-1.795974744866910000e-02
-1.796150254497977036e-02
-1.796325721402084255e-02
-1.796501145554163514e-02
-1.796676526929148754e-02
-1.796851865501975995e-02
-1.797027161247585075e-02
-1.797202414140917567e-02
-1.797377624156916431e-02
-1.797552791270527056e-02
-1.797727915456697606e-02
-1.797902996690377633e-02
-1.798078034946519119e-02
-1.798253030200075431e-02
-1.798427982426000979e-02
-1.798602891599253642e-02
-1.798777757694792340e-02
-1.798952580687578767e-02
-1.799127360552576355e-02
-1.799302097264751307e-02
-1.799476790799071566e-02
-1.799651441130507151e-02
-1.799826048234031209e-02
-1.800000612084619311e-02
-1.800175132657248767e-02
-1.800349609926900005e-02
-1.800524043868554844e-02
-1.800698434457197530e-02
-1.800872781667814740e-02
-1.801047085475395229e-02
-1.801221345854929143e-02
-1.801395562781408707e-02
-1.801569736229827884e-02
-1.801743866175181674e-02
-1.801917952592466468e-02
-1.802091995456681084e-02
-1.802265994742826768e-02
-1.802439950425905116e-02
-1.802613862480919454e-02
-1.802787730882875541e-02
-1.802961555606781910e-02
-1.803135336627649521e-02
-1.803309073920489683e-02
-1.803482767460314051e-02
-1.803656417222136710e-02
-1.803830023180973477e-02
-1.804003585311841906e-02
-1.804177103589760939e-02
-1.804350577989752638e-02
-1.804524008486840803e-02
-1.804697395056051312e-02
-1.804870737672411088e-02
-1.805044036310947397e-02
-1.805217290946690978e-02
-1.805390501554674301e-02
-1.805563668109930187e-02
-1.805736790587492840e-02
-1.805909868962397510e-02
-1.806082903209679791e-02
-1.806255893304377011e-02
-1.806428839221529623e-02
-1.806601740936180506e-02
-1.806774598423373582e-02
-1.806947411658153119e-02
-1.807120180615564078e-02
-1.807292905270651770e-02
-1.807465585598461849e-02
-1.807638221574043788e-02
-1.807810813172449488e-02
-1.807983360368731890e-02
-1.808155863137944977e-02
-1.808328321455142731e-02
-1.808500735295379136e-02
-1.808673104633711642e-02
-1.808845429445199438e-02
-1.809017709704902749e-02
-1.809189945387884579e-02
-1.809362136469208626e-02
-1.809534282923939974e-02
-1.809706384727145442e-02
-1.809878441853894973e-02
-1.810050454279260243e-02
-1.810222421978313623e-02
-1.810394344926127483e-02
-1.810566223097775929e-02
-1.810738056468334800e-02
-1.810909845012881672e-02
-1.811081588706495507e-02
-1.811253287524255962e-02
-1.811424941441245121e-02
-1.811596550432547151e-02
-1.811768114473246566e-02
-1.811939633538430655e-02
-1.812111107603186361e-02
-1.812282536642602360e-02
-1.812453920631770105e-02
-1.812625259545781742e-02
-1.812796553359732193e-02
-1.812967802048718463e-02
-1.813139005587838595e-02
-1.813310163952191675e-02
-1.813481277116878176e-02
-1.813652345057001000e-02
-1.813823367747664089e-02
-1.813994345163974162e-02
-1.814165277281039323e-02
-1.814336164073969068e-02
-1.814507005517873583e-02
-1.814677801587864792e-02
-1.814848552259055656e-02
-1.815019257506562608e-02
-1.815189917305504164e-02
-1.815360531630999530e-02
-1.815531100458170344e-02
-1.815701623762139977e-02
-1.815872101518033188e-02
-1.816042533700976125e-02
-1.816212920286097710e-02
-1.816383261248529640e-02
-1.816553556563405350e-02
-1.816723806205860700e-02
-1.816894010151032940e-02
-1.817064168374060706e-02
-1.817234280850083331e-02
-1.817404347554242225e-02
-1.817574368461680190e-02
-1.817744343547541760e-02
-1.817914272786973207e-02
-1.818084156155122880e-02
-1.818253993627141560e-02
-1.818423785178183150e-02
-1.818593530783404674e-02
-1.818763230417965587e-02
-1.818932884057028118e-02
-1.819102491675755884e-02
-1.819272053249315277e-02
-1.819441568752874078e-02
-1.819611038161602148e-02
-1.819780461450672474e-02
-1.819949838595259078e-02
-1.820119169570537029e-02
-1.820288454351683821e-02
-1.820457692913879030e-02
-1.820626885232304315e-02
-1.820796031282144456e-02
-1.820965131038587356e-02
-1.821134184476823348e-02
-1.821303191572043803e-02
-1.821472152299442870e-02
-1.821641066634217127e-02
-1.821809934551565577e-02
-1.821978756026688961e-02
-1.822147531034789408e-02
-1.822316259551070780e-02
-1.822484941550738327e-02
-1.822653577008999728e-02
-1.822822165901064398e-02
-1.822990708202142443e-02
-1.823159203887445359e-02
-1.823327652932186724e-02
-1.823496055311582195e-02
-1.823664411000849514e-02
-1.823832719975208155e-02
-1.824000982209879329e-02
-1.824169197680086327e-02
-1.824337366361055562e-02
-1.824505488228015185e-02
-1.824673563256195424e-02
-1.824841591420828593e-02
-1.825009572697148738e-02
-1.825177507060392335e-02
-1.825345394485797940e-02
-1.825513234948606539e-02
-1.825681028424061547e-02
-1.825848774887407766e-02
-1.826016474313892773e-02
-1.826184126678767269e-02
-1.826351731957284730e-02
-1.826519290124701753e-02
-1.826686801156277018e-02
-1.826854265027271287e-02
-1.827021681712947751e-02
-1.827189051188571681e-02
-1.827356373429412165e-02
-1.827523648410741067e-02
-1.827690876107833026e-02
-1.827858056495965805e-02
-1.828025189550419941e-02
-1.828192275246477011e-02
-1.828359313559419982e-02
-1.828526304464534250e-02
-1.828693247937107982e-02
-1.828860143952431780e-02
-1.829026992485798322e-02
-1.829193793512502719e-02
-1.829360547007842855e-02
-1.829527252947120430e-02
-1.829693911305639228e-02
-1.829860522058705460e-02
-1.830027085181628113e-02
-1.830193600649717908e-02
-1.830360068438287996e-02
-1.830526488522654302e-02
-1.830692860878133793e-02
-1.830859185480046211e-02
-1.831025462303713033e-02
-1.831191691324458512e-02
-1.831357872517610369e-02
-1.831524005858498061e-02
-1.831690091322453820e-02
-1.831856128884812654e-02
-1.832022118520911652e-02
-1.832188060206089986e-02
-1.832353953915689601e-02
-1.832519799625054180e-02
-1.832685597309529832e-02
-1.832851346944466137e-02
-1.833017048505215796e-02
-1.833182701967134981e-02
-1.833348307305582639e-02
-1.833513864495918758e-02
-1.833679373513505753e-02
-1.833844834333708818e-02
-1.834010246931896959e-02
-1.834175611283441962e-02
-1.834340927363718038e-02
-1.834506195148102523e-02
-1.834671414611976220e-02
-1.834836585730723058e-02
-1.835001708479730084e-02
-1.835166782834388860e-02
-1.835331808770093373e-02
-1.835496786262240734e-02
-1.835661715286230830e-02
-1.835826595817465282e-02
-1.835991427831347444e-02
-1.836156211303284144e-02
-1.836320946208683594e-02
-1.836485632522957476e-02
-1.836650270221521636e-02
-1.836814859279793308e-02
-1.836979399673193195e-02
-1.837143891377146163e-02
-1.837308334367080895e-02
-1.837472728618428502e-02
-1.837637074106623913e-02
-1.837801370807105872e-02
-1.837965618695314857e-02
-1.838129817746694469e-02
-1.838293967936691087e-02
-1.838458069240755249e-02
-1.838622121634339579e-02
-1.838786125092899473e-02
-1.838950079591893105e-02
-1.839113985106782118e-02
-1.839277841613031969e-02
-1.839441649086110894e-02
-1.839605407501490250e-02
-1.839769116834644516e-02
-1.839932777061050254e-02
-1.840096388156185758e-02
-1.840259950095532102e-02
-1.840423462854573131e-02
-1.840586926408795815e-02
-1.840750340733690940e-02
-1.840913705804752415e-02
-1.841077021597477270e-02
-1.841240288087367047e-02
-1.841403505249926409e-02
-1.841566673060664183e-02
-1.841729791495092666e-02
-1.841892860528726930e-02
-1.842055880137085863e-02
-1.842218850295691476e-02
-1.842381770980068903e-02
-1.842544642165746399e-02
-1.842707463828255343e-02
-1.842870235943131277e-02
-1.843032958485911824e-02
-1.843195631432137035e-02
-1.843358254757350781e-02
-1.843520828437100745e-02
-1.843683352446936694e-02
-1.843845826762410475e-02
-1.844008251359077408e-02
-1.844170626212497319e-02
-1.844332951298234546e-02
-1.844495226591856205e-02
-1.844657452068933223e-02
-1.844819627705039308e-02
-1.844981753475751288e-02
-1.845143829356650500e-02
-1.845305855323321059e-02
-1.845467831351350896e-02
-1.845629757416331410e-02
-1.845791633493856082e-02
-1.845953459559521864e-02
-1.846115235588929523e-02
-1.846276961557682950e-02
-1.846438637441389502e-02
-1.846600263215660356e-02
-1.846761838856109811e-02
-1.846923364338356327e-02
-1.847084839638021489e-02
-1.847246264730730697e-02
-1.847407639592112821e-02
-1.847568964197800548e-02
-1.847730238523431767e-02
-1.847891462544646451e-02
-1.848052636237089777e-02
-1.848213759576411083e-02
-1.848374832538263526e-02
-1.848535855098303732e-02
-1.848696827232191794e-02
-1.848857748915591279e-02
-1.849018620124167483e-02
-1.849179440833589871e-02
-1.849340211019531721e-02
-1.849500930657671169e-02
-1.849661599723690167e-02
-1.849822218193274831e-02
-1.849982786042113705e-02
-1.850143303245899498e-02
-1.850303769780328039e-02
-1.850464185621098281e-02
-1.850624550743912647e-02
-1.850784865124478068e-02
-1.850945128738506334e-02
-1.851105341561713052e-02
-1.851265503569817297e-02
-1.851425614738542655e-02
-1.851585675043616874e-02
-1.851745684460771521e-02
-1.851905642965740936e-02
-1.852065550534263971e-02
-1.852225407142085029e-02
-1.852385212764952674e-02
-1.852544967378619289e-02
-1.852704670958840727e-02
-1.852864323481376654e-02
-1.853023924921990556e-02
-1.853183475256448692e-02
-1.853342974460521486e-02
-1.853502422509983524e-02
-1.853661819380612863e-02
-1.853821165048193109e-02
-1.853980459488511340e-02
-1.854139702677358101e-02
-1.854298894590528449e-02
-1.854458035203822297e-02
-1.854617124493043376e-02
-1.854776162433998538e-02
-1.854935149002498798e-02
-1.855094084174361072e-02
-1.855252967925406435e-02
-1.855411800231458394e-02
-1.855570581068346006e-02
-1.855729310411901797e-02
-1.855887988237962458e-02
-1.856046614522368840e-02
-1.856205189240966655e-02
-1.856363712369606817e-02
-1.856522183884144403e-02
-1.856680603760439349e-02
-1.856838971974355407e-02
-1.856997288501759102e-02
-1.857155553318521127e-02
-1.857313766400515639e-02
-1.857471927723619229e-02
-1.857630037263711606e-02
-1.857788094996676645e-02
-1.857946100898401343e-02
-1.858104054944775818e-02
-1.858261957111693313e-02
-1.858419807375050886e-02
-1.858577605710749411e-02
-1.858735352094693927e-02
-1.858893046502794327e-02
-1.859050688910964325e-02
-1.859208279295121100e-02
-1.859365817631185996e-02
-1.859523303895085217e-02
-1.859680738062749819e-02
-1.859838120110114679e-02
-1.859995450013119181e-02
-1.860152727747706874e-02
-1.860309953289824431e-02
-1.860467126615421990e-02
-1.860624247700453510e-02
-1.860781316520877457e-02
-1.860938333052655075e-02
-1.861095297271750729e-02
-1.861252209154133988e-02
-1.861409068675779974e-02
-1.861565875812667623e-02
-1.861722630540779341e-02
-1.861879332836102394e-02
-1.862035982674627513e-02
-1.862192580032349248e-02
-1.862349124885265966e-02
-1.862505617209380890e-02
-1.862662056980700712e-02
-1.862818444175236982e-02
-1.862974778769006107e-02
-1.863131060738028658e-02
-1.863287290058328327e-02
-1.863443466705933318e-02
-1.863599590656877039e-02
-1.863755661887198448e-02
-1.863911680372940319e-02
-1.864067646090149591e-02
-1.864223559014877019e-02
-1.864379419123178214e-02
-1.864535226391113298e-02
-1.864690980794745517e-02
-1.864846682310142278e-02
-1.865002330913374806e-02
-1.865157926580518141e-02
-1.865313469287652529e-02
-1.865468959010862376e-02
-1.865624395726236256e-02
-1.865779779409867598e-02
-1.865935110037853992e-02
-1.866090387586297888e-02
-1.866245612031306594e-02
-1.866400783348992273e-02
-1.866555901515471946e-02
-1.866710966506868186e-02
-1.866865978299307380e-02
-1.867020936868920428e-02
-1.867175842191844126e-02
-1.867330694244219783e-02
-1.867485493002193561e-02
-1.867640238441915790e-02
-1.867794930539540613e-02
-1.867949569271226684e-02
-1.868104154613138557e-02
-1.868258686541445293e-02
-1.868413165032320120e-02
-1.868567590061939385e-02
-1.868721961606482559e-02
-1.868876279642133625e-02
-1.869030544145081074e-02
-1.869184755091516867e-02
-1.869338912457637822e-02
-1.869493016219645268e-02
-1.869647066353743656e-02
-1.869801062836141947e-02
-1.869955005643054308e-02
-1.870108894750699066e-02
-1.870262730135298715e-02
-1.870416511773080603e-02
-1.870570239640276244e-02
-1.870723913713122008e-02
-1.870877533967858428e-02
-1.871031100380730200e-02
-1.871184612927987226e-02
-1.871338071585883917e-02
-1.871491476330677112e-02
-1.871644827138626774e-02
-1.871798123985997375e-02
-1.871951366849057899e-02
-1.872104555704081838e-02
-1.872257690527346155e-02
-1.872410771295133017e-02
-1.872563797983728753e-02
-1.872716770569425246e-02
-1.872869689028517845e-02
-1.873022553337306412e-02
-1.873175363472096011e-02
-1.873328119409196219e-02
-1.873480821124920426e-02
-1.873633468595587923e-02
-1.873786061797523203e-02
-1.873938600707055618e-02
-1.874091085300519377e-02
-1.874243515554253545e-02
-1.874395891444601697e-02
-1.874548212947914003e-02
-1.874700480040545139e-02
-1.874852692698855336e-02
-1.875004850899209333e-02
-1.875156954617975338e-02
-1.875309003831525725e-02
-1.875460998516237723e-02
-1.875612938648493072e-02
-1.875764824204678716e-02
-1.875916655161185068e-02
-1.876068431494408092e-02
-1.876220153180747918e-02
-1.876371820196610224e-02
-1.876523432518404158e-02
-1.876674990122545461e-02
-1.876826492985455772e-02
-1.876977941083560891e-02
-1.877129334393291479e-02
-1.877280672891082358e-02
-1.877431956553372860e-02
-1.877583185356605441e-02
-1.877734359277226719e-02
-1.877885478291687477e-02
-1.878036542376441964e-02
-1.878187551507949637e-02
-1.878338505662676544e-02
-1.878489404817094630e-02
-1.878640248947680697e-02
-1.878791038030916405e-02
-1.878941772043287231e-02
-1.879092450961283856e-02
-1.879243074761401469e-02
-1.879393643420141508e-02
-1.879544156914010958e-02
-1.879694615219520623e-02
-1.879845018313186164e-02
-1.879995366171528445e-02
-1.880145658771073189e-02
-1.880295896088350627e-02
-1.880446078099896889e-02
-1.880596204782252270e-02
-1.880746276111961227e-02
-1.880896292065572378e-02
-1.881046252619640591e-02
-1.881196157750725240e-02
-1.881346007435390905e-02
-1.881495801650207023e-02
-1.881645540371748929e-02
-1.881795223576597856e-02
-1.881944851241339201e-02
-1.882094423342563216e-02
-1.882243939856865708e-02
-1.882393400760848379e-02
-1.882542806031117094e-02
-1.882692155644283966e-02
-1.882841449576967002e-02
-1.882990687805790112e-02
-1.883139870307382405e-02
-1.883288997058377851e-02
-1.883438068035415622e-02
-1.883587083215140789e-02
-1.883736042574203282e-02
-1.883884946089258230e-02
-1.884033793736965973e-02
-1.884182585493991702e-02
-1.884331321337005469e-02
-1.884480001242682876e-02
-1.884628625187704035e-02
-1.884777193148754262e-02
-1.884925705102523733e-02
-1.885074161025707823e-02
-1.885222560895007810e-02
-1.885370904687129825e-02
-1.885519192378785555e-02
-1.885667423946693275e-02
-1.885815599367577158e-02
-1.885963718618165544e-02
-1.886111781675191973e-02
-1.886259788515396579e-02
-1.886407739115523660e-02
-1.886555633452322717e-02
-1.886703471502547760e-02
-1.886851253242957660e-02
-1.886998978650317182e-02
-1.887146647701395605e-02
-1.887294260372966367e-02
-1.887441816641807074e-02
-1.887589316484699839e-02
-1.887736759878432327e-02
-1.887884146799797061e-02
-1.888031477225591767e-02
-1.888178751132619723e-02
-1.888325968497689064e-02
-1.888473129297612782e-02
-1.888620233509208032e-02
-1.888767281109296828e-02
-1.888914272074705691e-02
-1.889061206382267391e-02
-1.889208084008819899e-02
-1.889354904931205351e-02
-1.889501669126269698e-02
-1.889648376570863403e-02
-1.889795027241842479e-02
-1.889941621116067796e-02
-1.890088158170405430e-02
-1.890234638381727006e-02
-1.890381061726909354e-02
-1.890527428182833466e-02
-1.890673737726386236e-02
-1.890819990334460104e-02
-1.890966185983953066e-02
-1.891112324651767970e-02
-1.891258406314813220e-02
-1.891404430950002422e-02
-1.891550398534254732e-02
-1.891696309044495206e-02
-1.891842162457655838e-02
-1.891987958750674173e-02
-1.892133697900492614e-02
-1.892279379884059115e-02
-1.892425004678326486e-02
-1.892570572260252743e-02
-1.892716082606800063e-02
-1.892861535694935829e-02
-1.893006931501632628e-02
-1.893152270003868251e-02
-1.893297551178626734e-02
-1.893442775002895928e-02
-1.893587941453668544e-02
-1.893733050507943882e-02
-1.893878102142726103e-02
-1.894023096335023873e-02
-1.894168033061851067e-02
-1.894312912300226415e-02
-1.894457734027174545e-02
-1.894602498219725636e-02
-1.894747204854915074e-02
-1.894891853909783097e-02
-1.895036445361374805e-02
-1.895180979186741194e-02
-1.895325455362938116e-02
-1.895469873867026284e-02
-1.895614234676072651e-02
-1.895758537767149032e-02
-1.895902783117331403e-02
-1.896046970703701637e-02
-1.896191100503345425e-02
-1.896335172493352622e-02
-1.896479186650817592e-02
-1.896623142952838861e-02
-1.896767041376520857e-02
-1.896910881898973902e-02
-1.897054664497313872e-02
-1.897198389148663580e-02
-1.897342055830151392e-02
-1.897485664518911569e-02
-1.897629215192082885e-02
-1.897772707826808972e-02
-1.897916142400240397e-02
-1.898059518889533281e-02
-1.898202837271848256e-02
-1.898346097524350462e-02
-1.898489299624211285e-02
-1.898632443548608356e-02
-1.898775529274724164e-02
-1.898918556779746747e-02
-1.899061526040870390e-02
-1.899204437035294582e-02
-1.899347289740224709e-02
-1.899490084132872403e-02
-1.899632820190454846e-02
-1.899775497890194773e-02
-1.899918117209321161e-02
-1.900060678125067848e-02
-1.900203180614674914e-02
-1.900345624655388685e-02
-1.900488010224461038e-02
-1.900630337299150097e-02
-1.900772605856717798e-02
-1.900914815874432326e-02
-1.901056967329567762e-02
-1.901199060199403393e-02
-1.901341094461226136e-02
-1.901483070092328115e-02
-1.901624987070008391e-02
-1.901766845371573311e-02
-1.901908644974335122e-02
-1.902050385855611273e-02
-1.902192067992726499e-02
-1.902333691363012128e-02
-1.902475255943804691e-02
-1.902616761712445578e-02
-1.902758208646281035e-02
-1.902899596722662859e-02
-1.903040925918948398e-02
-1.903182196212501592e-02
-1.903323407580692975e-02
-1.903464560000897934e-02
-1.903605653450498453e-02
-1.903746687906882756e-02
-1.903887663347444623e-02
-1.904028579749584074e-02
-1.904169437090708072e-02
-1.904310235348229477e-02
-1.904450974499567739e-02
-1.904591654522149943e-02
-1.904732275393409766e-02
-1.904872837090786433e-02
-1.905013339591724378e-02
-1.905153782873673929e-02
-1.905294166914091661e-02
-1.905434491690440740e-02
-1.905574757180189538e-02
-1.905714963360812322e-02
-1.905855110209789954e-02
-1.905995197704610233e-02
-1.906135225822769286e-02
-1.906275194541770177e-02
-1.906415103839122910e-02
-1.906554953692345122e-02
-1.906694744078961737e-02
-1.906834474976503921e-02
-1.906974146362509434e-02
-1.907113758214523322e-02
-1.907253310510097569e-02
-1.907392803226790057e-02
-1.907532236342164220e-02
-1.907671609833791124e-02
-1.907810923679247733e-02
-1.907950177856116564e-02
-1.908089372341986376e-02
-1.908228507114452174e-02
-1.908367582151116598e-02
-1.908506597429589918e-02
-1.908645552927488998e-02
-1.908784448622436597e-02
-1.908923284492062417e-02
-1.909062060514003789e-02
-1.909200776665903598e-02
-1.909339432925411320e-02
-1.909478029270183022e-02
-1.909616565677882752e-02
-1.909755042126180802e-02
-1.909893458592753362e-02
-1.910031815055284257e-02
-1.910170111491463901e-02
-1.910308347878991037e-02
-1.910446524195573079e-02
-1.910584640418924035e-02
-1.910722696526764852e-02
-1.910860692496824456e-02
-1.910998628306839059e-02
-1.911136503934551811e-02
-1.911274319357711762e-02
-1.911412074554074206e-02
-1.911549769501402068e-02
-1.911687404177464522e-02
-1.911824978560038718e-02
-1.911962492626909094e-02
-1.912099946355866678e-02
-1.912237339724709093e-02
-1.912374672711241244e-02
-1.912511945293275673e-02
-1.912649157448632203e-02
-1.912786309155137254e-02
-1.912923400390624182e-02
-1.913060431132933975e-02
-1.913197401359914215e-02
-1.913334311049419423e-02
-1.913471160179311056e-02
-1.913607948727459249e-02
-1.913744676671742112e-02
-1.913881343990044004e-02
-1.914017950660256567e-02
-1.914154496660279772e-02
-1.914290981968021568e-02
-1.914427406561398232e-02
-1.914563770418332631e-02
-1.914700073516756654e-02
-1.914836315834610170e-02
-1.914972497349839986e-02
-1.915108618040400890e-02
-1.915244677884257382e-02
-1.915380676859381598e-02
-1.915516614943753651e-02
-1.915652492115360594e-02
-1.915788308352196767e-02
-1.915924063632264140e-02
-1.916059757933573013e-02
-1.916195391234142009e-02
-1.916330963511997040e-02
-1.916466474745171303e-02
-1.916601924911704932e-02
-1.916737313989646391e-02
-1.916872641957052467e-02
-1.917007908791985848e-02
-1.917143114472515814e-02
-1.917278258976719968e-02
-1.917413342282683550e-02
-1.917548364368500124e-02
-1.917683325212270889e-02
-1.917818224792104675e-02
-1.917953063086118640e-02
-1.918087840072438266e-02
-1.918222555729198059e-02
-1.918357210034541543e-02
-1.918491802966620571e-02
-1.918626334503594280e-02
-1.918760804623631175e-02
-1.918895213304907740e-02
-1.919029560525609482e-02
-1.919163846263930578e-02
-1.919298070498071454e-02
-1.919432233206241206e-02
-1.919566334366656912e-02
-1.919700373957543976e-02
-1.919834351957135435e-02
-1.919968268343672305e-02
-1.920102123095403582e-02
-1.920235916190586589e-02
-1.920369647607488711e-02
-1.920503317324384618e-02
-1.920636925319558000e-02
-1.920770471571300528e-02
-1.920903956057911505e-02
-1.921037378757699254e-02
-1.921170739648980080e-02
-1.921304038710078613e-02
-1.921437275919327461e-02
-1.921570451255066522e-02
-1.921703564695643671e-02
-1.921836616219415109e-02
-1.921969605804745018e-02
-1.922102533430005561e-02
-1.922235399073578613e-02
-1.922368202713854377e-02
-1.922500944329232422e-02
-1.922633623898120300e-02
-1.922766241398935969e-02
-1.922898796810105018e-02
-1.923031290110063449e-02
-1.923163721277257321e-02
-1.923296090290141369e-02
-1.923428397127179695e-02
-1.923560641766845769e-02
-1.923692824187621733e-02
-1.923824944367998405e-02
-1.923957002286475620e-02
-1.924088997921563973e-02
-1.924220931251783423e-02
-1.924352802255661216e-02
-1.924484610911732924e-02
-1.924616357198542099e-02
-1.924748041094640622e-02
-1.924879662578589043e-02
-1.925011221628956937e-02
-1.925142718224323937e-02
-1.925274152343279047e-02
-1.925405523964420287e-02
-1.925536833066354356e-02
-1.925668079627696275e-02
-1.925799263627071128e-02
-1.925930385043112675e-02
-1.926061443854463692e-02
-1.926192440039775633e-02
-1.926323373577708623e-02
-1.926454244446931113e-02
-1.926585052626121272e-02
-1.926715798093966980e-02
-1.926846480829165140e-02
-1.926977100810422713e-02
-1.927107658016457073e-02
-1.927238152425994611e-02
-1.927368584017771086e-02
-1.927498952770530932e-02
-1.927629258663028991e-02
-1.927759501674029471e-02
-1.927889681782307338e-02
-1.928019798966645881e-02
-1.928149853205838107e-02
-1.928279844478686736e-02
-1.928409772764004895e-02
-1.928539638040615428e-02
-1.928669440287351239e-02
-1.928799179483054599e-02
-1.928928855606578535e-02
-1.929058468636785442e-02
-1.929188018552548123e-02
-1.929317505332749094e-02
-1.929446928956281282e-02
-1.929576289402047326e-02
-1.929705586648959581e-02
-1.929834820675940463e-02
-1.929963991461923142e-02
-1.930093098985849812e-02
-1.930222143226672377e-02
-1.930351124163352458e-02
-1.930480041774861738e-02
-1.930608896040181613e-02
-1.930737686938304928e-02
-1.930866414448233551e-02
-1.930995078548979407e-02
-1.931123679219563793e-02
-1.931252216439018066e-02
-1.931380690186383989e-02
-1.931509100440713389e-02
-1.931637447181068501e-02
-1.931765730386523008e-02
-1.931893950036160310e-02
-1.932022106109073864e-02
-1.932150198584366846e-02
-1.932278227441152491e-02
-1.932406192658553748e-02
-1.932534094215703283e-02
-1.932661932091746596e-02
-1.932789706265841331e-02
-1.932917416717156583e-02
-1.933045063424871507e-02
-1.933172646368176706e-02
-1.933300165526273193e-02
-1.933427620878372041e-02
-1.933555012403694387e-02
-1.933682340081471773e-02
-1.933809603890945805e-02
-1.933936803811368843e-02
-1.934063939822002615e-02
-1.934191011902119256e-02
-1.934318020031002699e-02
-1.934444964187948326e-02
-1.934571844352262968e-02
-1.934698660503263862e-02
-1.934825412620279697e-02
-1.934952100682649917e-02
-1.935078724669723679e-02
-1.935205284560862285e-02
-1.935331780335438831e-02
-1.935458211972836476e-02
-1.935584579452449480e-02
-1.935710882753684248e-02
-1.935837121855959672e-02
-1.935963296738705403e-02
-1.936089407381363231e-02
-1.936215453763386052e-02
-1.936341435864236821e-02
-1.936467353663388555e-02
-1.936593207140326067e-02
-1.936718996274544580e-02
-1.936844721045551804e-02
-1.936970381432864818e-02
-1.937095977416011458e-02
-1.937221508974530312e-02
-1.937346976087972114e-02
-1.937472378735899739e-02
-1.937597716897886818e-02
-1.937722990553519126e-02
-1.937848199682394579e-02
-1.937973344264122891e-02
-1.938098424278325571e-02
-1.938223439704635925e-02
-1.938348390522698708e-02
-1.938473276712170124e-02
-1.938598098252718172e-02
-1.938722855124023689e-02
-1.938847547305780350e-02
-1.938972174777692931e-02
-1.939096737519477656e-02
-1.939221235510862895e-02
-1.939345668731588465e-02
-1.939470037161407368e-02
-1.939594340780084747e-02
-1.939718579567397197e-02
-1.939842753503134842e-02
-1.939966862567099257e-02
-1.940090906739104504e-02
-1.940214885998976790e-02
-1.940338800326553079e-02
-1.940462649701682821e-02
-1.940586434104226571e-02
-1.940710153514057373e-02
-1.940833807911060069e-02
-1.940957397275130600e-02
-1.941080921586176358e-02
-1.941204380824114797e-02
-1.941327774968874820e-02
-1.941451104000398858e-02
-1.941574367898640449e-02
-1.941697566643565617e-02
-1.941820700215152878e-02
-1.941943768593393238e-02
-1.942066771758288804e-02
-1.942189709689854521e-02
-1.942312582368118171e-02
-1.942435389773120719e-02
-1.942558131884915620e-02
-1.942680808683568822e-02
-1.942803420149160840e-02
-1.942925966261785375e-02
-1.943048447001548620e-02
-1.943170862348569256e-02
-1.943293212282978452e-02
-1.943415496784921953e-02
-1.943537715834558685e-02
-1.943659869412061453e-02
-1.943781957497615204e-02
-1.943903980071417029e-02
-1.944025937113677549e-02
-1.944147828604620570e-02
-1.944269654524482735e-02
-1.944391414853512828e-02
-1.944513109571972126e-02
-1.944634738660133699e-02
-1.944756302098282069e-02
-1.944877799866714246e-02
-1.944999231945739732e-02
-1.945120598315682250e-02
-1.945241898956879059e-02
-1.945363133849680945e-02
-1.945484302974450491e-02
-1.945605406311563465e-02
-1.945726443841408124e-02
-1.945847415544385214e-02
-1.945968321400907974e-02
-1.946089161391401090e-02
-1.946209935496301391e-02
-1.946330643696059931e-02
-1.946451285971141296e-02
-1.946571862302024294e-02
-1.946692372669199880e-02
-1.946812817053172537e-02
-1.946933195434458891e-02
-1.947053507793588753e-02
-1.947173754111105812e-02
-1.947293934367567633e-02
-1.947414048543544968e-02
-1.947534096619620361e-02
-1.947654078576388503e-02
-1.947773994394458308e-02
-1.947893844054451873e-02
-1.948013627537004480e-02
-1.948133344822764595e-02
-1.948252995892395603e-02
-1.948372580726575112e-02
-1.948492099305994610e-02
-1.948611551611357726e-02
-1.948730937623382314e-02
-1.948850257322800109e-02
-1.948969510690356025e-02
-1.949088697706808163e-02
-1.949207818352928154e-02
-1.949326872609502201e-02
-1.949445860457330038e-02
-1.949564781877225275e-02
-1.949683636850014709e-02
-1.949802425356538665e-02
-1.949921147377651348e-02
-1.950039802894221186e-02
-1.950158391887129791e-02
-1.950276914337271267e-02
-1.950395370225553246e-02
-1.950513759532898628e-02
-1.950632082240243842e-02
-1.950750338328538502e-02
-1.950868527778745753e-02
-1.950986650571843312e-02
-1.951104706688823118e-02
-1.951222696110690991e-02
-1.951340618818467668e-02
-1.951458474793187417e-02
-1.951576264015897344e-02
-1.951693986467658432e-02
-1.951811642129545887e-02
-1.951929230982648103e-02
-1.952046753008066307e-02
-1.952164208186915606e-02
-1.952281596500324637e-02
-1.952398917929435568e-02
-1.952516172455405485e-02
-1.952633360059405354e-02
-1.952750480722620710e-02
-1.952867534426250967e-02
-1.952984521151510111e-02
-1.953101440879627393e-02
-1.953218293591846635e-02
-1.953335079269424845e-02
-1.953451797893633254e-02
-1.953568449445758012e-02
-1.953685033907099494e-02
-1.953801551258973340e-02
-1.953918001482709416e-02
-1.954034384559651810e-02
-1.954150700471158145e-02
-1.954266949198598877e-02
-1.954383130723359729e-02
-1.954499245026840651e-02
-1.954615292090454773e-02
-1.954731271895630146e-02
-1.954847184423809392e-02
-1.954963029656448664e-02
-1.955078807575016953e-02
-1.955194518160998512e-02
-1.955310161395891477e-02
-1.955425737261208205e-02
-1.955541245738475625e-02
-1.955656686809236280e-02
-1.955772060455046937e-02
-1.955887366657477894e-02
-1.956002605398112631e-02
-1.956117776658549551e-02
-1.956232880420400583e-02
-1.956347916665291883e-02
-1.956462885374862792e-02
-1.956577786530766180e-02
-1.956692620114669490e-02
-1.956807386108254734e-02
-1.956922084493218153e-02
-1.957036715251269168e-02
-1.957151278364132121e-02
-1.957265773813544885e-02
-1.957380201581260942e-02
-1.957494561649049045e-02
-1.957608853998692167e-02
-1.957723078611987161e-02
-1.957837235470744064e-02
-1.957951324556786443e-02
-1.958065345851951744e-02
-1.958179299338090942e-02
-1.958293184997069586e-02
-1.958407002810768141e-02
-1.958520752761081646e-02
-1.958634434829919363e-02
-1.958748048999204433e-02
-1.958861595250873874e-02
-1.958975073566877889e-02
-1.959088483929180904e-02
-1.959201826319761919e-02
-1.959315100720614156e-02
-1.959428307113744716e-02
-1.959541445481174232e-02
-1.959654515804936867e-02
-1.959767518067079967e-02
-1.959880452249663368e-02
-1.959993318334760787e-02
-1.960106116304459467e-02
-1.960218846140860879e-02
-1.960331507826081759e-02
-1.960444101342253068e-02
-1.960556626671522071e-02
-1.960669083796049567e-02
-1.960781472698009537e-02
-1.960893793359589493e-02
-1.961006045762990826e-02
-1.961118229890429152e-02
-1.961230345724133961e-02
-1.961342393246347585e-02
-1.961454372439325883e-02
-1.961566283285338247e-02
-1.961678125766668987e-02
-1.961789899865615944e-02
-1.961901605564490489e-02
-1.962013242845618913e-02
-1.962124811691342424e-02
-1.962236312084016457e-02
-1.962347744006010322e-02
-1.962459107439708597e-02
-1.962570402367510083e-02
-1.962681628771828155e-02
-1.962792786635088674e-02
-1.962903875939731382e-02
-1.963014896668210246e-02
-1.963125848802992068e-02
-1.963236732326555795e-02
-1.963347547221393555e-02
-1.963458293470012397e-02
-1.963568971054932902e-02
-1.963679579958688831e-02
-1.963790120163827480e-02
-1.963900591652908978e-02
-1.964010994408508723e-02
-1.964121328413217030e-02
-1.964231593649637050e-02
-1.964341790100386509e-02
-1.964451917748098048e-02
-1.964561976575416105e-02
-1.964671966564997957e-02
-1.964781887699514409e-02
-1.964891739961650147e-02
-1.965001523334103384e-02
-1.965111237799586907e-02
-1.965220883340827035e-02
-1.965330459940563268e-02
-1.965439967581548639e-02
-1.965549406246550404e-02
-1.965658775918349699e-02
-1.965768076579740842e-02
-1.965877308213532029e-02
-1.965986470802544642e-02
-1.966095564329614631e-02
-1.966204588777592868e-02
-1.966313544129343754e-02
-1.966422430367745569e-02
-1.966531247475690469e-02
-1.966639995436085184e-02
-1.966748674231850319e-02
-1.966857283845920706e-02
-1.966965824261244361e-02
-1.967074295460782829e-02
-1.967182697427511187e-02
-1.967291030144416655e-02
-1.967399293594499637e-02
-1.967507487760774415e-02
-1.967615612626269495e-02
-1.967723668174027607e-02
-1.967831654387104667e-02
-1.967939571248568734e-02
-1.968047418741501395e-02
-1.968155196848996730e-02
-1.968262905554162348e-02
-1.968370544840120431e-02
-1.968478114690005998e-02
-1.968585615086967944e-02
-1.968693046014168696e-02
-1.968800407454783866e-02
-1.968907699392001207e-02
-1.969014921809022003e-02
-1.969122074689060031e-02
-1.969229158015342249e-02
-1.969336171771109839e-02
-1.969443115939617517e-02
-1.969549990504133527e-02
-1.969656795447939993e-02
-1.969763530754332567e-02
-1.969870196406618701e-02
-1.969976792388119027e-02
-1.970083318682167364e-02
-1.970189775272112101e-02
-1.970296162141315505e-02
-1.970402479273152332e-02
-1.970508726651008791e-02
-1.970614904258284616e-02
-1.970721012078393425e-02
-1.970827050094761668e-02
-1.970933018290827940e-02
-1.971038916650043327e-02
-1.971144745155871056e-02
-1.971250503791788580e-02
-1.971356192541286190e-02
-1.971461811387866664e-02
-1.971567360315047354e-02
-1.971672839306357408e-02
-1.971778248345337423e-02
-1.971883587415541872e-02
-1.971988856500539802e-02
-1.972094055583913444e-02
-1.972199184649257170e-02
-1.972304243680178884e-02
-1.972409232660299327e-02
-1.972514151573251731e-02
-1.972619000402682510e-02
-1.972723779132250568e-02
-1.972828487745627302e-02
-1.972933126226495554e-02
-1.973037694558549618e-02
-1.973142192725496277e-02
-1.973246620711054805e-02
-1.973350978498956965e-02
-1.973455266072945968e-02
-1.973559483416777172e-02
-1.973663630514218767e-02
-1.973767707349050743e-02
-1.973871713905064537e-02
-1.973975650166064078e-02
-1.974079516115865435e-02
-1.974183311738296476e-02
-1.974287037017197211e-02
-1.974390691936419098e-02
-1.974494276479824700e-02
-1.974597790631289068e-02
-1.974701234374700437e-02
-1.974804607693958838e-02
-1.974907910572976100e-02
-1.975011142995675845e-02
-1.975114304945993493e-02
-1.975217396407876261e-02
-1.975320417365283854e-02
-1.975423367802188815e-02
-1.975526247702575830e-02
-1.975629057050439993e-02
-1.975731795829787849e-02
-1.975834464024638776e-02
-1.975937061619024299e-02
-1.976039588596987737e-02
-1.976142044942584552e-02
-1.976244430639882005e-02
-1.976346745672958802e-02
-1.976448990025904753e-02
-1.976551163682821466e-02
-1.976653266627820954e-02
-1.976755298845026335e-02
-1.976857260318572521e-02
-1.976959151032605527e-02
-1.977060970971283166e-02
-1.977162720118775044e-02
-1.977264398459261871e-02
-1.977366005976933377e-02
-1.977467542655990743e-02
-1.977569008480645901e-02
-1.977670403435123278e-02
-1.977771727503659094e-02
-1.977872980670500672e-02
-1.977974162919906437e-02
-1.978075274236146264e-02
-1.978176314603501476e-02
-1.978277284006264847e-02
-1.978378182428739557e-02
-1.978479009855241277e-02
-1.978579766270096088e-02
-1.978680451657641864e-02
-1.978781066002226890e-02
-1.978881609288210552e-02
-1.978982081499962645e-02
-1.979082482621864064e-02
-1.979182812638306463e-02
-1.979283071533691554e-02
-1.979383259292432154e-02
-1.979483375898953221e-02
-1.979583421337689775e-02
-1.979683395593087245e-02
-1.979783298649602161e-02
-1.979883130491701115e-02
-1.979982891103861109e-02
-1.980082580470570244e-02
-1.980182198576325991e-02
-1.980281745405635188e-02
-1.980381220943015080e-02
-1.980480625172993669e-02
-1.980579958080108324e-02
-1.980679219648906475e-02
-1.980778409863945613e-02
-1.980877528709791904e-02
-1.980976576171021575e-02
-1.981075552232220566e-02
-1.981174456877984186e-02
-1.981273290092917111e-02
-1.981372051861634079e-02
-1.981470742168759888e-02
-1.981569360998929399e-02
-1.981667908336787534e-02
-1.981766384166988235e-02
-1.981864788474195851e-02
-1.981963121243083062e-02
-1.982061382458331564e-02
-1.982159572104633463e-02
-1.982257690166691622e-02
-1.982355736629218268e-02
-1.982453711476934999e-02
-1.982551614694573819e-02
-1.982649446266876794e-02
-1.982747206178596053e-02
-1.982844894414493089e-02
-1.982942510959338420e-02
-1.983040055797911927e-02
-1.983137528915002168e-02
-1.983234930295406026e-02
-1.983332259923929405e-02
-1.983429517785387924e-02
-1.983526703864605875e-02
-1.983623818146416917e-02
-1.983720860615662690e-02
-1.983817831257193853e-02
-1.983914730055870435e-02
-1.984011556996561482e-02
-1.984108312064145063e-02
-1.984204995243507574e-02
-1.984301606519545125e-02
-1.984398145877163885e-02
-1.984494613301279048e-02
-1.984591008776814131e-02
-1.984687332288701672e-02
-1.984783583821881844e-02
-1.984879763361302799e-02
-1.984975870891921013e-02
-1.985071906398699904e-02
-1.985167869866611215e-02
-1.985263761280634670e-02
-1.985359580625757972e-02
-1.985455327886975763e-02
-1.985551003049291011e-02
-1.985646606097716052e-02
-1.985742137017271550e-02
-1.985837595792985452e-02
-1.985932982409894035e-02
-1.986028296853042593e-02
-1.986123539107483710e-02
-1.986218709158276557e-02
-1.986313806990488290e-02
-1.986408832589194040e-02
-1.986503785939477268e-02
-1.986598667026428719e-02
-1.986693475835146772e-02
-1.986788212350735702e-02
-1.986882876558307420e-02
-1.986977468442980774e-02
-1.987071987989881897e-02
-1.987166435184143515e-02
-1.987260810010904599e-02
-1.987355112455311060e-02
-1.987449342502515051e-02
-1.987543500137673932e-02
-1.987637585345952695e-02
-1.987731598112523965e-02
-1.987825538422567304e-02
-1.987919406261269215e-02
-1.988013201613823139e-02
-1.988106924465429803e-02
-1.988200574801295833e-02
-1.988294152606633752e-02
-1.988387657866662328e-02
-1.988481090566607615e-02
-1.988574450691701218e-02
-1.988667738227182027e-02
-1.988760953158295527e-02
-1.988854095470294139e-02
-1.988947165148437571e-02
-1.989040162177991081e-02
-1.989133086544225479e-02
-1.989225938232417820e-02
-1.989318717227851405e-02
-1.989411423515816818e-02
-1.989504057081609156e-02
-1.989596617910530107e-02
-1.989689105987886564e-02
-1.989781521298991662e-02
-1.989873863829163744e-02
-1.989966133563726702e-02
-1.990058330488011368e-02
-1.990150454587354470e-02
-1.990242505847098983e-02
-1.990334484252594127e-02
-1.990426389789193631e-02
-1.990518222442255736e-02
-1.990609982197144925e-02
-1.990701669039230196e-02
-1.990793282953887480e-02
-1.990884823926497918e-02
-1.990976291942447851e-02
-1.991067686987130561e-02
-1.991159009045944533e-02
-1.991250258104292764e-02
-1.991341434147584494e-02
-1.991432537161234168e-02
-1.991523567130660394e-02
-1.991614524041285944e-02
-1.991705407878538447e-02
-1.991796218627850737e-02
-1.991886956274660156e-02
-1.991977620804409252e-02
-1.992068212202544042e-02
-1.992158730454516441e-02
-1.992249175545781487e-02
-1.992339547461799421e-02
-1.992429846188034648e-02
-1.992520071709956431e-02
-1.992610224013037848e-02
-1.992700303082757182e-02
-1.992790308904597574e-02
-1.992880241464047020e-02
-1.992970100746597681e-02
-1.993059886737747269e-02
-1.993149599422998006e-02
-1.993239238787856971e-02
-1.993328804817834712e-02
-1.993418297498446637e-02
-1.993507716815211619e-02
-1.993597062753652699e-02
-1.993686335299297771e-02
-1.993775534437680283e-02
-1.993864660154336457e-02
-1.993953712434804945e-02
-1.994042691264627520e-02
-1.994131596629350120e-02
-1.994220428514522497e-02
-1.994309186905699610e-02
-1.994397871788440232e-02
-1.994486483148307648e-02
-1.994575020970870000e-02
-1.994663485241698897e-02
-1.994751875946369768e-02
-1.994840193070461162e-02
-1.994928436599554059e-02
-1.995016606519233598e-02
-1.995104702815089781e-02
-1.995192725472715381e-02
-1.995280674477706642e-02
-1.995368549815663972e-02
-1.995456351472191941e-02
-1.995544079432900672e-02
-1.995631733683402714e-02
-1.995719314209314435e-02
-1.995806820996256364e-02
-1.995894254029852502e-02
-1.995981613295729623e-02
-1.996068898779518666e-02
-1.996156110466852998e-02
-1.996243248343369109e-02
-1.996330312394707998e-02
-1.996417302606513441e-02
-1.996504218964431990e-02
-1.996591061454112970e-02
-1.996677830061209524e-02
-1.996764524771378613e-02
-1.996851145570279623e-02
-1.996937692443575066e-02
-1.997024165376931615e-02
-1.997110564356019413e-02
-1.997196889366511380e-02
-1.997283140394083556e-02
-1.997369317424415799e-02
-1.997455420443192131e-02
-1.997541449436099695e-02
-1.997627404388828756e-02
-1.997713285287072704e-02
-1.997799092116527703e-02
-1.997884824862893732e-02
-1.997970483511874590e-02
-1.998056068049176501e-02
-1.998141578460508813e-02
-1.998227014731583304e-02
-1.998312376848115218e-02
-1.998397664795821538e-02
-1.998482878560422019e-02
-1.998568018127639886e-02
-1.998653083483200796e-02
-1.998738074612832483e-02
-1.998822991502265806e-02
-1.998907834137234746e-02
-1.998992602503474325e-02
-1.999077296586721300e-02
-1.999161916372714856e-02
-1.999246461847196954e-02
-1.999330932995911983e-02
-1.999415329804606067e-02
-1.999499652259027760e-02
-1.999583900344926307e-02
-1.999668074048051997e-02
-1.999752173354155463e-02
-1.999836198248989422e-02
-1.999920148718308324e-02
-2.000004024747869744e-02
-2.000087826323433682e-02
-2.000171553430761182e-02
-2.000255206055615020e-02
-2.000338784183759711e-02
-2.000422287800960111e-02
-2.000505716892982816e-02
-2.000589071445596501e-02
-2.000672351444571923e-02
-2.000755556875682614e-02
-2.000838687724702455e-02
-2.000921743977406367e-02
-2.001004725619570657e-02
-2.001087632636972674e-02
-2.001170465015390462e-02
-2.001253222740603105e-02
-2.001335905798391074e-02
-2.001418514174535535e-02
-2.001501047854818000e-02
-2.001583506825022757e-02
-2.001665891070934788e-02
-2.001748200578340117e-02
-2.001830435333026154e-02
-2.001912595320781349e-02
-2.001994680527394502e-02
-2.002076690938654410e-02
-2.002158626540350914e-02
-2.002240487318274545e-02
-2.002322273258217919e-02
-2.002403984345973997e-02
-2.002485620567336783e-02
-2.002567181908100277e-02
-2.002648668354058831e-02
-2.002730079891007139e-02
-2.002811416504741288e-02
-2.002892678181059094e-02
-2.002973864905759419e-02
-2.003054976664643202e-02
-2.003136013443513122e-02
-2.003216975228173241e-02
-2.003297862004429358e-02
-2.003378673758088313e-02
-2.003459410474957639e-02
-2.003540072140845563e-02
-2.003620658741560312e-02
-2.003701170262911155e-02
-2.003781606690707012e-02
-2.003861968010757499e-02
-2.003942254208873619e-02
-2.004022465270866027e-02
-2.004102601182545379e-02
-2.004182661929723372e-02
-2.004262647498210662e-02
-2.004342557873818598e-02
-2.004422393042357142e-02
-2.004502152989635563e-02
-2.004581837701464517e-02
-2.004661447163655699e-02
-2.004740981362021154e-02
-2.004820440282372232e-02
-2.004899823910522016e-02
-2.004979132232284286e-02
-2.005058365233471779e-02
-2.005137522899897232e-02
-2.005216605217372688e-02
-2.005295612171709846e-02
-2.005374543748721095e-02
-2.005453399934219172e-02
-2.005532180714017509e-02
-2.005610886073930232e-02
-2.005689515999771466e-02
-2.005768070477354642e-02
-2.005846549492493192e-02
-2.005924953031000199e-02
-2.006003281078689790e-02
-2.006081533621375743e-02
-2.006159710644871488e-02
-2.006237812134991153e-02
-2.006315838077548860e-02
-2.006393788458358737e-02
-2.006471663263234215e-02
-2.006549462477989418e-02
-2.006627186088436737e-02
-2.006704834080387523e-02
-2.006782406439653124e-02
-2.006859903152045238e-02
-2.006937324203374867e-02
-2.007014669579452668e-02
-2.007091939266089989e-02
-2.007169133249098528e-02
-2.007246251514288246e-02
-2.007323294047468759e-02
-2.007400260834449682e-02
-2.007477151861040282e-02
-2.007553967113050869e-02
-2.007630706576291751e-02
-2.007707370236572544e-02
-2.007783958079701475e-02
-2.007860470091486424e-02
-2.007936906257735618e-02
-2.008013266564255897e-02
-2.008089550996853406e-02
-2.008165759541332904e-02
-2.008241892183497065e-02
-2.008317948909146833e-02
-2.008393929704081760e-02
-2.008469834554101052e-02
-2.008545663445002183e-02
-2.008621416362580889e-02
-2.008697093292631519e-02
-2.008772694220947730e-02
-2.008848219133322829e-02
-2.008923668015549779e-02
-2.008999040853420154e-02
-2.009074337632724486e-02
-2.009149558339252961e-02
-2.009224702958795766e-02
-2.009299771477142740e-02
-2.009374763880082335e-02
-2.009449680153401266e-02
-2.009524520282884169e-02
-2.009599284254314638e-02
-2.009673972053474186e-02
-2.009748583666140856e-02
-2.009823119078091649e-02
-2.009897578275101834e-02
-2.009971961242945290e-02
-2.010046267967393469e-02
-2.010120498434215738e-02
-2.010194652629179041e-02
-2.010268730538050663e-02
-2.010342732146596853e-02
-2.010416657440582469e-02
-2.010490506405772371e-02
-2.010564279027930029e-02
-2.010637975292817528e-02
-2.010711595186195563e-02
-2.010785138693823443e-02
-2.010858605801458393e-02
-2.010931996494855906e-02
-2.011005310759768350e-02
-2.011078548581947401e-02
-2.011151709947144040e-02
-2.011224794841107860e-02
-2.011297803249587415e-02
-2.011370735158330217e-02
-2.011443590553080654e-02
-2.011516369419580688e-02
-2.011589071743570198e-02
-2.011661697510786634e-02
-2.011734246706966406e-02
-2.011806719317844189e-02
-2.011879115329151535e-02
-2.011951434726619303e-02
-2.012023677495976964e-02
-2.012095843622950520e-02
-2.012167933093263888e-02
-2.012239945892636828e-02
-2.012311882006786318e-02
-2.012383741421426564e-02
-2.012455524122269690e-02
-2.012527230095025738e-02
-2.012598859325402320e-02
-2.012670411799103581e-02
-2.012741887501832624e-02
-2.012813286419291164e-02
-2.012884608537179182e-02
-2.012955853841196310e-02
-2.013027022317040449e-02
-2.013098113950408108e-02
-2.013169128726994411e-02
-2.013240066632491360e-02
-2.013310927652587831e-02
-2.013381711772970969e-02
-2.013452418979326183e-02
-2.013523049257335065e-02
-2.013593602592676779e-02
-2.013664078971028407e-02
-2.013734478378064949e-02
-2.013804800799460018e-02
-2.013875046220883411e-02
-2.013945214628002495e-02
-2.014015306006481862e-02
-2.014085320341985064e-02
-2.014155257620173917e-02
-2.014225117826707462e-02
-2.014294900947242312e-02
-2.014364606967431956e-02
-2.014434235872927803e-02
