9.933339673918188846e-04
4.311854854041375328e-03
3.012910048342162458e-03
4.557922024007565851e-04
2.952100118538642588e-04
8.353156536663880471e-04
-6.969600759771276332e-04
-3.267365269342859153e-03
-2.184633264621147104e-03
1.136433422973603469e-03
3.907782827585738923e-03
2.733614795822820933e-03
-4.361890705040290142e-04
-3.033932949641614078e-03
-4.008354025054134545e-03
-4.128526626922948868e-03
-2.168911536045080649e-03
1.885418453603600461e-03
4.242937236714696032e-03
3.711957992663513124e-03
2.461142235161970990e-03
-6.963964747519077675e-04
-2.675119849845475350e-03
-2.831787277490939621e-03
-3.719392402041959479e-04
1.224765853681370007e-03
2.138946608222413916e-03
3.159724166690532077e-03
2.328019047252488562e-03
-2.011199650932116775e-03
-4.341852930908709704e-03
-2.352314339967612536e-03
-5.976658284753407846e-04
-5.824740144915742076e-04
-6.101269211910022826e-04
-6.684022037170615728e-04
-1.517277432384945375e-03
-1.335570416814171619e-03
6.135681810373150129e-04
2.759272995046954668e-03
5.188866572883304475e-03
6.749211811928838151e-03
4.744462044735602881e-03
3.333946639545740109e-03
8.753555961575415966e-04
-3.504249224310356393e-03
-5.167818731910613084e-03
-4.792353037007071950e-03
-7.140548373405420333e-03
-7.018265666329323409e-03
-4.380232934505206253e-03
-2.044883987640460244e-03
-8.189845323750244129e-04
3.086061169699343305e-03
6.903466132603820749e-03
8.013122320855955646e-03
6.067567249920952262e-03
4.052605272876272716e-03
1.874619451952774579e-03
1.749051974188531766e-04
-1.193345835518233979e-03
-2.244233417605665751e-03
-2.699877538663082721e-03
-3.356704049830722732e-03
-3.637702204873279836e-03
-3.723789924847948143e-03
-5.466483401982980168e-03
-3.689751162239258715e-03
3.737751949957623075e-03
7.507378380822434666e-03
4.261827119390194062e-03
1.016733417265398799e-03
1.272696543400344714e-03
2.420218126389805328e-03
9.280945601992353832e-04
-9.410489289307621659e-04
-1.994683051870974229e-03
-2.565269490767475066e-03
-2.218807002169331279e-03
3.996413639959270456e-04
-8.256306737415528311e-04
-6.053820483033565091e-03
-7.505935209927133006e-03
-1.522434036261543491e-03
6.702519386765917568e-03
1.044117544110210842e-02
8.142923885877182202e-03
3.738303676466542616e-03
-7.341967980396146452e-05
-3.040883083095636142e-03
-1.098395134416365899e-03
-3.967999828540344129e-04
-2.495218001841669614e-03
-4.354830043858638582e-03
-4.743265450361910940e-03
-5.758795216997227191e-03
-4.134190491520081841e-03
-2.380128890962071066e-03
-2.536331748923232200e-03
1.753833232803784061e-03
8.448778900142660600e-03
1.274525673249418158e-02
9.970499795579334038e-03
3.513076469131996664e-03
-2.124125972018232433e-04
-5.494638063403918006e-03
-9.161483487286020341e-03
-6.523787092133228639e-03
-6.763187282571287264e-04
-5.081979486702274977e-05
-2.085388247269798039e-03
-2.417000174540969988e-04
3.025213079739317700e-03
1.911698368867910261e-03
-3.766494442017603405e-04
2.858155471020172003e-04
3.297065051107965581e-03
2.867958529218760707e-03
9.909569463510921935e-04
-2.936712015502706066e-03
-6.620531461961118476e-03
-6.090126672753184284e-03
4.849486756541312418e-04
6.537612732747155424e-03
5.799149102777231141e-03
1.758449193382767518e-03
1.710804521979762812e-03
4.319111070539205705e-04
-2.882862889726109986e-03
-3.852789319704172117e-03
-3.589949390761234399e-03
-1.372271010379568076e-03
2.612092450345807407e-03
5.740488535385929354e-03
3.872439729702980855e-03
-1.172686390446305753e-03
-7.108237887740971768e-03
-7.518039157237009669e-03
-3.758930702284358442e-03
2.361737546198163992e-03
6.294693930443102416e-03
6.238978565063515135e-03
3.749781556837959197e-03
1.295597646490179644e-03
-1.098757304589698851e-03
-2.188799632534736347e-03
-2.712627536991250952e-03
-2.336787869792095445e-03
-8.748795125197585771e-04
-2.697815035695002510e-04
-4.732674910936462520e-04
1.011327593782459199e-03
4.092413086260012628e-03
-1.540300967000344349e-05
-4.074742586377056407e-03
-3.749647493734880287e-03
-4.323421240160804473e-03
-3.003102207670740528e-03
2.072681919921030673e-03
5.572436677279754037e-03
6.106303308483842195e-03
4.697397054529382603e-03
3.713273146837360855e-03
1.680265319090932944e-03
-2.286465738967530508e-03
-4.813647803325460731e-03
-2.533793370922976691e-03
2.125537361901251414e-03
1.713482881289409400e-03
-1.435159634583637461e-03
-2.212382417806746816e-03
-2.955524696914457305e-03
-2.305697056735957293e-03
-5.481995240935187740e-04
-3.277141806235614203e-03
-5.684027205555006526e-03
-2.788635001582885544e-03
2.769665293125648034e-03
4.536245482249715369e-03
4.743090131172487088e-03
4.228868361121088972e-03
4.415725647985349958e-03
3.185600957880731568e-03
1.746272156248697459e-03
-1.316640597300217314e-03
-2.709612432306334959e-03
6.940360139589114808e-04
1.945385761780182984e-03
-1.779375873467615868e-03
-3.523385511422286002e-03
-1.188683153329915662e-03
1.097694485124972716e-03
1.838743136986473051e-03
-3.476077171552880134e-03
-1.062252502377697416e-02
-8.782204547065117217e-03
-1.149911824853170348e-03
7.007974216519191829e-04
1.828162870472631839e-03
4.375891849912338233e-03
5.269668211041739561e-03
6.122751533987305823e-03
7.886301126174076470e-03
9.013814430878034842e-03
5.156597462347329436e-03
-1.522645980521509243e-03
-3.560457481143830885e-03
-5.574596059304360272e-03
-9.753855015203701656e-03
-9.282888522715374013e-03
-4.046728704127758140e-03
2.277704202661838019e-03
7.416013929407018306e-03
8.516617978656935636e-03
4.289107666262319089e-03
-4.079317273759962455e-03
-1.063516202336201553e-02
-8.169567615062054214e-03
-7.336049189125040367e-04
5.359472561853467938e-03
6.563143094007045653e-03
4.531718009854628949e-03
2.756136549327352012e-03
-6.142614044040559844e-04
-4.842834142186451703e-03
-9.357070095960614772e-03
-5.207972021606366818e-03
5.699939518874170413e-03
9.842310897077537202e-03
6.334166101214045407e-03
2.199238554137168938e-03
-1.055896130737220056e-03
1.107298134026971428e-03
4.210939822685322124e-03
1.084509836236879053e-04
-1.049599060011486770e-02
-1.437908759195980976e-02
-7.461707080771256585e-03
2.140741769393374357e-03
6.018599960296653305e-03
4.314160066041467477e-03
1.444098127703891945e-03
1.211577685452130309e-03
5.123758513892954190e-03
8.117093246436484638e-03
2.829734250485442699e-03
-2.543487358727696511e-03
-3.625619401284847863e-03
-3.056642658533500773e-03
-2.095591777883027470e-03
-1.988958703196383373e-03
-1.983535002605409624e-03
-1.613545885928020914e-03
-2.379476404863860479e-03
-3.172832111604836480e-03
-3.484707198392548565e-03
4.032957331463916527e-04
5.647095950823278164e-03
4.665002633634301836e-03
4.969108876662236586e-03
8.868135467979760059e-03
5.990327852619732781e-03
-2.147387407852447729e-03
-5.491453324389731529e-03
-5.739552885577313933e-03
-5.805535843192933566e-03
-4.778549710779646069e-03
-2.191990983362378936e-03
1.367245816960571464e-03
3.341966058124833539e-03
2.100588094976527098e-03
1.368227079790057554e-04
-3.608920184427568431e-04
-2.398137235127225254e-03
-5.025287403732138676e-03
-1.970115498685248191e-03
3.708375663370804768e-03
4.498410415681252869e-03
4.759745039139643037e-03
6.532912180816996019e-03
5.117198949960504242e-03
9.788662079312853651e-04
-2.393916044705725397e-04
1.612244521349687687e-03
-1.084964716994699617e-03
-6.005021914837314553e-03
-5.748366171029255407e-03
-5.838447718450114586e-03
-7.627102575443777017e-03
-7.073862432570180402e-03
-4.974392635698976321e-03
-1.037422287226750606e-04
5.734909492640724062e-03
7.389645785471836252e-03
6.872728822985279575e-03
6.480133169343624960e-03
4.965988464770846982e-03
2.876408352607156584e-03
8.687268422631291452e-04
-4.391750248560422824e-04
-1.531552039864990692e-03
-2.460954204746106360e-03
-2.381091092030824044e-03
-2.588913893435487897e-03
-1.937984072532644405e-03
-1.408590054290209193e-03
-1.203102790416023379e-03
-1.200661488252681994e-03
-3.398053777090345902e-03
-6.876323554690448245e-03
-4.753354903935837206e-03
2.839931192436670297e-03
7.684133179650551489e-03
8.417663200158260334e-03
6.868588727627661372e-03
2.405190057527322074e-03
-1.045710520858640332e-03
1.341429626476995599e-03
1.410173601244391105e-03
-4.423802167892776187e-03
-7.993885863592843991e-03
-5.702539408378792113e-03
2.247374755591664656e-03
5.600507258568711809e-03
1.446170073991407496e-03
-4.560626904765199309e-03
-7.813538065615188710e-03
-4.605210683477263707e-03
1.307028992282190235e-03
5.562080325405107002e-03
7.919295344510326323e-03
7.064968726503036145e-03
3.049552783371543493e-03
-1.951777518050979094e-03
-5.165596549463298374e-03
-6.423883381220824029e-03
-4.500660916311710613e-03
-3.151701248973660832e-04
3.374075278010611745e-03
3.495606583023475912e-03
2.158630743262219490e-03
1.313383060619684401e-03
1.379541501717076492e-03
3.332771047206525470e-04
-4.910772359908821376e-04
-9.748704360297060162e-04
-1.448325580499020037e-03
-1.313730273668657330e-03
4.180824357496684034e-05
-4.140411759102485280e-04
-1.271261916927382638e-03
-1.713903448899046101e-03
-1.980343750853459130e-03
-1.231017120612515033e-03
-4.528632899829235963e-04
-3.294185449119577829e-04
-4.848197875325993490e-04
-1.011844647799916056e-04
7.016028406869924145e-04
2.844236245307365553e-03
4.469873661143573124e-03
5.978634532701580795e-03
6.215006233771845981e-03
3.236106928451913320e-03
-3.393874379579747583e-04
-2.355927809627936156e-03
-3.092739418987792976e-03
-3.726017772631284777e-03
-4.029656729965565808e-03
-5.877049459966946117e-03
-7.896508082642429358e-03
-6.844870003698642381e-03
-3.258010672152431789e-03
5.240322740282190748e-04
5.228129652595454001e-03
1.036240373622278332e-02
1.008346942216460304e-02
5.392550609294743426e-03
-4.498938750796658312e-04
-4.674781534103748457e-03
-3.936747246710165307e-03
1.110770677996231063e-03
2.463477614809280250e-03
1.557534826753014532e-03
-1.403611150574226186e-03
-3.778184172431316157e-03
5.914992602716631588e-04
8.571183615050326221e-03
8.964555876517855612e-03
-2.359603297506678086e-04
-1.046903255846124564e-02
-1.236567309384143526e-02
-8.413469216025008454e-03
-8.535961862111942494e-03
-1.072402094934164427e-02
-1.020651887948077589e-02
-3.284580530197800646e-03
1.600380365643467792e-02
3.144915612266986626e-02
2.861065265968246868e-02
1.418610679766029760e-02
-1.840209558967500743e-03
-1.122321529808214223e-02
-1.445920496644570105e-02
-1.359350272797856841e-02
-1.219936948235264551e-02
-8.035188080670994590e-03
-9.647325045801644810e-04
4.153053655684669186e-03
5.556092231727698984e-03
6.869395493381068134e-03
7.643808457856661638e-03
6.253223672332030789e-03
6.550251262171261036e-04
-6.882708361367878731e-03
-9.937881919999246028e-03
-8.621582991294595918e-03
-8.366236819917027487e-03
-5.899624279537329929e-03
2.652878173913666461e-03
9.239069020696823523e-03
1.064728665736594179e-02
6.659712676960110288e-03
3.453452938164444761e-04
-4.388919692008692343e-03
-6.615201820674767100e-03
-4.468436400171255508e-04
1.306839546079864231e-02
1.955385640912576939e-02
1.375431244885044237e-02
5.817496450679151242e-03
-3.435054123410365037e-04
-8.696626425583846645e-03
-1.625875735912325759e-02
-1.947829704331028103e-02
-1.772716423036690275e-02
-1.909322125471379222e-02
-2.039857917901816489e-02
-8.135652028903289645e-03
1.006783251085197756e-02
2.387220867956715148e-02
2.521842112286201698e-02
1.332262231126354023e-02
3.492000336041293194e-03
3.296373537039923828e-03
5.382830066633995970e-03
3.189551201059626084e-03
4.136721435471118796e-04
3.092842098139152781e-03
2.996171741039090064e-03
-2.053786975743089778e-03
-7.387928571615048033e-03
-1.015809368385054041e-02
-9.614947454522180734e-03
-7.848620600419548010e-03
-5.805844871464700858e-03
-3.739798621366428703e-03
-1.515138046771049131e-03
-1.408745696033069923e-04
-1.325544602702637262e-03
-2.459075137724345619e-03
3.520050346165739998e-03
1.147245644379793310e-02
1.441512608753330732e-02
9.304424657505602422e-03
1.908417131013142752e-03
-2.353462922796689498e-03
-3.598307251424721562e-03
-3.813381271783464026e-03
-3.186979848705993011e-03
-2.541358630147808571e-03
-1.492892646439561823e-03
-2.748550949088284195e-04
1.032757577510150194e-03
2.356530966195037949e-03
-2.927262509585329148e-03
-8.306073423590949398e-03
-4.963805842107266685e-03
2.044115261572701861e-03
4.774792060117747511e-03
4.143880607881798676e-03
5.039378101233897740e-03
4.111817889412297533e-03
1.674507061274411969e-03
-1.043374801661633685e-03
-2.811574986341525226e-03
-4.533776787612630275e-03
-6.957757292991723075e-03
-3.656144051563809273e-03
8.146333264607584284e-04
1.135561333379376181e-03
3.123959257387724786e-03
6.030258848265118883e-03
5.892578625762800830e-03
2.707272223411755826e-03
-1.096458814741215490e-03
-5.384831425191273328e-03
-6.670775753099759085e-03
-2.840859310186278405e-03
3.185689163587392125e-03
5.900984066189380109e-03
3.619325825563752836e-03
-4.527967181903368925e-04
-1.114174000376242334e-03
-2.153857330969238901e-03
-3.685768046036611012e-03
-5.658848058078296689e-03
-6.028243736023061912e-03
-2.285177174264265993e-03
2.739184389380364300e-03
6.818220041865595896e-03
7.560539841224757189e-03
5.303916266210575818e-03
3.112068237927703533e-03
6.703975036482840875e-04
-3.881325331546481815e-03
-5.400576881196110686e-03
-3.334280250906418702e-03
-2.477073513115568039e-03
-2.285919614624420341e-03
2.818222585470467681e-03
7.278874310413492935e-03
3.714208447581978951e-03
-1.364319834431807843e-03
-2.808851190127273963e-03
-4.462993379243973199e-03
-7.869611254107341386e-03
-5.862669975889200219e-03
1.883819941677631932e-04
8.920412669399713571e-03
1.088584803029919897e-02
5.486798230642254623e-03
6.680628960819512364e-04
-2.494376959503366922e-03
-6.435090139476386251e-03
-6.263329837019897608e-03
-1.815380053425160898e-03
1.126164752423372767e-03
1.971779850078314057e-03
4.417779077384743620e-04
3.799976546160620141e-04
3.038683473168238020e-03
3.720336000053091514e-03
9.319747997995813998e-04
-1.937188702132386581e-03
-5.314014838613342548e-03
-6.728615745933225201e-03
-3.867805758172267357e-03
-8.337076866340231230e-04
2.381694695955469641e-03
5.926143039088767848e-03
9.016742804193145569e-03
8.871427932523257703e-03
5.441293043958579656e-03
-7.208084550448897636e-04
-6.011771165679844799e-03
-7.432073734439686129e-03
-5.019156372028496862e-03
-2.604004378775347933e-03
-3.992874930419622846e-03
-6.863610434713190815e-03
-4.752643491018276357e-03
-3.152679680819948189e-05
3.866083410884268642e-03
7.011899058054256104e-03
9.921356011047080883e-03
6.221264055793045318e-03
-5.707400696278471354e-04
-1.930690894103556697e-03
1.330303094015652162e-03
3.953837171602266227e-03
3.718408165086095705e-03
-8.403888300786685256e-04
-5.689934077959027045e-03
-8.157757224540157157e-03
-7.686812241963125215e-03
-5.830488366937888051e-03
5.154917664010860758e-06
3.589681076150116543e-03
2.528442920562276684e-03
3.921902452259784099e-04
1.482051287283231889e-04
1.253547112729057897e-03
4.683687958786549033e-03
6.823729337450012977e-03
3.279857272139265721e-03
-8.982045116276870427e-04
-1.591860974547793873e-03
-2.629559203127654517e-03
-4.643600021093507481e-03
-1.826462768357431442e-04
5.693374400830141825e-03
1.062835430690054839e-03
-7.219942949156677760e-03
-8.171439126112347087e-03
-2.242655318615656944e-03
3.257160726794758321e-03
4.991463602719505184e-03
2.829762231390005670e-03
-3.088935182096192301e-04
-1.206006048188937134e-03
-8.417435373370909339e-06
1.753711872631988399e-03
3.455281538274311993e-03
3.546023095107860967e-03
1.383662917254822790e-03
-2.152475169484109521e-03
-2.521201370072257818e-03
-5.178685745366335422e-04
-1.202372497409459054e-03
-3.672856718032229979e-03
-4.421176417540448149e-03
-2.826316149572093584e-03
-1.156435223253758507e-03
3.103157107669362734e-04
2.518143985472039506e-03
4.576798958741763908e-03
5.282885632123899416e-03
4.337274026531713796e-03
6.651617164995540744e-04
-2.395381613097912095e-03
-1.516047570023196581e-03
2.353076333197920596e-03
1.699350500674077146e-03
-3.204243515100570552e-03
-6.278157620755980828e-03
-4.177496889744013002e-03
3.533796574630682194e-04
3.974716774434078163e-03
2.903030055141810409e-03
-2.208368092551357253e-03
-7.646011185088250582e-03
-7.708573365888028890e-03
1.626252269776870671e-03
1.293120666751446622e-02
1.571748198261618129e-02
8.333788191347992966e-03
-3.712721221473321877e-03
-1.187480344749148459e-02
-1.371762305456067019e-02
-1.062723079923360951e-02
-2.621125749606626094e-03
6.005702055175944458e-03
1.247748637311980359e-02
1.385734999415867003e-02
5.673176278469597468e-03
-4.958754381831188308e-03
-1.001180026983138245e-02
-7.258297721110262141e-03
-1.485329106672081617e-03
5.427949938475055101e-03
5.816336556860173500e-03
-3.411127254972108331e-04
-4.046077303173841420e-03
-2.844091702443559463e-03
-5.195781430896853148e-04
-1.756767045433524788e-03
-4.360619137017937401e-03
-3.075756705282068661e-03
2.015934832442535518e-03
4.268826016899985622e-03
5.116422869788818904e-03
5.369342910920897778e-03
5.059976895317798949e-03
1.458275860084971972e-03
-2.229139529018689739e-03
-5.247987413394717728e-03
-5.019575576060236917e-03
-1.866644138123979687e-03
1.142960844040179702e-03
1.098103966010335756e-03
-1.244712215366715596e-03
-8.784588715651033301e-05
-1.573480290728594883e-04
-8.356360195190604741e-04
-2.572803003368850580e-03
-1.396695688127686658e-03
2.497271623181167278e-04
8.289689708706697970e-04
2.757549509467756375e-03
3.401104519280308269e-03
3.618623750149119103e-03
3.491263203970957837e-03
3.546484413222460944e-03
1.559218245129238541e-03
-2.863334626014800693e-03
-5.221855515676639484e-03
-3.441049608337473122e-03
-1.524672528602670886e-03
-1.310523676144442371e-03
1.957487808555812524e-03
1.319031188130028506e-03
-4.052362848535975316e-03
-9.617477348959358949e-03
-9.599198988114008776e-03
5.656996391141454151e-04
7.582247788127727435e-03
5.461310020213614239e-03
2.068685130584663537e-03
5.687582747083265965e-03
1.005896540935315858e-02
8.723427326897771616e-03
3.112021638412013763e-03
-4.006523782363213826e-03
-6.071965870431532755e-03
-4.314279902726115938e-03
-1.176588937520544166e-03
-4.526844715653642495e-04
-7.126715036146932499e-04
-1.854111789104324068e-03
-3.264488428129706018e-03
-5.344818864124970675e-03
-7.986127965605051629e-03
-1.057658208673363520e-02
-4.536378843627406413e-03
7.593276890001394996e-03
1.228488534700495141e-02
8.657435704500379692e-03
4.339785742676000209e-03
9.613647984381246776e-04
-1.737057155590748152e-03
-3.161182468397165900e-03
-7.948534715040457554e-04
4.311329442539783494e-03
9.074486559103431618e-03
8.391873655110808697e-03
3.396501592355162004e-03
-6.604846598744054708e-04
-4.460531461544523305e-03
-7.731478969780095599e-03
-8.162137369534260695e-03
-9.781813313612382904e-03
-1.028890794431336873e-02
-7.918033126003552746e-03
-1.905967340384959749e-03
1.694892031224437242e-03
3.718936766260422353e-04
-3.651245329754316746e-03
-2.981848065745747005e-03
6.373073369238274437e-03
1.644224064943242483e-02
2.589289122482531583e-02
3.224494947737448908e-02
2.150184332370468424e-02
-5.281775012720865865e-03
-2.678605143545785203e-02
-2.992937873822584804e-02
-2.219823042913217359e-02
-1.239697691629630845e-02
-2.240632958329818493e-03
3.578590635090896956e-03
7.421942580078552633e-04
-6.774682701053075587e-03
-7.029411761637931709e-03
2.773509815318765150e-03
1.366261853606458299e-02
1.799806182948477176e-02
1.616633898313443035e-02
1.153321208106504112e-02
8.457435428220241511e-03
3.752567176206347312e-03
-4.295313697315578799e-03
-9.802959700703786639e-03
-8.268338034805144954e-03
-5.396431405133172814e-03
-1.066920141596140910e-02
-1.505173204998091867e-02
-1.036178822169648607e-02
-1.627961680070909344e-03
4.043370744387296718e-03
4.017364779414265598e-03
2.861238998859070432e-03
6.070358949787231159e-03
9.217200641609973530e-03
8.617691922370994059e-03
3.609204979481192739e-03
1.427427598020401421e-03
3.472622785900560637e-03
4.245391047490355667e-03
-1.474013468291301933e-03
-4.424780344825396221e-03
-3.437303896429252069e-03
-7.863979587972007995e-03
-1.269899148248209222e-02
-1.062787447066931151e-02
-3.623554548060756685e-03
1.932881448397416211e-03
4.858286183069483906e-03
1.098979767196463231e-02
1.684940162932369728e-02
1.253659118928197001e-02
2.324523032273918995e-03
-8.767281650534869061e-03
-1.390143853257624039e-02
-1.113169727209285288e-02
-6.449983488999204255e-03
2.391284377205122637e-03
8.638401288424130478e-03
6.607493978795737910e-03
3.586217925596336606e-03
1.675978896682470522e-03
5.394777416045550130e-04
-1.682049537295706105e-03
-4.704674579723499943e-03
-5.337072908290086369e-03
-4.040949235683800010e-03
-2.642722665037738547e-03
-6.733987519965284893e-04
2.492009100529302221e-03
5.647048731328541994e-03
5.445084754725072577e-03
2.042523542603837377e-03
1.691941597437600668e-03
2.857658276137672523e-03
3.695449978756819472e-03
-2.319519847199084136e-04
-5.573860783471107361e-03
-7.748099772685228780e-03
-7.040932085811844356e-03
-6.164192019854553527e-03
-5.068473685514221332e-03
7.315724108309349131e-04
9.928168541048592449e-03
1.129410258881552616e-02
5.649582820041572188e-03
1.585814727361266113e-03
2.035818565451440014e-03
1.528915539068934721e-03
-1.599233555181072590e-03
-6.270754805775474901e-03
-9.577262585742556469e-03
-9.371323077616349959e-03
-5.791972480530037035e-03
7.167614865624618746e-04
3.755748918486477572e-03
6.223975977471172226e-03
1.070012108896884785e-02
1.089388159111338329e-02
4.309788414110344267e-03
-1.189200490324613226e-03
-4.160996583894443351e-03
-6.372530126910677661e-03
-4.399108292715642188e-03
-1.518532328790695796e-03
-2.669649792883714914e-03
-3.462402867217835578e-03
-2.841769478643489926e-03
-2.326754169969200928e-03
-1.284597744011731300e-03
7.740275520253577651e-04
2.661635227943625649e-03
4.558051642473795982e-03
4.494205154544134682e-03
3.535352680668599461e-03
5.016060235817389190e-03
2.639358583816148272e-03
9.276324653462638672e-04
1.191356190022974755e-03
1.645873440655211384e-04
-2.355910128923105820e-03
-4.111536380633666783e-03
-4.188573416983464373e-03
-6.369832842677239371e-03
-1.058812729300628343e-02
-1.048756058187250324e-02
-3.043662628980811809e-03
3.796300220897437343e-03
7.884589297747697165e-03
1.346938934795408223e-02
1.470298088154395680e-02
7.534793788774985131e-03
-1.137390839250392765e-03
-5.826184730109078107e-03
-4.585723165658264766e-03
-2.513189557376270013e-03
-1.821191462461867411e-03
-2.133406539146094107e-03
-1.696609869730060722e-03
-1.493391297186535309e-03
-1.117065460148118595e-03
-9.048404297020328163e-04
-1.021426727483576609e-03
-8.499155081740858431e-04
-6.733388492130531729e-04
-1.534114487267255350e-04
-3.198910881677538500e-04
8.522349474003148824e-05
4.814895992472635025e-04
1.648616516545640997e-03
2.212387035981610607e-03
3.372102009569200119e-03
4.322440453818795353e-03
5.612508211262900830e-03
6.861847809610236402e-03
1.427155892297871922e-03
-7.719491397132924836e-03
-7.217934342790374713e-03
-1.692240713851723847e-03
-2.757488159313955904e-03
-8.721973612399834888e-03
-1.221700407829462258e-02
-9.356787087245807891e-03
-9.676180560020598191e-04
1.030001309068090745e-02
1.782294702671570127e-02
1.633502414952067369e-02
1.275347617123657670e-02
5.729842462609762745e-03
-2.902916034586607193e-03
-8.733420828769549935e-03
-1.056055433842603176e-02
-1.282538597691098084e-02
-1.599122014093731781e-02
-1.272630508487603354e-02
-3.622869632426264051e-03
4.931987523084838988e-03
1.310577873523550985e-02
1.845467807715790373e-02
1.896683059338303765e-02
1.321106394427400653e-02
2.932875273384602001e-03
-8.311114826953406448e-03
-1.483599373630810694e-02
-1.369758841914962486e-02
-8.799481667222304807e-03
-5.390165024251482480e-03
-2.428451591934231539e-03
7.030912965129099091e-04
3.889255010366385150e-03
7.038462118437585797e-03
7.328001730094778690e-03
1.637116820137370218e-03
-2.474060858726072169e-03
2.596608789307146043e-04
3.649134346803757211e-03
2.255443448523671533e-03
-2.507562193270002071e-03
-2.830816155473995545e-03
2.322038747680460848e-04
1.238155685413639914e-04
-4.230151225987329247e-03
-6.588216193145341772e-03
-3.463416674825327540e-03
3.435528360877490410e-03
7.814774887030225339e-03
9.172137076634124739e-03
8.374179245471046959e-03
3.540315171595326965e-03
-4.153088174304330610e-03
-9.245152288202480514e-03
-8.545051467708682236e-03
-4.941554881142021238e-03
-2.365222188052568467e-03
-1.822125480170069681e-03
-1.245723864797233836e-03
2.232308135593315452e-04
1.006390866086559694e-03
1.349555641608523801e-03
1.786092826671661004e-03
2.517048939255665026e-03
3.709021201168846184e-03
5.490020969800840298e-03
7.338878296444755096e-03
9.767785112846268103e-03
6.396129543012257952e-03
1.815459452659670117e-03
-5.943387241893942005e-03
-1.532404912739101545e-02
-1.665315269572324383e-02
-1.028824320550656042e-02
-4.324426319567632911e-03
1.120581214272203764e-03
4.591318014925616781e-03
2.825258415674399178e-03
1.114832859631972655e-03
4.900720356639682099e-03
8.925141131611918563e-03
7.750399140124978291e-03
5.671176292100310080e-03
4.506333491778369282e-03
3.981675573723760073e-04
-4.430575770141474863e-03
-4.107379962535323559e-03
6.853928038341017661e-05
1.011739126636780920e-03
-4.373034754104409595e-03
-9.842108852718927173e-03
-9.421390924570314379e-03
-7.019253257053474464e-03
-2.392947254859680538e-03
4.417565330038816622e-03
5.600804723206884161e-03
2.497384107109058664e-03
4.060606659212145399e-03
8.076390768963393960e-03
6.037388110791918477e-03
2.059135953620863831e-03
3.114016022477301970e-03
1.640002260739854617e-03
-2.631952506859857807e-03
-6.330159727371915436e-03
-5.940516359454624772e-03
-8.469541796461257975e-04
1.948728020073841943e-03
1.110802467952270610e-03
-1.312377941776686138e-03
-2.325101386413693134e-03
-3.169873956084011141e-03
-3.681635719346356729e-03
-1.069417392322001299e-03
1.076399807892204326e-03
5.596946915459546272e-04
1.911640912441788616e-03
4.328297490590815415e-03
4.256953527382801444e-03
1.950697069605424007e-03
-2.656827786566780952e-03
-4.614749655368908902e-03
5.493137108601375222e-04
3.094937587996548882e-03
-2.698430330069089919e-05
-4.258183201503658831e-03
-2.314346053090010798e-03
3.610309788111993115e-03
5.356060023184556866e-03
4.213745554336046327e-03
4.064348152611802281e-03
4.062097777702726627e-03
-1.357286373368686095e-03
-6.446486487083156330e-03
-8.940193000393475975e-03
-8.524006144705319546e-03
-3.628148666456262016e-03
-8.898765100367104055e-04
-5.109071543795315170e-04
7.130020452194972156e-05
1.594465892270289543e-03
1.890930334914376698e-03
2.589422498763110318e-03
6.510627105340696837e-03
8.504316916759756262e-03
8.110335746087389552e-03
5.896999509339129891e-03
-8.065527067663836843e-04
-7.220768665670884538e-03
-7.360989678116414657e-03
-5.622576410903429994e-03
-3.952783896893177426e-03
-2.299800777377663391e-03
-1.048127373285257348e-03
5.104724051156870777e-04
1.125760423847586974e-03
1.402137244277436951e-03
1.354126412140409892e-03
1.623053413691262839e-03
1.183825171146229678e-03
6.975030304182718846e-04
-1.307427084699599876e-03
-1.266965462225461353e-03
1.328269285581139226e-03
3.167740656668636620e-03
1.696935448714021995e-03
-2.289639223754118096e-03
-3.580682789715504757e-03
1.278493803158383129e-04
1.214202428732361625e-03
7.472537376488042581e-04
8.580184405407863561e-04
1.055393645390055258e-05
1.749707640629335689e-04
4.203373368737978026e-04
5.785103795337293844e-04
4.829082793665793408e-04
8.855748371224267997e-04
-1.424480354691066335e-03
-4.465488075837691258e-03
-5.183172538717055987e-03
-5.097995130815877358e-03
-1.610273697364110424e-03
4.366949874151100641e-03
1.054048482250506853e-02
9.877142150123511058e-03
2.046556115149676842e-03
-4.289074898679082898e-03
-4.289287833005227431e-03
-1.966075305719653873e-03
6.553100715213057903e-04
3.999571179301359726e-03
3.927170624322006212e-03
-3.684273908920976306e-03
-1.103597841174355082e-02
-1.061508045279318038e-02
-6.488978267001544419e-03
-1.493774679634871832e-03
5.198739104906145367e-03
5.101295599815237891e-03
5.731137573140387444e-03
1.168151614797333961e-02
1.454685197424843493e-02
9.097622990119362887e-03
-1.529028882578380047e-04
-8.552039662981358176e-03
-1.282126719473192754e-02
-8.754652277960026444e-03
-2.651915813441455168e-03
-2.003004774690664118e-03
-4.040869832918243809e-03
-8.713003731004554178e-03
-1.029507736261196273e-02
-9.100631490470421957e-04
1.496397527455997287e-02
2.277026409056597325e-02
1.434202518728331516e-02
-1.728799506509904162e-03
-7.876272117192804206e-03
-5.787661656073249047e-03
-2.513218758104092312e-03
-1.914806640855699687e-03
-1.759831732863274953e-03
-1.344171149931975813e-03
-1.028907154657520426e-03
-2.524246746719120411e-04
-1.214815519267246446e-04
9.994060619439656826e-05
2.445171535497716697e-04
3.091766508109512280e-04
3.012148005587870743e-04
-6.875929728586801159e-05
-1.580679978637199133e-05
1.806016593886240122e-04
-6.307171754626610420e-05
-2.636909816407467344e-04
-9.452199319632056821e-05
3.075273062469083512e-04
3.510885177160811025e-05
4.611518000275035309e-04
6.609064677189326531e-04
9.219953006388085506e-04
1.830364557873984110e-03
2.136535136356565532e-03
2.573757812788934115e-03
2.505369837835504012e-03
3.286541411703657739e-03
3.233692585672820387e-03
-9.695662580458959401e-03
-2.097432275750241853e-02
-1.239405862773812310e-02
-6.404532713641316070e-05
4.949173654964042490e-03
8.360708194832503978e-03
1.144655880780493483e-02
1.011834541245501019e-02
7.276311497921798127e-03
3.956883504259529546e-03
-1.428065909748449597e-03
-4.692703241178216612e-03
-4.260614048837895775e-03
-5.884827715095147620e-03
-8.752393365514735471e-03
-3.492324889542007538e-03
4.942333762219930544e-03
2.618657295996877545e-03
-3.467707594522268649e-03
-1.872708754291495638e-03
2.694658588957505110e-03
4.628101825588253060e-03
3.676599199428838474e-03
1.431264369705657598e-03
-1.577250774514886997e-03
-4.508688167700203829e-03
-3.622416354696536729e-03
-2.046577295025869998e-03
-2.457872119243996456e-03
3.908118420220281345e-04
3.491557372702883480e-03
4.580046466061024786e-03
4.116286883744942060e-03
1.316158969475072485e-03
-9.648055178439299577e-04
-3.481120915445747401e-04
2.326327618312287217e-03
4.227778346535150146e-03
5.120403405608612603e-03
1.573642824895703706e-03
-7.536050066686553715e-03
-1.338842911834085651e-02
-9.421496309341090628e-03
-3.384421090476635169e-03
-2.501952784351491629e-04
2.660850961229212740e-03
4.685457752159772477e-03
4.553148582949819410e-03
3.426947692482243055e-03
2.604622342317832948e-03
1.374567238633150499e-03
1.740784176785807992e-03
2.774775384685945583e-03
2.141934197395332570e-03
-2.332172258189151351e-04
-5.518669017067444164e-03
-8.949040614614354322e-03
-1.191151134297316208e-03
9.691402526032170950e-03
1.136901827928317281e-02
2.665841142916188823e-03
-6.126553152738415525e-03
-4.532436421132638241e-03
1.097665947004977422e-04
-1.478592856489017006e-03
-9.833779383854029249e-03
-1.675236127901486710e-02
-1.247013158187343547e-02
1.813883426207747339e-03
1.224355606600242667e-02
1.288784552955888132e-02
9.233801574435934398e-03
7.797161217377821842e-03
6.195632387306249968e-03
1.843741532386496086e-03
9.586902502294454521e-04
2.241682275041684356e-03
9.423634640666906639e-05
-6.059926968503753959e-03
-1.206584598799292397e-02
-1.146620686995910611e-02
-5.410388833935480916e-03
-2.954923363239486157e-03
-2.600410324623715977e-03
2.516170541911598793e-03
7.066392705606453807e-03
7.864558839455242090e-03
5.231867608442060912e-03
-5.209006354405287852e-04
-4.979042352204092643e-03
-3.288866870288520601e-03
5.722422620740535808e-03
1.176758333276787735e-02
1.004232812029923726e-02
3.675328994452763468e-03
-2.822065487940063691e-03
-5.527188036356009936e-03
-8.723605201070225301e-03
-1.451578708963261431e-02
-1.549995120752361601e-02
-7.429719232295495766e-03
2.536989295840387688e-03
6.658857530879102628e-03
6.054662609192676057e-03
4.580847139654236830e-03
3.014560152200100943e-03
2.546802547947180605e-03
2.633555280740308702e-03
3.734501238250069726e-03
5.784739811404498826e-03
8.503350736083442260e-03
1.124997173463379574e-02
2.968462810435211399e-03
-8.344945120067131031e-03
-9.658575432253610482e-03
-8.060934548364024829e-03
-6.937803184175288067e-03
-5.652086570085658977e-03
-5.332795870461041338e-03
-4.752072327244206106e-03
2.820744062739077959e-04
4.862705261365829305e-03
3.668446037915180230e-03
-2.033486092624008437e-03
-5.320393045527587426e-03
-3.244958152980420910e-03
4.978982745846058378e-03
1.155322091667931525e-02
1.427502470740947549e-02
1.302183581609783758e-02
5.173768630302898013e-03
-4.309510498542977637e-03
-1.172785833721189629e-02
-1.233771305007297543e-02
-5.830239354970074249e-03
6.308486152059353909e-04
3.101962667253378193e-03
2.394042484108059067e-03
-3.470370639697130627e-04
-7.452644564398635055e-03
-1.023584505976764258e-02
-1.659197790265350180e-03
5.501907189991280846e-03
7.643923885111837506e-03
6.512903267092104952e-03
5.077792622037986467e-03
3.405467268085952438e-03
2.167406919194239147e-03
5.028288702709119524e-04
-1.233686162153653032e-03
-6.658339589925041206e-03
-1.252280118478928117e-02
-1.512263574944324417e-02
-1.060423763066348571e-02
5.183935474202905867e-03
2.234311043102154767e-02
2.668542980590916588e-02
1.758503852853071994e-02
2.640062740256064223e-03
-1.056013020347511266e-02
-1.717148907812284311e-02
-1.752629347774468938e-02
-1.773574330544257227e-02
-1.244480876015251897e-02
-5.522829084869423271e-04
5.319375980020932780e-03
6.276269261840849469e-03
8.898126045740690007e-03
1.393296438508419798e-02
1.674508949149133147e-02
1.463568509947472777e-02
1.035593109934890982e-02
-8.522977986436696589e-04
-1.918571924406380080e-02
-2.439121807324496835e-02
-1.282551998821477440e-02
-4.906723575065576092e-04
6.274460332593414548e-03
1.019042476374732061e-02
9.306409744054696190e-03
1.118780233921472895e-03
-9.651065559083111742e-03
-1.350486889306088019e-02
-8.231634836240401404e-03
-2.937721856822270053e-04
3.994535118321553523e-05
-2.402448538948968957e-03
5.419364977751642970e-03
1.590245471588869544e-02
1.848811751306848883e-02
1.506604716389995866e-02
2.883894954722664335e-03
-9.272411079978526774e-03
-1.205365609241830852e-02
-1.033389244914148346e-02
-7.478781125130957129e-03
-4.569041888233927630e-03
-1.000040233557083396e-03
2.168708087299494984e-03
5.269600471232202717e-03
1.331261865670472838e-03
-3.016789391209808227e-03
4.005410166316642796e-04
3.297215630945747079e-03
3.049924442125704835e-03
3.154762673558015543e-03
4.071422813775648318e-03
2.918098281099002628e-03
-1.645224711018412585e-03
-8.348292441330241662e-03
-1.209040315133314870e-02
-8.978020411466293080e-03
-1.364612351280547692e-03
5.804848718435486922e-03
9.410931566109113564e-03
9.219784869693829071e-03
6.350564185140478851e-03
1.745375175913945918e-03
-2.305995737840004292e-03
-3.842825499906452405e-03
-2.907988690642762837e-03
-1.695283957431206702e-03
3.395697327272952483e-05
3.788411949913588210e-04
-1.949458598057829221e-03
-2.130314513815962339e-03
3.936328397625432911e-04
-6.753087974865167173e-04
1.270360736768193330e-04
3.431799531993662690e-04
-1.556317956163561726e-03
1.150516086768196876e-03
3.294406456070883039e-03
3.377775596868461301e-03
2.048111666621585218e-03
5.717006983910576231e-04
-1.150139407346697932e-03
-2.902770556999507111e-03
-4.616712230170539992e-03
-6.369406453556465154e-03
-2.895263372466263477e-03
1.455950899743858537e-03
-2.679311014011060517e-04
-2.522063449341321699e-03
2.352827998537337928e-03
8.255883604557168534e-03
1.119205447167075790e-02
1.034017309976353709e-02
4.089350187266194148e-03
-1.408747935374239342e-03
-6.267787949674855606e-03
-1.243019657468988522e-02
-1.343278409229744196e-02
-8.741299878492557462e-03
-1.151183663554858046e-03
9.775223626147390432e-03
1.504224706493690993e-02
6.135467586478602145e-03
-3.620403826470109700e-03
-6.531895230815308075e-03
-4.813873725253645097e-03
-4.948929775869973652e-03
-6.096754531888431972e-03
-6.052143563460386268e-03
-1.845851669125092814e-04
1.138269305562848548e-02
1.796861924622510098e-02
1.542155997236190589e-02
6.121238290633982358e-03
-2.387695855889898459e-03
-6.997560086357065487e-03
-9.023910404342867786e-03
-9.919043042639819410e-03
-7.903006186676539424e-03
-2.532995801561621456e-03
-3.855309677707164165e-03
-7.688042458724337995e-03
-3.715073996463626616e-03
2.530471687918431269e-03
5.674591122464297914e-03
9.033198383941093423e-03
1.132406800431628134e-02
8.793189883955115568e-03
5.585223941870816854e-03
9.255115478724230569e-04
-4.467201845525249279e-03
-5.473939469572058902e-03
-4.620122069362153118e-03
-4.893544198390412277e-03
-3.631267635601619602e-03
1.232071162252294230e-03
2.014433818772339360e-03
-2.536388024062927963e-03
-4.648334658608060943e-03
-1.717604424295394354e-03
-8.901753541851069101e-04
-1.824876370996335448e-03
1.469065571888047853e-03
7.045054025421908749e-03
7.454676772652667031e-03
5.612712698306218141e-03
4.724596562079174181e-03
1.268274380020983005e-03
-4.168843868491176746e-03
-6.580006413787837551e-03
-7.062636234870828256e-03
-7.320954709289063424e-03
-5.543649366289621350e-03
-6.760468499759660467e-04
5.899724652551546072e-03
7.920391475889639044e-03
5.835115077973159273e-03
5.430029831364992753e-03
1.500865584386151764e-03
-2.003971613413057552e-03
-3.271745488136475633e-03
-2.773799944623361706e-03
-3.413772314739541968e-03
-4.115096267188290968e-03
-1.344198089725443445e-03
6.007984345381779667e-03
7.623236833223949287e-03
-1.307939538786056068e-03
-7.881592650180827345e-03
-6.508112534994256286e-03
-2.273857302996490533e-03
-2.661750855964578242e-04
-2.529155296495012514e-03
-3.036519064845699233e-03
4.670804381306715124e-03
1.343963480862739139e-02
1.226564298029193985e-02
5.365816551001064902e-03
-2.009145533788610910e-03
-4.941138497611500917e-03
-2.039025257421212683e-03
-1.530600808510478852e-03
-3.245603702586079709e-03
-5.777023458159807022e-03
-6.625761674278436882e-03
-6.010595708456321039e-03
-3.357528290665015742e-03
1.477103305592312966e-03
3.318461558855312268e-03
3.720374171723323312e-03
4.243523286636696930e-03
4.159270394925147774e-03
3.800862647399247396e-03
3.186753076200595815e-03
2.325049625660227659e-03
1.215384781175848526e-03
9.210728602220592679e-04
-5.452738046190140847e-04
-3.943298680643250557e-03
-1.047796963726782722e-02
-1.279316101927563051e-02
-4.430896466330048501e-03
7.502168214414112364e-03
8.281408546134468029e-03
2.566385565800978572e-03
1.729716797192714902e-03
2.489060815493329519e-03
1.551135743977109229e-03
4.916830414703046498e-04
-6.545160756464726533e-04
-1.409949575452913587e-03
-1.311092387217448673e-03
-1.585220219090878934e-03
-1.028633976401517082e-03
-2.772337704829831262e-04
6.366134732311415139e-04
9.123173101286153339e-04
9.660966357074859479e-04
7.538322334549311292e-04
-2.276394196749022454e-04
-2.328921415470833374e-03
-2.542571752325874755e-03
4.668438224392149801e-06
3.747397093645040041e-03
4.682077153197247189e-03
1.822189268553033319e-04
-3.676877199958946373e-03
-3.409143261895432753e-03
-2.390002572399149792e-03
-9.384929337786972409e-04
-2.855455397234020975e-04
1.086575226371661648e-03
1.644129741162451974e-03
1.835667527234764338e-03
2.107352713521915867e-03
2.750317126325613551e-03
2.223340160894036240e-03
1.885475451129753083e-03
8.115572207622528478e-04
-2.363117323589447095e-04
-1.703605057214559225e-03
-2.798253992249124557e-03
-4.845278509009082885e-03
-6.556421907634490780e-03
-8.305207561158446314e-03
-1.030146629548681601e-02
-1.918515368444319519e-03
1.235668195085311630e-02
1.642243830170869029e-02
1.169756171092430248e-02
4.145664207816322604e-03
-1.511094448812769111e-04
-1.702498033514625525e-03
-1.346620559631560906e-03
-6.976835515894182866e-04
-3.660657365592767318e-03
-6.654799687233863004e-03
-7.149435298977924007e-03
-6.404216508392225789e-03
-4.278358616610550280e-03
-1.520430086305268403e-03
1.448010908457960559e-03
4.983379817129194624e-03
9.906896611013965223e-03
9.867383385047402353e-03
3.084099351636792469e-03
-3.385140437867652750e-03
-4.632465021373992527e-03
-4.614302783120176159e-03
-3.486165538260220954e-03
-1.874505630756874300e-03
-1.028961825158391163e-03
3.819776670082500433e-04
1.845788983583401257e-03
3.294895013459480868e-03
4.649881330687378328e-03
2.464824726986479704e-03
6.122836706684624221e-04
2.048994184140564070e-03
1.498433118924933022e-03
-2.487134145560305782e-03
-4.772349303560003038e-03
-1.566298884410573895e-03
2.751689185001630314e-04
-1.640963213083977386e-03
-4.786341921144785828e-03
-2.018520743258564714e-03
2.392251296454960593e-03
-2.362061700693480603e-03
-1.090211702694033301e-02
-7.319393682963312199e-03
4.292502652980863947e-03
1.065767001648099815e-02
1.341421161724140089e-02
1.048896425037353954e-02
2.958903868260412927e-03
3.919375684195345569e-04
1.168417432853648260e-03
4.252782332320607971e-04
-6.422097463441283488e-03
-1.222235192700594532e-02
-9.519408883231534821e-03
-2.290945119028035652e-03
2.756973324823223243e-03
1.382588795868862916e-03
2.027681441259994726e-04
2.044590057437075271e-03
4.570971622407417334e-03
6.840524651000205736e-03
5.949449504575316308e-03
2.352691487556610281e-04
-6.450845605585474318e-03
-1.084776101785378186e-02
-7.233605255027598588e-03
2.120933635925395977e-04
5.033424599847188298e-03
3.680090698025310306e-03
2.306964843048927541e-04
-1.396288590536932375e-03
1.635477850632004052e-03
4.360997737669534968e-03
1.334307232917479645e-03
-2.845027694420645091e-03
1.279946356562950511e-03
6.510429483115112888e-03
4.101597830447441945e-03
-3.414954503295958288e-03
-8.175975968495917401e-03
-3.541193213561598298e-03
6.452639399117139109e-03
5.876598562949106840e-03
-3.484001364401881958e-03
-1.051905203090611370e-02
-8.830626928907963843e-03
-1.311619918803226406e-03
4.428688946645301279e-03
4.909718113617805683e-03
2.299489496941799823e-03
1.509570200382675089e-03
4.239286756246522098e-03
8.057042959838493779e-03
5.788867285123615314e-03
-3.189140952412575919e-03
-1.188014310014680157e-02
-1.130897525231267832e-02
-2.878623635982576791e-03
3.920817846916886500e-03
5.856564959543919015e-03
6.411435269645700784e-03
5.255922278841929259e-03
2.827218913080241890e-03
6.367799245089650123e-04
-1.778284391977595765e-03
-4.715722488381686971e-03
-8.763469497664140226e-03
-9.611003801281501127e-03
-8.122014183597779657e-03
-5.456235210120743973e-03
1.958947685377933172e-03
1.189174280550770423e-02
1.965528652554757866e-02
2.100180456842683577e-02
1.227441850597347714e-02
-3.332657477938641942e-03
-1.607107170997806866e-02
-2.000404101930540121e-02
-1.772707214945282855e-02
-1.151178620874496357e-02
-1.168707355186991747e-03
5.572395720773234452e-03
6.634239630040848594e-03
1.031147460471106871e-02
1.206672812932148980e-02
8.865572192251059205e-03
4.512587475429757390e-03
8.011492615601312163e-04
-3.245521560523754491e-03
-6.484484210644336603e-03
-7.170308465846581165e-03
-5.693000166976850025e-03
-4.112919191685136984e-03
-2.493574843994395343e-03
3.379758028972371553e-04
2.671426355320862325e-03
4.794402872029931463e-03
4.564744204309799901e-03
-6.088183601947679035e-04
-2.477856768262328389e-03
1.258931678117640625e-03
4.207588488746932635e-03
2.569379996599683962e-03
-2.821795301196965903e-04
-6.619159379876630479e-03
-9.253680414814747027e-03
-4.966983948496375527e-03
1.063240793598684833e-03
4.415031226869545536e-03
5.233532437979846776e-03
5.176633792540978087e-03
4.209686769419845355e-03
3.811294620773641052e-03
3.010152877343759154e-03
1.901223764330732882e-03
-2.413257131486043968e-05
-2.037504019943610876e-03
-2.774388507221903395e-03
-6.024707882687150608e-03
-9.894148721161465793e-03
-1.016023864091267735e-02
-9.431584373915228442e-03
-4.797184987199398960e-03
3.920564851035219373e-03
1.064023759553505387e-02
1.093907654201477578e-02
8.904186842729325257e-03
1.086487251678745249e-02
8.296366146134652453e-03
-1.581578417842608971e-03
-8.628594913328674690e-03
-9.001297653823181477e-03
-6.973492284152641059e-03
-3.785689692752883771e-03
-6.857705448637441180e-04
5.048338140489360033e-03
1.126753189064806822e-02
8.518308293893623456e-03
-3.470095105971278925e-03
-1.150627926420706368e-02
-8.309727797413979725e-03
-3.951586836934025543e-03
-8.300814875278973758e-04
1.748531901256125719e-03
2.222829469514726961e-03
5.817738354238088548e-04
-1.493587086042301318e-03
-4.151443679987927397e-03
-3.735412068251791392e-03
3.542064681069751961e-03
8.772591823056404003e-03
7.739699647243651094e-03
8.239573629947375549e-03
8.872283689309709911e-03
3.930198682883893728e-03
-5.300756687177850431e-03
-9.307726503212501723e-03
-8.800237648886771388e-03
-6.610016802268752108e-03
-1.882108171612696017e-03
6.242136529515835168e-04
-1.374495839268423955e-03
-4.177388075659044762e-03
-4.512602106275688009e-03
4.552655042572959659e-04
9.758733846197005166e-03
1.327640904633070433e-02
2.403859612924716567e-03
-1.103468091132300474e-02
-9.595047159067419604e-03
1.704398414248458867e-03
6.058856710128421828e-03
2.644308096492090088e-03
-9.847412478725694985e-05
2.773196076021955457e-04
-8.410282545987412444e-04
-3.194876883606707365e-04
4.033211794136971548e-03
6.304714582274352323e-03
8.209072619916471872e-03
6.132763239845675715e-03
-6.076237482523242023e-04
-4.100800329136130608e-03
-5.370245618767263175e-03
-9.323294408946912123e-03
-1.100733356856413957e-02
-6.591550253961486229e-03
-4.203526347398510964e-03
-7.002635630447838141e-03
-7.399717852666366433e-03
-1.577121317726747378e-03
1.002499809782542509e-02
1.565913566148628006e-02
6.889097248652183321e-03
-3.583706831604798783e-03
-5.745152056504853645e-03
2.402383946153283556e-04
1.485591168900435646e-02
2.595906814048460493e-02
1.794538324755154748e-02
1.979303434352174852e-03
-1.114145603178592035e-02
-1.965363386669373089e-02
-2.103205690233535957e-02
-1.531881948066242220e-02
-9.831981704364054983e-03
-3.893351171332764572e-03
2.326471365938299722e-03
9.179171544984566014e-03
1.325883770820876495e-02
1.105385902074488245e-02
5.192252161660053898e-03
-2.434570845885146266e-03
-5.797075459442070818e-03
-4.804882761697213019e-03
-3.023335602757473532e-03
-9.644621236424184840e-04
1.772237157758198072e-03
3.901571583431929884e-03
5.195658374668992580e-03
9.881878571702787297e-04
-3.788796687918928510e-03
-2.506803673197588976e-04
2.620688346991700488e-03
-1.574454694850447667e-03
-4.291992958557179494e-03
-1.572889543067433745e-03
1.991691924130032775e-03
4.096033183692656364e-03
2.585270784321917932e-03
-1.644015985916106324e-03
-5.252997600157835456e-03
-5.511635269461119188e-03
-1.977121262939183968e-03
1.826862661064277164e-03
2.528557905978434488e-03
8.737274086392747942e-04
2.334703721450878244e-03
6.276334359938636788e-03
6.720064806621170450e-03
2.875337588668620305e-03
-8.559884253819569988e-04
-3.266495425834003812e-03
-5.879833125416887921e-03
-6.537437764794844751e-03
-5.957370207877894612e-03
-6.208994146165629745e-03
-4.308224383567832265e-03
-1.379942157063957430e-03
2.978167882398166568e-03
8.090837622743820082e-03
7.922336874208320626e-03
5.869055528354404257e-03
6.362036572653325533e-03
6.473632817060711621e-03
3.855356498526053659e-03
-1.118819027635783699e-03
-7.631511955530768769e-03
-1.059633060071838231e-02
-8.734741117425367032e-03
-7.772319702453386013e-03
-4.412181987482391259e-03
2.832566430030612585e-03
7.380936043825508594e-03
5.719163310623063060e-03
4.873023350193315083e-03
5.466613042497822476e-03
3.398220531172578551e-03
-8.979256762167898585e-05
-2.682885425282247223e-03
-3.892061212773135093e-03
-5.967916890879064289e-03
-8.254258310978609611e-03
-5.815695842509939484e-03
1.709573923386585549e-03
5.680480476344650261e-03
7.521516591421092447e-03
7.579003701760679036e-03
4.201975825837716075e-03
-1.529321120867886382e-03
-5.955784631803884809e-03
-5.279075101090359434e-03
-8.995242668345346812e-04
2.112651008597287057e-03
2.039142292123805045e-03
5.160161377750837686e-04
-5.808457100783852778e-05
-1.097650811570707484e-03
-3.403679094261484635e-03
-4.263399125330812750e-03
-9.592627291429143459e-04
4.348256458705524949e-03
6.451466673700139397e-03
4.572162511355756624e-03
1.141360746679783442e-03
-3.540140207486071507e-03
-3.060377598286225225e-03
-1.374063658726614942e-03
-4.256578727387185651e-03
-4.197738722313505352e-03
6.760227748463077486e-04
4.310253136273603514e-03
3.482735059929369125e-04
-3.529724498867502572e-03
1.984133160686185290e-04
5.312627474452769928e-03
5.885665267354523930e-03
1.316571998744596244e-03
-1.686182844495060949e-03
-2.531581273287040329e-03
-2.166477561387829872e-03
-1.394548568618692941e-03
-7.209057251660978350e-04
-1.967747004029348520e-04
2.778765646551467302e-04
6.515448475198985486e-04
1.333863123497555951e-03
1.672107438709145985e-03
1.632218912102294901e-03
1.343795327346675216e-03
4.926123961519962091e-04
1.861928589670194240e-06
-1.169876960960099504e-03
-2.517709551223108744e-03
-3.821483961747058379e-03
-4.995081754388480677e-03
-6.243084577284822682e-03
-3.947250467965482575e-03
2.153531289057197644e-03
6.970022451335019902e-03
6.461598230853046569e-03
3.731146803174109974e-03
1.389314189981208500e-03
9.408255061788124663e-04
1.411233839288080893e-03
1.639103749179504502e-03
3.639334523827989810e-03
4.982694741353301850e-03
1.400617132753204097e-03
-4.200342997020358772e-03
-9.508909909600227889e-03
-1.157835288978623957e-02
-8.192607796530497130e-03
-1.219832499501141742e-03
3.234336994640335354e-03
3.367494419859613612e-03
3.962603585889495211e-03
5.546449776929367366e-03
4.687141243487451259e-03
3.295408299530934448e-03
1.905864599030154425e-03
-1.734422592953286410e-04
-2.115909723432080319e-03
-3.407880592475725015e-03
-5.222081853415712176e-03
-6.756069956464163043e-03
-8.285467400451608858e-03
-9.335471501084579779e-03
3.675469551393843563e-03
2.325290933692400128e-02
2.631824116068598798e-02
1.449391419388751552e-02
-1.454206098514240807e-03
-1.640757948535805089e-02
-2.493167089944926113e-02
-1.943319529894441122e-02
-7.241696423103395792e-03
4.347175917784630410e-03
1.371515845520268097e-02
1.591218272292262148e-02
5.851749222080909925e-03
-8.118560453853661610e-03
-1.597608366783611830e-02
-1.473007104463924972e-02
-5.531854823088591319e-03
1.318271624135343607e-02
2.981683328993515320e-02
2.739083165209995827e-02
8.720544775484303721e-03
-1.135730440199660303e-02
-2.077360588249129239e-02
-1.829875895832244748e-02
-1.108635017493518268e-02
-4.895624784925166860e-03
2.172017805996888200e-03
7.010983344902961371e-03
6.088118506240984031e-03
6.425681669993649030e-03
6.828708930807629064e-03
4.747351571900173509e-04
-6.779410754361512963e-03
-5.556167116730630247e-03
-2.644297938905078998e-03
-1.776405495754763194e-03
2.470435117168975903e-03
5.444034367235137638e-03
1.720372821070475676e-03
-2.998650282298903277e-03
-2.569635752549696839e-03
3.333983395307858061e-03
4.490617259019213763e-03
-1.855402844980803020e-04
-4.474207203407359543e-03
-1.870136646600404728e-04
5.135946970676256995e-03
4.252372580407618591e-03
7.515396853637156113e-04
-3.910002700762697965e-03
-3.841481482246070656e-03
-1.530212013798083965e-03
-1.276495250152635689e-03
-1.867331471993663406e-03
-3.290260518779326068e-03
-3.988849900005356740e-03
-4.089400969390478784e-04
3.382756794695144544e-03
3.016382312865941665e-03
2.509806517463039708e-03
2.055636648460081213e-03
1.526138415435616047e-03
1.385984260549701650e-03
1.165639342375357880e-03
1.141150150450010586e-03
6.588953560191986589e-04
7.343873472782015037e-04
3.961314396205239366e-04
-2.560174017277123330e-04
-2.027879227505070565e-03
-2.199925100555101716e-03
-2.152003493327813918e-03
-4.156232242753270766e-03
-4.967906551777044426e-03
-3.151916715319325740e-03
-1.681489039416264293e-03
-1.078628753310253681e-03
4.087100818941381483e-03
7.642300749123389497e-03
5.534778286817259793e-03
3.304383385985831117e-03
3.872700618264654504e-03
2.965167238814304593e-03
-5.103149530156751582e-04
-3.237739146475469235e-03
-3.742752209535946985e-03
-3.911840402590987219e-03
-4.103514229200457171e-03
-4.059366890512485816e-03
-4.122368373881421001e-03
-1.727143243946720240e-03
3.105101780143028171e-03
4.559107507364799222e-03
3.686726359716823581e-03
4.741596799442767893e-03
4.495964024040705921e-03
2.311106805494363755e-03
-1.082015199015558564e-03
-1.138603278855098485e-03
-4.297534734023209825e-03
-9.514778176652111119e-03
-6.429750008097767817e-03
2.358014733114094028e-03
4.340207640144652136e-03
1.817329137758321150e-03
3.046355038334348005e-03
4.385870775751146526e-03
4.943153199729041943e-03
2.301373126892194889e-03
-4.580594964940756970e-03
-8.805661504450423491e-03
-3.929661470366379618e-03
1.085537635331172137e-03
1.555279636222190072e-03
4.273224383482569972e-04
-1.791563942375768272e-03
-1.240327312697322732e-03
4.563024203607621808e-03
5.427167282553955162e-03
1.068482610920329671e-03
-1.178694402418342885e-03
5.781666839725039262e-05
1.104766956057169928e-03
-3.459775621911457123e-04
-4.167220963654775026e-03
-6.573805575329372958e-03
-3.172978926022139955e-03
2.949096506736709894e-03
4.431671655540887940e-03
2.761660500392535550e-03
1.101939806740580936e-03
2.003173843129024516e-03
2.827794727007513446e-03
7.880046783121694804e-04
-1.862864679863508038e-03
-2.709430456393300841e-03
-1.917281534805120391e-03
-1.162051811622515606e-03
3.394379571828668178e-04
-1.342454418486946572e-03
-3.713037057687460472e-03
-3.807778041133416495e-03
-1.707117254667863803e-03
1.745598372828564794e-03
2.647570762103939549e-03
4.372474825690982167e-04
-4.346637547520059114e-04
3.334143938661461083e-04
2.399375054604416940e-03
5.844128128869695814e-03
6.748330727819900135e-03
3.148666017635470826e-03
8.451982084730806167e-04
3.953288287812513520e-03
7.899512676613833564e-03
4.320882208002258494e-03
-6.864388677470131990e-03
-1.469596256718810195e-02
-1.577695623100860284e-02
-1.427016208871410320e-02
-1.396769578291688456e-02
-1.235286975216674278e-02
-5.198466517930722293e-03
8.371525663997873498e-03
1.868161017987780836e-02
2.607732046698321357e-02
3.281739743697213024e-02
2.505748683832194693e-02
5.352106836099923375e-03
-1.038496588826594812e-02
-1.879967217554152567e-02
-2.327382798493907168e-02
-2.367661621206314584e-02
-1.802270300342640602e-02
-7.800179803563481347e-03
5.390238583178246466e-03
1.311727562255458369e-02
1.277411659811535267e-02
7.718415469050232854e-03
2.834595496925169066e-03
-8.174144485169110340e-04
-8.217560687317676570e-04
-5.822613930383686029e-04
1.205744473710444915e-03
5.675778742751326836e-03
7.845788105668218340e-03
5.477895002554696892e-03
1.837287906405894082e-03
3.657236867836365069e-04
-7.971741439634284125e-04
-8.190535589632268881e-03
-1.730615922528080594e-02
-1.670437982865876150e-02
-8.616582607931952409e-03
-4.836430175850470539e-03
-4.918490187049429085e-03
-1.390959563145943928e-03
6.940960158822786011e-03
1.420361403844052663e-02
1.978923557578003700e-02
2.116563588109900834e-02
1.310385202335636289e-02
-4.187010004179762021e-04
-4.833038610968476770e-03
-1.507973844070660064e-03
-8.563220726005373084e-04
-5.214366550321205933e-03
-7.742780195386122534e-03
-8.572576411243249678e-03
-9.136119349656796410e-03
-1.123552100682145664e-02
-1.199968360996697507e-02
-4.648718690271420352e-03
5.474230382674334129e-03
8.667617530575053367e-03
4.887048883763703451e-03
-1.315425289663960844e-03
-5.242159135932862764e-03
-2.989789268411583399e-03
5.477772576671138469e-03
1.554989042842963055e-02
2.085823765784946063e-02
1.495297787332750504e-02
4.889478347694914580e-03
-2.032086813129828015e-03
-8.316096090370673002e-03
-1.373392689895320054e-02
-1.392476258855860662e-02
-1.059577869737777719e-02
-5.553306717048543846e-03
-9.969790210490909067e-04
7.891031632082508252e-04
3.322379827207483480e-04
-5.639961698792145218e-04
-2.800885513522591123e-03
-2.524824616530401116e-03
3.090071466256932267e-04
2.985881438879395625e-03
7.185851732323804940e-03
1.423958075137711325e-02
1.794776876644710306e-02
1.022419617586506346e-02
-2.420843676079888034e-03
-8.636247702443696633e-03
-9.000608341855639502e-03
-9.750128051966892861e-03
-9.793349345592002736e-03
-7.259860648738686827e-03
2.031086359789234627e-04
5.516660541465863953e-03
3.156699785019654540e-03
-2.456794198623627086e-03
-3.068562639890293035e-03
1.045727730439798475e-03
5.802627305187843185e-03
6.203279766906882528e-03
3.499310456319378385e-03
1.831809528775563264e-03
-2.451961005137581230e-03
-4.777143045615914879e-03
-8.850773838553940408e-04
1.572063189078538479e-03
-1.707404142574038119e-03
-2.669239069027646780e-03
2.925238027627021040e-03
5.126049703571567903e-03
2.380507741428637691e-03
-1.820742316319896035e-03
-3.976262634274490074e-03
-4.233542407243716908e-03
-1.809893904060388753e-03
4.300747089047302356e-04
9.303189863008948712e-05
1.357763179037911562e-03
-4.399876612048249694e-04
-3.248099918619944820e-03
-1.354793520438213978e-03
1.026039000321580076e-03
2.872758137875307087e-03
4.673773219480971582e-03
5.678675917063621438e-03
4.203045275349609304e-03
3.767765780027267889e-04
-4.615160665876474715e-03
-5.475859974782957065e-03
-4.201464483093513241e-04
3.185212518954581330e-03
5.754945400272497682e-04
-2.626526196886771764e-03
-3.531233822686901617e-03
-8.238223797439303206e-03
-1.047602366660951682e-02
-6.088713451208551579e-04
1.146938607969711851e-02
1.387653696260513457e-02
7.689942609667178679e-03
1.907402323439562125e-03
-2.423085162885078858e-03
-5.945761434050537628e-03
-7.484292969229019987e-03
-6.021267562322588085e-03
6.792349313594789285e-04
9.361440110527214503e-03
8.076709219791382635e-03
1.973825078420108313e-03
-5.008704382572360184e-03
-9.987491149126089332e-03
-9.148911982459781086e-03
-1.258429039434872396e-03
5.166111807792687048e-03
4.515919020390320691e-03
3.779333531901191883e-05
-1.511015082477015119e-03
2.351246571246776423e-03
5.860779109272965665e-03
7.366703679712547151e-03
5.517100670896879326e-03
9.400781414249025037e-04
-4.515143448975367409e-03
-9.299576486207329976e-03
-9.261491912930642709e-03
-7.105046233240435057e-03
-5.067124544953471345e-03
-3.548268326025273006e-03
2.536995857858177186e-04
9.130842706111507931e-03
1.593844014783719204e-02
1.426946874214117533e-02
5.928013369468001538e-03
-4.715850136519822954e-03
-1.087421630318009293e-02
-1.004812865340473996e-02
-5.392677237487214156e-03
8.521783745428908275e-04
3.858856105847054997e-03
4.152171443681309214e-03
3.646423075514906159e-03
1.071387975902922526e-03
-1.463331659425665555e-03
-1.517664407516970855e-03
-8.973107705716445916e-04
-4.127930699408077601e-03
-7.470778207945213967e-03
-4.725193827184726893e-03
1.015750736684613428e-03
1.629447059880860917e-03
1.044174959461606879e-03
6.684646026042392886e-03
9.321888595852218656e-03
3.818727244297455588e-03
-1.566092372707695484e-03
-3.184047260954467849e-03
-2.605250658024181078e-03
-1.578967848730469066e-03
-6.547217613525974306e-04
8.243294071594036874e-04
2.134722125494813681e-03
3.774527675495987014e-03
4.419819709413466517e-03
5.052923053863634870e-03
-2.015829231980718287e-03
-1.025286052425493713e-02
-1.064562794337988415e-02
-9.553595811143763064e-03
-5.059342642782584630e-03
1.123069383614513179e-03
4.248193734148523158e-03
4.003265134634040670e-03
3.426521504964129619e-03
8.894558191057359495e-03
1.378522143626616930e-02
9.457284531893648746e-03
-1.477012493279756438e-03
-1.247503000531844167e-02
-1.641681806183310777e-02
-1.017773359831574548e-02
-2.405604721944300771e-03
4.336002001862316983e-03
1.097714816646809532e-02
1.675733652070204513e-02
1.358526837147857984e-02
3.289389686434556100e-03
-7.406757367474142185e-03
-1.206015472947517299e-02
-1.121004380831277895e-02
-9.774165159431873542e-03
-4.378343667403312989e-03
1.995549489257442827e-03
4.277292782117237541e-03
9.447011641960505754e-04
-5.836699591200300401e-03
-8.550509286276748375e-03
-3.043503818598132342e-03
6.880207697440477929e-03
1.356409896449320765e-02
1.540587268191175550e-02
1.212086397071878048e-02
6.268023794514461337e-03
3.256819166762434797e-03
-9.995101141962823166e-04
-1.091166266585578276e-02
-1.624202268235322433e-02
-1.207614350781196187e-02
-5.827799402318909784e-03
-3.344686778941373569e-03
-2.038976065571511398e-03
1.938615593904627820e-03
8.046300358578254916e-03
1.088386417166894299e-02
3.081007574255435928e-03
-6.250257837132208553e-03
-6.326437893780643106e-03
-8.753681095866220696e-04
3.606026198224813323e-03
8.069813412615905318e-03
8.249125281052746561e-03
2.744819909130584087e-03
-2.852299459783831648e-03
-4.806668461526488953e-03
-4.282965466711430476e-03
-2.608248613920006922e-03
-1.111738456591850619e-03
1.628754948019107062e-03
2.773820671076462387e-03
2.704230540924187128e-03
-6.209083615199002641e-04
-4.337184788171193246e-03
-4.945958137164914274e-03
-1.824139239714448607e-03
-7.358190011186087559e-04
-1.629167025172083326e-03
-2.456570986502737940e-03
-9.655629062572387367e-05
4.909400318608455119e-03
9.419089296335485945e-03
9.058578397592723791e-03
3.255706487993097024e-03
-9.444133054056677275e-04
-2.914216265241802335e-03
-3.403384322978513475e-03
-4.075707528401417701e-03
-6.283757577504761951e-03
-5.878076496978840333e-03
-4.650958360198051249e-03
-4.235405668063965505e-03
-3.118052521074263120e-04
6.398930534500128775e-03
1.028050409683798488e-02
8.596502972403597537e-03
3.316739046342073380e-03
-1.631230870362958144e-03
-3.717925279354013408e-03
-3.486664802285960752e-03
9.452458437675413444e-04
3.517354621378213086e-03
1.067147050983941522e-03
-3.916002294799889386e-03
-4.504624469235922295e-03
6.019711703279072420e-04
9.786388165209998925e-04
-3.855490725701472918e-03
-4.894141852384751613e-03
-2.773603477469949240e-04
2.874171678896434313e-03
2.034663612225248285e-03
1.251047840419593432e-03
-4.599443961261805223e-04
-3.319601344432024717e-03
-2.978196582766406975e-03
1.850804161569362003e-03
1.015012705521414066e-02
1.432442529853232040e-02
7.219719043129407474e-03
-6.277229417032737825e-03
-1.625351685362337942e-02
-1.569969833421477196e-02
-8.440336487128578466e-03
2.312064577459885424e-03
1.212572539028231380e-02
1.275381248691404186e-02
4.949830972168470407e-03
4.502957119664499045e-04
1.986412280053548394e-03
-1.443875392242197119e-03
-6.191359187861286868e-03
-6.922433734599443313e-03
-5.314597446389342054e-03
-6.699422007261231563e-03
-7.552561984003175986e-03
1.297521881440386006e-03
1.284370488642088727e-02
1.335470316372406457e-02
7.242282249050244029e-03
3.021130608351237784e-03
-1.491042043810695454e-03
-6.809839891214261066e-03
-7.047897380659889910e-03
-2.572812110086699147e-03
4.571574491352458952e-04
7.796763087317071716e-04
5.063962065132869344e-04
7.002618778824749217e-04
-9.125164085057425141e-04
-4.450041694335308932e-03
-2.689003959058108677e-03
1.536572107698466619e-03
-2.446406406278974258e-04
-2.005618977758886687e-03
1.405618608414195623e-04
4.425024606032669852e-03
6.164326798825720335e-03
4.165275143362903547e-03
1.180770937736842644e-03
-1.735699846739945139e-03
-4.159709897707268914e-03
-2.324819066328494450e-03
5.062101708976735016e-04
2.286394600678806361e-03
3.105430676704173769e-03
-7.559357893962126819e-04
-4.156098135412503690e-03
-2.090825253024366365e-03
1.917934990243917075e-03
1.927866868818885627e-03
-1.114998311561047001e-03
-3.954625113678395497e-03
-4.536854704244118637e-03
-2.471249472879890208e-03
1.573507727951520057e-03
2.963304521435707918e-03
1.025169978562068653e-03
-1.418675065316601621e-03
-4.999212450958408259e-04
1.442961229263734825e-04
-1.173147651095826378e-03
2.216472218426277646e-03
1.023136431901307264e-02
1.207498887836705448e-02
6.231707096014327089e-03
-2.574807461234470025e-03
-5.962555640900718372e-03
-4.694116736527037190e-03
-7.136605626049065745e-03
-9.108031737713205567e-03
-5.618135911599332274e-03
-1.393073084302980493e-03
1.483241409489922382e-03
1.579995851947027736e-03
3.990618398073333549e-04
-1.451666525962903550e-03
-3.508950866958114936e-03
-3.637374844050365267e-03
7.362057216503268197e-04
1.138988519582008994e-02
1.831132511339155639e-02
1.327337541785329235e-02
1.736522341699888545e-03
-6.300395805350167931e-03
-9.259715237947637248e-03
-8.631250485605073547e-03
-5.449065785901132698e-03
-1.957490897696148417e-03
2.213512882524886448e-03
2.120585233280883677e-03
-4.402347290346358098e-03
-9.266905527311474627e-03
-5.576945577901145160e-03
3.363569199861151347e-03
8.926280715804361943e-03
7.984219533321193496e-03
4.887890995673217255e-03
2.151358690172426938e-03
1.431484276391245297e-04
-9.318281962930860573e-04
-1.795130306601753134e-03
-2.872871060977678134e-03
-3.988952395170609379e-03
-3.753436740565373533e-03
-3.987138954381551532e-03
9.589269330949559298e-04
4.365550553790454626e-03
-1.260160118611718507e-03
-3.587609854390611929e-03
2.985370218156525174e-03
8.939720871468390465e-03
8.709859843121134024e-03
3.738761708642044518e-03
-8.734431555482330455e-04
-3.381163691767430195e-03
-5.537689264962506082e-03
-6.178595891174100060e-03
-7.166385271846279804e-03
-5.604839737867172225e-03
1.583821785660336065e-03
4.533675456730163270e-03
-1.412356153578209856e-03
-3.045000093040896999e-03
2.169177423198081611e-03
6.994983598131987272e-03
6.475529680600270420e-03
1.130644878104091052e-03
-1.826214069938232121e-03
-1.306799023921187712e-03
2.230305240580542601e-03
3.120143574824293768e-03
-5.019530706811577278e-04
-3.796301695217450638e-03
-3.300747160196217979e-03
3.278210175959183248e-04
1.815396972958936987e-04
-3.772736413386696026e-03
-3.928761123594056229e-03
-2.994233845720354541e-04
2.228716302567252013e-03
4.269184675297575324e-03
3.540384084008717670e-03
-1.170191255625358884e-03
-5.583825607970728175e-03
-4.968606846693244573e-03
6.702880799142190175e-04
4.910264439866865276e-03
6.659470102951183836e-03
7.105173208144324910e-03
4.985352366090881754e-03
-2.034400609846336201e-03
-8.505742763384867636e-03
-7.905803729730823820e-03
-4.381251207458031725e-03
2.255301759602607839e-04
3.326691919953231324e-03
3.877917837137553544e-03
2.529703728520164667e-03
-5.347501842046137625e-05
-1.975587868177898065e-03
-4.385318338654196728e-03
-6.292635839941295751e-03
-5.642287580468735748e-03
-2.371614065285524570e-03
5.855672498374087792e-03
1.357318612713498580e-02
1.483253202412593459e-02
9.153781927173273644e-03
-1.675587881700412634e-03
-9.474049736294115967e-03
-1.018548880101902490e-02
-6.921271308787795354e-03
-2.322328578964564030e-03
-6.893353521217373799e-04
-1.876254127718676072e-03
-1.900911157980693334e-03
-2.722526714111420782e-04
1.569908861689625645e-04
1.575933588848323031e-03
4.341791859442436716e-03
3.768578602100826087e-03
1.717991797766617616e-03
1.560052821099203310e-03
3.135971146758354585e-03
3.826862296702347906e-03
1.150527294072839794e-03
-1.283059228991652269e-03
-3.073928942082151082e-03
-5.042528106314887563e-03
-6.630435832769673160e-03
-4.828447860729266107e-03
-1.193841482600365442e-03
1.048434205296472311e-03
1.581231139908689668e-03
2.991925005451240467e-03
3.292087621651134180e-03
3.849156176123540510e-03
4.196874796835313622e-03
2.645864079864676879e-03
3.152220005662711468e-03
3.266926156353134724e-03
-1.434095892560587971e-03
-6.205808496334365258e-03
-1.009963045536370861e-02
-1.092569426320234849e-02
-9.220826405263142164e-03
-2.912153357012610237e-03
8.403091176136646620e-03
1.368255744783721840e-02
7.976647505001226504e-03
3.559093734844267186e-03
3.676232215561635146e-03
2.544718432363723450e-03
-2.135359274134772042e-03
-6.888251590489427069e-03
-8.408573684966729953e-03
-4.318930716492690169e-03
2.104708809316542008e-03
3.615417429527326143e-03
2.120900527937770973e-03
-4.693438654896370937e-04
4.698216831337277948e-05
2.385181701637875077e-03
2.064667282041193416e-03
1.024368349121302724e-03
1.482596227443346471e-04
-2.105876574330196697e-03
-3.601535621833388059e-03
-6.305167326002905637e-03
-6.063962209911017386e-03
-1.001022677764274458e-03
4.513020248394456445e-03
5.347919210694473610e-03
5.526733218407086506e-03
6.777353955363219808e-03
5.478003378887910148e-03
2.858193844843882653e-04
-8.320007413036361113e-03
-1.132246046445069092e-02
-4.897657921341608614e-03
1.499120986799003024e-03
-6.564504897340581483e-05
1.542689717175965832e-03
6.465415938968906498e-03
5.069718496172989815e-03
8.363633126251198173e-04
1.357934596791364901e-03
2.777332359876324465e-03
-7.479998303966348691e-04
-5.139616642223512714e-03
-4.175287187982578037e-03
-1.996980400317328527e-03
-1.358521724320984171e-03
8.010265988449850319e-04
2.523617014007777277e-03
1.103234923081608141e-03
-2.339100253743450070e-03
-4.842578356132390231e-03
-8.480442537023603899e-04
3.758943519754283282e-03
3.392131257099021378e-03
-1.442171858056364797e-03
-1.097770242224479923e-03
2.150901289842142676e-03
2.651641524192319913e-03
1.139583011017707799e-03
9.236382743065931281e-04
2.396176070097736938e-03
1.511558770072547915e-03
3.204161345036345382e-04
-4.283570042364011387e-05
-2.099746856847726443e-03
-5.917913925029935802e-03
-4.985847951888762106e-03
-1.773447345913691181e-03
-4.064337754535724922e-04
1.114790104806922958e-03
4.045952551386921593e-03
2.180927353108206776e-03
-3.657361697204085729e-03
-4.248948275109221649e-03
6.228594252762888151e-04
4.607906679656959339e-03
6.686781943664532948e-03
3.690924196519963871e-03
-6.962091920488271872e-04
-1.584725157339628024e-03
-2.031941330886633847e-03
-2.663815175338618991e-03
-1.671957624867371995e-03
-1.372033194463610729e-03
-2.402979492627148675e-03
-6.733811942274964138e-04
3.789785253322953268e-03
4.858562538151323280e-03
1.901743679634587117e-03
-6.124336218957135381e-05
-1.039885507347014385e-03
-1.493219528098036928e-03
-1.870575240198825645e-03
-2.458150077942210503e-03
-2.616253157917860020e-03
-3.222145960840837927e-03
-3.773596359362108368e-03
3.538865008424123900e-04
7.831800192598180332e-03
9.543199804765568894e-03
6.126744937699314837e-03
-1.638465662592027009e-03
-7.798034770062980091e-03
-7.019924379584900273e-03
-4.206272605999829793e-03
-4.541914446098018854e-04
5.266489847127026579e-03
5.890319528751726194e-03
-1.627632642064409728e-04
-1.356659538310409129e-03
4.837988650763771527e-03
5.080683043253046878e-03
-1.148263373391975170e-03
-6.273393472241066068e-03
-7.131932739341608450e-03
-4.970292143932471263e-03
2.036957111385951616e-04
3.364937283624251825e-03
3.319857445603573848e-03
3.314328969358357972e-03
1.722845555110043845e-03
-2.613983302915702349e-03
-3.678567294253460348e-03
-9.440570166845790563e-04
1.996024067985479981e-03
3.680962494373100045e-03
2.796407516218828854e-03
-2.438518473790655776e-03
-5.728507231745001531e-03
-3.690349334079864787e-03
-1.805688812793518859e-03
1.293841433873973859e-03
7.721827953112704764e-03
7.519347680479823541e-03
2.765018867350393927e-03
1.012506292914258752e-04
-8.575131003648888859e-04
-2.788247761716937129e-03
-3.175607614111963101e-03
-1.019143120193699526e-03
-1.557991710806186153e-03
-5.128203496826041694e-03
-6.856025510273008709e-03
-2.914879607704403287e-03
2.299830186837028591e-03
3.642532915013871938e-03
3.603857318080302789e-03
6.658965268692522421e-03
7.665987884182237817e-03
2.391439084203540386e-03
-3.335658733848293790e-03
-4.151709185604360829e-03
-5.837925034477409528e-03
-7.465456443461752217e-03
-2.309216975637438246e-03
6.131348340403405990e-03
8.862802083718564553e-03
5.435908918483611796e-03
-1.089364278006666300e-03
-5.973979441908376133e-03
-5.697736548782235053e-03
-9.438881601144167742e-05
3.681546978046263286e-03
9.199693529997973350e-04
-5.458224871652621844e-03
-6.429297458155808047e-03
-9.077753971097136986e-04
3.944847892905359484e-03
8.890866227975672068e-03
9.338303552087168571e-03
1.442868275980422254e-03
-7.973651597457855761e-03
-9.661309873006753562e-03
-2.620194602509870289e-03
5.750504157788961616e-03
7.590847981471304795e-03
4.044713089402065739e-03
1.297158863801191244e-03
-1.169623010437906892e-03
-2.025958325483545076e-03
-4.803608461283577317e-03
-7.210999556565598351e-03
-4.336076307275745119e-03
-3.967478395365916957e-04
-1.573253649869843854e-03
-4.723183725478616139e-03
-1.051965919004372576e-03
1.014495498237788333e-02
1.338596658820239219e-02
3.851262811435179727e-03
-5.755706002977030271e-03
-4.283762095700259336e-03
1.845085690985257074e-03
3.287303226854673167e-03
2.889174592659650952e-03
1.960532024812771702e-03
5.876277206451190624e-04
-1.290595726864168747e-03
-3.569513907217418229e-03
-5.209348062428266479e-03
-8.655921123676399431e-03
-8.395312813396267268e-03
-2.095008931118662841e-03
2.524003261747571024e-03
2.174716194234594703e-03
2.724413734657110935e-03
5.299167054845955495e-03
8.564005397547685278e-03
7.953926893367756559e-03
4.673990406152017663e-03
-3.149591795184709074e-03
-6.121498682938752815e-03
-1.270106950895869219e-03
2.620930761616332549e-03
1.196530646518456078e-03
-2.256341042720037826e-03
-2.904239265797014038e-03
-1.380288478440550764e-03
-2.102398325142039708e-03
-9.611137766857087011e-03
-1.606123609859129442e-02
-1.221543533401414465e-02
3.694536331260249266e-03
2.000408463694889130e-02
2.289434466244814198e-02
1.392947026473447501e-02
3.794984812570846057e-03
-1.587428434489119482e-03
-5.784384116189991709e-03
-1.070215573607491422e-02
-1.138712529250360435e-02
-5.017174757845546847e-03
4.102028153349861314e-04
1.225970058532486096e-04
2.036776924022540465e-03
6.312942161019088026e-03
3.675221290447333936e-03
-3.228606731053334372e-03
-7.307747518636826048e-03
-5.883499659803730249e-03
-2.984296114548117516e-03
-1.977275594153024107e-04
6.373357837451627643e-03
1.114972634823173728e-02
8.530137640508181351e-03
2.958489805075932046e-03
-1.605484497447017727e-03
-5.956651039750395990e-03
-6.332545356249653229e-03
-4.479086030757606710e-03
-1.236731348696660767e-03
7.175296687034672270e-04
2.214580774638007232e-03
4.697214789294821245e-03
5.340214694870678604e-03
1.020489474984823683e-03
-4.355841335953780473e-03
-5.343968082439957794e-03
-5.792180587248989959e-03
-5.718552285643926057e-03
-1.159064239443625749e-03
6.522484323259396949e-03
9.716131291596369693e-03
7.532985321582034294e-03
2.599036530669646128e-03
-2.607467220991735793e-03
-5.144984237510410660e-03
-5.422124081877696851e-03
-4.144934434093108105e-03
-3.537723609901689045e-03
-3.682600304213355311e-03
5.290751725177178294e-04
5.506808611288454940e-03
5.669988058192059616e-03
5.192694947530336613e-03
4.725275439824904063e-03
-1.201290363689979214e-03
-7.085497449911341318e-03
-4.541102761705049715e-03
1.378098681349303493e-03
2.404033251710765810e-03
6.369997931469536774e-04
1.986611931143754221e-03
2.135836899285869193e-03
-2.165528162029595801e-03
-6.537939664314781560e-03
-7.210832451440288282e-03
-3.616463236178393565e-03
1.761926472978296533e-03
6.287988006659877074e-03
1.037553559736557364e-02
1.291100077074683154e-02
6.830426366515950955e-03
-4.244214760878211624e-03
-1.011899114232292680e-02
-1.004343942694754625e-02
-9.958912461690344262e-03
-7.847777645743356581e-03
-7.536630625387719150e-04
4.532589816067793265e-03
5.198196643143349754e-03
4.688059269949482535e-03
3.387622055535361755e-03
2.734660680436014693e-03
2.161571039382622315e-03
1.533483146852228059e-03
1.910739510631041414e-03
9.735064583608418623e-04
9.609458837369072711e-04
-3.250605543270208711e-04
-2.951110045428537946e-03
-2.555623343988241460e-03
-4.123181378763936841e-04
-1.898270404133509072e-03
-4.893057006599459829e-03
-4.354527093634224903e-03
-1.627328504951273654e-03
4.367526974988396597e-04
5.252591948136201309e-04
2.215195864685368977e-03
3.436963737350086714e-03
2.265345259991023708e-03
5.751695571148133157e-04
1.747549104115658737e-03
2.884826012232195782e-03
3.049287234442327448e-03
-3.979602223514886665e-04
-3.249285511768061716e-03
-3.296455671057059531e-03
-1.698874511667039207e-03
-3.841580927383344310e-04
8.564940873624289934e-04
1.779638237877745116e-03
2.305140274619835346e-03
2.521290550711902112e-03
2.232051900866401095e-03
9.618092257888299001e-04
-1.124968965797183392e-03
-4.288878340646945855e-03
-6.315301468571847716e-03
-6.025392538798747880e-03
-4.959125961025450183e-03
-4.026261771825474789e-03
-2.754339732659702184e-03
2.376622325690905778e-03
5.865556594180473121e-03
7.825282255400254142e-03
1.015662289355843441e-02
8.148695369511663525e-03
6.997403265672886381e-04
-4.644884715657681719e-03
-9.931910382003650024e-04
6.155443758202712445e-03
5.943347075765713881e-03
-4.348557877657572451e-04
-7.956187488528502355e-03
-1.034880389782707848e-02
-1.060900014664899367e-02
-1.153366612530447831e-02
-7.021125486407668072e-03
1.598018045519784434e-03
8.146126624222677082e-03
1.058924971909101093e-02
8.582569455821920101e-03
4.220989150378782855e-03
8.083722967573173058e-04
4.091621504575024379e-04
-4.278479123506789719e-04
-1.057390565362981974e-03
-1.161429629654304021e-03
-1.661766895617839941e-03
-1.664447815567754278e-03
-1.354759655821586575e-03
-1.230246740348052122e-03
-7.238213857088949795e-04
-3.370187636604502694e-04
-1.118065134166581934e-04
1.134068505406718008e-03
1.841050389812951341e-03
1.370847281835638068e-03
1.598313554718911616e-04
-1.195766447330690084e-03
-8.711490492852108853e-04
-1.305772869369370079e-03
-1.879167736215055012e-03
2.043868949580730475e-05
1.670928009566022580e-03
1.423652341024844725e-03
1.143333971359588750e-03
1.018575648670470499e-03
1.238943402027544447e-03
-9.054680111943348318e-04
-4.311424073553537725e-03
-5.742451937135840262e-03
-1.661683119932767664e-03
3.373641681290417884e-03
4.644415331049394323e-03
2.150462995468429596e-03
1.372342226850216049e-03
3.505902108538474626e-03
3.022593439436982530e-03
-2.409131181761760710e-03
-4.442663325156230407e-03
-8.329029989302571451e-04
3.805876529699599858e-03
1.819336945805842022e-03
-2.529596172574938989e-03
-2.976515395160775086e-03
-1.630784941809352217e-03
-4.399326134604648886e-03
-8.783497413477087123e-03
-8.310664521115571426e-03
-3.987189793798658240e-03
2.252304643924991565e-03
1.012806168807578108e-02
1.627559193012752953e-02
1.454498412391680602e-02
9.885748845882322278e-03
4.619356465205442554e-03
-6.339245583704932992e-04
-6.023714171926508945e-03
-9.399771716042929284e-03
-1.148250697986022070e-02
-1.371247278858840797e-02
-1.274833348888223215e-02
-9.467468197043778580e-03
-1.799348484515726461e-03
5.497581165367386100e-03
1.104365876796700556e-02
1.285325398573862465e-02
9.844054562200737005e-03
7.164245853299768159e-03
5.807863921299056924e-03
-8.981079304222042191e-04
-5.777293249092225330e-03
-4.888325676296667761e-03
-2.552343336514567400e-03
-3.867259957092959201e-03
-3.407532267076077842e-03
1.350905400058116418e-04
9.059758772216414081e-04
9.982817352562963365e-04
5.375595513740126985e-04
-1.807275262214718260e-04
-1.149083439943503248e-03
-1.886475152390633620e-03
-2.814318850639724139e-03
-2.971520447581093780e-03
-2.613286154787785275e-03
1.208539382444211510e-03
8.841783379456796474e-03
1.085779067640325370e-02
6.053901763933177554e-03
-1.904207480619258793e-03
-6.769899827717639450e-03
-6.121238357785063929e-03
-3.188382947939501656e-03
-2.272625104793377007e-03
-2.030176222095394882e-03
-1.116792686944518111e-03
1.812278102597422160e-03
5.049939427082354541e-03
5.667613968133995012e-03
3.024561339083253492e-03
1.418357675502908356e-04
-2.704798377375758258e-03
-4.778246972466614929e-03
-3.199179221139756592e-03
-1.488870733852366022e-03
1.113302893606206651e-03
2.478763275351150881e-03
2.930140880167264074e-03
2.036317208999545263e-03
-1.513887964928027070e-05
-3.029366049186196699e-03
-3.906394865023648730e-03
-3.814670237942570635e-03
-2.242740808263857331e-03
8.611669363476325825e-04
3.101708534919951112e-03
4.820684774088253993e-03
5.126759334113733038e-03
3.877429228097156993e-03
2.289383059679548065e-03
-1.332287270595311707e-03
-6.708338006635225677e-03
-6.851648716847078338e-03
-8.813367210465332781e-04
7.916475440412112019e-04
-1.103850205087183751e-03
-1.565565831543219147e-03
2.272741636443821253e-03
6.104744060555250540e-03
3.943635368007694653e-03
-1.960252839871831805e-03
-5.086644170776235575e-03
-9.006734117454304493e-04
2.467167006061960974e-03
2.380460008514115235e-03
2.005471355641532828e-05
-3.770526265232262649e-04
-3.658929156711034883e-04
-4.251912530299419447e-04
-1.329035445184540386e-03
-2.009494223968159680e-03
-3.218220640170982132e-03
-5.085272169243234067e-03
2.950791173794408036e-03
1.330248830260975269e-02
7.098606059297673902e-03
-1.718671568479830875e-03
-5.456378390075365681e-03
-5.722306732475220155e-03
-7.016478592896101610e-03
-6.966829608537799916e-03
-1.672712493694911368e-03
6.203434027674772054e-03
1.094008103582051403e-02
6.344992842814661631e-03
-3.415777198909212935e-03
-9.466896877124231571e-03
-2.955600854707432067e-03
9.231630779762387690e-03
1.026866323738785149e-02
-2.099173868937199180e-04
-5.646917657459575059e-03
-2.159263491261022988e-03
-1.431246147216288156e-03
-5.226577451903131714e-03
-3.399792800562215916e-03
1.998599192972984155e-03
4.201330798239252991e-03
3.780041188429116537e-03
8.636086567464343377e-04
-2.573400997572062275e-03
-6.221275777267574157e-03
-4.265337934970038145e-03
-1.897333879779807236e-04
1.763793611606639727e-03
3.152867167893968429e-03
4.921429442583181643e-03
4.954584113290601451e-03
9.751623569902583303e-04
-3.659131189313284162e-03
-5.448733064442102571e-03
-4.260565435323655607e-03
1.833272439646274729e-04
6.324452671409103166e-03
9.092279055398487866e-03
6.621787510302349494e-03
-1.996452852220466953e-04
-7.726873260629625075e-03
-9.246432536468873406e-03
-5.500795659707916931e-03
-5.662825923022138776e-04
5.878170055801968134e-04
-1.800631357537163958e-03
-3.055462892744386337e-03
-1.546843646758768072e-03
2.367900335498303657e-03
6.487730885479479383e-03
7.064770038787172857e-03
5.053949074587320116e-03
6.160210189221957495e-04
-2.153043591417030250e-03
-2.391629176489735737e-03
-7.895274316421899185e-04
1.181288175792440239e-03
1.274158970538072496e-03
-7.774752890048968563e-04
-9.627994004690068825e-04
-1.406270416280704506e-04
2.682082480980556728e-03
4.405792413270847620e-03
7.424527428747205050e-04
-6.610136422888933036e-03
-1.240985901570324131e-02
-1.428273621955214630e-02
-1.166279345500544594e-02
-4.125800995505740122e-03
6.001218691138432079e-03
1.698004402463455104e-02
2.261030516227633194e-02
1.496472257452779314e-02
3.915520943751475864e-03
-1.173339016015867474e-03
-1.049119953706070764e-03
1.380130550229068283e-03
-9.186262206777310495e-04
-9.012120910301422982e-03
-1.416705538123214959e-02
-1.568772331793165387e-02
-1.342986697303180654e-02
-4.136231231865198678e-03
6.504261702990119139e-03
1.162779759698250558e-02
1.004744945185702051e-02
6.847188988603349936e-03
3.752882891631232308e-03
-3.323350108406235466e-03
-8.273330492430121599e-03
-6.856855147980673096e-03
-6.610923074087943349e-05
5.563739131789897409e-03
7.564528174495485820e-03
8.603161199022444153e-03
7.177317470482021296e-03
2.169497694648850100e-04
-4.697523767683343433e-03
-4.427486899035153189e-03
-2.702136870639966319e-03
-2.321083096913422426e-03
-2.393606365531058926e-03
-2.141449304698428945e-03
4.834439847332566470e-04
1.785494224721816993e-03
5.672596068412525663e-04
-2.940340783222549804e-03
-9.982614772583631516e-03
-1.474538868728286073e-02
-1.077657280239691096e-02
2.741801984187316153e-03
1.761902046771509148e-02
2.289462583125806416e-02
1.672616004982765969e-02
6.227742507910040935e-03
-2.755725542310923266e-03
-5.950016545353021234e-03
-8.577855545383220037e-03
-1.359904047549580393e-02
-1.346006479403343177e-02
-4.275962106362616970e-03
6.546341053221562366e-03
7.788062375420478668e-03
4.561346440517088929e-03
4.881773389325627134e-03
1.815861776038476530e-03
-3.477274996993237784e-03
-2.659885381807547237e-03
5.603539367512489237e-04
1.876494134159391531e-03
-7.167441546661486567e-04
-3.412235441340693599e-03
-3.151284873594175587e-03
-6.758852515164360262e-04
4.199985492354270898e-03
3.280029941086872337e-03
-4.911394764993025873e-03
-7.198474042969983319e-03
-6.299064821225919134e-04
5.990882293411698041e-03
3.698246844502259007e-03
-4.648234928094284696e-04
2.818228327782331538e-03
7.436927348860826806e-03
4.214931745916778751e-03
-2.301892932142465473e-03
-5.589894520322299769e-03
-4.771486962721878909e-03
-2.931375886983924629e-03
-1.466596394844303002e-03
-3.891613496222460947e-04
-2.140150397725910751e-03
-3.503799476263246438e-03
-6.457205709415357120e-04
2.796013847868694929e-03
5.624684675975284015e-03
4.960933681536683695e-03
2.648347562428493215e-03
1.894955421024464457e-03
1.627627871196398639e-03
-1.827777437420035353e-03
-5.130671186729498894e-03
-5.399484113225612447e-03
-2.497783291501274889e-03
6.623656868593824588e-04
2.573216709535542973e-04
-3.613098230925574695e-04
3.296006319034759852e-04
2.481169088124538999e-03
4.261039356862986530e-03
2.310648314454002983e-03
1.379711080539078598e-04
1.252493427505059270e-03
3.521775784219944617e-03
3.950193826392345135e-04
-4.140430348081776575e-03
-6.237982029595230335e-03
-4.174563987156541464e-03
-2.776843135793594011e-03
-8.694627349489010559e-03
-1.301193489894986177e-02
5.051998517718938068e-04
1.877867364816065976e-02
2.489228876917441366e-02
1.365022188223970201e-02
-2.778414171767897532e-03
-7.368113644743742689e-03
-5.542458159094338505e-03
-6.700878422956089812e-03
-8.644283286155190690e-03
-7.789532535142552720e-03
-3.283111824043003120e-03
1.933686467272407615e-03
4.481496950048143198e-03
3.591972642787610599e-03
2.476888993414102721e-03
-6.793144112872269132e-04
-1.280072665092258115e-03
1.303316617018358608e-03
2.202721184933199329e-03
2.495304724398786887e-03
1.726052996995730169e-03
1.265404380325443586e-03
3.876720319873880371e-05
-4.350834105676329596e-04
-1.686163583984016598e-03
-2.796443982597014190e-03
-4.058744687725974673e-03
-8.709276649505952013e-04
3.752960717838344385e-03
1.013483283462968077e-03
-1.855634604828306899e-03
-2.189504458550603407e-03
-2.200893235005151397e-03
-3.033850436632219358e-03
-1.913672439778744288e-04
3.794123430683294957e-03
3.627606693344598981e-03
7.070640298852082185e-04
2.356996933798097098e-03
5.347178121067183362e-03
1.538642232069518988e-03
-6.244978594718291094e-03
-7.570522258850465903e-03
2.029470184494523190e-03
9.008196876661331634e-03
3.478518891989783139e-03
-1.401457679521631939e-03
-2.380109255078642280e-03
-1.527449091651537656e-03
-1.193179992403614088e-03
-1.254909073827459570e-03
-1.708883063475208179e-03
-2.821719283850652495e-03
-4.064139198534035165e-03
-6.251886187458480931e-03
-5.602232510269413920e-03
-2.441267348675139979e-03
2.294312950765609212e-03
9.944780576810120787e-03
1.694545883361684921e-02
1.573491499977591745e-02
4.212285776000111899e-03
-6.631822739454254663e-03
-1.163075601950035870e-02
-1.234945272613227965e-02
-9.904450474006570512e-03
-3.430810477449413622e-03
4.277274602833649499e-03
1.119462985953289212e-02
1.347285391834958379e-02
8.035632235120567998e-03
-3.910243727024050216e-03
-1.519482440898610627e-02
-1.680402756380353080e-02
-7.798912641371644021e-03
8.657712368392603232e-04
5.713553303799447959e-03
5.854795402022858024e-03
5.876856908967656966e-03
7.901886776284462385e-03
7.614752369332283312e-03
5.095818409969166476e-03
2.077569146674855018e-03
-2.473393604334756662e-03
-4.259224257252798747e-03
-5.235967214554020609e-03
-4.751840294567597107e-03
-3.961988634653142161e-03
-9.377856885369419875e-04
7.930490341644069697e-04
-4.547756781728710430e-03
-8.511401716545437604e-03
-2.922749791831149788e-03
5.006106620717039150e-03
7.162750121807574290e-03
5.511440262315785675e-03
5.828616656596731851e-03
7.625743415469099160e-03
4.755989125057014620e-03
-1.006377534801271333e-03
-5.457866144650385005e-03
-8.829753996459186946e-03
-8.766701511075921174e-03
-4.750821480316370568e-03
-2.680532604411007581e-03
-8.361062726359378946e-04
3.248247433637661483e-03
5.148271956270346165e-03
3.003505900544725660e-03
2.242220889697672370e-03
1.998169991874404819e-03
1.366862656348744607e-03
4.444672927223396360e-03
7.518864297400847975e-03
6.707993204193174290e-03
4.232200878918085211e-03
-5.729645948329993967e-04
-7.119228774537861813e-03
-1.171799857438006812e-02
-1.244962402054205532e-02
-9.307347135840327371e-03
-2.058701888663944969e-03
3.341394452098914863e-03
1.453741130770744858e-03
-3.658500894977946213e-03
-5.316117869524784184e-03
-4.316724576967251835e-03
1.571175682703003897e-03
1.148338867631837172e-02
1.793267763901426962e-02
1.473112666299566421e-02
8.124258341904003894e-03
5.960813048425911420e-03
1.072226209308496441e-03
-4.752942018779474087e-03
-8.376074619250750350e-03
-1.032026376892603188e-02
-1.184915704104405262e-02
-1.220264713839911211e-02
-1.026376460079638474e-02
-5.469732082693736126e-03
3.406229265196652166e-03
1.061714888116483367e-02
1.075422623221860066e-02
5.751862149500379905e-03
-4.665992948443737384e-04
-1.390401478534080944e-03
1.693367185348039960e-03
2.134796609797770441e-03
1.955788890726466948e-03
1.168296418428740749e-03
6.755302065385599417e-04
1.400806623878536605e-04
-2.626036084390424209e-05
-1.809758817702454103e-04
-6.799393831437827154e-04
-1.106702366574633918e-03
-1.486309374922239199e-03
-1.974797543184843816e-03
-3.161218621042673812e-03
-3.778330980195622902e-03
-4.672385848349185425e-03
-5.146605171422300243e-03
-5.563638716498038941e-03
-5.830430819095100935e-03
1.608836235887894277e-03
1.680741923005396599e-02
2.208309257959963773e-02
1.603985253606345085e-02
4.412840595498579606e-03
-6.944551440540818431e-03
-1.204958312823895157e-02
-1.210043765893915532e-02
-8.595521668359350567e-03
-4.084139923127397091e-03
-1.699969321246194752e-03
-1.210199590795372929e-04
1.090452051229869523e-03
1.790471027362838634e-03
2.316417633947220975e-03
2.259885358968872961e-03
1.985641250536810277e-03
1.862065007150140060e-03
1.339877957662625801e-03
9.312943410193420422e-04
6.810818578560717080e-04
1.235151183582471964e-05
-4.427006780448852394e-04
-3.679022030727565565e-04
-2.192950262121452407e-04
-7.652936575806812110e-04
-7.955653947213127408e-04
-4.756882544033405060e-04
-2.769883555252844356e-04
-2.119283720387895946e-04
-2.906641069187768859e-04
-5.203422248252301827e-04
-1.419639110866625985e-04
-3.772429151464682805e-04
-1.568289265799652579e-04
3.691749903382622968e-04
-1.738211591011920411e-05
2.107743434330039845e-04
2.898312243695957079e-04
3.683789828736867790e-04
4.388342933787990445e-04
3.374829941939711322e-04
1.728755259333988967e-03
4.444383341995919098e-03
2.823172758564401925e-03
-1.774437697971657053e-03
-6.304450942301490814e-03
-6.494937197600058817e-03
-2.643176461028786013e-03
-2.261788793573033386e-04
1.846963794398635275e-03
3.450325318981219223e-03
2.322259027507771363e-03
1.386303695830290277e-03
8.138792234163408660e-04
6.164660615643953760e-04
3.396730715068655587e-04
1.316339463162887629e-04
-1.874277418022364579e-05
-1.272853482155707292e-04
-3.647720334476293471e-04
-4.439852699073796346e-04
-2.275040608486444374e-04
-4.883587662764881602e-04
-4.668273750067819289e-04
-7.684736327235352268e-04
-7.698258423668010103e-04
-1.060353298476355384e-03
-1.155150526917361926e-03
-1.328391078091388988e-03
-1.090622067886197174e-03
-8.709556949537115194e-04
-3.425441330304580877e-04
1.421119629697904264e-03
5.485492320048060769e-03
7.102451290750905200e-03
5.323580732230034050e-03
1.629250257969020550e-03
-2.813604054259349983e-03
-4.246538509679002350e-03
-6.689343282801510013e-03
-7.133388735782572078e-03
-1.335864654359022021e-03
7.708686586620666940e-04
1.629450944633816000e-03
1.559745020525913402e-03
1.654861006798257362e-03
1.641199448104146974e-03
1.247992082549373655e-03
5.091206058677552214e-04
3.707691731370674139e-04
2.481023206164154602e-04
1.603770363930858236e-04
-3.238068036025889282e-05
-3.239608466322100124e-04
4.910576542284405578e-05
-2.905645578481400688e-04
-5.875051262797698374e-04
-2.409283147613109906e-04
-3.293877600703663962e-04
-2.527913636614805806e-04
-2.038755176077261324e-05
-9.759137683017270540e-05
1.202375990674369138e-04
1.716886857533786968e-04
-2.500575787380630963e-04
7.585433087170431179e-05
8.294082701688089670e-05
-7.349041847543760059e-05
6.770190316260458075e-05
5.235531390610393288e-05
1.890661101559719859e-04
1.755556866640693909e-04
1.394327855429964881e-05
1.631852121170119336e-04
1.657476297415796268e-04
-2.842079941595352646e-04
3.262610609686874001e-05
4.623150200898095980e-05
2.122224374764064754e-04
-3.870530642862032009e-04
-7.497396699109300862e-05
-7.359902962967185573e-05
-7.847207739903745943e-05
-8.961029055922459339e-05
4.624323008959562158e-05
-1.274119568589671049e-04
1.480130188138130586e-06
2.822835723087179210e-04
-4.595146473402599604e-05
8.671650260890028750e-05
7.142845250347439599e-05
2.143944159282770029e-04
-2.468206646334228133e-04
-9.155791738185315863e-05
2.218538013770312949e-04
-7.054564607281071172e-05
-5.460980197999119016e-05
2.680389682047020785e-04
-3.250311469633279941e-04
-4.457742365041225042e-06
1.601282061806052180e-04
1.675155708225808786e-04
-1.356817690987114115e-04
-1.394170762866125219e-04
-1.486359862723703217e-04
-3.151717843154477612e-04
1.251225234216601532e-04
1.056616673233380307e-04
-6.670014044160704216e-05
2.200239141410054503e-04
5.171842679920349089e-05
1.923692739528111613e-04
1.848089695010717731e-04
2.916593580859145178e-05
-1.222641137827307624e-04
-2.700971872752273482e-04
-1.099749790693005283e-04
2.046184042840620365e-04
-9.012682636116425426e-05
-7.944994298088737649e-05
8.344766349994670550e-05
-5.963590455644307553e-05
-5.120256572828029779e-05
1.086311408511164662e-04
-1.904929469940127803e-04
1.195959955828544886e-04
1.234403869191150714e-04
1.262611306685656109e-04
-2.453002634448854196e-05
-2.380133220863995226e-05
-2.420582491189184589e-05
-2.579443316834947726e-05
-2.856648965850115167e-05
-1.850285004109240741e-04
1.153463168217855117e-04
-4.270698105224521334e-05
-4.851265045424051054e-05
9.827641269776880059e-05
-2.123656820028242275e-04
3.931158078568475320e-04
8.384124940255562714e-05
-7.199199129003766746e-05
2.308029133665628061e-04
-3.810822029619693151e-04
-7.658770498869974593e-05
-7.634972244784426142e-05
-7.504880486265932591e-05
8.010628142961219412e-05
2.367462176447366782e-04
-2.153069187533712214e-04
9.730452787073493189e-05
-4.621546510598508817e-05
1.167852102832670641e-04
1.280500350554399645e-04
-1.656894851051661391e-04
1.502744057210491150e-04
6.945842104348550570e-06
1.383619209851367181e-05
-1.349134294640019186e-04
1.706438777210580516e-04
1.496872228382727419e-05
-1.437000600135193240e-04
1.534256897525962957e-04
-1.601797717040392521e-04
-1.429206303453268153e-05
-4.745177046288504767e-04
-1.227445271757731677e-05
-1.508348727662972479e-04
-1.251163054210739699e-04
2.187378860077248592e-04
2.703587403830074007e-04
-1.245029268107677208e-04
-5.387336072223926006e-05
4.767119982761329781e-04
8.655505910104593003e-05
1.400102097064512968e-04
6.272058014724048646e-04
4.700703628429790822e-04
2.700007733904858796e-04
4.780783048583296061e-04
2.314401171680437676e-05
-3.299345872079219246e-04
-1.153582143769532034e-04
-9.966985802236118502e-04
-6.632049976183051598e-04
-9.175309000357381641e-04
-1.268487120595094457e-03
-1.374836366964265772e-03
-1.048610071015927681e-03
-1.022179512321614832e-03
-8.167461932263550854e-04
-4.257766522947331448e-04
4.431735873699511733e-04
1.448917845720783639e-03
2.529504159536747222e-03
3.138582567700587932e-03
3.773112162990649530e-03
4.452238144259761110e-03
4.572561355084632864e-03
4.292252331063361494e-03
3.171041852358433277e-03
1.100571468259631648e-03
-1.680569971270521722e-03
-5.488809916033052239e-03
-9.659542241508726340e-03
-1.513629303296464002e-02
-2.065823074180999155e-02
-2.658517622975071701e-02
-1.004420790521145558e-02
2.575936075755889607e-02
3.381314002272468866e-02
2.428296123115491686e-02
1.184736570484924874e-02
2.103046411212976773e-03
-2.946495999727154723e-03
-6.259689298358226718e-03
-9.183967506557253954e-03
-5.946392285141190170e-03
-1.030329168687745380e-03
-1.680169790594133366e-03
-4.456434249327179131e-03
-1.324364432043986491e-03
1.589887299041377279e-03
2.013665844481498171e-03
6.181525840826019051e-04
-4.014321472799138764e-03
-6.388008276729144515e-03
-3.099965999148097257e-03
-4.760022539381910593e-04
9.840876626760741968e-04
1.407354280957376054e-03
1.382896084070570379e-03
1.797096036416601919e-03
2.449241932194555060e-03
3.263177618931840159e-03
4.586256614497809768e-03
6.576184570197071526e-03
8.591589092190928673e-03
4.008618403859287409e-03
-6.648793319523027892e-03
-1.081637086020912145e-02
-1.195539757186130612e-02
-6.807906264388825790e-03
1.640287078455561097e-03
5.537023626160445834e-03
2.541371885307766067e-03
-5.674178656723437774e-05
4.715579283496225426e-04
4.276222883119809581e-03
6.332999919834861671e-03
4.682426320874719973e-03
-1.859130498977677607e-03
-7.595740666865405041e-03
-8.649428388276196589e-03
-5.707730256979788412e-03
-5.167191153610599082e-04
4.725066612378716301e-03
6.292851179151302647e-03
2.591435205315611306e-03
-3.256928386643917483e-03
-3.875604273052678499e-03
1.552732397238863467e-04
5.026315895809886289e-03
5.528879989791860884e-03
1.464647160767871365e-03
1.463378617836688916e-03
4.067227723587711098e-03
3.536115634485963600e-03
-2.514648439458347720e-03
-8.833393658275326757e-03
-9.238257948551329216e-03
-4.851182188389860026e-03
-3.789800164300818029e-03
-1.941601011863339785e-03
1.621555234814389288e-03
6.621850441780691328e-03
1.034863919177354818e-02
5.821526708658702511e-03
7.067124639326629763e-04
-1.454028429699102476e-03
-2.770126375742878577e-03
-3.372418169291551988e-03
-2.480260089686237360e-03
-3.436005078899856055e-03
-3.328665126422916589e-03
-1.659561608803834863e-04
2.089191003486686425e-03
1.756913679320230414e-03
3.559000134467158426e-03
4.885434254968120532e-03
3.119285832217938079e-03
1.132009946742602727e-03
-4.949944411968180231e-04
-1.176997499566236408e-03
-3.220145441532377278e-03
-4.645236064414539311e-03
-2.998940639245680113e-03
-2.523673690462328520e-03
-1.950849868853421444e-03
3.594868277068566151e-06
2.804005014354817287e-03
3.631826042514478808e-03
2.414946700244059198e-03
7.534855121737884338e-04
-1.595422972050325851e-03
-3.976097156907862189e-03
-3.465354641601649764e-03
-5.218480230902087765e-04
2.079375197034201948e-03
5.654154950815224075e-03
6.606914095223480332e-03
4.520520520884464995e-03
3.077165526784414896e-03
-1.530383646265067897e-03
-6.245530133996933346e-03
-2.052216011173261037e-03
4.826623923112995269e-03
3.315389002624804637e-03
-6.789073656439018230e-03
-1.221749667403860921e-02
-6.824927211568102177e-03
-1.510270131575834835e-03
1.870758430320841386e-03
4.240298759189691999e-03
1.351731083213416522e-03
-1.575565101072034764e-03
-1.619608013706800914e-03
9.151357415235565054e-04
5.232376549219550435e-03
6.219843284828346745e-03
4.819173682891123370e-03
2.530739613970914206e-03
1.873833173314693205e-03
4.257213950996119670e-03
3.886225088619734910e-03
-1.695021252757266186e-03
-4.416580855679270307e-03
-2.909301419244559629e-03
-1.116920579668568983e-03
-5.079835629215867336e-03
-1.239870985135664919e-02
-1.452053640486111741e-02
-6.812331527210050384e-03
1.817386303890826177e-03
6.758354068745326543e-03
9.513820440669546949e-03
1.097043294210123428e-02
9.858000986457369358e-03
4.112184672819281690e-03
1.244720752469871293e-03
2.626204540703155031e-03
-4.772989316674661263e-04
-6.297494976308240684e-03
-6.979381889630938141e-03
-4.897941519846187204e-03
-1.967371887710792772e-03
1.129947800480292147e-03
2.355573860595826068e-03
1.065625303111391838e-03
4.542945433884737548e-04
1.755821494001264449e-03
-1.402668657334809775e-03
-7.287789117329297565e-03
-9.727046821527352699e-03
-6.660716251343363342e-03
-3.030402872664331062e-04
9.104343098876218829e-03
1.412798152232788360e-02
1.051146660769608672e-02
5.106451155975540342e-03
2.751054525866218799e-03
9.348557514013360699e-04
-2.257121102330195053e-03
-3.860067394740661177e-03
-5.172039113344096932e-03
-5.638860191614240847e-03
-6.202152664935700957e-03
-9.141820862653133109e-03
-1.014134975621940570e-02
-4.853976908485748733e-03
7.118847250839566111e-04
5.743827900666582942e-03
1.125426206738561717e-02
1.442116207579030411e-02
1.117147643669817551e-02
1.973421116355795167e-03
-5.417693805326569655e-03
-1.600895028001510798e-03
5.405397478290263451e-03
3.449707142108536084e-03
-4.513923962649880363e-03
-1.033182373462151506e-02
-1.177900003896855362e-02
-8.279259504968182470e-03
-4.869341788601592134e-03
-9.089170962696680985e-04
5.030895810014140469e-03
9.055269504461897073e-03
5.292400524535779451e-03
6.844972825898334263e-04
3.840312528467721212e-03
6.108028576599003508e-03
2.323702083074584077e-03
-3.848998295246409962e-03
-7.546750196597497469e-03
-5.907872289806364446e-03
1.473858291432970187e-03
4.924134808250824058e-03
3.003196118594401737e-03
1.289951411782960930e-03
1.706087802444088619e-03
3.132080761393696549e-03
3.396615566779581999e-03
-1.023210632692629065e-03
-8.588967390289959508e-03
-1.086768366123346853e-02
-8.859638324847820059e-03
-8.425355087228122986e-03
-3.051674656929032753e-03
5.384577920241757562e-03
8.128993595031093131e-03
1.028829192123956009e-02
1.144081983089353070e-02
9.139508846262684241e-03
5.014308150712500078e-03
6.570343133316460275e-04
-8.428093131182180136e-04
-2.055856774062418766e-03
-5.856482655318895163e-03
-6.862105906756251102e-03
-5.762729680563154731e-03
-7.174771390959441830e-03
-1.032831810675702462e-02
-9.373159847541388465e-03
-3.303596948426737109e-03
4.792935573494227705e-03
1.123038228168871458e-02
7.282664963120007683e-03
9.883330407908375980e-04
3.405198654183176285e-03
1.334354800013253656e-02
1.568502413613544200e-02
5.036740499032652495e-03
-6.936294803567906626e-03
-1.194582228729028708e-02
-1.040689846318463598e-02
-7.304517350551688326e-03
-7.757668017761691973e-03
-6.789059255396490480e-03
-2.140139279284456776e-03
3.285659611430184063e-03
6.758473623925869388e-03
8.767038039471458655e-03
7.823894121408681360e-03
5.647906231764490692e-03
2.430799085777901256e-03
-1.790319846357148062e-03
-4.537669233328020350e-03
-5.925702893980289675e-03
-4.538621272390902864e-03
-2.464015941347948765e-03
4.792634050203547743e-05
-2.999789008036811660e-04
-3.947705883037779429e-04
-6.362293761977442716e-04
-8.225622711577648509e-04
-1.562885405500329897e-04
7.665087853117646738e-04
2.240321854992602304e-03
4.073858165815488590e-03
5.894413246710594918e-03
6.997277809324214948e-03
4.519754596568744016e-03
6.208225688385274289e-04
-2.391282337588567560e-03
-3.878445727462899711e-03
-4.861125239046129240e-03
-8.923964866012715907e-03
-8.475968548938872180e-03
-4.736582502576437530e-03
-2.603796669437250552e-04
1.417087556342910251e-04
-2.307304380821559005e-04
1.323658026047759778e-03
5.522813896012512998e-03
1.078507913862809288e-02
1.093169487963463991e-02
6.625655867232948040e-03
9.454353854644004197e-04
-3.664176813264978690e-03
-9.659056194415564442e-03
-1.263955993256627754e-02
-8.362762992407032567e-03
2.227641900678021571e-03
8.427380006023004952e-03
6.558316698102930296e-03
1.800623881556941272e-03
7.168489193481382719e-04
1.182145076439756548e-03
-4.429321635494868812e-04
-2.139835171032491642e-03
-4.318943135322757775e-03
-5.242962717345629395e-03
-3.928885313444875974e-03
-2.594183445705326718e-03
-1.017767963973754486e-03
4.000945885318841241e-04
1.849690701500704068e-03
5.476779128972858630e-03
4.847233799095787207e-03
2.795706715644626257e-03
3.490478438850537057e-03
4.197198503149886413e-03
6.272896816033198507e-03
7.700789592232720748e-03
4.783601154595236958e-03
-1.888578852687956399e-03
-8.794281176147659973e-03
-1.495830107817908323e-02
-1.690491860254894965e-02
-1.506144660816180827e-02
-7.351951711459313137e-03
-1.936924639940964285e-04
5.371744995332125225e-03
9.690309789084175854e-03
1.310011540961080606e-02
1.423277685779680661e-02
1.030296796031768963e-02
4.881217575312305802e-03
1.788414630853256025e-03
-1.460566027675016957e-03
-2.659969898161414908e-03
-2.528136161956134973e-03
-6.217154603075389883e-03
-8.801029269119615625e-03
-8.536886423355450129e-03
-4.413088883528698027e-03
6.525931131825456156e-04
2.561242898464024566e-03
1.676132862291639667e-03
-2.347628411428999743e-04
-3.669006076093466427e-03
-3.922528625782796020e-03
6.763834055740527464e-03
1.493278983402440870e-02
9.705375829906548457e-03
-3.798308633652610657e-03
-1.483986677907264511e-02
-1.423714959705804119e-02
-2.453160369187746583e-03
1.162355923741998850e-02
1.342520702039157014e-02
3.763068746668432434e-03
-4.059221007914204783e-04
1.678680616645260781e-03
2.982384564622555558e-03
1.046612890442188450e-03
-4.898236650172367590e-03
-8.275027390684277367e-03
-6.135699953296272317e-03
-1.137080652175584969e-03
-1.069389782062962197e-05
-1.813093331972517397e-03
-3.422477981882438795e-03
-5.038800047385398953e-03
-5.463395820098746088e-03
1.778800968149375208e-04
1.096127943876183501e-02
1.588023758981651004e-02
8.025615980033979149e-03
-7.729561058834644215e-04
-2.533211375481476263e-03
-2.912129703279213683e-04
-2.299404372990126316e-03
-6.304633355949383275e-03
-8.392148945013541694e-03
-5.573762285062466154e-03
2.386066970404591807e-03
8.854337635352930308e-03
7.199296731958523300e-03
3.763685038336346371e-03
2.151867462842048991e-03
-1.801422755912770969e-03
-8.888008141048049301e-03
-1.225043917863459682e-02
-4.551932406079275961e-03
5.543554452295104164e-03
8.169436714846123673e-03
3.695863258083655328e-03
-2.006274480620982847e-03
-4.895679507158773314e-03
-4.445201886411787907e-03
-1.969253104798422780e-03
2.422478011790569867e-03
6.005686104243343655e-03
6.032292253940034661e-03
4.459738396386002564e-03
5.969191375980010573e-03
8.052121805354231845e-03
7.125233966227957584e-04
-1.170391202550089514e-02
-1.538317508829030802e-02
-7.481606008841419804e-03
-2.681858465596720538e-03
-1.605526641253810166e-03
1.402925559923754026e-03
5.301373747372378244e-03
6.463414305761081176e-03
4.775046196098282382e-03
2.560560514872920260e-03
1.221277383299045711e-03
6.229131877168559523e-04
1.084718087919039763e-05
-9.203308883772679276e-04
-1.261259686286472130e-03
-2.088920562489725123e-03
-2.801261821658289353e-03
-3.555803587412553670e-03
-1.300374055020800173e-03
2.293318822219066189e-03
1.745302455718944143e-03
3.330735385955534492e-03
4.479640741447380066e-03
-1.493852797362358155e-03
-5.403502429999497945e-03
-4.622551503616774936e-03
-3.359741589059969278e-05
1.527730306577960865e-03
8.725424431966862415e-05
-5.227818312124681531e-04
8.806102003456447441e-06
7.581258329592570257e-04
1.090086381677014089e-03
2.183499650323530474e-03
3.369777268716129658e-03
4.119245268329691477e-03
5.113933418750057393e-03
6.117925140460195310e-03
2.323314481919425308e-03
-7.706493888914702287e-03
-1.333111402125265917e-02
-1.334196992158076002e-02
-7.414729821920405979e-03
-1.298961897326234754e-03
8.053029851062906306e-04
1.273663003614028313e-03
5.384200984590852002e-03
1.413505627982860301e-02
1.767454671118724382e-02
1.116552325048098503e-02
-1.793124314578453562e-04
-6.128337858751316779e-03
-6.529427836306539619e-03
-9.774999793873613910e-03
-1.341524403690968863e-02
-1.071423580119412224e-02
-4.381913034736587172e-03
7.464552362935306757e-04
2.585353610184152641e-03
3.772278530050867350e-03
9.062568057501623267e-03
1.341755199030575905e-02
9.321700651228110104e-03
1.122952197222922650e-03
-5.494205955539610380e-03
-3.655477566445782065e-03
6.742048324030628986e-04
-9.223510974788225051e-04
-3.586309148529235116e-03
-1.225786846729623675e-03
-1.916882608047728665e-03
-6.685387121543034418e-03
-6.448699968736887160e-03
7.456096962520484704e-04
1.216275281488047970e-02
1.549759418400574809e-02
4.589656037698428698e-03
-9.440377996959601475e-03
-1.558920353057270843e-02
-1.548860471294377650e-02
-8.460367375416038421e-03
-1.446591314901507540e-03
7.607144247877227136e-03
1.188206662325316798e-02
7.419008117286144711e-03
1.039244313352315164e-03
1.790473196208316629e-03
1.209351196392840361e-02
1.599634480510937068e-02
6.039479928096384842e-03
-4.826340009448406611e-03
-4.887222025110154501e-03
-1.038432034850862587e-03
-3.045541784946411389e-03
-1.208125274521346625e-02
-2.193281306874743722e-02
-2.433724193376268080e-02
-1.737761249136556344e-02
-3.360193544638839271e-03
1.116428634045398341e-02
2.620843623794429783e-02
2.894329287120275471e-02
1.946368001968469194e-02
1.062151472375125714e-02
4.217748048911207880e-03
-4.414770191106876136e-03
-1.510693280395894629e-02
-1.886868179416701513e-02
-1.587582959803385957e-02
-5.229956268776069124e-03
4.678552913952141283e-03
7.317929628268001786e-03
4.885970805641366883e-03
2.665741314638954331e-03
2.768863050533917208e-03
-5.967397496130802609e-04
-4.955750118094440562e-03
-6.283833404360310813e-03
-5.880092521974767186e-03
-3.660796747855272083e-03
-9.149329313253828358e-04
2.737886357924961510e-03
6.286417039400273715e-03
1.052469743053393962e-02
1.377539439351601648e-02
1.234773722762838762e-02
1.610653811961327035e-03
-1.224850238897298715e-02
-1.434763739049127289e-02
-3.679284028676438507e-03
4.765845734331618407e-03
3.660103952258374205e-03
-2.839804482693536643e-03
-8.703354142337678054e-03
-1.319984012199844868e-02
-1.312325853685460120e-02
-6.923887085274664163e-03
2.834473863623957618e-03
1.220276942064965099e-02
1.857496431788402055e-02
1.929932848893268008e-02
1.212626364957053275e-02
4.360784275123041030e-03
-3.001977320075863674e-03
-8.246743455094030992e-03
-1.060137664662431922e-02
-8.541649475456882315e-03
-5.573740206591694911e-03
-5.033270292326123656e-03
-4.888402149859585703e-03
-1.244930652906505114e-03
3.108974789121223686e-03
3.277076152580962482e-03
1.251973103762170489e-03
1.482998659289658369e-03
4.155113376712322136e-03
6.097915933341813317e-03
3.984863159876864298e-03
-9.398571650142719920e-04
-3.320633773524328709e-03
-2.998343853920345126e-03
-2.415459956153617228e-03
-1.274197435351512352e-03
-5.025725804517277651e-04
-2.697875251160838732e-04
7.774281832533762706e-04
1.242967379312841106e-03
1.407114636437460783e-03
1.701721260021893563e-03
1.185883296795371255e-03
1.362767497745789218e-03
1.146850475675543915e-03
7.121438947557294031e-05
-1.099174585325063879e-03
-2.196060281054885207e-03
-3.798995123642457273e-03
-5.251668729855905882e-03
-5.274059212102405296e-03
-3.034304033161947835e-03
1.475666164043617228e-05
5.927327010580028636e-03
8.661264622403814367e-03
7.500147408421044791e-03
5.981586206305601616e-03
2.435943384139238090e-03
-2.229731773421800983e-03
-5.900825507185624395e-03
-7.233442108118887624e-03
-4.886110358356843264e-03
-1.635364284714950879e-03
-5.584870984028457485e-04
-1.065597641426225877e-03
-1.036966026695525624e-03
1.648805946286167412e-03
5.144638162957316900e-03
4.852975251911214802e-03
2.121435016943542563e-03
1.037934051765704692e-03
1.919410440819962972e-04
-1.514916523566928251e-04
-7.948873241018778032e-04
-1.010431461938068312e-03
-2.808594961611498523e-03
-3.000366955183440560e-03
-2.503036203570408076e-03
-3.287795128531716994e-03
-1.209022672983464880e-03
3.770004973507288214e-03
5.437539957847002149e-03
1.858104171908399804e-03
-2.342455691503654049e-03
-4.220043074218587584e-03
3.841272705020126656e-04
3.413712336326232659e-03
1.075379959895648866e-03
-5.813827721484076836e-05
5.355873207202119755e-03
6.325655483812625719e-03
-1.584048755131390587e-03
-7.245800627157407761e-03
-5.022969599696088319e-03
-2.853918744972779205e-03
-3.024305033042129932e-03
-4.456012325812087893e-03
-1.335700888232702445e-03
5.590528467697952406e-03
9.776318614092146045e-03
9.400169134136817858e-03
1.107001866098282104e-03
-7.785588199372270833e-03
-8.289375672988119961e-03
-3.629508111495100085e-03
1.743508227024048165e-03
6.122580661015954509e-03
6.272862743509595614e-03
1.858145105701221930e-03
-3.184282704943356811e-03
-5.066987350968534844e-03
-4.270856367917852392e-03
-3.255685810681897829e-03
-1.577989039113020893e-03
-1.280313366063180187e-05
9.691948999932597586e-04
1.503339464393336523e-03
2.937970873490509775e-03
3.254344013203284113e-03
3.169252372893960508e-03
3.847372269156641364e-03
3.395203664875372056e-03
2.512529995463154073e-03
1.448230502107410557e-03
8.998787764229634241e-06
-2.584388703725254248e-03
-5.553079293295499694e-03
-8.691033676930904478e-03
-1.236335684881689594e-02
-1.613594825730843563e-02
-6.576371236452092407e-03
1.664126779581388826e-02
1.691729621041014944e-02
5.701884712624030911e-03
-2.075033463060646684e-03
1.761896609064915247e-03
7.335474951509887188e-03
7.008467875491368633e-03
2.100486315002819335e-03
-2.750572673689420395e-03
-4.918635547646466565e-03
-4.539932106992637835e-03
-3.737051575386912509e-03
-2.944631621554032706e-03
-1.661945631885533440e-03
-8.864755299096590798e-04
-2.097430908200067080e-04
-1.040011210631044155e-04
-2.443563354104129749e-04
-2.747461053420915240e-04
-5.760326742683317914e-04
-8.996196766626673525e-04
-9.860686227319509587e-04
-1.032047910602691904e-03
-7.844145266470930024e-04
-3.126119402936924289e-04
5.930350025407095079e-04
2.261639672504031813e-03
4.221479951826556144e-03
6.571668137566840859e-03
9.526551894755014294e-03
1.174358760921949234e-02
6.519085079700343531e-03
-7.516831762047631454e-03
-1.188870395160700200e-02
-1.144272270299011469e-02
-9.462175871291587242e-03
-7.201670146573872257e-03
-6.173934245516280762e-03
-7.391197831989636431e-03
-4.508800359405780618e-03
3.800777049698320954e-03
1.261051734250519078e-02
1.636818804971009941e-02
1.346044706881334430e-02
9.103614660328183950e-03
4.508000040053256573e-03
2.070580216650265253e-03
-1.328537932323390876e-03
-8.055920434011163214e-03
-1.299548850245000296e-02
-1.268953460794564579e-02
-9.295219929550601820e-03
-3.864993730155317879e-03
-6.190773887658182527e-04
-8.473866212925508208e-04
1.810966170405960618e-03
6.249093640768174467e-03
8.151633280320052036e-03
8.527566109274379788e-03
8.665345194521258121e-03
4.176198190163847232e-03
-3.258282895210508519e-03
-5.121115469261548758e-03
-4.518115674676784557e-03
-3.811666870273688196e-03
-2.172177729826220254e-03
-6.066806076771188690e-04
6.411427591806565266e-04
1.943366911498479533e-03
1.545294870910957725e-03
-9.217747729071341153e-04
2.922207065310946880e-04
1.341426364780112096e-03
-7.586507286590243220e-05
-1.359952996096365106e-03
-1.876816132129515129e-03
-3.417618140506437086e-03
-4.708511082085376116e-03
-2.788115823736106533e-03
1.799297062424272181e-03
6.066223789864415121e-03
6.254938131494220711e-03
1.495234947889774934e-03
1.126087488176605702e-03
4.095918069921045124e-03
4.610198759126969865e-03
-3.880017607421315756e-04
-6.482774876573476307e-03
-7.273103686434697658e-03
-3.523288359154623430e-03
-5.655914861507593512e-04
-5.919623803112673095e-05
-2.279951874931597337e-03
-2.461220828468065058e-03
1.877339273420205535e-03
4.820661328856082513e-03
3.343812171890070146e-03
-8.625841538745455993e-04
-4.906590259272218014e-03
-4.545788784360686903e-03
4.437573079026546803e-03
1.067263200000808515e-02
8.106745279144894969e-03
2.419164835263205946e-03
-2.626933852689406520e-04
-1.287684889299622751e-03
-1.077075914761067279e-03
-5.369049607305766310e-03
-8.881565787565092254e-03
-6.596323275375886447e-03
5.992911897383968204e-04
1.486628989494037092e-03
-5.347543184908886554e-03
-9.078597652389103559e-03
-3.593633124156917977e-03
4.101432094460164858e-03
7.293709255213052731e-03
8.398089643165816687e-03
9.178627813977454850e-03
3.415301690965588492e-03
-3.263516857921300134e-03
3.873904476240534484e-03
1.143811380088414174e-02
5.701147290573853332e-03
-3.889406313800556052e-03
-5.749481896004479675e-03
-3.687343870223693497e-03
-5.289412529934534035e-03
-7.715428285496255846e-03
-7.149783016746617814e-03
-8.869479732941854336e-03
-8.327318352898972417e-03
-4.285435557468448772e-03
-2.341930745772732511e-03
-3.203303154671019275e-03
4.957763040386477379e-04
1.272453870370797782e-02
2.015006391587213438e-02
1.897846483261671907e-02
1.662785937390907215e-02
1.433813039716194671e-02
4.591982162988210263e-03
-6.888738490703749488e-03
-1.683045851972824608e-02
-2.102048937511520610e-02
-1.931508845279430314e-02
-1.134667003838043566e-02
-4.752893527692669297e-03
-5.716302342768912574e-03
-9.972013607574395366e-03
-1.758573138057149517e-03
1.365585911843834530e-02
1.894848503301031772e-02
1.630067753209723386e-02
7.538851860367681672e-03
-3.883700190203270039e-04
-4.535523669985517983e-04
3.921131394636108956e-03
6.958634854836526218e-03
4.050417332513680385e-03
-2.273946572222180877e-03
-5.529375371648531830e-03
-6.238906203075849331e-03
-8.555357002906785469e-03
-8.951874075110822365e-03
-5.517058872138666005e-03
-2.373641831604859746e-03
-2.202095271475804777e-03
-3.195842134843745498e-03
-1.973135653582980265e-03
-3.081679040352728357e-04
-1.184045190555998170e-03
-1.032336681730457043e-03
5.668416724256519247e-03
1.142091628675059346e-02
1.492173710807658503e-02
1.556124295000553721e-02
1.022004061083292385e-02
1.517483780543023254e-03
-5.834671242298225362e-03
-8.521092930499513454e-03
-8.872561289627007436e-03
-9.961387072828157066e-03
-9.937700900228964990e-03
-1.285119327378649035e-02
-1.170909925453920801e-02
-5.111054528415704713e-03
3.809467367796900115e-03
1.088012518966299282e-02
1.285636640916816911e-02
1.015148184338054461e-02
9.112011648207378120e-03
1.193858510638186321e-02
1.225851539259125746e-02
1.690604530493998404e-03
-1.122572912878353271e-02
-1.887241844252601775e-02
-1.988262621739371461e-02
-1.547071806007108835e-02
-5.461713934559853968e-03
7.281733743231082016e-03
1.578502334222468134e-02
1.566701589819925744e-02
8.641255714788418155e-03
2.052077840614997990e-03
-2.724941002893755369e-03
-3.873859277526657367e-03
-4.170780679238240106e-03
-1.976719816773833942e-03
1.900765843148514772e-03
-2.044193348280018245e-03
-6.682953632241358383e-03
-6.561174476540226029e-03
-2.323857745011996025e-03
8.088844819424920477e-04
2.499425450061943006e-03
5.153162286384203004e-03
9.185736991531454065e-03
9.054906030162422625e-03
5.011419642173435551e-03
3.567390620152434866e-04
-4.043564311828565065e-03
-6.395091382345265141e-03
-4.577405334027334974e-03
-7.734889486476329706e-03
-1.094435495813787448e-02
-6.660160694408040656e-03
7.848907832385900894e-04
3.868524044931901870e-03
5.753653780058554275e-03
8.222455974006649682e-03
7.088336022724472246e-03
3.937376441415415748e-03
3.530079887169423197e-03
2.814705647522317694e-03
1.154029862087455017e-03
-1.957104410679163728e-03
-5.357611934972700794e-03
-7.431922650187145103e-03
-5.338745799179256402e-03
-3.244263509890064900e-03
-1.636860560260495730e-03
1.758841544930108336e-03
4.351729532993755395e-03
2.954026280929696394e-03
1.862635503162163590e-04
-2.088200325131734595e-03
-3.377806671588927390e-03
-1.362545466083325526e-03
2.151417316016856866e-03
4.890847527816513836e-03
6.860139426436004904e-03
4.237457530447674529e-03
6.676842486839292294e-04
-9.742103477045480813e-04
-1.630666796197022608e-03
-5.141460955811942221e-03
-9.389770380941381278e-03
-8.741388928390641383e-03
-3.810446098701310465e-03
2.963121655076677782e-03
7.614279971368129868e-03
6.478555286593043125e-03
2.290491647236402029e-03
8.231447793909722711e-04
1.426321057173340857e-03
6.030553312314580576e-03
9.080177801346307059e-03
1.811947160886937620e-03
-7.748186569688510564e-03
-9.577778357333898915e-03
-9.808372964160285562e-03
-8.900206177864314339e-03
-2.860921480025181707e-03
3.935501358676879967e-03
8.204603533338614141e-03
8.050055882663961423e-03
5.245219163453771101e-03
-1.029823787568099518e-03
-5.954389643489414567e-03
-6.091025396660887208e-03
-3.204147121735176698e-03
9.246245359352346432e-04
4.493796680221681487e-03
8.274360970095137602e-03
6.759655209808261740e-03
2.663253482632558459e-03
1.887816834990557009e-03
-2.337967554513043379e-03
-7.174519670903702247e-03
-8.099141249884018665e-03
-7.750804593822503349e-03
-5.856533169932526955e-03
-2.893681889541812984e-03
1.432930086978360723e-03
6.660072201195555396e-03
1.033952974768220442e-02
8.490634577705586869e-03
4.904794217703816427e-03
6.162582586729637530e-04
-3.196637509564963578e-03
-6.275333221751093309e-03
-6.681599420691363561e-03
-5.369596296940118245e-03
2.276689745293939663e-04
5.368298782350480053e-03
7.159345310195402469e-03
4.711147182021014311e-03
1.122209000377827641e-03
-2.776154789639350730e-03
-5.368188350118481382e-03
-6.086455172962999122e-03
-5.873682960928072218e-03
-7.189832299817264065e-03
-6.240377041492341757e-03
-4.662313946247780071e-04
2.133342176332184842e-03
1.143202367533310924e-03
8.191114739884113169e-04
3.973686974706449812e-03
1.303956516080031006e-02
