1.660147467483838858e-04
1.493211711203410168e-04
1.234087548128187564e-04
8.917526565677385414e-05
4.762616426521591219e-05
-1.469373995298001088e-07
-5.298931580250733093e-05
-1.097074102238223712e-04
-1.690938105220053764e-04
-2.299525252021050693e-04
-2.911240766552174652e-04
-3.515099595927237614e-04
-4.100959832671177067e-04
-4.659741129761348164e-04
-5.183623285201062686e-04
-5.666221768160519499e-04
-6.102736384699088221e-04
-6.490069755685490532e-04
-6.826914017013447408e-04
-7.113803902338251351e-04
-7.353134052417030671e-04
-7.549139489592586807e-04
-7.707841407273444351e-04
-7.836957316653488017e-04
-7.945777189969429081e-04
-8.045007729248884656e-04
-8.146587424474511802e-04
-8.263475083921031092e-04
-8.409416420715466441e-04
-8.598691417116478180e-04
-8.845849308163321063e-04
-9.165433557882393884e-04
-9.571702994337722911e-04
-1.007835455926406549e-03
-1.069825235372319668e-03
-1.144316760591130048e-03
-1.232353640819455927e-03
-1.334823790749946164e-03
-1.452439851869061866e-03
-1.585722627313247701e-03
-1.734987753324868749e-03
-1.900336029575444606e-03
-2.081647531140224088e-03
-2.278579757350778206e-03
-2.490569885155212784e-03
-2.716841044466053890e-03
-2.956412677824502098e-03
-3.208114760426635480e-03
-3.470605701436569723e-03
-3.742393588520512380e-03
-4.021860559494510115e-03
-4.307289689635375451e-03
-4.596894188069469527e-03
-4.888848134064465584e-03
-5.181318339772199820e-03
-5.472496767468318368e-03
-5.760632887054476653e-03
-6.044065343521753952e-03
-6.321252426481609003e-03
-6.590800550994919786e-03
-6.851490532811912657e-03
-7.102300771726159298e-03
-7.342427122360275019e-03
-7.571298994698033753e-03
-7.788591184197871456e-03
-7.994231276937074915e-03
-8.188402453616726653e-03
-8.371541374616087855e-03
-8.544331388851017853e-03
-8.707690783939226603e-03
-8.862756468325660650e-03
-9.010863210427046480e-03
-9.153518714686049301e-03
-9.292374948092964326e-03
-9.429196127905017238e-03
-9.565823894979024258e-03
-9.704140342045038115e-03
-9.846029330844744895e-03
-9.993337006655389487e-03
-1.014783197355238926e-02
-1.031116591484848750e-02
-1.048483542847334846e-02
-1.067014570686915069e-02
-1.086817675059185972e-02
-1.107975273460631328e-02
-1.130541513483384990e-02
-1.154540017681098853e-02
-1.179962102731429291e-02
-1.206765521810297843e-02
-1.234873746352694278e-02
-1.264175822574959557e-02
-1.294526811238131021e-02
-1.325748816022984458e-02
-1.357632589633809769e-02
-1.389939703088715478e-02
-1.422405252014738095e-02
-1.454741066807835326e-02
-1.486639370042718879e-02
-1.517776844616366277e-02
-1.547819051947537002e-02
-1.576425117763842476e-02
-1.603252627215637910e-02
-1.627962666506509518e-02
-1.650224865810484901e-02
-1.669722452427657017e-02
-1.686157189382966881e-02
-1.699254119736896135e-02
-1.708766042084285813e-02
-1.714477644553666011e-02
-1.716209225794741722e-02
-1.713819947294177234e-02
-1.707210550995594961e-02
-1.696325501374766620e-02
-1.681154517934317638e-02
-1.661733455598857212e-02
-1.638144532499725275e-02
-1.610515874719337798e-02
-1.579020404296585869e-02
-1.543874061971448400e-02
-1.505333404406422430e-02
-1.463692599082760948e-02
-1.419279867289808747e-02
-1.372453422006466445e-02
-1.323596962260092241e-02
-1.273114792965240535e-02
-1.221426639679224109e-02
-1.168962237937458057e-02
-1.116155781526365770e-02
-1.063440313488212517e-02
-1.011242136869118513e-02
-9.599753358816121712e-03
-9.100364950422197216e-03
-8.617996762169675626e-03
-8.156117449335685901e-03
-7.717881189852384034e-03
-7.306089774186701712e-03
-6.923160116998027837e-03
-6.571097469548691297e-03
-6.251474798709260108e-03
-5.965418561669990141e-03
-5.713600974129450817e-03
-5.496239042882360842e-03
-5.313100105701786154e-03
-5.163513834388442671e-03
-5.046390495674212169e-03
-4.960245005091096226e-03
-4.903226498575943663e-03
-4.873152881705086065e-03
-4.867549738762494416e-03
-4.883692952183328086e-03
-4.918654446562931333e-03
-4.969350155026581832e-03
-5.032589646792410935e-03
-5.105126532828635141e-03
-5.183708930064800761e-03
-5.265129168514390279e-03
-5.346272039089883243e-03
-5.424160881347512252e-03
-5.496000851795490930e-03
-5.559218688059324245e-03
-5.611498502704404499e-03
-5.650813155386693286e-03
-5.675450751971577307e-03
-5.684035915491179869e-03
-5.675545656876837368e-03
-5.649319750399972931e-03
-5.605065410705729195e-03
-5.542856403371948341e-03
-5.463126697409398033e-03
-5.366658807346893177e-03
-5.254567138640428049e-03
-5.128276600789222379e-03
-4.989496975381361131e-03
-4.840193443063891578e-03
-4.682553666415285691e-03
-4.518952174607092365e-03
-4.351912492558925385e-03
-4.184067419842081754e-03
-4.018118366958291221e-03
-3.856794061824935557e-03
-3.702809252996433313e-03
-3.558824062864832192e-03
-3.427404378576392671e-03
-3.310983762134699082e-03
-3.211827392613531527e-03
-3.131998297825522911e-03
-3.073326425226049173e-03
-3.037380673135143660e-03
-3.025444102337470492e-03
-3.038492651364147791e-03
-3.077177265170121488e-03
-3.141809691890209803e-03
-3.232351888396738180e-03
-3.348408933739325643e-03
-3.489225488242716534e-03
-3.653685574962380056e-03
-3.840315636132602718e-03
-4.047290560587414425e-03
-4.272442577542470005e-03
-4.513272825140563979e-03
-4.766965249006071582e-03
-5.030402637397964061e-03
-5.300184606232947841e-03
-5.572647319730043673e-03
-5.843884695521585348e-03
-6.109770754544838547e-03
-6.365983271136347287e-03
-6.608028244084423845e-03
-6.831265136162680517e-03
-7.030932870531448296e-03
-7.202176293795924458e-03
-7.340073155214899003e-03
-7.439661466974014335e-03
-7.495967234316841185e-03
-7.504032450555989976e-03
-7.458943352813317620e-03
-7.355858963591458202e-03
-7.190039782551395711e-03
-6.956876663749748599e-03
-6.651919726077983389e-03
-6.270907356734307068e-03
-5.809795118082927527e-03
-5.264784530354846628e-03
-4.632351487520430106e-03
-3.909274216668013301e-03
-3.092660635259108452e-03
-2.179974754953055687e-03
-1.169062021788717324e-03
-5.817321857741366268e-05
1.154013336462102277e-03
2.468371599484775209e-03
3.885309969844662897e-03
5.404756171111417713e-03
7.026145153238164479e-03
8.748410455205298669e-03
1.056997923381793568e-02
1.248877139945824520e-02
1.450220305754898117e-02
1.660719450311569714e-02
1.880018311622592975e-02
2.107714110228445931e-02
2.343359834328888683e-02
2.586467033067152074e-02
2.836509106657292972e-02
3.092925095566326221e-02
3.355123937400419920e-02
3.622489167636287061e-02
3.894384025594227472e-02
4.170156919238224985e-02
4.449147204840318837e-02
4.730691208774501916e-02
5.014128427914898295e-02
5.298807845593778154e-02
5.584094266872995788e-02
5.869374604851818056e-02
6.154064029543211689e-02
6.437611887216670992e-02
6.719507305465990954e-02
6.999284406329420172e-02
7.276527033892805918e-02
7.550872923876958409e-02
7.822017242439061047e-02
8.089715440606030927e-02
8.353785346059661165e-02
8.614108462698456814e-02
8.870630451167405006e-02
9.123360749768505418e-02
9.372371342942223404e-02
9.617794679961104432e-02
9.859820757213279274e-02
1.009869340979879931e-01
1.033470585141341852e-01
1.056819552044133553e-01
1.079953832407023612e-01
1.102914234750950045e-01
1.125744113971247212e-01
1.148488667035102717e-01
1.171194208414897547e-01
1.193907436291009178e-01
1.216674702008710279e-01
1.239541294860196791e-01
1.262550755545005787e-01
1.285744229185488974e-01
1.309159870055849884e-01
1.332832308037034119e-01
1.356792188085253759e-01
1.381065788219366652e-01
1.405674725823926330e-01
1.430635755415747279e-01
1.455960663440178660e-01
1.481656260899833766e-01
1.507724473983038382e-01
1.534162530580434614e-01
1.560963238264486685e-01
1.588115348715993802e-01
1.615603999661492929e-01
1.643411225432501732e-01
1.671516525590067692e-01
1.699897477009126023e-01
1.728530377542903396e-01
1.757390905162742878e-01
1.786454778412391309e-01
1.815698402354758434e-01
1.845099482609289243e-01
1.874637594654112172e-01
1.904294691758875446e-01
1.934055538009779307e-01
1.963908054934691838e-01
1.993843571647445911e-01
2.023856967242279314e-01
2.053946701755985371e-01
2.084114730769090762e-01
2.114366300655709519e-01
2.144709628809406965e-01
2.175155472100486209e-01
2.205716590494242457e-01
2.236407115933303769e-01
2.267241841271450953e-01
2.298235443390358457e-01
2.329401658889961590e-01
2.360752434529879151e-01
2.392297072470750963e-01
2.424041395635386786e-01
2.455986957654108516e-01
2.488130322607993439e-01
2.520462439376699448e-01
2.552968137077671340e-01
2.585625763637574015e-01
2.618406990900657427e-01
2.651276805291905569e-01
2.684193700261639504e-01
2.717110085237610662e-01
2.749972920758552153e-01
2.782724583582831257e-01
2.815303964098110345e-01
2.847647790338196927e-01
2.879692168428191756e-01
2.911374324411000192e-01
2.942634526229093717e-01
2.973418158958951452e-01
3.003677921294986009e-01
3.033376105617262564e-01
3.062486919450858602e-01
3.090998800727707274e-01
3.118916677634418488e-01
3.146264118771066598e-01
3.173085316806730227e-01
3.199446848174585800e-01
3.225439150486284490e-01
3.251177660218367294e-01
3.276803553389525669e-01
3.302484035455214295e-01
3.328412129863403401e-01
3.354805919156007010e-01
3.381907199575727163e-01
3.409979516442177006e-01
3.439305554036985457e-01
3.470183864624066250e-01
3.502924930369268330e-01
3.537846561256948186e-01
3.575268643848517613e-01
3.615507267626899557e-01
3.658868267695767340e-01
3.705640232480406082e-01
3.756087038416949242e-01
3.810439985812700825e-01
3.868889620098262538e-01
3.931577332917721712e-01
3.998586848784546621e-01
4.069935709076740737e-01
4.145566877221633639e-01
4.225340589322677531e-01
4.309026582998565225e-01
4.396296839797178002e-01
4.486718976153545313e-01
4.579750418083299301e-01
4.674733492402107227e-01
4.770891562841821365e-01
4.867326330662318790e-01
4.963016413018255801e-01
5.056817300441877050e-01
5.147462783167005007e-01
5.233567919672029722e-01
5.313633606914611729e-01
5.386052791540643092e-01
5.449118344807999392e-01
5.501032602404132277e-01
5.539918549544238235e-01
5.563832610664068978e-01
5.570778980047772500e-01
5.558725404352925503e-01
5.525620315199623045e-01
5.469411180873205991e-01
5.388063926479390586e-01
5.279583255897314364e-01
5.142033686813930471e-01
4.973561096421079686e-01
4.772414561447296255e-01
4.536968261092730326e-01
4.265743206668385912e-01
3.957428550582917648e-01
3.610902225831321144e-01
3.225250664885349616e-01
2.799787349720267993e-01
2.334069950913617852e-01
1.827915819438738765e-01
1.281415607956091496e-01
6.949448140414467290e-02
6.917305353088729590e-03
-5.949291069443938401e-02
-1.296085906416338529e-01
-2.032714857354027960e-01
-2.802928019563619144e-01
-3.604536147073393315e-01
-4.435055742461508355e-01
-5.291719022092160607e-01
-6.171486765307891975e-01
-7.071063984134268177e-01
-7.986918320104102742e-01
-8.915301041942214066e-01
-9.852270486409888672e-01
-1.079371775430136848e+00
-1.173539444709516433e+00
-1.267294220164251639e+00
-1.360192375814298194e+00
-1.451785527467103654e+00
-1.541623958435263120e+00
-1.629260007829132606e+00
-1.714251488353865760e+00
-1.796165100057605324e+00
-1.874579806105173940e+00
-1.949090136755671443e+00
-2.019309388078156520e+00
-2.084872682927862986e+00
-2.145439862963471889e+00
-2.200698181866094227e+00
-2.250364772385190726e+00
-2.294188861614140595e+00
-2.331953711938071550e+00
-2.363478267773254426e+00
-2.388618491428359913e+00
-2.407268374819500067e+00
-2.419360617135262626e+00
-2.424866962245168178e+00
-2.423798193432933790e+00
-2.416203786650279906e+00
-2.402171227120514008e+00
-2.381824998014579364e+00
-2.355325253193988555e+00
-2.322866189546680893e+00
-2.284674137536470973e+00
-2.241005391631182064e+00
-2.192143804947813024e+00
-2.138398174657549777e+00
-2.080099446948220798e+00
-2.017597771941745943e+00
-1.951259440258113154e+00
-1.881463733930855087e+00
-1.808599724812735232e+00
-1.733063053751941363e+00
-1.655252723663520387e+00
-1.575567938870016338e+00
-1.494405022100925295e+00
-1.412154439035326670e+00
-1.329197958693044246e+00
-1.245905975804035393e+00
-1.162635019078902321e+00
-1.079725466569352976e+00
-9.974994864891224555e-01
-9.162592191092913119e-01
-8.362852123241966140e-01
-7.578351196160232339e-01
-6.811426665927823310e-01
-6.064168886325052021e-01
-5.338416391808239458e-01
-4.635753650179224028e-01
-3.957511416460406939e-01
-3.304769593339791367e-01
-2.678362474039465146e-01
-2.078886220838134513e-01
-1.506708409334735488e-01
-9.619794481731190616e-02
-4.446456703506746627e-02
4.553612494691966495e-03
5.089829087464978891e-02
9.462686728332196651e-02
1.358106935070830523e-01
1.745332741781549235e-01
2.108884402238806743e-01
2.449785190920407141e-01
2.769125239118152004e-01
3.068043829373320319e-01
3.347712290903857579e-01
3.609317680411699425e-01
3.854047411407259816e-01
4.083074978837100688e-01
4.297546902988192419e-01
4.498570995669671224e-01
4.687206029499565996e-01
4.864452867984284112e-01
5.031247090176856895e-01
5.188453124377591097e-01
5.336859881920263948e-01
5.477177860341995164e-01
5.610037668141100164e-01
5.735989904271161510e-01
5.855506307198691252e-01
5.968982079007253416e-01
6.076739271740086989e-01
6.179031117656175187e-01
6.276047174435862575e-01
6.367919150785344984e-01
6.454727276581370132e-01
6.536507077013365974e-01
6.613256413354515750e-01
6.684942655898240549e-01
6.751509858840206713e-01
6.812885814250979610e-01
6.868988870253031065e-01
6.919734408241507984e-01
6.965040886348057292e-01
7.004835366125341523e-01
7.039058454886732985e-01
7.067668608101463912e-01
7.090645750107301692e-01
7.107994185618312644e-01
7.119744788263620006e-01
7.125956464398969237e-01
7.126716906253821593e-01
7.122142656515361159e-01
7.112378520457390829e-01
7.097596370368287610e-01
7.077993395441469771e-01
7.053789859764894032e-01
7.025226434567671818e-01
6.992561176712299709e-01
6.956066229604187523e-01
6.916024321262580488e-01
6.872725139355815305e-01
6.826461657031387409e-01
6.777526483916924693e-01
6.726208312973541714e-01
6.672788526586576063e-01
6.617538023896094579e-01
6.560714320284362078e-01
6.502558965771355615e-01
6.443295319905698593e-01
6.383126712978502981e-01
6.322235014630078753e-01
6.260779622148145984e-01
6.198896874208650321e-01
6.136699885184723202e-01
6.074278788258585804e-01
6.011701368703304960e-01
5.949014062226074540e-01
5.886243285801318059e-01
5.823397064786334232e-01
5.760466915817775702e-01
5.697429939667054688e-01
5.634251078150790404e-01
5.570885486881022031e-01
5.507280974698270937e-01
5.443380460793700859e-01
5.379124402782116121e-01
5.314453150539601989e-01
5.249309184581644194e-01
5.183639198603005038e-01
5.117395993784707997e-01
5.050540153741033267e-01
4.983041477036189715e-01
4.914880146295599883e-01
4.846047621993009313e-01
4.776547252599716575e-01
4.706394599297603620e-01
4.635617478789986201e-01
4.564255731529123783e-01
4.492360729482615667e-01
4.419994643058158257e-01
4.347229487493347588e-01
4.274145975117569218e-01
4.200832202195010079e-01
4.127382201045405874e-01
4.053894390313026452e-01
3.980469956931939057e-01
3.907211202458109600e-01
3.834219889386797364e-01
3.761595618259837570e-01
3.689434267505024012e-01
3.617826524404210153e-01
3.546856534045875753e-01
3.476600689923892706e-01
3.407126585269732444e-01
3.338492142539901120e-01
3.270744932718163689e-01
3.203921693826481953e-01
3.138048053726151254e-01
3.073138456668034202e-01
3.009196291220004316e-01
2.946214212573741165e-01
2.884174648366967242e-01
2.823050475516487579e-01
2.762805850302152977e-01
2.703397174426852012e-01
2.644774175320540599e-01
2.586881077948851582e-01
2.529657845851121523e-01
2.473041466317330850e-01
2.416967255313360596e-01
2.361370159287612402e-01
2.306186028769986185e-01
2.251352843861726960e-01
2.196811869227383307e-01
2.142508720153624424e-01
2.088394323616608317e-01
2.034425760550157836e-01
1.980566976274336921e-01
1.926789351510170833e-01
1.873072127580835966e-01
1.819402681860589066e-01
1.765776653657367412e-01
1.712197923700964908e-01
1.658678450672919635e-01
1.605237971661966356e-01
1.551903578794546490e-01
1.498709180531445084e-01
1.445694862561036909e-01
1.392906162195233222e-01
1.340393271686482479e-01
1.288210187357898551e-01
1.236413820925166829e-01
1.185063089910613904e-01
1.134218004211579450e-01
1.083938764142085287e-01
1.034284885676125948e-01
9.853143665617397629e-02
9.370829071669445343e-02
8.896431959760146835e-02
8.430442715890774930e-02
7.973309669896841423e-02
7.525434435654740351e-02
7.087168193451925946e-02
6.658808922147767262e-02
6.240599602756311676e-02
5.832727370070461825e-02
5.435323591396634679e-02
5.048464820098529093e-02
4.672174555695590009e-02
4.306425757120663222e-02
3.951144013748827954e-02
3.606211290767440819e-02
3.271470135560396869e-02
2.946728260715188868e-02
2.631763392554796466e-02
2.326328289669385083e-02
2.030155816757713699e-02
1.742963984828477253e-02
1.464460870119480181e-02
1.194349326715966539e-02
9.323314145498187364e-03
6.781124840749431365e-03
4.314048544824449459e-03
1.919310589245725807e-03
-4.057339345601939620e-04
-2.663577381925460747e-03
-4.856541768987953853e-03
-6.986766017906282517e-03
-9.056197979105225920e-03
-1.106659100786743476e-02
-1.301950489591845866e-02
-1.491631057129982028e-02
-1.675819829860119431e-02
-1.854618872747193850e-02
-2.028114636835903067e-02
-2.196379481946805420e-02
-2.359473331086990588e-02
-2.517445387716066990e-02
-2.670335876359116248e-02
-2.818177750233249318e-02
-2.960998314434997586e-02
-3.098820729679259769e-02
-3.231665365047784594e-02
-3.359550973795093209e-02
-3.482495657699361674e-02
-3.600517611914540866e-02
-3.713635659140288037e-02
-3.821869552759264710e-02
-3.925240068306293933e-02
-4.023768893704014055e-02
-4.117478340719703256e-02
-4.206390893760959121e-02
-4.290528638917699700e-02
-4.369912593402328765e-02
-4.444561975669573950e-02
-4.514493449411269288e-02
-4.579720378972446798e-02
-4.640252130265985070e-02
-4.696093455373013398e-02
-4.747243983911593468e-02
-4.793697859266404099e-02
-4.835443532081631218e-02
-4.872463731015454214e-02
-4.904735637996394254e-02
-4.932231266056750357e-02
-4.954918033398218735e-02
-4.972759546201671599e-02
-4.985716569339379567e-02
-4.993748179010750604e-02
-4.996813068748955089e-02
-4.994870985658025203e-02
-4.987884272185121731e-02
-4.975819476204831199e-02
-4.958648995904117035e-02
-4.936352723510506468e-02
-4.908919647840676720e-02
-4.876349373337041798e-02
-4.838653523869216461e-02
-4.795856995615625784e-02
-4.747999019411077576e-02
-4.695134007121263414e-02
-4.637332160715713913e-02
-4.574679811034663979e-02
-4.507279478922963933e-02
-4.435249645499432514e-02
-4.358724224615317250e-02
-4.277851746063054961e-02
-4.192794250662783967e-02
-4.103725913724223101e-02
-4.010831419684462301e-02
-3.914304098866591003e-02
-3.814343882853911405e-02
-3.711155092193564597e-02
-3.604944101830367259e-02
-3.495916920323059729e-02
-3.384276743550197752e-02
-3.270221514344647668e-02
-3.153941529467000487e-02
-3.035617163718014669e-02
-2.915416726107821974e-02
-2.793494512939812338e-02
-2.669989084983370384e-02
-2.545021808963594118e-02
-2.418695701827869304e-02
-2.291094580891530827e-02
-2.162282568914186340e-02
-2.032303951846570894e-02
-1.901183393649843664e-02
-1.768926527307559948e-02
-1.635520902563419865e-02
-1.500937276838154935e-02
-1.365131240102429415e-02
-1.228045144543204320e-02
-1.089610307477242683e-02
-9.497494636117483763e-03
-8.083794105437688143e-03
-6.654138125147971393e-03
-5.207661138442979017e-03
-3.743525185676361590e-03
-2.260949803452065674e-03
-7.592415008854179036e-04
7.621776159272592322e-04
2.303742595451679399e-03
3.865720251055107266e-03
5.448186031751778985e-03
7.051003628047953185e-03
8.673807542699727563e-03
1.031598906070202958e-02
1.197668583440018690e-02
1.365477521978317003e-02
1.534887144041802674e-02
1.705732679217668302e-02
1.877823695863838765e-02
2.050945011972815299e-02
2.224857978615196741e-02
2.399302123507411968e-02
2.573997130339254757e-02
2.748645111508753527e-02
2.922933156180245254e-02
3.096536107797490806e-02
3.269119514893175510e-02
3.440342730095780066e-02
3.609862096277122873e-02
3.777334176366819313e-02
3.942418973408731014e-02
4.104783102513275689e-02
4.264102850462647698e-02
4.420067097662189887e-02
4.572380036540236309e-02
4.720763673156173207e-02
4.864960061975251437e-02
5.004733240914816667e-02
5.139870850106793843e-02
5.270185409958039885e-02
5.395515244260726262e-02
5.515725050059910872e-02
5.630706090104609790e-02
5.740376032903759390e-02
5.844678439621918409e-02
5.943581916514063812e-02
6.037078944220106158e-02
6.125184418734553465e-02
6.207933933983183356e-02
6.285381831963535171e-02
6.357599055967333435e-02
6.424670852488696682e-02
6.486694361944302101e-02
6.543776134918567744e-02
6.596029614006850006e-02
6.643572643365065755e-02
6.686525019979203122e-02
6.725006137090515368e-02
6.759132766133053860e-02
6.789016991778550059e-02
6.814764357147029550e-02
6.836472216878068664e-02
6.854228341507294375e-02
6.868109784758782976e-02
6.878182020547625453e-02
6.884498367269692443e-02
6.887099693529245836e-02
6.886014410653321094e-02
6.881258733709795516e-02
6.872837203233353454e-02
6.860743456901713389e-02
6.844961221228074155e-02
6.825465487836962497e-02
6.802223865725927354e-02
6.775198067231259780e-02
6.744345485045763477e-02
6.709620837847071750e-02
6.670977835110307452e-02
6.628370835884110635e-02
6.581756451516788953e-02
6.531095065124872812e-02
6.476352225939839558e-02
6.417499886380854945e-02
6.354517459013868386e-02
6.287392666937938190e-02
6.216122157007926419e-02
6.140711867063902013e-02
6.061177130285314713e-02
5.977542510650871860e-02
5.889841367619562396e-02
5.798115150480857849e-02
5.702412435384696110e-02
5.602787723023986560e-02
5.499300003351586391e-02
5.392011126787817771e-02
5.280984005510366147e-02
5.166280676787648324e-02
5.047960269880501921e-02
4.926076911219091914e-02
4.800677616840770545e-02
4.671800221953064519e-02
4.539471376011799258e-02
4.403704673730606672e-02
4.264498947169716864e-02
4.121836774991015362e-02
3.975683250819755238e-02
3.825985047336101508e-02
3.672669807920912050e-02
3.515645907603463100e-02
3.354802604025195617e-02
3.190010593149066043e-02
3.021122989084406435e-02
2.847976737122833238e-02
2.670394460208377202e-02
2.488186721383469149e-02
2.301154698749854899e-02
2.109093244302800291e-02
1.911794300235646754e-02
1.709050633048348269e-02
1.500659842859190796e-02
1.286428590988135563e-02
1.066177012253529711e-02
8.397432224973369608e-03
6.069878741511406002e-03
3.677986859885583586e-03
1.220948833686857525e-03
-1.301685333411646724e-03
-3.889967564999520944e-03
-6.543514445234013995e-03
-9.261473740840461127e-03
-1.204249533803225525e-02
-1.488470720926258692e-02
-1.778569691753967286e-02
-2.074249920268272235e-02
-2.375159008027835986e-02
-2.680888766828486494e-02
-2.990976004073292449e-02
-3.304904025808726858e-02
-3.622104858760464424e-02
-3.941962187652035127e-02
-4.263814981407695187e-02
-4.586961793088776412e-02
-4.910665677849804928e-02
-5.234159692584320483e-02
-5.556652906620210969e-02
-5.877336864968948915e-02
-6.195392430059754735e-02
-6.509996902863368629e-02
-6.820331339651093672e-02
-7.125587971342153826e-02
-7.424977632549770168e-02
-7.717737095095165978e-02
-8.003136190471650535e-02
-8.280484643058050320e-02
-8.549138502194607303e-02
-8.808506079874930950e-02
-9.058053309212392434e-02
-9.297308454910091502e-02
-9.525866067799126924e-02
-9.743390153948269794e-02
-9.949616498272824405e-02
-1.014435408324569632e-01
-1.032748559820593770e-01
-1.049896701386026782e-01
-1.065882622412969438e-01
-1.080716076409794224e-01
-1.094413463570305806e-01
-1.106997428323916455e-01
-1.118496376701109685e-01
-1.128943921169006936e-01
-1.138378259203327164e-01
-1.146841496297413276e-01
-1.154378922411386371e-01
-1.161038252671286880e-01
-1.166868842933720535e-01
-1.171920893370598793e-01
-1.176244651536050567e-01
-1.179889627058177681e-01
-1.182903829497183729e-01
-1.185333041926458081e-01
-1.187220141455279099e-01
-1.188604476918363601e-01
-1.189521313410731168e-01
-1.190001353389556205e-01
-1.190070341088918515e-01
-1.189748756421329379e-01
-1.189051604754341462e-01
-1.187988303503910159e-01
-1.186562669645540302e-01
-1.184773007148361146e-01
-1.182612293677677701e-01
-1.180068463105458654e-01
-1.177124778403591532e-01
-1.173760290813362500e-01
-1.169950376397310837e-01
-1.165667341096836979e-01
-1.160881084699731391e-01
-1.155559812532727382e-01
-1.149670782868121022e-01
-1.143181078626923641e-01
-1.136058388958962051e-01
-1.128271788280976740e-01
-1.119792498575253731e-01
-1.110594623790910479e-01
-1.100655843124996036e-01
-1.089958050275852408e-01
-1.078487928285461056e-01
-1.066237451192220964e-01
-1.053204301591970926e-01
-1.039392197691769854e-01
-1.024811124584816546e-01
-1.009477464486661091e-01
-9.934140237958911934e-02
-9.766499551452327565e-02
-9.592205768205668004e-02
-9.411670913912976999e-02
-9.225362071919851470e-02
-9.033796700519944323e-02
-8.837537117209723347e-02
-8.637184244506411479e-02
-8.433370714295890247e-02
-8.226753450303225801e-02
-8.018005851736818845e-02
-7.807809699224187161e-02
-7.596846922918876199e-02
-7.385791365800989383e-02
-7.175300694111544364e-02
-6.966008566537097713e-02
-6.758517201154863596e-02
-6.553390471459868971e-02
-6.351147638318901945e-02
-6.152257820458239407e-02
-5.957135300147723550e-02
-5.766135727468673505e-02
-5.579553296012056823e-02
-5.397618926352990010e-02
-5.220499488574631419e-02
-5.048298079055421606e-02
-4.881055335146347596e-02
-4.718751686490801900e-02
-4.561310611254633385e-02
-4.408602796844780097e-02
-4.260451102634105897e-02
-4.116636251913415034e-02
-3.976903130773734585e-02
-3.840967589017168365e-02
-3.708523619235656182e-02
-3.579250768812562017e-02
-3.452821667136724698e-02
-3.328909523326764597e-02
-3.207195452149635972e-02
-3.087375500575271700e-02
-2.969167247863649731e-02
-2.852315860104507814e-02
-2.736599490711098814e-02
-2.621833921673426271e-02
-2.507876374409196904e-02
-2.394628417375561577e-02
-2.282037922141780598e-02
-2.170100021030442819e-02
-2.058857065114191864e-02
-1.948397586758155928e-02
-1.838854282247077976e-02
-1.730401061297051624e-02
-1.623249223877585093e-02
-1.517642818635425023e-02
-1.413853298742632526e-02
-1.312173562879920784e-02
-1.212911496709260378e-02
-1.116383144500705110e-02
-1.022905638814405535e-02
-9.327900163375110396e-03
-8.463340784802583783e-03
-7.638154136781568140e-03
-6.854847313887997041e-03
-6.115596362062688911e-03
-5.422189529732824448e-03
-4.775977347447592225e-03
-4.177830378608622316e-03
-3.628105579212346880e-03
-3.126622061999358680e-03
-2.672646599137854222e-03
-2.264889474129829113e-03
-1.901510654956912409e-03
-1.580136464248337036e-03
-1.297886327677707716e-03
-1.051409425688647203e-03
-8.369304881550083302e-04
-6.503041526463267715e-04
-4.870768244314658819e-04
-3.425550300703152995e-04
-2.118791436203039857e-04
-9.010119948151932591e-05
2.773468583994195629e-05
1.465105926634050382e-04
2.709532503411128494e-04
4.055541550758716592e-04
5.544927445277239401e-04
7.215640301914023891e-04
9.101119885461194346e-04
1.122970010327252119e-03
1.362409499444127087e-03
1.630097436443076397e-03
1.927063895434334446e-03
2.253680091662193987e-03
2.609647388657553718e-03
2.993997531724012454e-03
3.405104219987670818e-03
3.840705838289730414e-03
4.297939054494865838e-03
4.773382719179776988e-03
5.263111438126296532e-03
5.762757883136027277e-03
6.267582823251089535e-03
6.772551710601367597e-03
7.272416669013002412e-03
7.761802275814219491e-03
8.235293767140253532e-03
8.687526204603992705e-03
9.113273653864651519e-03
9.507535896543095957e-03
9.865621696833708557e-03
1.018322717622206774e-02
1.045650799247278655e-02
1.068214409987706948e-02
1.085739601204102102e-02
1.098015162882489369e-02
1.104896287968162687e-02
1.106307151796208019e-02
1.102242370439019022e-02
1.092767310678077232e-02
1.078017262324166420e-02
1.058195471458059714e-02
1.033570085147220673e-02
1.004470062171813373e-02
9.712801186896855704e-03
9.344347953396408071e-03
8.944117543878454119e-03
8.517244153274414198e-03
8.069140693161674580e-03
7.605415991497644322e-03
7.131789456820344063e-03
6.654004608579951012e-03
6.177743031900397551e-03
5.708540056671342761e-03
5.251703620491356139e-03
4.812237724553790688e-03
4.394771531081934947e-03
4.003495410254431265e-03
3.642104901370394297e-03
3.313753428768196740e-03
3.021014437082550960e-03
2.765853555295801069e-03
2.549611057086316815e-03
2.372994835582784186e-03
2.236083973971582893e-03
2.138342547362297088e-03
2.078643405289376089e-03
2.055301411579707645e-03
2.066115346525670016e-03
2.108417832637814182e-03
2.179132061345522703e-03
2.274834481729330355e-03
2.391822240721522622e-03
2.526184042308037177e-03
2.673873326970398027e-03
2.830782376250519459e-03
2.992816015111363255e-03
3.155963784073813599e-03
3.316369252500310158e-03
3.470395347811245333e-03
3.614684663494189664e-03
3.746213769833833373e-03
3.862340662280271553e-03
3.960844586415641563e-03
4.039957814561221695e-03
4.098388906693718921e-03
4.135337019304304029e-03
4.150497412536845350e-03
4.144057996479909474e-03
4.116687297639472047e-03
4.069514140402115919e-03
4.004099460571361978e-03
3.922400992017720939e-03
3.826731484180362353e-03
3.719711302757623770e-03
3.604216487069868743e-03
3.483322922844807584e-03
3.360248037585082757e-03
3.238290848595687214e-03
3.120771469879711577e-03
3.010971283768655582e-03
2.912074576245755279e-03
2.827112820751897983e-03
2.758912410538182959e-03
2.710046723642588369e-03
2.682793325950071778e-03
2.679096882688924292e-03
2.700538322463516116e-03
2.748310650704612924e-03
2.823201707287389690e-03
2.925584050355868951e-03
3.055412009497556793e-03
3.212225755515604048e-03
3.395162189899292651e-03
3.602972302987410627e-03
3.834044618282122108e-03
4.086434126442954964e-03
4.357896139880569793e-03
4.645924319108844444e-03
4.947792147416081414e-03
5.260597098117361994e-03
5.581306674973655381e-03
5.906805533597818923e-03
6.233942688724678979e-03
6.559578185330428024e-03
6.880628468620119016e-03
7.194109619821384936e-03
7.497177799411679916e-03
7.787166381203069858e-03
8.061619213724635982e-03
8.318319578159399930e-03
8.555314495280935683e-03
8.770933993499596681e-03
8.963805428689269883e-03
9.132862660189429438e-03
9.277350034373198912e-03
9.396821407264019030e-03
9.491134365357319080e-03
9.560439884160816179e-03
9.605167836179161894e-03
9.626008752066806534e-03
9.623892195575521266e-03
9.599962434814280146e-03
9.555551761012985937e-03
9.492152086050449980e-03
9.411385413494458702e-03
9.314973699449689837e-03
9.204708595530068649e-03
9.082421690308062692e-03
8.949955713025091117e-03
8.809137083088851641e-03
8.661750376370220758e-03
8.509514891544918760e-03
8.354063629409186342e-03
8.196925073501519846e-03
8.039507815469398161e-03
7.883088150810986863e-03
7.728800816697504843e-03
7.577632699115158937e-03
7.430419604254432688e-03
7.287845929257867096e-03
7.150447033084884538e-03
7.018614175155132862e-03
6.892601681352673870e-03
6.772536255586605707e-03
6.658428042482220088e-03
6.550183034572740724e-03
6.447616750933427184e-03
6.350468641628929413e-03
6.258417047288997864e-03
6.171094401383218561e-03
6.088102382741997567e-03
6.009026628087949483e-03
5.933450976624027144e-03
5.860970911284575646e-03
5.791205943437293356e-03
5.723810966895268894e-03
5.658486323326462723e-03
5.594986464039060359e-03
5.533127153861733781e-03
5.472791378923180447e-03
5.413933583795460004e-03
5.356582569800228191e-03
5.300842917505163912e-03
5.246895075780260223e-03
5.194994141543125832e-03
5.145467386423906685e-03
5.098710649178593915e-03
5.055183662841637032e-03
5.015404490988728189e-03
4.979943039485967143e-03
4.949413811444724511e-03
4.924468093922050246e-03
4.905785417646028185e-03
4.894064584247362348e-03
4.890014246860985465e-03
4.894343095699586928e-03
4.907749788355579915e-03
4.930912522505485895e-03
4.964478534196231120e-03
5.009053382445029061e-03
5.065190180199179160e-03
5.133378749813742419e-03
5.214034853784252702e-03
5.307489594335258395e-03
5.413978924738816617e-03
5.533633471661757001e-03
5.666468690237895511e-03
5.812375645117049891e-03
5.971112334890887365e-03
6.142295772308261487e-03
6.325395021195611388e-03
6.519725283332235798e-03
6.724443304925119963e-03
6.938544114386752289e-03
7.160859410769634774e-03
7.390057700908707165e-03
7.624646370520273865e-03
7.862975818421966828e-03
8.103245828501484671e-03
8.343514294412001514e-03
8.581708294342677359e-03
8.815637616324588019e-03
9.043010915837144600e-03
9.261454219602631779e-03
9.468531837482391245e-03
9.661769636931286098e-03
9.838680389026238995e-03
9.996791088103673326e-03
1.013367185432366771e-02
1.024696628480652530e-02
1.033442275167501846e-02
1.039392631311227000e-02
1.042353073168961718e-02
1.042149023032902695e-02
1.038629046012560543e-02
1.031667800046532670e-02
1.021168809458774043e-02
1.007066989807275416e-02
9.893308847191490535e-03
9.679645531663130797e-03
9.430090543901134548e-03
9.145435112922600460e-03
8.826856800326021713e-03
8.475920102603283143e-03
8.094571668526017588e-03
7.685129891357278531e-03
7.250268783542498062e-03
6.792996157580014939e-03
6.316626066381929999e-03
5.824745806901551748e-03
5.321177672450616743e-03
4.809935808507180034e-03
4.295178714887393397e-03
3.781157942777877735e-03
3.272163522365099768e-03
2.772466989679093791e-03
2.286262760055805462e-03
1.817608592829124837e-03
1.370366270992499306e-03
9.481432524035307259e-04
5.542363513118237590e-04
1.915782723376211242e-04
-1.373118938027778982e-04
-4.303734017366890618e-04
-6.860429259819332635e-04
-9.032871900921615347e-04
-1.081628405735174034e-03
-1.221161969421334344e-03
-1.322565852702604211e-03
-1.387101247538590930e-03
-1.416604242501716101e-03
-1.413468471005782960e-03
-1.380618737929746294e-03
-1.321475693555710165e-03
-1.239912067248918155e-03
-1.140200766155307450e-03
-1.026955540622888439e-03
-9.050649477277171798e-04
-7.796203905895357240e-04
-6.558399059678874819e-04
-5.389878972945198222e-04
-4.342923589238617370e-04
-3.468609597468776161e-04
-2.815972451136518361e-04
-2.431182448228824385e-04
-2.356750333714117496e-04
-2.630772348864951439e-04
-3.286230715363138203e-04
-4.350360447886876514e-04
-5.844094552154225752e-04
-7.781596771589584108e-04
-1.016989241808234287e-03
-1.300860481950590368e-03
-1.628980229578859320e-03
-1.999796179160755541e-03
-2.411005054266700861e-03
-2.859572743248365960e-03
-3.341766154671310402e-03
-3.853196572280185618e-03
-4.388874074181156083e-03
-4.943272103375901012e-03
-5.510401492334397917e-03
-6.083892890927923916e-03
-6.657086319599150523e-03
-7.223126550706079549e-03
-7.775062867241473198e-03
-8.305951529717978468e-03
-8.808960494188866272e-03
-9.277473044555079734e-03
-9.705189256636197886e-03
-1.008622402530755420e-02
-1.041519994397637622e-02
-1.068733339649953311e-02
-1.089851245567403579e-02
-1.104536535490339456e-02
-1.112531823487617096e-02
-1.113664102501334303e-02
-1.107848126362392764e-02
-1.095088476803480169e-02
-1.075480266900549937e-02
-1.049208472824758598e-02
-1.016545888332351030e-02
-9.778497326193614364e-03
-9.335569527231956169e-03
-8.841784207837797421e-03
-8.302920925837575100e-03
-7.725342777162287275e-03
-7.115906921008046705e-03
-6.481867186849584947e-03
-5.830769843381058970e-03
-5.170344542556293624e-03
-4.508392369364514624e-03
-3.852672634954672735e-03
-3.210790415455279379e-03
-2.590086381051121770e-03
-1.997530485727351101e-03
-1.439622253448848924e-03
-9.222984401939964862e-04
-4.508494908383905682e-04
-2.984613621488750913e-05
3.369225346922464495e-04
6.464987380643954238e-04
8.967924695681119213e-04
1.086604357648123702e-03
1.215634496411883113e-03
1.284477149170498234e-03
1.294601554078973716e-03
1.248319162977242283e-03
1.148737799212853168e-03
9.997036845088946681e-04
8.057322097195675345e-04
5.719286917733069084e-04
3.039004552302947723e-04
7.661676511871540023e-06
-3.104688436922283814e-04
-6.439751594228116218e-04
-9.862435943019706285e-04
-1.330671264970398338e-03
-1.670773446445224285e-03
-2.000287089515942734e-03
-2.313269378140304401e-03
-2.604189907352133342e-03
-2.868015144673671715e-03
-3.100283829352529479e-03
-3.297172402257091909e-03
-3.455549331059076020e-03
-3.573016918129876419e-03
-3.647940751042897268e-03
-3.679466153658975027e-03
-3.667521749162884915e-03
-3.612809913437283957e-03
-3.516784570289819070e-03
-3.381616792120065336e-03
-3.210148903401368811e-03
-3.005836538292884236e-03
-2.772679729102331143e-03
-2.515155260919919606e-03
-2.238134599968861181e-03
-1.946795988316476263e-03
-1.646533221097038835e-03
-1.342862250291910033e-03
-1.041326935573430763e-03
-7.474057116373238616e-04
-4.664205326529780905e-04
-2.034497797800793710e-04
3.675337108205110599e-05
2.498365705247986533e-04
4.319159097237949396e-04
5.796346846237462446e-04
6.902123253525973461e-04
7.614829480312907978e-04
7.919229833600957428e-04
7.806674472930452387e-04
7.275148052148972151e-04
6.329205489545305192e-04
4.979796602699964030e-04
3.243984900372126243e-04
1.144566228250808599e-04
-1.290403716898075109e-04
-4.028164982345180554e-04
-7.031879873122491836e-04
-1.026131983268262606e-03
-1.367359896159025525e-03
-1.722394168041791558e-03
-2.086647012036329900e-03
-2.455498266316981457e-03
-2.824371120960604380e-03
-3.188815787773114762e-03
-3.544581465635080614e-03
-3.887683527379197021e-03
-4.214465620469777692e-03
-4.521655370417082716e-03
-4.806412463824222443e-03
-5.066368382183192992e-03
-5.299657244007870485e-03
-5.504937278157795086e-03
-5.681402800249821597e-03
-5.828786465536212741e-03
-5.947351989050199406e-03
-6.037877643037779796e-03
-6.101630974644283931e-03
-6.140335251317631006e-03
-6.156128452238270564e-03
-6.151515566135181030e-03
-6.129315091667916077e-03
-6.092600883657864862e-03
-6.044640377895641424e-03
-5.988830325911955084e-03
-5.928631263965122508e-03
-5.867501733036383123e-03
-5.808833641875576353e-03
-5.755889736973560447e-03
-5.711744206693768373e-03
-5.679227520923161611e-03
-5.660876396835981192e-03
-5.658889641742183979e-03
-5.675090521095247503e-03
-5.710896351220878797e-03
-5.767295538905371256e-03
-5.844832524088113511e-03
-5.943600648230200692e-03
-6.063243044988115074e-03
-6.202961341101789934e-03
-6.361531942749256395e-03
-6.537329030231165371e-03
-6.728353866815558852e-03
-6.932272979496696165e-03
-7.146459283568331114e-03
-7.368037611053144739e-03
-7.593934158428667855e-03
-7.820928682907894725e-03
-8.045708521008056516e-03
-8.264923535535245031e-03
-8.475240901248124945e-03
-8.673398815662151234e-03
-8.856258263545434273e-03
-9.020852046118270004e-03
-9.164430274216700881e-03
-9.284501588961473900e-03
-9.378869509353683978e-03
-9.445663309227069274e-03
-9.483363273140751198e-03
-9.490819706517036880e-03
-9.467265751206075525e-03
-9.412323795507954866e-03
-9.326005575968561098e-03
-9.208705949177690628e-03
-9.061190913093635640e-03
-8.884579922851472411e-03
-8.680322988347111482e-03
-8.450173219150080087e-03
-8.196155187476277665e-03
-7.920529874594373423e-03
-7.625756863817024014e-03
-7.314454437644182794e-03
-6.989358373211576429e-03
-6.653280080822291699e-03
-6.309064938509070450e-03
-5.959551362210157265e-03
-5.607531462983364121e-03
-5.255713763429297608e-03
-4.906688599499312367e-03
-4.562896726884017699e-03
-4.226601594962662439e-03
-3.899865568126076321e-03
-3.584530408611629176e-03
-3.282202254672999392e-03
-2.994241223118619850e-03
-2.721755558932944814e-03
-2.465600297423158234e-03
-2.226380458620879580e-03
-2.004458326910348812e-03
-1.799964690378086330e-03
-1.612813635564504071e-03
-1.442720543671874430e-03
-1.289222749901586598e-03
-1.151702495897846765e-03
-1.029411605204233341e-03
-9.214973474517622028e-04
-8.270289787517637152e-04
-7.450243900217714448e-04
-6.744764461612531500e-04
-6.143783878153518318e-04
-5.637478864432990486e-04
-5.216493588689613548e-04
-4.872140821444222061e-04
-4.596578316125985342e-04
-4.382958077960716283e-04
-4.225544349199939062e-04
-4.119801117934010297e-04
-4.062447347259035934e-04
-4.051479716228452389e-04
-4.086162409451859958e-04
-4.166985616359687576e-04
-4.295595195825760589e-04
-4.474694510750024177e-04
-4.707920276584065858e-04
-4.999697394358948487e-04
-5.355075301323048700e-04
-5.779548213612298877e-04
-6.278865558569811291e-04
-6.858834813257683920e-04
-7.525122037037034221e-04
-8.283053541071362918e-04
-9.137423068712736659e-04
-1.009230866440457642e-03
-1.115090222012666936e-03
-1.231535541884929254e-03
-1.358664606202422340e-03
-1.496446587791662799e-03
-1.644713307651583800e-03
-1.803153106795483311e-03
-1.971307482430178972e-03
-2.148570549812529526e-03
-2.334191358273286256e-03
-2.527278954481751872e-03
-2.726810260828607061e-03
-2.931640548141143700e-03
-3.140516271229691798e-03
-3.352090183541325211e-03
-3.564938325400041248e-03
-3.777578705675523410e-03
-3.988491254428560076e-03
-4.196138808324352196e-03
-4.398988648185664374e-03
-4.595534274912172097e-03
-4.784316955215267390e-03
-4.963946757194409067e-03
-5.133122981276656664e-03
-5.290653166234276540e-03
-5.435470375638300385e-03
-5.566648720424969242e-03
-5.683416704808309967e-03
-5.785168227332188919e-03
-5.871471000116665860e-03
-5.942072199928669606e-03
-5.996901408829212465e-03
-6.036070594085827558e-03
-6.059871175137418117e-03
-6.068768370495567811e-03
-6.063392762865024536e-03
-6.044529258238507709e-03
-6.013103655707095936e-03
-5.970167036643628418e-03
-5.916878237108684664e-03
-5.854484747213135193e-03
-5.784302286799422599e-03
-5.707693427372237220e-03
-5.626045729923855390e-03
-5.540749636642113354e-03
-5.453176557238654208e-03
-5.364657525297082848e-03
-5.276462752453770291e-03
-5.189782450962790970e-03
-5.105709323334354892e-03
-5.025222867745374883e-03
-4.949175894530872220e-03
-4.878283433979938542e-03
-4.813114191816714703e-03
-4.754084712766417503e-03
-4.701456414508558244e-03
-4.655335331807231025e-03
-4.615674759739106861e-03
-4.582280620924608812e-03
-4.554819415318091431e-03
-4.532828721887016341e-03
-4.515729789090104467e-03
-4.502842255706299840e-03
-4.493400530597136365e-03
-4.486571454753561158e-03
-4.481473075383030254e-03
-4.477193979125278223e-03
-4.472812867586187409e-03
-4.467418015248220131e-03
-4.460126178182577221e-03
-4.450100547286040507e-03
-4.436567491481544466e-03
-4.418831552858477549e-03
-4.396288583992559104e-03
-4.368436660475058173e-03
-4.334884556880609988e-03
-4.295357589382985640e-03
-4.249700776133240494e-03
-4.197879176664622881e-03
-4.139975469430019761e-03
-4.076184726130681682e-03
-4.006806647376512549e-03
-3.932235245071732076e-03
-3.852946368471736518e-03
-3.769483301392109742e-03
-3.682440784736796310e-03
-3.592447736955929356e-03
-3.500149206743039063e-03
-3.406187976467003799e-03
-3.311186211586529364e-03
-3.215727588054024134e-03
-3.120340526909093706e-03
-3.025482792004140567e-03
-2.931527997097214434e-03
-2.838754358752730838e-03
-2.747336101489064510e-03
-2.657337755663019638e-03
-2.568711648030630890e-03
-2.481298713076421966e-03
-2.394832860489855535e-03
-2.308948690760299991e-03
-2.223192690624353849e-03
-2.137037696969518608e-03
-2.049900741212486253e-03
-1.961163458128741249e-03
-1.870194910234518337e-03
-1.776376428724929122e-03
-1.679127963494874906e-03
-1.577935262076831519e-03
-1.472377401994319750e-03
-1.362153954643962684e-03
-1.247111187742190033e-03
-1.127266487169440671e-03
-1.002830388769513888e-03
-8.742255777495402252e-04
-7.421022485968701036e-04
-6.073491605407744425e-04
-4.710999285500013715e-04
-3.347341752432890613e-04
-1.998730655320667680e-04
-6.836910914434981700e-05
5.771004019056537505e-05
1.761037638079207383e-04
2.843864476564219928e-04
3.800011095655582145e-04
4.602983226774166772e-04
5.225798975515706223e-04
5.641467409415409397e-04
5.823502327117397771e-04
5.746462320079930583e-04
5.386507771393356323e-04
4.721965389433455487e-04
3.733889131853100813e-04
2.406606411731135071e-04
7.282386297058805952e-05
-1.308816004745698978e-04
-3.707448423048503795e-04
-6.465463553555006807e-04
-9.575274883193078505e-04
-1.302367876901742647e-03
-1.679171557314005627e-03
-2.085462521784581854e-03
-2.518190306189896366e-03
-2.973745871425843672e-03
-3.447988280159582520e-03
-3.936281852158184970e-03
-4.433543881163847476e-03
-4.934302480155023166e-03
-5.432763905855841902e-03
-5.922888734990337106e-03
-6.398475904542640265e-03
-6.853253357006016018e-03
-7.280974154732955568e-03
-7.675516518437946502e-03
-8.030986166796122427e-03
-8.341819351164009647e-03
-8.602884789991440198e-03
-8.809582725523807528e-03
-8.957939143338944712e-03
-9.044693514351503580e-03
-9.067378221863804308e-03
-9.024387937393310577e-03
-8.915037456682695788e-03
-8.739606487844589836e-03
-8.499370325429968578e-03
-8.196615216649013810e-03
-7.834637649720151142e-03
-7.417727056359853244e-03
-6.951131604860393692e-03
-6.441007148345727525e-03
-5.894349609003628893e-03
-5.318911244743805902e-03
-4.723101961861346162e-03
-4.115876582697716550e-03
-3.506609615569665928e-03
-2.904959274355837021e-03
-2.320722528799262080e-03
-1.763683462442016368e-03
-1.243457174065824150e-03
-7.693315814276046813e-04
-3.501099131524790112e-04
6.043764175254467134e-06
2.917533274703564515e-04
5.005710826252709935e-04
6.271074742890318885e-04
6.671476948044984282e-04
6.177529210722094467e-04
4.773442120470936857e-04
2.457674315189051152e-04
-7.566230801613043212e-05
-4.841378763484767943e-04
-9.753597477070243037e-04
-1.543558461648015818e-03
-2.181539992416485930e-03
-2.880753629367179252e-03
-3.631381724145074565e-03
-4.422450237219095574e-03
-5.241958575795923649e-03
-6.077026869213904975e-03
-6.914058564345873688e-03
-7.738916142200717545e-03
-8.537106936395789936e-03
-9.293976416922625564e-03
-9.994905791883931800e-03
-1.062551088737799347e-02
-1.117183899626967951e-02
-1.162056060758587771e-02
-1.195915266509989250e-02
-1.217607056461088993e-02
-1.226090587375162043e-02
-1.220452712390269860e-02
-1.199920134781653179e-02
-1.163869424631791202e-02
-1.111834721658428414e-02
-1.043513005061422715e-02
-9.587668228801979678e-03
-8.576244343189032976e-03
-7.402773695926925107e-03
-6.070754405279380622e-03
-4.585192847099600622e-03
-2.952505754867462175e-03
-1.180400699365340015e-03
7.222630513572183978e-04
2.745630736064371118e-03
4.879022714410633302e-03
7.111116465811552316e-03
9.430136686791395009e-03
1.182405017979784936e-02
1.428076211798057910e-02
1.678831007138918696e-02
1.933505240435401742e-02
2.190984777621794374e-02
2.450222232834004671e-02
2.710252185177716017e-02
2.970204610408743243e-02
3.229316287454930823e-02
3.486939992459679033e-02
3.742551317895432411e-02
3.995753009724984511e-02
4.246276748131051076e-02
4.493982353855496825e-02
4.738854468106187129e-02
4.980996777595909919e-02
5.220623904674909221e-02
5.458051153260173871e-02
5.693682315824936252e-02
5.927995788345481049e-02
6.161529302792118773e-02
6.394863570310865830e-02
6.628605181289586035e-02
6.863369124636392593e-02
7.099761267061101278e-02
7.338361181425391566e-02
7.579705667774340461e-02
7.824273327680779377e-02
8.072470500140660477e-02
8.324618884250946371e-02
8.580945104506251808e-02
8.841572459476222667e-02
9.106515041036102043e-02
9.375674369607986391e-02
9.648838645646801160e-02
9.925684654456043421e-02
1.020578231631570493e-01
1.048860180910606149e-01
1.077352315559531176e-01
1.105984810218655079e-01
1.134681405677067934e-01
1.163360984472620457e-01
1.191939295842815161e-01
1.220330796346388996e-01
1.248450570056018338e-01
1.276216287898713220e-01
1.303550166937104682e-01
1.330380886606168656e-01
1.356645422117147282e-01
1.382290753856887378e-01
1.407275414001730451e-01
1.431570834781793755e-01
1.455162464656929722e-01
1.478050623962712251e-01
1.500251075861614158e-01
1.521795292459418025e-01
1.542730402129058320e-01
1.563118811751871562e-01
1.583037501087797283e-01
1.602576993441637843e-01
1.621840015202376528e-01
1.640939860494028402e-01
1.659998485545162161e-01
1.679144360716532947e-01
1.698510116041792861e-01
1.718230019172248546e-01
1.738437329685918742e-01
1.759261576533502902e-01
1.780825808468300409e-01
1.803243868957140061e-01
1.826617749129509083e-01
1.851035068703849873e-01
1.876566739356017033e-01
1.903264858166411055e-01
1.931160878083284238e-01
1.960264099182080499e-01
1.990560517837519083e-01
2.022012068323759681e-01
2.054556282360640029e-01
2.088106387491963367e-01
2.122551857866875891e-01
2.157759422492533941e-01
2.193574529184190436e-01
2.229823253449211840e-01
2.266314635672899425e-01
2.302843419075257247e-01
2.339193157190017913e-01
2.375139648598741104e-01
2.410454653256978996e-01
2.444909837470533032e-01
2.478280887733042559e-01
2.510351733353052284e-01
2.540918810276504014e-01
2.569795297738775020e-01
2.596815258049299247e-01
2.621837609181847384e-01
2.644749859428737748e-01
2.665471537864080309e-01
2.683957253767543794e-01
2.700199324395734513e-01
2.714229915146574856e-01
2.726122640067195624e-01
2.735993579063517589e-01
2.744001676022314040e-01
2.750348487440668066e-01
2.755277261788913745e-01
2.759071338705230692e-01
2.762051865182509891e-01
2.764574836351093579e-01
2.767027476325827906e-01
2.769823986910681102e-01
2.773400692523805278e-01
2.778210626612405143e-01
2.784717645149076826e-01
2.793390071340323688e-01
2.804693961741282493e-01
2.819086069608726652e-01
2.837006581745180611e-01
2.858871708518946897e-01
2.885066213789196921e-01
2.915935971642408253e-01
2.951780638467753626e-01
2.992846530058604904e-01
3.039319791697300821e-01
3.091319947303691196e-01
3.148893911149669433e-01
3.212010541092977234e-01
3.280555807129716950e-01
3.354328657028362026e-01
3.433037623007211270e-01
3.516298234537957312e-01
3.603631285844089427e-01
3.694461997806101627e-01
3.788120105273176663e-01
3.883840893955488593e-01
3.980767198829257003e-01
4.077952369761360663e-01
4.174364198846471363e-01
4.268889795220313643e-01
4.360341383972541895e-01
4.447462997946564078e-01
4.528938021529779201e-01
4.603397536525166145e-01
4.669429414801429257e-01
4.725588093265863376e-01
4.770404960589200161e-01
4.802399278353891576e-01
4.820089555286552474e-01
4.822005287288707587e-01
4.806698970908695467e-01
4.772758297006274852e-01
4.718818426142554201e-01
4.643574247195442761e-01
4.545792517432045154e-01
4.424323782031741037e-01
4.278113971853989561e-01
4.106215600190935566e-01
3.907798426728769647e-01
3.682159507348436445e-01
3.428732542274073869e-01
3.147096433200952670e-01
2.836982964125164264e-01
2.498283529209629206e-01
2.131054836504880923e-01
1.735523519542266080e-01
1.312089598243878774e-01
8.613287510132289215e-02
3.839933471139216764e-02
-1.189877924976185178e-02
-6.465109287510537039e-02
-1.197300244732884406e-01
-1.769911995571233077e-01
-2.362739961122657661e-01
-2.974022156589009591e-01
-3.601848775730409624e-01
-4.244171517826842432e-01
-4.898813944043283741e-01
-5.563482935956706177e-01
-6.235781198170740058e-01
-6.913220716327590498e-01
-7.593237075715508766e-01
-8.273204541379832744e-01
-8.950451789154147964e-01
-9.622278168699714973e-01
-1.028597038815328268e+00
-1.093881946737297772e+00
-1.157813784206120022e+00
-1.220127648166857925e+00
-1.280564188102620404e+00
-1.338871278250253649e+00
-1.394805649025731453e+00
-1.448134463565132313e+00
-1.498636825927805782e+00
-1.546105207759656208e+00
-1.590346780798429949e+00
-1.631184643517034294e+00
-1.668458930887960934e+00
-1.702027797184030966e+00
-1.731768263120469609e+00
-1.757576919577503949e+00
-1.779370481586796116e+00
-1.797086187727011897e+00
-1.810682041401553199e+00
-1.820136889298688221e+00
-1.825450337138907031e+00
-1.826642526699460145e+00
-1.823753739225297599e+00
-1.816843846943331675e+00
-1.805991620448387680e+00
-1.791293898466753687e+00
-1.772864628371284557e+00
-1.750833787410902120e+00
-1.725346196156974710e+00
-1.696560236143253686e+00
-1.664646485104622320e+00
-1.629786285376475519e+00
-1.592170258783517145e+00
-1.551996783418497783e+00
-1.509470447605556487e+00
-1.464800496715006561e+00
-1.418199288037639727e+00
-1.369880768786531533e+00
-1.320058991623559663e+00
-1.268946684428393645e+00
-1.216753887144963020e+00
-1.163686645963277755e+00
-1.109945809714742104e+00
-1.055725923476696249e+00
-1.001214225825271198e+00
-9.465897570830956731e-01
-8.920225843850830838e-01
-8.376731471678608987e-01
-7.836917252589162830e-01
-7.302180297123478381e-01
-6.773809152162554303e-01
-6.252982130032714858e-01
-5.740766787137054905e-01
-5.238120500255605272e-01
-4.745892073310546411e-01
-4.264824298495603627e-01
-3.795557383983393929e-01
-3.338633152597832443e-01
-2.894499907929103943e-01
-2.463517862348860443e-01
-2.045965014757324119e-01
-1.642043367570238110e-01
-1.251885370832142574e-01
-8.755604848777789884e-02
-5.130817547517732558e-02
-1.644122987745644943e-02
1.705283841770353567e-02
4.918583723944473796e-02
7.997276199906427907e-02
1.094312661708904122e-01
1.375811749585874599e-01
1.644440467321636457e-01
1.900428078865090686e-01
2.144014262379124736e-01
2.375446400794051505e-01
2.594977442366087073e-01
2.802864305642217557e-01
2.999366796796618106e-01
3.184747002394707205e-01
3.359269112513679212e-01
3.523199621385882940e-01
3.676807847878415525e-01
3.820366709939824745e-01
3.954153688119291243e-01
4.078451910710370609e-01
4.193551291806306147e-01
4.299749653703977548e-01
4.397353769732929574e-01
4.486680266586407506e-01
4.568056328740697780e-01
4.641820158047391676e-01
4.708321145011019615e-01
4.767919718261066642e-01
4.820986847422868427e-01
4.867903183005863887e-01
4.909057827854553246e-01
4.944846744096798585e-01
4.975670807599237855e-01
5.001933533791613762e-01
5.024038505326697823e-01
5.042386541116367082e-01
5.057372652827990533e-01
5.069382843191596599e-01
5.078790802601481635e-01
5.085954567234679535e-01
5.091213202892493905e-01
5.094883580916221844e-01
5.097257312435163890e-01
5.098597905620809723e-01
5.099138198769970209e-01
5.099078129441008134e-01
5.098582956225879981e-01
5.097781872902330536e-01
5.096767101006510758e-01
5.095593496435870673e-01
5.094278695072157470e-01
5.092803798004539306e-01
5.091114603542443717e-01
5.089123376625537265e-01
5.086711138347532746e-01
5.083730447349292803e-01
5.080008636497066465e-01
5.075351458480286126e-01
5.069547086936737612e-01
5.062370412143898379e-01
5.053587563255583781e-01
5.042960587467675282e-01
5.030252208148324744e-01
5.015230586608809826e-01
4.997674007744878355e-01
4.977375412294112178e-01
4.954146698498683721e-01
4.927822723109640535e-01
4.898264931995890969e-01
4.865364558200500067e-01
4.829045334542811929e-01
4.789265671698200721e-01
4.746020265138000682e-01
4.699341102800307923e-01
4.649297854257345430e-01
4.595997635015615090e-01
4.539584148111228123e-01
4.480236218141891991e-01
4.418165739632098910e-01
4.353615076217591251e-01
4.286853952637371123e-01
4.218175891903505614e-01
4.147894258463064032e-01
4.076337972873915194e-01
4.003846970722557130e-01
3.930767481897586846e-01
3.857447209270514210e-01
3.784230488276965065e-01
3.711453507102654426e-01
3.639439667676570567e-01
3.568495164828765498e-01
3.498904854205683868e-01
3.430928479345402571e-01
3.364797316563191698e-01
3.300711292710533651e-01
3.238836620260581722e-01
3.179303985612457750e-01
3.122207317958945461e-01
3.067603153712745168e-01
3.015510603383330657e-01
2.965911915789186115e-01
2.918753625555919884e-01
2.873948258763849295e-01
2.831376563086386855e-01
2.790890220184136794e-01
2.752314988449333644e-01
2.715454220175104183e-01
2.680092689029507369e-01
2.646000659007892164e-01
2.612938124212367264e-01
2.580659145756279971e-01
2.548916209770547558e-01
2.517464533363548695e-01
2.486066245454671142e-01
2.454494373502861537e-01
2.422536570101158360e-01
2.389998519644689623e-01
2.356706971143947005e-01
2.322512351705852962e-01
2.287290920088316248e-01
2.250946432314602785e-01
2.213411296665178940e-01
2.174647207037632424e-01
2.134645251417660594e-01
2.093425502300146623e-01
2.051036105099484086e-01
2.007551888588349487e-01
1.963072529618956341e-01
1.917720312842957631e-01
1.871637530175810082e-01
1.824983573698891193e-01
1.777931777807778002e-01
1.730666071112768045e-01
1.683377501609251703e-01
1.636260697881480597e-01
1.589510331687289946e-01
1.543317645302098029e-01
1.497867103965347391e-01
1.453333231329613229e-01
1.409877682436659618e-01
1.367646602120242139e-01
1.326768311491002550e-01
1.287351358145903957e-01
1.249482960556153599e-01
1.213227865403455064e-01
1.178627633741742425e-01
1.145700359392438777e-01
1.114440819127521104e-01
1.084821042322565710e-01
1.056791284149866672e-01
1.030281375622430079e-01
1.005202420712010825e-01
9.814488030255698325e-02
9.589004596366226818e-02
9.374253761396730833e-02
9.168822520751927774e-02
8.971232872149367821e-02
8.779970331836596531e-02
8.593512570581483823e-02
8.410357656074114729e-02
8.229051375857671102e-02
8.048213151053176806e-02
7.866560093581136115e-02
7.682928793335641604e-02
7.496294465104863525e-02
7.305787162704076299e-02
7.110704795292792368e-02
6.910522765502365161e-02
6.704900110299380489e-02
6.493682088254287832e-02
6.276899232964511244e-02
6.054762942034729034e-02
5.827657747817114459e-02
5.596130471014188618e-02
5.360876513248209740e-02
5.122723589474943023e-02
4.882613251614095068e-02
4.641580585230323935e-02
4.400732486306127567e-02
4.161224955831231004e-02
3.924239847469591924e-02
3.690961516165131712e-02
3.462553804546720376e-02
3.240137798533931912e-02
3.024770748729675024e-02
2.817426548929439362e-02
2.618978093544817309e-02
2.430181834996467810e-02
2.251664782529588099e-02
2.083914154800561858e-02
1.927269837220392870e-02
1.781919739110007436e-02
1.647898096482256977e-02
1.525086706597763436e-02
1.413219019673094164e-02
1.311886976656028748e-02
1.220550412066469942e-02
1.138548807279215862e-02
1.065115142005547411e-02
9.993915445450019669e-03
9.404464240537558153e-03
8.872927321516319715e-03
8.389069984520016593e-03
7.942487700350286256e-03
7.522800749358765637e-03
7.119845413873865381e-03
6.723858316252645691e-03
6.325650257702784829e-03
5.916766671327026474e-03
5.489631681006960050e-03
5.037673350828141168e-03
4.555427974651536475e-03
4.038621761284439185e-03
3.484228677389211368e-03
2.890503623677174571e-03
2.256990708135626477e-03
1.584506838569667330e-03
8.751011182575617114e-04
1.319913379859121295e-04
-6.405211181097157083e-04
-1.437155893302238894e-03
-2.251775679611741580e-03
-3.077523048193915416e-03
-3.906969355653730144e-03
-4.732272671428331377e-03
-5.545341687105275960e-03
-6.338002357968795797e-03
-7.102164136915630963e-03
-7.829982541554226030e-03
-8.514015154348983025e-03
-9.147368036899496818e-03
-9.723829967557114096e-03
-1.023799196540415256e-02
-1.068535009746791886e-02
-1.106238977328415779e-02
-1.136665004055565503e-02
-1.159676691301385169e-02
-1.175249512462761027e-02
-1.183470811150890561e-02
-1.184537639088212475e-02
-1.178752496333783893e-02
-1.166517076617566186e-02
-1.148324153398439830e-02
-1.124747771795320782e-02
-1.096431956907818923e-02
-1.064078155540344392e-02
-1.028431669221238458e-02
-9.902673414764836049e-03
-9.503747686629416408e-03
-9.095433363899207632e-03
-8.685473515049599302e-03
-8.281315533200607829e-03
-7.889972854900291488e-03
-7.517895784643958447e-03
-7.170853871645180982e-03
-6.853831960857969911e-03
-6.570941848615608621e-03
-6.325351102497779252e-03
-6.119230296021813641e-03
-5.953719657923443702e-03
-5.828915505325838950e-03
-5.743876762197282042e-03
-5.696651309505556225e-03
-5.684321628105837299e-03
-5.703068659811491407e-03
-5.748252810198095815e-03
-5.814510340322429256e-03
-5.895863305316242226e-03
-5.985841048105169579e-03
-6.077610682500305186e-03
-6.164114320742166385e-03
-6.238210298379190388e-03
-6.292815695532822523e-03
-6.321047573651109031e-03
-6.316360162686353134e-03
-6.272675430738288045e-03
-6.184504600348144851e-03
-6.047058279303475434e-03
-5.856343144222495023e-03
-5.609243396522310514e-03
-5.303585361242289103e-03
-4.938184076039654584e-03
-4.512870851562797263e-03
-4.028501405499327996e-03
-3.486944313886310674e-03
-2.891049931060673574e-03
-2.244600315424981080e-03
-1.552241192052546169e-03
-8.193969992552412821e-04
-5.217063741344638971e-05
7.427701890027364404e-04
1.558318029339182068e-03
2.387059770468849713e-03
3.221417334041896431e-03
4.053792381862556839e-03
4.876712194653573702e-03
5.682974141650391428e-03
6.465786011006343682e-03
7.218899415636353435e-03
7.936733877120318720e-03
8.614489139266889167e-03
9.248243527618535409e-03
9.835036397504808708e-03
1.037293312234587386e-02
1.086107104536051388e-02
1.129968569960303898e-02
1.169011638012399518e-02
1.203479091430664782e-02
1.233718972708750319e-02
1.260178964845992677e-02
1.283398836589322300e-02
1.304001074365135349e-02
1.322679862591892054e-02
1.340188587122463464e-02
1.357326091355423071e-02
1.374921928279592212e-02
1.393820868758262679e-02
1.414866940259344036e-02
1.438887304033319853e-02
1.466676246739415622e-02
1.498979599880563215e-02
1.536479885995482506e-02
1.579782459728605593e-02
1.629402927356423531e-02
1.685756082280414139e-02
1.749146599776713745e-02
1.819761663994897902e-02
1.897665705254768242e-02
1.982797368557704873e-02
2.074968803662532654e-02
2.173867313861712128e-02
2.279059378182458559e-02
2.389996994757023069e-02
2.506026274978704477e-02
2.626398154389437620e-02
2.750281058492205083e-02
2.876775314821367752e-02
3.004929077804533930e-02
3.133755493637124800e-02
3.262250813221570511e-02
3.389413125394068194e-02
3.514261378372047356e-02
3.635854348123382374e-02
3.753309200230280779e-02
3.865819297323831033e-02
3.972670902915478169e-02
4.073258467852613335e-02
4.167098178660708779e-02
4.253839503186842425e-02
4.333274469419691466e-02
4.405344474204780231e-02
4.470144446573145330e-02
4.527924243805513810e-02
4.579087191404705715e-02
4.624185748307567401e-02
4.663914322070008417e-02
4.699099296975907392e-02
4.730686417407329453e-02
4.759725694380283895e-02
4.787354062690491602e-02
4.814776057956712124e-02
4.843242832187773239e-02
4.874029852482746061e-02
4.908413658733178087e-02
4.947648086737072015e-02
4.992940387381091666e-02
5.045427661309238865e-02
5.106154045785837176e-02
5.176049098861387754e-02
5.255907782124571298e-02
5.346372458444044462e-02
5.447917271880566709e-02
5.560835238203493125e-02
5.685228356183978649e-02
5.821000984506061182e-02
5.967856675145391532e-02
6.125298616649935135e-02
6.292633747341573602e-02
6.468980568754217897e-02
6.653280602115178854e-02
6.844313369200702435e-02
7.040714722027406614e-02
7.240998276287810564e-02
7.443579632949418046e-02
7.646803036964361366e-02
7.848970053493044274e-02
8.048369801364116394e-02
8.243310251368250741e-02
8.432150050266183638e-02
8.613330331891058678e-02
8.785405941985789668e-02
8.947075510226930317e-02
9.097209811848373795e-02
9.234877862742768562e-02
9.359370233744733480e-02
9.470219104486293782e-02
9.567214600556883664e-02
9.650417021837658094e-02
9.720164646441745160e-02
9.777076838630693878e-02
9.822052270624316572e-02
9.856262148316552452e-02
9.881138415144945231e-02
9.898356979132283406e-02
9.909816108059210649e-02
9.917610212226571353e-02
9.923999322791995925e-02
9.931374644821901188e-02
9.942220652151781413e-02
9.959074240383102017e-02
9.984481531080584282e-02
1.002095297401712354e-01
1.007091742407457413e-01
1.013667591005267127e-01
1.022035583703696376e-01
1.032386637430282861e-01
1.044885577274859284e-01
1.059667134881284861e-01
1.076832283741377266e-01
1.096444979084987004e-01
1.118529364326385916e-01
1.143067499966730627e-01
1.169997663707476043e-01
1.199213264159785242e-01
1.230562398655305340e-01
1.263848079849759498e-01
1.298829142905765510e-01
1.335221836356897118e-01
1.372702089830195593e-01
1.410908438750719529e-01
1.449445578533406498e-01
1.487888508752275019e-01
1.525787218401095657e-01
1.562671855428289236e-01
1.598058313539481856e-01
1.631454163948566627e-01
1.662364851647562536e-01
1.690300071480267396e-01
1.714780234806029813e-01
1.735342935718639512e-01
1.751549323377540324e-01
1.762990288024682273e-01
1.769292370397440028e-01
1.770123304877976034e-01
1.765197113207518653e-01
1.754278671709886550e-01
1.737187679716237776e-01
1.713801966215041939e-01
1.684060081079668536e-01
1.647963126487650143e-01
1.605575795212472179e-01
1.557026594513114537e-01
1.502507244295590849e-01
1.442271251657012976e-01
1.376631675947715683e-01
1.305958108652378880e-01
1.230672906266351146e-01
1.151246723363077845e-01
1.068193404895813325e-01
9.820643042998591921e-02
8.934421047398428961e-02
8.029342269834187362e-02
7.111659132085514090e-02
6.187730903620834721e-02
5.263951094988795348e-02
4.346673928859235564e-02
3.442142000383443395e-02
2.556415624650955690e-02
1.695304773730634679e-02
8.643045585672219297e-03
6.853514443293835670e-04
-6.873131140601679810e-03
-1.399028571567828214e-02
-2.062920590631064574e-02
-2.675854719417804228e-02
-3.235280317091405317e-02
-3.739250306789052708e-02
-4.186432849477426249e-02
-4.576114867093757088e-02
-4.908197445010104715e-02
-5.183183329996568500e-02
-5.402156696218080728e-02
-5.566755617239174669e-02
-5.679137725917297180e-02
-5.741939634367283080e-02
-5.758230784253362544e-02
-5.731462462844134215e-02
-5.665412793782585721e-02
-5.564128544395912507e-02
-5.431864647931516216e-02
-5.273022333814317286e-02
-5.092086795835231577e-02
-4.893565308067806402e-02
-4.681926678207029568e-02
-4.461542881417566997e-02
-4.236633701857692169e-02
-4.011215122218085571e-02
-3.789052139107224743e-02
-3.573616613992179614e-02
-3.368050670324836821e-02
-3.175136054814463316e-02
-2.997269780484246998e-02
-2.836446281001576974e-02
-2.694246169209882358e-02
-2.571831630442249217e-02
-2.469948335355390961e-02
-2.388933673929426182e-02
-2.328731023687840435e-02
-2.288909767346956892e-02
-2.268690424235289202e-02
-2.266974443162021388e-02
-2.282378073990774109e-02
