5.903591386426809522e-03
9.256351423768828524e-03
9.384401145402001751e-03
9.841508770869397942e-04
-7.888055853155049799e-03
-1.382660646973211949e-02
-1.136652042017525024e-02
1.495547178095968756e-04
9.096123685657831956e-03
8.658724218861655816e-03
7.676069322153704529e-03
1.356355095194931512e-02
1.783684526118933106e-02
1.368493511641409935e-02
1.341291529183996417e-03
-1.112002257742839874e-02
-1.614337093982230048e-02
-1.856609051446177217e-02
-2.171341309537855660e-02
-2.708724077492829715e-02
-2.521918692065320405e-02
-1.217424145055043781e-02
7.665824013194645799e-03
2.079275108371520311e-02
2.130574604957149315e-02
1.986624155153245835e-02
2.870518212352951223e-02
3.565762865169826851e-02
2.246330796460314916e-02
-5.165540481728020904e-03
-2.713544298623422196e-02
-3.045371107335625993e-02
-1.758402228391880290e-02
-1.537964415154878149e-04
7.638459599534454421e-03
-5.002116890187357882e-03
-1.630624090175187071e-02
-1.069108518461713529e-02
-1.228368847379326565e-04
1.661711287430384576e-03
1.419060307520360505e-03
3.797647068217077735e-03
7.351138762296116971e-03
1.184432589312632046e-02
1.366072524531468380e-02
7.166369153085811079e-03
1.180555918195686464e-04
3.916540885567546633e-04
2.410734590265787517e-03
-6.327736240291181955e-04
-3.487818016801908991e-03
-6.680356518705222145e-03
-1.070043038627988864e-02
-1.248105086595186972e-02
-5.391853156685450475e-03
6.571180771184352738e-03
7.559946204676654645e-03
-3.280395010711117942e-03
-1.380913770584927397e-02
-6.994539358747037423e-03
4.582095499058298597e-03
4.951576515708292978e-03
4.034888536961851215e-03
6.346044704019914752e-03
1.174507325204403665e-02
1.451733057463630745e-02
1.451721559808241864e-02
1.351785570652327441e-02
5.160478149023109418e-03
-1.052399112619140618e-02
-2.311953004318757429e-02
-2.385178560027468794e-02
-1.716370525239351019e-02
-1.078281652551198178e-02
-5.343062896104837887e-03
-7.994776477856835361e-04
3.709064405772310481e-03
1.029727039683699455e-02
1.803818026356459811e-02
2.034877959366875738e-02
1.351776599952798051e-02
1.273713975658737714e-03
-4.760284947374953703e-03
-5.356906321610732657e-03
-6.046926900515307499e-03
-7.037689496391414702e-03
-6.406116405852570195e-03
-4.361306007281462449e-03
-4.457664621189566870e-03
4.478418185878163841e-04
5.309353928754775506e-03
6.014257497871772738e-03
-3.137125201128386021e-04
-3.720643789693261344e-03
-2.177673861538244587e-03
4.671747071301230944e-03
3.912015045546296359e-03
-5.879692974472330034e-04
-5.877052533787761185e-03
-3.515461725405523083e-03
3.486791606752691862e-03
9.671838113285268629e-03
1.140619195366565988e-02
4.732901272976544225e-04
-9.375068859769799048e-03
-1.308696654451219424e-02
-1.202076199812843020e-02
-5.706730574652349279e-03
1.130062811973585627e-03
5.277622275540124613e-03
8.234233237419090121e-03
9.030176391526641838e-03
5.596795887787190012e-03
1.326808479174793011e-03
1.948988155008726309e-04
3.713602404788151658e-03
1.048690640723478305e-02
4.322958809787015230e-03
-8.976220981853411107e-03
-1.166846779962202839e-02
3.512347335405368275e-03
1.475281569320865960e-02
-3.006954764333348617e-04
-3.005748798416098266e-02
-5.050731591419593131e-02
-4.324400009160140473e-02
-1.899407300561638950e-02
2.125704772299105358e-02
5.448558178475749331e-02
6.641787279947358735e-02
5.562784028810956877e-02
3.658784611040633711e-02
1.542919861583998825e-02
-5.283696135861134895e-03
-2.496785143297784726e-02
-4.999241058351088646e-02
-6.478026635110564757e-02
-5.358497374746272468e-02
-3.221113103833736502e-02
-1.826992906665010630e-02
-9.092570175195956172e-03
-5.604545767317346871e-04
2.334768427844754676e-02
6.270568280988637888e-02
7.196495255346724296e-02
4.107989693986013879e-02
1.867323962214188782e-02
1.133183559884770597e-02
5.457441310954711140e-03
-4.449439064399497365e-03
-2.472288629065935370e-02
-4.765554390758298953e-02
-4.944433231299429771e-02
-3.026334362362642638e-02
-4.612378872629461189e-03
4.345122707006332692e-03
-9.436621679090604134e-03
-1.385271041983458275e-02
6.077250968540399111e-03
2.863081119118900467e-02
3.088560850968288460e-02
1.949647507220381160e-02
7.921034407591238946e-03
5.102721396822961809e-03
6.607924236000419123e-03
5.154416102809165033e-03
-2.213659215108463414e-04
-7.653999537672366571e-03
-8.608380720695470861e-03
-4.788719071965223152e-03
-2.160341594459849919e-03
-8.026930443273403923e-03
-1.285510764448067819e-02
-1.055893076524042941e-02
-9.332729940691437617e-03
-1.426446545682984526e-02
-1.377189989932285641e-02
-6.834643111545526993e-04
2.025799708217418393e-02
3.145262875489615584e-02
2.530923854789921684e-02
1.552250325817505078e-02
7.468918227353561930e-03
3.516025755126117548e-04
-6.065770101938241544e-03
-7.311967370024008775e-03
-6.384066117513330536e-03
-7.460240785556532077e-03
-1.419497865501202424e-02
-1.398193086889929805e-02
-8.767104940319580403e-03
-8.944914810011734760e-03
-1.429690794087118064e-02
-1.920163420390717454e-02
-1.098626256919616427e-02
1.660985192553434200e-02
4.600446707795373402e-02
5.221960932136261724e-02
2.422274468902350236e-02
-8.990204227439076157e-03
-2.294450882422111732e-02
-1.811713315400238083e-02
-6.484145445113365623e-03
-2.033027424873182394e-03
-3.188165852409924513e-03
-4.688605053834385937e-03
-2.451216162951511644e-03
3.392037641820334383e-03
7.210055942603589519e-04
-9.087385810762486568e-03
-1.345065567977218011e-02
-6.594292161621095709e-03
2.805059215689576814e-03
2.588641429979415386e-03
8.991363931224026105e-04
6.171474274713177263e-03
1.750150935725064763e-02
2.112294326104939904e-02
1.023552728672564270e-02
-4.772573221825139426e-03
-1.096775332119066630e-02
-1.147707326152356752e-02
-1.357367209670405118e-02
-8.522438494861745567e-03
6.916504694942805960e-03
1.584876640291096178e-02
9.787229807529213357e-03
-1.576121032375437389e-03
-9.438415491669977647e-03
-1.198581232216286430e-02
-1.164538278967160688e-02
-6.694582423615791887e-03
4.461176704271304326e-03
1.855007402704647243e-02
1.414931873677601794e-02
-2.597139444261562695e-04
-8.425449121563051078e-03
-1.105253894715823790e-02
-9.328636773072376473e-03
-1.996605033182682171e-04
5.924951818336747673e-03
5.004733437288165672e-03
4.401590072765645435e-03
6.096482124672300551e-03
1.035700795312646458e-02
1.086483199256086524e-02
8.158389421161928515e-03
-1.181697197218616437e-03
-6.659078190486859491e-03
-9.169130323992772877e-03
-1.182545916474610388e-02
-1.628476640557366059e-02
-1.511188442551957348e-02
-1.329862959441643205e-02
-1.332444421655677377e-02
-6.819550319736162854e-04
2.023626347482645332e-02
3.373672373312604222e-02
2.485044263069349779e-02
-1.921657755938734795e-03
-1.636810703362820418e-02
-2.621084792076715285e-04
1.617049093605911828e-02
6.139556069754629163e-03
-1.326126349876457361e-02
-2.208452781722110292e-02
-1.307543141326398574e-02
8.803481731943733207e-03
2.318441061806020623e-02
1.597659426106651931e-02
3.490179638874935965e-03
-8.444241748837778144e-03
-2.003866700878923282e-02
-2.273872270115880750e-02
-1.158106417729412758e-02
1.221119146777562654e-03
2.744901113316375492e-03
1.921292072931041423e-03
5.250772578200226318e-03
6.401600640636801766e-03
2.970740617370210869e-03
4.397417256788829602e-03
9.211588087977853889e-03
8.992055592745819975e-03
4.081021146362748091e-03
1.759188965595406438e-03
1.152499462346418284e-03
1.644592860602217587e-03
1.527916560180903873e-03
2.456710244112208716e-03
4.135431563904749461e-03
3.794837355152925638e-04
-8.958250387873040177e-03
-1.445930956140104029e-02
-1.879697004953390788e-02
-2.163075336069380031e-02
-2.862236837147899907e-02
-2.719963104612473787e-02
-9.634459696778270230e-03
3.271223519817003517e-02
6.890943759719396489e-02
5.893460304804835903e-02
2.032851986057497562e-02
-1.072411629639773850e-02
-2.165297605263741959e-02
-2.149667796325606048e-02
-1.889921866119318589e-02
-1.002262796405222617e-02
-2.624855635937259173e-03
-3.521665285311058845e-03
-4.987413739513726733e-03
-3.816763504006801498e-03
1.274340347362606886e-03
3.086138534254040736e-03
-6.432274364107907648e-04
-1.449110379365866610e-03
3.368275403116918320e-03
8.900082804305108758e-03
7.804509197038164703e-03
2.960939497596105051e-03
-3.219720191801118091e-03
-2.239648890873847248e-03
-2.253321702667298448e-03
-2.434495712810039354e-03
-4.535770282114115438e-04
3.403110317532565769e-03
2.877477337258741580e-03
-1.898318019820323518e-03
-3.178639191323379912e-03
-1.012350200723392086e-03
4.390320834240507043e-03
5.032379757615351550e-03
-4.032130987260954501e-03
-8.672679919437348284e-03
6.705821424561980671e-04
7.017049272494291917e-03
6.368104578676986836e-03
-3.784524530082235315e-04
-1.063227918799655725e-02
-1.324446794296415576e-02
-6.209923034902664098e-03
5.618212021129242485e-03
8.539507387837229346e-03
5.483370454292994280e-03
7.764983371252661033e-03
1.311060060120022505e-02
9.167923379471285689e-03
-3.973932102943707927e-04
-1.069697060586075749e-02
-1.683391668031150243e-02
-1.405067670021626150e-02
-9.019329289152742957e-03
-6.417456046391701446e-03
-4.359373767950877089e-03
8.610134814453139452e-04
4.074264836932167851e-03
1.227832267925519152e-02
2.326564727440898206e-02
2.378760752059043415e-02
1.549882778083106968e-02
5.815423781521877715e-03
-7.606843173209874897e-04
-8.411896741633329705e-03
-1.532620830559576139e-02
-1.778947497309168319e-02
-2.115049882588617217e-02
-2.867205493355057949e-02
-2.810599735116739439e-02
-1.429269340874435128e-02
1.960374236811363892e-03
2.405363733588981173e-02
4.788889507827200770e-02
5.038951155273728444e-02
2.716429743840910460e-02
5.466615430846860114e-03
-1.256476831385306900e-02
-2.867997234070554860e-02
-3.094702349613292353e-02
-2.256670806194951973e-02
-7.202925729243965340e-03
1.265912158168313413e-03
1.642149448246101344e-03
-1.610296887118327575e-03
5.611319732685102505e-04
1.156783928385160184e-02
2.200141340523743827e-02
1.695392962852883961e-02
6.383170294923449888e-03
2.458351986772453575e-04
-5.225175371848900067e-03
-1.102887722637644306e-02
-1.324728382358339798e-02
-1.356336322524070298e-02
-9.642428436340990880e-03
-2.914205291639293018e-03
2.488904343916970539e-03
3.229543793480130209e-03
-4.575425768914429729e-05
-1.655830939368901954e-03
8.945319340933592309e-03
2.060335062159749167e-02
1.525344710836325050e-02
-2.330396130892594710e-03
-9.113671508198098459e-03
-4.231768443307709453e-03
-8.943133747716498988e-04
-3.028506274253512081e-03
-6.946436194848413723e-03
-2.402651226512538332e-03
5.594990395878130830e-03
4.269457074997311252e-03
-4.031766451727742014e-03
-1.281958228874967298e-02
-1.436107172250425563e-02
-1.358585989075325158e-03
2.114642114632060699e-02
3.332873963648724791e-02
2.056695215080053818e-02
-5.346732412456654641e-03
-2.634646351496069960e-02
-3.609610051324729785e-02
-3.510803472000879888e-02
-1.671107710336037361e-02
9.589979075931610170e-03
3.091467843216941236e-02
3.953390945533467177e-02
3.468769257485709856e-02
1.769732452564450748e-02
-7.032226729876404252e-04
-6.606441382370434150e-03
-6.557415847968733023e-03
-1.852348967381125047e-02
-3.433212896514120649e-02
-3.582766610730782342e-02
-2.812808675490411150e-02
-1.506566152378063100e-02
1.300210152494672353e-02
4.391693307241225502e-02
4.887725452743255095e-02
2.330398834777221498e-02
-4.939605825999927001e-03
-1.812903659516585872e-02
-1.646042732040414736e-02
-5.529750443931301385e-03
8.105316442366209198e-03
1.404235541495550167e-02
5.223422682333662796e-03
-7.246001902842613349e-03
-1.071180313919993347e-02
-1.231827646026510854e-02
-1.214190821214517629e-02
-9.136938762281433118e-03
-1.441607629350787111e-03
3.391367239495437537e-03
4.862671284044235882e-03
6.306851890598434880e-03
1.075776047997538398e-02
1.086330138999533346e-02
2.455346038051875630e-03
-2.793026909604832964e-03
-1.783685358434717151e-03
-4.508756080321651939e-04
-6.347629353250775668e-04
-3.811790233163456438e-04
4.192592574187081539e-04
-1.182756390218905667e-03
-3.864735144415036138e-03
-2.942623851268104298e-03
-3.947679272544377636e-03
-5.535188969934171956e-03
-2.689712184515899440e-03
2.743437513608586696e-03
4.495141270065282878e-03
3.006229285278651416e-03
3.286422491608892264e-03
2.856203712615330761e-03
-1.083357784865207835e-03
-1.884707516285240476e-03
3.747473218321936347e-04
4.390256681596006565e-03
7.483893355290561870e-03
1.019137494078511778e-02
4.827600039081727905e-03
-3.597812989421119399e-03
-7.440924128606912248e-03
-1.320100203023751029e-02
-1.908632709796313776e-02
-2.356305244905549864e-02
-2.414558199266652466e-02
-8.106776098461682817e-03
2.903443896101377125e-02
5.007088697492796669e-02
3.086365961745921038e-02
2.593611871140017767e-03
-6.683710496389042542e-03
-4.075459484576762423e-03
-1.623343987941333741e-03
-1.938742011008311476e-03
-2.451417560277905673e-03
-9.881519782015447256e-03
-1.962045359878200959e-02
-2.365098054767248575e-02
-1.130411790816026642e-02
8.614002098584202377e-03
1.177914613762788207e-02
6.005461680194606284e-04
-8.462854513233135367e-03
5.008358649499770020e-03
2.936681303844437124e-02
4.102869452310252407e-02
2.171140226116154842e-02
-1.821856858724833078e-02
-3.912635268644209380e-02
-2.931820676988823593e-02
-1.388231977475857734e-02
-1.012777797466362165e-02
-9.428276021054879386e-03
1.408322045403242627e-03
2.029349235609750890e-02
3.381615254896181560e-02
3.524338701293828341e-02
2.635553904753899085e-02
1.166195249816656676e-02
-8.289331182260897823e-03
-2.299576550544645687e-02
-3.104299971398642027e-02
-3.565403870530490377e-02
-3.643433762311307222e-02
-2.937154128436239575e-02
-6.087923458530249653e-03
2.583615508941515884e-02
3.961985319919551080e-02
3.425451838611363875e-02
1.966703700463456883e-02
1.348881209803422243e-02
1.403525330345940098e-02
3.356787975450075713e-03
-2.162240768265719787e-02
-3.535302626495889083e-02
-2.346620022529324542e-02
-5.946540515309617185e-03
7.895777757316702061e-03
1.821570979791987607e-02
1.388703804774268913e-02
2.413788278751916993e-03
-8.224778975559583066e-03
-1.094596157497285810e-02
-6.581666793004961949e-03
-1.132617913019684204e-03
1.095114428332178867e-03
2.673428830040385645e-03
2.212817210117754962e-03
2.748957758121336765e-03
5.329369178902256324e-03
4.432939824573313599e-03
2.007713860150909212e-03
2.437834022259354350e-03
5.987416752150576810e-03
4.535232564089148807e-03
-2.587388282826401766e-04
-5.489524387044382621e-03
-9.899031215131023215e-03
-1.310875866919742824e-02
-1.729919259275201557e-02
-1.683919508965578751e-02
-6.081441696054202921e-03
9.635171799168956372e-03
2.220491969327593323e-02
2.592461741243645701e-02
1.976748625262394338e-02
4.019475220434711067e-03
-6.140078575387358621e-03
-6.110958541608250104e-03
-2.772327567201946646e-03
-2.409092409559302969e-03
-3.977738128658425687e-03
-4.580250470893471905e-03
-8.145512933463903982e-03
-1.260023555113179081e-02
-1.169409377065729061e-02
-1.103328835240555529e-03
8.288218424448915225e-03
9.604764278027684218e-03
7.594522288902822056e-03
4.882861010927904040e-03
8.904076985393930650e-04
-4.364402873047988803e-03
-2.492736002140359241e-03
9.782174875451897424e-04
9.420065791190030844e-04
-1.951053710066757247e-03
-7.858710387565045682e-03
-7.677569514900529739e-03
2.461070187950617841e-03
1.921035554845521715e-02
2.713071728403672681e-02
1.365308324513406224e-02
-8.476290415769353881e-03
-2.086194133269478335e-02
-2.080273983759039352e-02
-1.105095655992713657e-02
-4.096625595454455497e-04
4.056529057509676399e-03
3.126575915608531195e-03
1.909583303730006927e-03
4.649079067761939695e-03
4.031394779654879496e-03
-5.161277837122522265e-04
-5.127457512101643404e-03
-5.479426670377813072e-03
-2.910170638688137652e-03
-5.197268052122438857e-03
-1.482351517918738086e-02
-3.966440955804717387e-03
2.079317395394730122e-02
2.868806200329976006e-02
2.183320316268631822e-02
1.402530230306970813e-02
5.128517811568428751e-03
-1.044531178776858570e-03
-8.171193467305335476e-04
-4.802084936467328029e-03
-2.138788659314015683e-02
-3.946966521544806317e-02
-4.354150694585560283e-02
-3.231361970113477006e-02
-1.339136016312834909e-02
1.225450798623076848e-02
3.712003033745562425e-02
5.307106941343731066e-02
4.641605486275676012e-02
2.396750830800244841e-02
8.186345089992657460e-04
-1.155735757707393452e-02
-2.039937483085215580e-02
-2.767929112487336335e-02
-2.687147048403899785e-02
-1.544164418515443782e-02
7.459150775337369072e-04
8.507455970635180442e-03
6.723708011719558598e-03
9.697041611123696780e-03
1.388580856778268494e-02
6.143404824417739683e-03
-6.680172281660737114e-03
-1.177357873966245264e-02
-7.450780690571246617e-03
3.568486982656919430e-03
1.065429042832917797e-02
1.465225977329120792e-02
1.614216672924738416e-02
1.193743934288008998e-02
-1.746171930143539423e-04
-1.776206122188325742e-02
-3.175993716975732822e-02
-3.807009031154319489e-02
-3.787957194646707909e-02
-2.608985944050347047e-02
-2.645485593682827229e-03
3.642555390220654499e-02
6.890741417377529987e-02
6.146744047442513625e-02
2.609396574395116131e-02
2.622199579346570037e-04
-3.549307983772043672e-03
-5.626523538908631940e-04
-5.264790634718576404e-03
-2.066762584083442836e-02
-3.764236299918154172e-02
-4.616658379700036563e-02
-4.262199793178553242e-02
-2.704213023115734776e-02
-8.012653997492281271e-03
1.621291357674410974e-02
3.446874185982146815e-02
4.199937729084857879e-02
4.071099281438196604e-02
2.524384748901203207e-02
1.713400454719766304e-03
-1.229955212252576910e-02
-8.646495210998521308e-03
-3.418242316046059487e-04
-1.088016850055617069e-03
-8.764678649432481455e-03
-1.531358324987395353e-02
-1.449092968477242761e-02
-8.708114402696781609e-03
-3.215542970703570529e-03
1.842886266114159314e-03
5.177257266612451080e-03
7.859022934648154241e-03
7.668344855639414905e-03
5.798237889748647511e-03
-1.091661251854998725e-03
-1.447938692472212387e-02
-1.965175607247109449e-02
-1.501733753987448926e-02
7.560284934365440503e-03
2.764941147417664807e-02
2.400577066570245416e-02
1.721526937338326664e-03
-9.915495533118212634e-03
2.144550892049664446e-03
1.336077671974056705e-02
1.029213138837047938e-02
-1.600970805535187986e-03
-5.564160474001343670e-03
-1.121646549756449146e-02
-1.852016743552812109e-02
-2.432837223350705139e-02
-2.344700256079989414e-02
-4.365078449092569222e-03
2.021637724709761386e-02
2.923672253635232338e-02
2.255309675431818595e-02
2.763804244679869161e-03
-1.122559424316007040e-02
-5.880117279517084634e-03
-3.253011917548173822e-03
-5.141469364216245778e-03
-4.835476355024922665e-03
-1.002148279383853523e-03
9.946964140921690095e-03
1.906053644919978446e-02
1.645181440698739034e-02
4.279273308481276218e-03
-1.300566015550360700e-02
-2.467793807665100494e-02
-2.410325503601144781e-02
-1.040875019964047042e-02
-1.147305814468160172e-03
2.792857742504082676e-03
8.175161238714961226e-03
1.765244885695944205e-02
2.197322816592718955e-02
9.737141585158501020e-03
-4.838004194609608725e-03
-9.382434403192720790e-03
-5.576561513274810519e-03
-4.465439676160717778e-04
5.240572045906893503e-03
3.709241495994337456e-03
-3.338928060379891746e-03
-1.158808127441783402e-02
-1.517613917945997287e-02
-1.844836066026217525e-02
-1.597793327750447745e-02
-3.260494757460753908e-03
1.838588375263109503e-02
3.280192636924821048e-02
3.308323657866457657e-02
2.249141704255394961e-02
5.609391931082383966e-03
-7.829282024951721153e-03
-1.649675090151809034e-02
-2.057859546140115153e-02
-2.189991151434314554e-02
-1.459743608522180366e-02
-6.012364523726126779e-03
-2.345399764433803332e-03
-1.034957778682594727e-03
3.122711980980832826e-03
3.150559643335107667e-03
-2.281633013085975804e-03
-1.405650084232480191e-03
1.139664535487899984e-02
2.230102254417636043e-02
2.336178659178440170e-02
1.831109603618501919e-02
1.127959944962813633e-02
1.002307595601214206e-02
3.674517043239430673e-03
-1.875869891348558652e-02
-4.486481075494193338e-02
-5.543600785094113942e-02
-4.993943879035959987e-02
-2.409332984578416853e-02
2.156647799228639251e-02
5.967913532151338657e-02
6.043322321031204675e-02
3.425635648343535594e-02
6.002322395279404733e-03
-4.132076983713722611e-03
-7.153182349152849111e-03
-1.107551891445373617e-02
-1.845858693144143345e-02
-2.256976020305015429e-02
-2.292863001796822953e-02
-2.025900277731815247e-02
-1.099136896464412982e-02
7.392865992516092950e-03
2.765491390065800276e-02
3.705896662931999069e-02
2.468828645078747358e-02
2.955602211574656114e-03
-5.973228314874584437e-03
-1.121549612726074549e-02
-1.668897404159325887e-02
-1.377291609005759122e-02
-8.150915703660385064e-03
-3.933947197467446179e-03
1.530441039044267175e-03
6.973794027351970688e-03
5.215391193678883472e-03
-1.895133482018486340e-03
-4.406585795086582699e-03
1.986412430595132800e-03
8.757018358358363910e-03
4.822916543714485553e-04
-1.450039953466689298e-02
-1.768603838035669173e-02
-6.200278597156529126e-03
1.039743458729599362e-02
2.262182408746687273e-02
2.518443614969905278e-02
2.142995819065855040e-02
1.755970178555468428e-02
1.625496000383864353e-02
1.015643841848157085e-02
-7.714817494269063727e-03
-3.292743547007677407e-02
-5.326624761816844272e-02
-5.817293375114133969e-02
-4.820783250155256938e-02
-3.003990215421545665e-02
-2.915118498621696412e-03
3.059648162467688837e-02
6.773230155601295266e-02
9.142782452228158385e-02
7.026792541809599724e-02
1.079167093330535981e-02
-3.365648270695855565e-02
-3.141324856414839245e-02
-1.426294166922633874e-02
-1.222991601775656051e-02
-1.797246763155642760e-02
-2.518777792437392957e-02
-2.827104693291725840e-02
-1.771544555072295662e-02
1.889033944425127327e-03
1.383321571683294657e-02
1.429490757483924471e-02
8.652801686488523908e-03
3.830629644952824979e-03
4.763054379989720317e-03
8.424807985681126432e-03
1.190469016490000413e-02
1.377457064714044874e-02
1.378794733241622827e-02
1.121470236019330921e-02
4.250897548022954282e-03
-9.345545078857042665e-03
-2.185267775464183604e-02
-2.914107680742289777e-02
-3.111614179014571269e-02
-1.797943308649100486e-02
-2.432233082408300461e-03
7.465416295829676620e-03
1.910086038115061183e-02
2.216332998041638247e-02
1.302511751058760790e-02
4.477821675758900978e-03
1.143541972133726254e-03
-3.133382468596387048e-03
-3.471202890592732862e-03
6.439722680676469337e-03
1.908823592833067129e-02
2.201081512778261390e-02
1.629158787089512615e-03
-2.498401239404760693e-02
-3.265952174423916027e-02
-1.679256910579752030e-02
2.252296878921423474e-03
4.177374190350431789e-03
-3.778932195323159160e-03
-7.598316102379788599e-03
-5.307590793805564951e-04
9.872320245835952690e-03
1.715346868505502123e-02
1.227175593177936772e-02
2.662787919736169830e-03
-5.012801138684907197e-03
-2.738634933062830332e-03
2.223576638527009156e-03
-1.995865492747593605e-07
-6.329694281050174745e-03
-5.304472756185969057e-03
-1.646950622244608810e-03
1.135700226263075237e-03
1.436092366399026874e-04
5.626530928359777103e-04
1.627647939928502296e-03
3.794979843382556908e-03
2.640342217763665122e-03
3.813834870386749974e-03
-9.147289677824984146e-04
-6.645657983481324284e-03
-7.555528462595325484e-03
-2.542553079020875694e-03
8.047581831350625976e-04
1.005585111389381255e-03
3.292917307887785385e-03
2.518334850333661234e-03
2.525900721859738844e-03
1.250552157887198747e-04
-4.079485554956120870e-03
-5.691062647934427669e-03
-5.983847391503325022e-03
-2.596287869106494312e-03
7.875035639450808991e-03
1.675517244656441612e-02
2.084385751770496953e-02
1.662673446974888627e-02
1.357087562659594791e-03
-1.609380086597120979e-02
-2.315367475896799865e-02
-2.154073631304376929e-02
-2.084624790248423148e-02
-1.564684272388042890e-02
-1.535851148377347488e-03
1.478825318792316608e-02
1.656715688531951863e-02
1.129077694711374570e-02
1.511219941970329793e-02
1.788925297001670023e-02
8.355313604766410190e-03
-3.600955075280807931e-03
-5.083016859192608650e-03
3.809840765281978948e-03
1.168298420335734007e-02
7.008335002593479336e-03
-1.346022091364485959e-02
-3.368327901287462844e-02
-4.167149672984710868e-02
-3.787915771977500706e-02
-1.614423511212319945e-02
2.087483391139162425e-02
4.823824823490755614e-02
4.371378757513501301e-02
2.040074914255242747e-02
3.822527593828798677e-03
2.165746515983759703e-03
1.863090482983171007e-03
-2.480856495401524524e-03
-7.452422336769446744e-03
-1.056467886432850035e-02
-1.572111184185640345e-02
-2.220378323254080036e-02
-2.068863212814810171e-02
-9.411085804671173033e-03
7.663652064623838363e-03
1.777895671820572954e-02
1.432451619351609792e-02
6.583475652560100665e-03
2.929159132982763446e-03
1.652930028495505589e-03
-5.039802125645600388e-04
-6.072152797111630106e-03
-8.163763299001217111e-03
-6.651625144219025162e-03
-2.068230248281404879e-03
1.495117871415927715e-03
5.241656981918346898e-03
2.025430186835273580e-02
3.744887430469649725e-02
2.805181453949722251e-02
-4.494441119136170608e-03
-2.617911401835826268e-02
-2.656095364925471075e-02
-2.179466750385088136e-02
-2.562314759627375149e-02
-3.213433868178494635e-02
-2.767847002230674688e-02
-7.073450923566509084e-03
2.192663582796909594e-02
3.873285112432181543e-02
3.687917578198002949e-02
3.008280590722695394e-02
1.879804471324816179e-02
5.157314044441888186e-03
-5.040112029232063189e-03
-9.632431326726559329e-03
-1.174183698311464380e-02
-8.903028043866825433e-03
-1.072301180571096600e-02
-1.046137511167624309e-02
-2.850099985615850255e-03
5.252049682731184908e-03
3.574826637297356079e-03
-4.311046937675300054e-03
-1.426890721308104147e-02
-1.733112030283999461e-02
-1.772179165184198033e-02
-1.579114105411292407e-02
-7.284701369271331592e-03
1.814928625050637317e-02
5.419034588223350934e-02
6.286636793120688183e-02
2.718237255284302462e-02
-1.210651342632969307e-02
-2.956934721230469743e-02
-2.865562934358679634e-02
-2.350869923204604653e-02
-1.833985250031990727e-02
-7.713842232581840340e-03
-2.478142821814180961e-03
7.553073137929006099e-04
1.139789516462661042e-03
-1.230912280078782020e-03
1.663373974806818187e-02
3.453487548120118267e-02
1.653687804290832758e-02
-1.488349274377776324e-02
-2.217502649530571010e-02
-7.795234660369946937e-03
5.019867588028653453e-03
4.762297849896975251e-03
4.780194919087016325e-03
7.426437276624816078e-03
4.827545968635352409e-03
-6.460685644593332569e-03
-1.537629473004706315e-02
-1.358890267635399704e-02
-4.958877695240581675e-03
-2.028583530201845571e-03
6.752615995543486847e-04
1.213941830359474908e-02
1.632330451286518117e-02
1.167425435130824835e-02
3.496294414905416932e-03
-1.845855176699842020e-03
-3.481968797357026107e-03
-3.128412566116174458e-03
-2.331666135908294635e-03
-1.696186674188855268e-03
-3.013585637399949276e-03
-8.801196671890281972e-03
-1.513137097019450449e-02
-1.652017232094802821e-02
-8.990274925334638262e-03
5.183360362310003751e-03
1.730309883198168780e-02
2.535348758120055737e-02
2.773188220196051018e-02
1.729025140872175736e-02
-8.109782347492821468e-04
-1.565563822697817534e-02
-2.139102547353228384e-02
-2.423139517637171517e-02
-2.062326968013459411e-02
-3.796461427614273958e-03
1.854090594313515319e-02
2.618708006655100576e-02
1.543719328781440435e-02
1.523298685298411738e-03
-4.273476585257895109e-03
-2.861463484119270567e-03
-7.337050131636792087e-03
-1.994427552569150858e-02
-2.628062812904267964e-02
-1.758294150888936938e-02
2.239492601808986370e-03
2.055569023426397079e-02
2.805031630539936774e-02
2.725492263494793191e-02
1.651976015525529959e-02
-5.223791137760398122e-04
-7.923513661217808021e-03
-4.253516362972507674e-03
1.699945530586558428e-03
-9.499927232272162682e-04
-7.458672277826729246e-04
2.571182796568636554e-03
-9.243556726368028220e-03
-3.020393814449928716e-02
-4.703277955472830868e-02
-4.589270954281394338e-02
-1.730027899253022000e-02
3.024959142899878370e-02
6.306070648818974667e-02
5.712620688403161756e-02
3.166008221302320930e-02
7.561653386489967411e-03
-8.609809981604071849e-03
-1.821936757340023375e-02
-2.580404905588751935e-02
-2.592069667537410388e-02
-1.989945482690512468e-02
-4.521837956738039392e-03
1.915537237884694377e-02
3.727948354511070872e-02
2.917471512877706924e-02
4.137834498708528423e-03
-1.456158565001673504e-02
-2.445158982944611870e-02
-2.919443133332413204e-02
-3.186745658971105316e-02
-2.917248483745777873e-02
-1.633957833558173645e-02
7.193609108379226715e-03
3.712927455434156948e-02
5.144743546902381254e-02
3.920476824708218899e-02
9.049434887374460668e-03
-1.338872451956476389e-02
-1.754458318682523485e-02
-1.004435294692766940e-02
-4.770517550400280200e-03
-2.241227487137890072e-03
-2.862927641670012617e-03
-2.940932432014675170e-03
-1.522958863614750117e-04
5.210944557533313910e-04
-6.803917983923157180e-04
-2.555154555882261681e-03
-7.957525081898759707e-04
-1.260248343467240814e-03
-1.049667878643490869e-03
-5.656461151464344320e-04
1.366612307550612269e-03
-1.818390394682033390e-03
-4.754221082630393294e-03
-5.720069759945055170e-03
-3.909034148658434120e-03
2.508342039755330965e-04
5.691517594816017725e-03
9.928630927950867976e-03
1.240817701110765239e-02
1.053466299450531163e-02
5.928059107419180601e-03
7.689302293384952689e-04
-2.645996382906324121e-03
-2.039570083323856593e-03
-3.527414488246482290e-03
-8.781832604943612397e-03
-1.196367905662695102e-02
-1.023929771392773427e-02
-5.147403580114823414e-03
-5.902254149884760454e-06
-1.596835477190181258e-03
-4.919525526388673214e-03
-2.056255337435507376e-03
2.704147410037735164e-03
1.238065310033883634e-02
2.263757839461513419e-02
2.147013077155278046e-02
7.817573906005513204e-03
-4.158897933341247112e-03
-7.190718654709520562e-03
-1.049942897145820543e-02
-1.094121013896857952e-02
-1.084529195735781625e-02
-7.780735693057987297e-03
-7.522942681735097538e-03
-1.246046586648484611e-02
-1.214486914502474306e-02
3.570840291980902602e-03
1.903074976697968768e-02
1.854360552169219065e-02
6.354844074708707220e-03
-9.938600648618453343e-04
2.443911975055619579e-03
1.660274430671949963e-02
2.519673498807203926e-02
1.786826001171235717e-02
2.887733037633546202e-04
-1.389329971803349682e-02
-2.193883732633581524e-02
-3.000407418284024505e-02
-3.572668695623549412e-02
-3.707035697390338724e-02
-1.860387121256356496e-02
1.841167635818651005e-02
3.172028144887608508e-02
1.431773235754091496e-02
6.596593755226206430e-04
1.840251769367624163e-02
4.305400092198724549e-02
3.976642066726007035e-02
1.414890207869038893e-02
-1.335158125213339181e-02
-3.244640004578482756e-02
-3.747653375326955028e-02
-2.859812475241756483e-02
-1.571962679019819550e-02
-6.731955870892240672e-03
2.419942968445107541e-03
1.690442875974102616e-02
3.155398334671210420e-02
2.704327366169140268e-02
-6.684927649844982960e-04
-1.989479545141069339e-02
-2.105472792301013932e-02
-1.087523553085503920e-02
1.340947337286312697e-03
9.205911540479040645e-03
1.336348579154003624e-02
8.210617416044722894e-03
-4.040663215350875264e-04
-3.114558533451255301e-03
5.334966625088153995e-03
8.852051364321697480e-03
-3.602627269470143855e-03
-1.512339564200118613e-02
-1.641097385165612987e-02
-8.826881519451037703e-03
-1.500242090481552744e-03
-1.421616252027947018e-03
-6.896755352525945140e-03
-1.613369952621337847e-03
1.573935689281329153e-02
2.687832089630645682e-02
2.519736156673961849e-02
8.135881806217720377e-03
-7.861306173243938489e-03
-1.418549313129537082e-02
-8.976449758938045281e-03
-6.866851564316634425e-03
-9.206248684352489817e-03
-1.182460967385346763e-02
-8.833114162345495970e-03
1.892487643429341697e-03
1.551350174550780725e-02
1.931559682229797362e-02
1.315792787162364808e-02
8.254487803567731041e-03
8.256601151136588185e-03
1.016056419599553227e-03
-1.822113259795606413e-02
-4.193611691051642859e-02
-5.721738832226396648e-02
-5.005710977790791411e-02
-1.286435074441054371e-02
4.511375236588528737e-02
8.386003495130824048e-02
7.328831953687343914e-02
3.762340085110340432e-02
9.011786417375912406e-03
-7.851390641665408066e-03
-1.843790289247430880e-02
-2.703721980382338408e-02
-3.333963760937685983e-02
-3.833296181747031239e-02
-3.815825345997229251e-02
-2.500395300610654820e-02
-8.162020704189074105e-03
2.432459513639980038e-03
1.234130831779591680e-02
2.640499239984204702e-02
4.198400741224227878e-02
4.052674220135153021e-02
2.172104482057330560e-02
3.176423491717026738e-03
-6.124662205124131557e-03
-1.405104386579291223e-02
-2.164856880818599033e-02
-2.143498877987234930e-02
-1.538121584636107514e-02
-1.061979253209312940e-02
-5.548210581295016063e-03
-8.131377254486416061e-04
5.110792452359469613e-03
9.197398006906661733e-03
1.362283110598277655e-02
1.293687208779867662e-02
1.007605933724159582e-02
6.898943537222405713e-03
2.813253792713891858e-03
-1.252257789279535719e-03
-6.502824524388874268e-03
-1.520185484102620083e-02
-2.837712128923882554e-02
-2.964419371296966171e-02
-7.641971713916009649e-03
2.641143807808999863e-02
4.236835481159755001e-02
3.203363160547410132e-02
7.784149011789595098e-03
-1.192822909430348369e-02
-1.737246233846933066e-02
-1.744767138257927869e-02
-1.632726185766077837e-02
-1.070541752671425734e-02
-4.289510396675661787e-03
2.270171815203370601e-03
1.076531084056922723e-02
1.626889710423246038e-02
1.537042669686286903e-02
8.920921916371985297e-03
4.324717229575634168e-03
7.457436947560651700e-04
-5.998866587119441873e-03
-1.015146910333088008e-02
-1.095582320767165933e-02
-1.081857464025518661e-02
-1.393237102359138301e-02
-8.884903547950562946e-03
-1.169643771019323849e-03
3.125579635411514061e-03
5.234279544120571184e-03
1.277624339119834591e-02
1.578322800095065606e-02
1.033719807838023169e-02
6.193728934695275946e-03
4.962880136336254161e-03
6.374182298105737950e-03
3.104739403564892031e-03
-3.789708505992102090e-03
-9.125092185721115148e-03
-1.226482697320105397e-02
-1.359282758291000676e-02
-1.801172207259467070e-02
-1.998639503793153693e-02
-1.194215886868792327e-02
6.412805196582356017e-03
2.165831837522618625e-02
2.754376103301721043e-02
2.557642995867092511e-02
8.067292623749826308e-03
-1.029297076659839091e-02
-1.654628326998329457e-02
-1.472292313578772369e-02
-1.164475393491908387e-02
-2.268850177349963047e-03
1.475730681549248038e-02
2.306776904298497161e-02
1.834399275456383843e-02
4.667942856820097956e-03
-1.003899872316142347e-02
-1.872766839194543731e-02
-1.596742605901459167e-02
-5.257521082309914336e-03
-1.310047958946069417e-03
-9.757697549423058336e-03
-1.282079530663106891e-02
-3.199561386328164409e-03
8.577811049129586973e-03
1.091186717284231208e-02
6.361947381306233724e-03
-3.793196786994961801e-03
-9.049744362091606889e-03
1.911515216643556959e-03
2.061719564990173795e-02
2.902449210399596705e-02
2.394774975705015949e-02
1.876045097580808854e-02
1.398067132607328303e-02
-2.837228424360960233e-03
-2.607991344643816045e-02
-4.118479091899510114e-02
-4.291491446477751354e-02
-3.991706036459193724e-02
-3.198638072294312379e-02
-1.512373137258749348e-02
1.384588958884062915e-02
4.959062089605023593e-02
5.685105390597254560e-02
3.020197861557338825e-02
7.590674364085643090e-03
4.281429664704593891e-04
-9.243414909403973494e-04
-4.562295984139445350e-03
-6.486090155068481404e-03
-4.302552800239383725e-03
-3.291288047969537049e-03
-7.516994851614298111e-03
-1.018039679751041662e-02
-7.625361149208643476e-03
-5.418026761742330936e-03
-6.276959095087276085e-03
-5.488957706662393569e-03
-3.270970529982552416e-03
1.015084441684830583e-04
-6.066586734476514227e-04
1.018140137944493128e-03
3.479890146111839881e-03
2.532215380968328051e-03
-3.508578093225324206e-03
1.623088311655305474e-03
1.382238768212974006e-02
2.157034205279340436e-02
1.523705424283241031e-02
-4.032784983474632006e-04
-4.175828617772272926e-03
1.536867118687750737e-03
7.377521431275075063e-04
-7.775520630812595042e-03
-1.984501694529335059e-02
-2.196242984564416439e-02
-1.337741754613271973e-02
-3.494876304535289406e-03
6.894340783562454174e-03
1.889444642865999863e-02
2.588185380967622518e-02
1.730853561891450981e-02
-6.355490279346144404e-03
-2.859685557372282014e-02
-3.655332042862561442e-02
-2.178774766868449980e-02
9.473554247871475431e-03
3.495217056161920716e-02
3.720680645175627327e-02
2.178063760616164718e-02
5.907058539130719856e-03
-7.577810497367674751e-03
-1.496206376279583458e-02
-1.820231335137029172e-02
-1.758016670446957419e-02
-1.382246876751215721e-02
-6.411760744529972252e-03
3.062227901280648902e-03
9.070900456353401045e-03
1.435029231745570989e-02
1.768831589662912124e-02
5.832063126883343419e-03
-8.216139457619144743e-03
-1.159827150307964072e-02
-7.012828912772046779e-03
2.390872445703530122e-03
2.940134546330932814e-03
-1.182210830224726152e-03
-2.437966995605380435e-03
1.363921532179936330e-03
1.415728967375928056e-03
-4.547864340892877714e-03
-8.289177468006808658e-03
-6.332900940991432158e-03
-2.413534815776417937e-03
1.980576275244386696e-03
1.187794800477908093e-02
2.463613702861262855e-02
2.979826097185640094e-02
2.345294188768328597e-02
6.579968644412968574e-03
-1.522502810279834085e-02
-2.912562135086671847e-02
-3.409026042754275537e-02
-3.446617514825815742e-02
-3.478828489592741824e-02
-2.926428214747609988e-02
-8.518620229490587309e-03
2.373195846383837487e-02
5.001877098001716176e-02
5.784216503901983691e-02
4.665326991263760853e-02
2.234145605834025883e-02
-3.529248650510150541e-03
-1.812576339945342480e-02
-2.455653645757991527e-02
-2.611497932388342699e-02
-2.639315408724113646e-02
-2.161971647398709673e-02
-1.391349470013340459e-02
-6.849192613196319716e-03
2.931702529692805682e-03
1.487395177969156809e-02
2.387895290282155553e-02
1.967297139504387352e-02
7.386504011073801064e-03
-2.531464091864987602e-03
-9.124458099295108815e-03
-1.131951039420854739e-02
-3.044013431748110714e-03
1.777552262693007923e-02
2.862124131574618133e-02
6.654856213919869458e-03
-2.534166874876595324e-02
-3.252280516564427792e-02
-1.588174094681468057e-02
2.684458927184996775e-04
5.374709181371543736e-03
7.828082140219131541e-03
7.948104973683584387e-03
5.298322711890795719e-03
5.849953928117075999e-03
3.970837886892174783e-03
-1.250230830064819791e-03
1.931975217300348777e-03
7.710758150702507613e-03
7.840382201803913764e-03
-8.785809471856870960e-04
-1.109696182959883648e-02
-1.284348927878925690e-02
-8.167765242320945002e-03
-5.035754890683236291e-03
-4.669500413980808874e-03
-9.033587581388637794e-03
-1.047410394855134534e-02
-1.502921449802959364e-03
1.831688464381234921e-02
2.449902041163841068e-02
1.370208047280539916e-02
6.315863684335743140e-03
6.180337873003142156e-03
3.647367330454504356e-03
-4.445204652622310919e-04
2.179633803871555036e-04
1.428125822670729640e-03
-8.157471299374234944e-03
-1.983518197699868368e-02
-2.253799014541214146e-02
-2.098625598950133730e-02
-1.707628819182250082e-02
-1.432022919125481610e-02
-2.307749012351571587e-03
1.991690045374396728e-02
4.229560689285313813e-02
4.204951822208016776e-02
2.012848040593278459e-02
7.471623975909669852e-04
-3.701664815757018702e-03
-4.223610770598793147e-03
-9.101405549592224073e-03
-1.379172511549277107e-02
-1.401689307064403998e-02
-1.687823362576797853e-02
-2.268141015857814621e-02
-1.943798377410586170e-02
-3.776457230827464338e-03
1.598930671391117150e-02
1.922402391974617833e-02
1.108863583131949535e-02
6.030357209357221741e-03
6.699080615073159557e-03
2.551483608609169361e-03
-1.093785845134250499e-02
-1.794247158342716919e-02
-3.343138648802044047e-03
2.011583983553067931e-02
3.304783748659999992e-02
2.882312742630646976e-02
1.497007356784892107e-02
-5.196604124380654931e-04
-1.326911485708451820e-02
-2.155650394454380891e-02
-2.597239058191314412e-02
-3.259662675933371057e-02
-3.620330714585577592e-02
-3.613933854514286143e-02
-2.674054758208911295e-02
-7.361095742738833119e-04
4.275762978123856528e-02
7.116518272029700998e-02
6.203459042727207245e-02
2.893494592525474446e-02
-4.966781296666610522e-03
-2.216319479430166328e-02
-2.543919596075019246e-02
-2.075226255927074132e-02
-1.200754959199391153e-02
-1.325549297026852634e-03
5.653223777659769668e-03
5.598046975506742844e-03
-3.488161943735755598e-04
-5.024742740231303781e-03
-5.758969272998360096e-03
-3.904891271852089195e-03
-2.547009829630985257e-03
-2.842385390092043961e-03
-6.775856482550856284e-03
-7.715698361241691942e-03
-4.319055008735681912e-03
1.732849673380550603e-03
7.540499954743001658e-03
1.201268732945052001e-02
1.477702226004652328e-02
1.418074339807519867e-02
1.094397714256172688e-02
4.650496273606975241e-03
-1.362367012157319384e-03
-9.145383211775924906e-03
-1.360874870383484841e-02
-9.218377967412722668e-03
-1.073306309923656270e-02
-1.413150340208438674e-02
-1.201889874541530769e-02
-2.172985528071546234e-03
1.122933739242958952e-02
1.882425175288522656e-02
1.566496887625678722e-02
7.014392535243350012e-03
3.918217911275954750e-03
7.034975451302658174e-03
7.865889482624743162e-03
2.958655203720835479e-03
-1.294393173433966947e-02
-2.796885074542395863e-02
-2.118934561374634026e-02
-5.650659369680499471e-03
-6.019810265106970886e-04
-4.041982547069215836e-03
-2.501705956218945072e-03
1.092913576209576798e-02
2.849323450865466623e-02
2.286428742263792169e-02
1.912049986177406747e-03
-1.007214084472190380e-02
-8.691240511506655858e-03
-1.653324606805096257e-03
5.277365888893542981e-03
6.310708840038316628e-03
-3.866646970152298182e-04
-6.571942391261003519e-03
-8.407292795946966560e-03
-8.125531524502245528e-03
-5.018321576991871882e-03
1.669428555045436189e-03
3.737031461647605593e-03
-1.633128596621660896e-03
-4.406631771243858971e-03
1.354515952602612389e-03
3.593150809757303995e-03
-2.580431040224293732e-03
-1.124155958649745123e-02
-1.405824433773453924e-02
1.278829306766753012e-06
2.146480128627455131e-02
3.454254221513449602e-02
4.062747474591853203e-02
2.641647724941034031e-02
-1.562193515269908253e-02
-4.449535710880529737e-02
-4.054283207603137651e-02
-2.188870568336008168e-02
-7.499437799657836766e-03
-1.156966097452415869e-03
3.651482937783123890e-03
6.321540935868202871e-03
5.517114853972582798e-03
1.135159093834743615e-02
2.155929304656821824e-02
1.582903721552022733e-02
1.929583882535377095e-04
-1.052812205407048160e-02
-8.745627657478844547e-03
1.630769935185115557e-03
1.252893986187029671e-02
1.172936761366091818e-02
5.828225707999937352e-04
-6.733479696564126371e-03
-9.289888331400769292e-03
-1.404756971146860559e-02
-1.631601358784665057e-02
-1.454905026009758670e-02
-7.143752575147539578e-03
3.887447309694776372e-03
9.238618271684463645e-03
1.334812331767947988e-02
1.652631337450378296e-02
1.509132775517525900e-02
5.019327700733143029e-03
-4.786168021962464332e-03
-8.668894249574572719e-03
-7.724727404786030892e-03
-4.911574761435939622e-03
9.103000782870687311e-04
5.527077709047661762e-03
1.021352652045324355e-02
3.735947899416381095e-03
-1.246378243610315323e-02
-2.227897307668143256e-02
-1.843368555806832593e-02
-2.940542290325862292e-03
1.579490999281401437e-02
2.602092411483267892e-02
2.316367237195002607e-02
1.196104963004090624e-02
-9.599769556304782860e-05
-8.861508309085974408e-03
-1.596771732863060816e-02
-2.195209414524837768e-02
-2.411832422867973835e-02
-2.157545832261559271e-02
-1.173947206939345012e-02
1.071724439284349462e-02
2.912557102529190339e-02
3.775828557271417030e-02
3.235432738150886139e-02
1.286073583991934749e-02
-4.813339944973254840e-03
-1.151564955917842165e-02
-1.321948066810382794e-02
-1.467069331296299260e-02
-1.280131721468468799e-02
-9.680192043202553304e-03
-1.143361647776733325e-02
-1.405328918218969048e-02
-1.362812427177528124e-02
-3.768182452599153597e-03
1.185918927238815979e-02
2.026403167635535546e-02
1.543287722143271007e-02
5.019949882261912945e-03
3.465126173107500353e-03
9.405767884126087219e-03
1.560090198138185461e-02
1.627257597128599007e-02
1.430500086691208206e-02
1.212536523491842926e-02
1.827151717435386005e-03
-1.846030902569225501e-02
-3.812565112516787258e-02
-5.174793470034071141e-02
-4.901618748781716439e-02
-2.343658009135118903e-02
7.952406041594244079e-03
2.696109387354953674e-02
1.830691094994506968e-02
8.002978273908781942e-03
2.591347700831420076e-02
4.986049751096465615e-02
3.946933693929014636e-02
8.487713068348543000e-03
-7.852292515478042495e-03
-7.578704407711763132e-03
-8.653832590671891797e-03
-9.853463060215943148e-03
-1.283090216918957374e-02
-1.427852017654374084e-02
-1.686686227493322532e-02
-1.807245129882163737e-02
-1.763800913042582949e-02
-1.742134257459910726e-02
-1.668456419455225867e-02
-1.441972481076649049e-02
-2.377650336438460674e-03
2.175257474958930751e-02
3.673909803262490059e-02
3.926040617030922275e-02
3.120282693945208852e-02
2.437203181836232815e-02
1.501281467488885940e-02
5.651567146868722614e-03
-5.850433153744932953e-03
-1.953341268031932171e-02
-3.023294943905781990e-02
-3.317623609640980159e-02
-2.760521160852684452e-02
-2.224776834307824053e-02
-2.051354896197606428e-02
-1.639122397787487473e-02
-5.926355401348874612e-03
1.608944745765086837e-02
3.989260160541467648e-02
4.481756044008988749e-02
3.343688963064727487e-02
1.887288411043114983e-02
6.634897582061189021e-03
-2.540599364865484729e-05
-4.660471333928349613e-03
-6.139837610351868424e-03
-1.416572114851197273e-02
-1.916516059495435714e-02
-2.459656323929647337e-02
-2.464175149534566719e-02
-2.646796427428911580e-02
-1.910074960001293537e-02
-2.585088118870411920e-03
1.762926117160754785e-02
3.690514266639850771e-02
4.206798653511072822e-02
1.777560098196151461e-02
-1.445090778444350216e-02
-2.432542893360554320e-02
-1.385565048296271209e-02
6.568645609294668881e-04
9.369690145147479068e-03
1.272039302080184286e-02
1.350449502604836663e-02
1.582630398620246681e-02
1.734153871812958714e-02
8.220216332353681710e-03
-1.920740857213794686e-02
-4.279959030572252215e-02
-4.292476370758318421e-02
-2.014387186095394772e-02
5.710178253461606519e-03
1.917610993791551283e-02
2.242239143804052037e-02
2.423744432185119535e-02
1.040257163085764325e-02
-8.876425464173411800e-03
-1.882590032885521694e-02
-1.568541793065998668e-02
-1.686750908960535410e-03
1.234023861937500605e-02
1.931740630304661435e-02
1.225182933600106605e-02
2.698237887608091225e-03
-1.385670084953920559e-04
2.063306426712883338e-03
5.739807895761608316e-04
-6.177970321599590350e-03
-1.106015817033122531e-02
-1.118833220096795977e-02
-8.370057333847390896e-03
-4.670769025556805766e-03
9.460662283211879837e-04
4.986821005159341492e-03
1.098415729188297356e-03
-4.836661033392129251e-03
-1.427800774636606282e-03
4.405681829739097576e-03
7.256979300010004026e-03
8.560103389075953209e-03
6.357249626011893077e-03
1.549440342431739883e-03
-5.461550040815343204e-03
-8.972247611084487734e-03
-5.646526422230653238e-04
8.014080101822715005e-03
6.377824779823874565e-03
2.910051383819144306e-03
5.857587721275499433e-03
7.477729380859427129e-03
-9.919898398089912073e-04
-9.482346088323581959e-03
-1.578403255046208209e-02
-1.562305532136846684e-02
-7.087635302809967321e-03
-5.744443139413161689e-03
-1.200365337769827498e-02
-9.773102815281228470e-03
1.008371440097152174e-03
1.130633022368283469e-03
5.788779451168823628e-03
3.266259363911952485e-02
5.444195863606355462e-02
3.406859895940367311e-02
-1.402184498297347941e-03
-2.028528722892501343e-02
-2.086680185211545538e-02
-1.900022015499282929e-02
-1.571387815596467577e-02
-9.378948739088024955e-03
-3.461275370750540280e-03
-3.145590396838087756e-03
-7.546508938574605571e-03
-1.413872496641210320e-02
-1.175333660280300334e-02
-2.880729931151859886e-03
3.774474189759388643e-03
9.280371618505114245e-03
2.017085506634521547e-02
3.208939243674369807e-02
2.793778811947357846e-02
1.280954911772846927e-02
-2.637616051232550933e-03
-1.223831667264731020e-02
-1.475359916898251467e-02
-1.445481960931289944e-02
-1.407878655308452027e-02
-1.343367950025953564e-02
-1.045321686846661068e-02
-5.617584036508592275e-03
2.658385203271611911e-05
3.633825689907876303e-03
-1.135581168627536938e-03
-1.094465858754838919e-03
1.478432718380876670e-02
3.109001865745636417e-02
2.030662153772458053e-02
-6.683928498577944126e-03
-1.783863964860367413e-02
-1.029561183601641373e-02
2.461325181808713368e-03
1.198610552201344326e-02
1.351981569249799051e-02
8.150381839986904631e-03
4.361235425894184267e-03
3.250548225041939316e-03
-1.259256304618945436e-02
-4.352861615033027515e-02
-6.753313476924807657e-02
-6.280061196849258398e-02
-1.297049001243120309e-02
5.467533336766725038e-02
8.715975188263719309e-02
6.725065879275533842e-02
2.989862435736660717e-02
3.473875676608028686e-03
-8.386977653145694100e-03
-1.851523366061855538e-02
-2.290501646828694074e-02
-2.202737588169784155e-02
-2.093456184628211120e-02
-1.456901385196925081e-02
-6.803619207164861120e-03
-1.264821192099893675e-03
3.407823846992042403e-03
4.558801965753180030e-03
4.510897868377012482e-03
2.616223245607373835e-03
1.036458187465412418e-03
1.671043085211720803e-03
1.864574684959640792e-03
2.322138230485676184e-03
6.481959435213944555e-03
4.327204282019005664e-03
1.977450493878590322e-03
1.693727305293364930e-03
1.722788688078621478e-03
-1.717398222914908726e-03
-5.126847678699079057e-03
-5.651951918200293253e-03
-3.215568292676355619e-03
2.694382761874371257e-03
2.044945195010024024e-03
1.425624234808590225e-03
-5.479813945722887254e-05
8.348569265714129431e-04
3.977375950658568367e-03
3.471706260857789980e-03
1.066233142003308399e-03
-2.381415773816006505e-03
-6.901289633386504391e-03
-1.478311735924016379e-02
-1.623518552967504261e-02
-9.378873085678550436e-03
8.745278029942580092e-03
2.507811009574925296e-02
2.563763944973742118e-02
1.183986653942258223e-02
-1.945108202683380793e-03
-6.547181930864283232e-03
-7.449536614878980723e-03
-8.452386252084701304e-03
-1.029107055679717199e-02
-1.444503216638482086e-02
-1.199761672147785230e-02
-5.459963029421996926e-03
7.057696077397429145e-05
1.261540859614682965e-02
2.461536294633751010e-02
2.344860562915598162e-02
6.530200882831829236e-03
-6.939275066779922695e-03
-1.259074756156641772e-02
-1.096005565576222557e-02
-6.715169577744276030e-03
-3.153598391480045941e-03
-5.857086436883632632e-03
-6.359648151589290463e-03
4.732538497562576753e-03
2.156780913084489770e-02
2.243948359987087832e-02
-1.535552073205537530e-04
-2.027815089949810620e-02
-2.098453380124091008e-02
-1.200458503384831295e-02
-2.134991356981928538e-03
5.641111851473709117e-03
1.338403229845139090e-02
1.720318015845550760e-02
9.080618931617143175e-03
-2.992764961198940941e-03
-1.088875105834157843e-02
-1.046211367602953475e-02
-3.685879054141818611e-03
2.723115074630987932e-03
4.019193794278098919e-03
2.921256255602003651e-03
2.900452393581830733e-03
7.041606051485246138e-04
-2.807559641123600659e-03
-4.490212214909143802e-03
7.836448244373182262e-04
7.616209036568167418e-03
5.581874938986906148e-03
-1.389712620712050097e-03
-4.469691554039184785e-03
-3.506331486157557038e-03
-1.834378732081418930e-03
-1.391337488187551451e-03
-4.397514781375106915e-03
-7.561938641520673209e-03
-4.683333160972647999e-03
1.591320323549888721e-03
4.486067487816555212e-03
4.528696268793445424e-03
1.910805952659215849e-03
3.956491723827657882e-03
6.807017448968351488e-03
7.322275942999432498e-03
7.052436446685818143e-03
5.380523337669044538e-03
9.088643849404840066e-04
-7.304200817081386334e-03
-1.286047739144471382e-02
-1.238240522647371736e-02
-3.362532507179179404e-03
3.789700371754923733e-03
-1.277435430520401172e-03
-7.344835762099361995e-03
-9.122073640745416488e-05
1.272059242674116256e-02
6.419754132836633792e-03
-7.943414862434631726e-03
-8.330718212714317492e-03
-1.086397388965251211e-02
-9.871969301701331856e-03
1.126270433021202104e-02
3.431644806256955310e-02
3.398919198793828172e-02
9.947150565432803099e-03
-1.698582151443277233e-02
-3.014706309878711216e-02
-3.075412719770473716e-02
-2.599056876033098082e-02
-1.145037324252153391e-02
1.208158290270392593e-02
3.496768434236093709e-02
4.497490413531465836e-02
4.345405040204916580e-02
2.093772313345223721e-02
-1.552716324377086815e-02
-4.418699459545920999e-02
-5.251597690799653800e-02
-4.925756714034264933e-02
-4.214745811792763169e-02
-2.541962451998644804e-02
1.314052230456556891e-02
6.483853308954375116e-02
8.598690305919849675e-02
5.218973402976782860e-02
1.370905381799168710e-02
-7.225709402007506575e-03
-2.280958753459997462e-02
-3.446387958664964141e-02
-3.493530232662687279e-02
-2.580791323088562489e-02
-1.594868349970965382e-02
-8.368976971583386854e-03
6.969277285336161016e-04
1.781951910168772316e-02
3.176407490047029186e-02
3.056671101992565476e-02
1.571339199873402967e-02
-2.598739970775118362e-03
-1.813044786228590333e-02
-2.768759423939043396e-02
-2.578423282109210471e-02
-1.700953825990461285e-02
-6.885921102786340779e-03
-5.145139644296979663e-04
8.541916678195581383e-03
2.252084388492747724e-02
2.922033233585757603e-02
2.976269132748145946e-02
2.761426534984032927e-02
1.441465027128458788e-02
-7.101264677205873337e-03
-1.756585126887380555e-02
-1.770423762580366697e-02
-2.157259573063566652e-02
-2.890060150397075894e-02
-2.918446759131676504e-02
-1.708766846000335168e-02
4.652681583747338319e-03
2.474556329816080674e-02
2.071627909205910750e-02
-7.416113496596341524e-03
-2.940459586480630508e-02
-2.541241409171641347e-02
7.226598732594989756e-03
4.648935508281788059e-02
6.394167242681235430e-02
4.608477823867591222e-02
5.187755900399702337e-03
-2.618473932448615871e-02
-3.404881953849906578e-02
-2.509391463765267907e-02
-1.381867160226146404e-02
-9.825580498616794112e-03
-5.427066352155076288e-03
-6.472468519850795758e-04
7.579219749472052665e-04
-1.982588792943988654e-03
-6.507905960684476007e-03
-8.253221153098747043e-03
-1.077288378209101003e-03
1.249518982866236472e-02
2.155913675399898435e-02
2.313992625826895994e-02
1.424849378948066410e-02
3.321758833142955843e-03
-4.574499921564042192e-03
-8.346661829902365590e-03
-1.467564609404805112e-02
-1.877909020500710680e-02
-1.432049079809278105e-02
-8.818178462077995092e-03
-3.964180814470101046e-03
3.908251962582587162e-03
7.941961328367684592e-03
1.759583303839339433e-02
2.155125749485712477e-02
1.318317648686000328e-02
-2.732106086141285715e-03
-1.276462145978789556e-02
-1.390068976130119996e-02
-1.063807360934973176e-02
-8.265845165046362825e-03
2.705084118609331519e-03
1.007809522017905773e-02
9.729504590778344578e-03
6.223814047485363120e-03
4.580255531714806823e-03
3.109599747952363456e-03
2.579735240002764725e-03
-1.402474525259783710e-03
-1.044588333221295809e-02
-1.497421513013275259e-02
-1.573570338086171388e-02
-6.713582108941061090e-03
4.268682618852179776e-03
5.912496496445584886e-03
3.113908895808697053e-03
6.419189863927694632e-03
1.018983177296075085e-02
4.491872583862682212e-03
1.943546093419587810e-03
5.667248950787603760e-03
7.613230346164392634e-03
1.076309934125403668e-03
-3.882970440460219858e-03
-5.909856583811069590e-03
-5.783085051692565468e-03
-3.352909334358291325e-03
-2.569991490604728486e-03
-1.087311206962281347e-02
-1.767687884745802393e-02
-1.528517668405940735e-02
-8.669981825028698352e-03
9.841637342255247015e-03
3.094707529494111764e-02
3.796675819140344493e-02
2.011030569330637258e-02
-1.028041665984908565e-02
-2.306179276020212804e-02
-4.449630649254686897e-03
1.920179551932204090e-02
2.003163653514004189e-02
1.201090052573623767e-03
-1.711831570625174659e-02
-2.625839973632795865e-02
-3.423018949562098984e-02
-3.963131985946424102e-02
-3.257638699307534996e-02
-5.253747388972807540e-03
3.460649998206947325e-02
6.109355992487384285e-02
5.021479798551043566e-02
1.678890620148667384e-02
-2.661240497366954526e-03
-8.808846992622479388e-03
-7.160534561934475163e-03
-6.963361909306556644e-03
-1.339175766520937089e-02
-1.515510116569152542e-02
-8.423403770368605159e-03
-4.736206104506270574e-03
-4.585592288030596216e-03
-2.593230861527447660e-03
2.423221997871756288e-03
5.159243432988615437e-03
1.597668036151843459e-03
-1.236812567940956962e-03
-4.059749469834102696e-03
1.137448776964906363e-03
1.093051972759539504e-02
1.136301556065544630e-02
5.704483441675880541e-03
-6.666364344541645575e-04
-7.290519438754976440e-03
-1.588622241133091917e-02
-2.089739661494900355e-02
-1.422874689990797845e-02
3.303184854214497555e-03
2.318480238830959370e-02
3.042337987619241069e-02
2.338674637579383347e-02
1.274644568663450654e-02
6.087414936531890426e-03
-1.522944180907604252e-03
-8.274044515648967466e-03
-1.457855608498705331e-02
-2.380320052674100850e-02
-3.156369288721997540e-02
-2.876556162426480850e-02
-1.335686325836277569e-02
3.396109089941216387e-03
8.778837119642359660e-03
6.745101401128899068e-03
1.405677049638107481e-02
2.835041280971268424e-02
2.932123504404106351e-02
1.730339972347337898e-02
4.866381641409932464e-03
-1.950755187898711761e-03
-6.523329608461247119e-03
-8.494187655226892106e-03
-1.137358446243346560e-02
-1.808400683489053834e-02
-1.841999678591879630e-02
-1.130344127096946649e-02
-3.394520663848438723e-03
7.396772280284819902e-03
1.757073641134167946e-02
1.986901403602694960e-02
1.700622783075817976e-02
1.419279165554029019e-02
-2.226919499960076758e-03
-2.937367822384930049e-02
-4.295202875054061897e-02
-3.372605803563122340e-02
-1.333194716857611511e-02
1.377677133227588058e-02
4.068885583605683781e-02
4.671752307278265876e-02
2.697997863805389265e-02
1.846097299655240177e-03
-1.022301882821474717e-02
-1.280649200476360536e-02
-1.395914314985469140e-02
-1.566120408086715821e-02
-9.678551663613421674e-03
-1.043336270766910589e-03
4.166667127490727811e-03
6.007084906730562369e-03
9.057399951987718306e-04
-1.553406168593727751e-03
-4.115524034696427767e-03
-1.026475403298917483e-02
-1.248369751613779589e-02
-2.182426619569648955e-03
1.686198501244789982e-02
2.376403469774491725e-02
1.729517364145891078e-02
1.688929503708340050e-03
-1.412019716470351918e-02
-1.466006497647611567e-02
-5.528838383049111856e-03
6.757199026190601095e-03
1.187642314215553267e-02
8.988371514628983733e-03
3.539982069857152726e-03
-5.694938721730226881e-03
-1.623278513811165710e-02
-2.187704525921548016e-02
-1.913004926194147165e-02
-1.132251737765223656e-02
-8.483606034542765005e-04
1.432315234455660072e-02
2.734808672872014734e-02
2.569033058348606235e-02
8.194256021320470151e-03
-3.326384910138475808e-03
-5.287318585487661877e-03
-8.800751261489333328e-04
2.385153666475724969e-03
8.569409526976438235e-03
1.028790096882562476e-02
-2.568235640450882741e-03
-2.129382157313211565e-02
-2.567540084654628546e-02
-1.205524757494412860e-02
-5.841499954134553481e-03
-1.085607433024319765e-02
-9.962995899968067615e-03
-6.463971079423408818e-04
1.304660574597119732e-02
2.367913851259901767e-02
2.421235377454622473e-02
1.393597838816605303e-02
6.088718098795999935e-03
9.397506195698965628e-03
9.781578026303180962e-03
-4.795637008038669937e-04
-1.050787554012677302e-02
-1.093473467542546360e-02
-1.294152171220690900e-02
-1.481555306114068840e-02
-1.490146096033738606e-02
-1.662952735596243820e-02
-1.814522880018357501e-02
-1.553172261367456557e-02
-5.737877162434103229e-03
1.231739786901847773e-02
3.389078401963512011e-02
4.593743774913945643e-02
2.586240620677740173e-02
-1.731816083565824354e-03
-4.870239435244463032e-03
1.293090485585223284e-02
1.146882814305823575e-02
-1.821169006279776612e-02
-3.806754605758087134e-02
-3.077370769628225144e-02
-9.616562399790647142e-03
1.968030472332783949e-03
2.441275568015498047e-03
1.778569239753320088e-03
3.906418817675681547e-03
5.613392580992800779e-03
4.461053140033378536e-03
2.574746322877242456e-03
-7.024373753943521969e-04
-1.045885014584973073e-03
6.412830082611124978e-03
1.624522713874039515e-02
1.577901021647195104e-02
1.586212693822451570e-03
-5.546614123522778002e-03
1.905639766238306462e-04
8.438564911906743654e-03
9.333142934323071169e-03
2.538220361529828096e-03
-8.370985938775941590e-03
-2.443008448643829017e-02
-3.296272075060278917e-02
-2.604342356964647193e-02
-1.943354672016965601e-02
-2.087440452151045206e-02
-1.929775695977749631e-02
7.033130292841496996e-03
5.674530019819366139e-02
7.997591327103346914e-02
5.661339931658691815e-02
1.642376551374754440e-02
-1.099157575706156270e-02
-2.576680241965436866e-02
-2.949914037848151011e-02
-2.504490944078333753e-02
-2.165711022455046875e-02
-1.739636551201931627e-02
-1.283489719580190383e-02
-1.088998135135592002e-02
-5.228181464576315933e-03
7.996556643497355161e-04
6.188856056908740265e-03
8.894055335803169662e-03
1.678430801806006512e-02
2.259069629943422433e-02
1.731305181956401332e-02
7.146787750891830417e-03
9.712840096892425652e-04
-9.294744639909417088e-04
7.346756748115025083e-03
1.980178370996851789e-02
1.628330993884458469e-02
-4.368299360893854698e-03
-3.359576568237267885e-02
-5.813669989509273606e-02
-6.047241277421710332e-02
-3.195935551347490328e-02
6.999037882228478259e-03
2.353754397571878113e-02
2.125017033826774940e-02
2.532788057218963648e-02
4.832292720911150058e-02
5.989642818819255338e-02
3.440415832217597752e-02
-7.594758421387597623e-03
-3.502147597499109116e-02
-3.476977617254351643e-02
-1.775985779849174537e-02
-5.764619730174467237e-03
-3.438506729644841102e-03
-6.365303271940537903e-03
-6.521769937035958552e-03
-4.617794421331399175e-03
-2.153076155166599483e-03
-1.722973508955374629e-03
-1.534324842981946288e-03
2.289402556907440146e-03
8.211192279866819793e-03
1.459727070495267856e-02
1.221640335193364436e-02
-2.355825396119645525e-03
-1.409304443507149868e-02
-1.181560320953805275e-02
-5.297873364927429239e-03
-1.328059552553224453e-03
7.016585101040703895e-04
7.868087214518024175e-03
1.494055258247276897e-02
1.734910315014803403e-02
1.088473858524918389e-02
4.105946061158989189e-04
-6.525109474365590502e-03
-3.629019254731078066e-03
2.725097870982059155e-03
6.346493352681592190e-03
-2.667579710749786283e-04
-1.338806828760944791e-02
-2.399141522346846800e-02
-2.491137665586829614e-02
-1.618130154234377616e-02
-4.586495562626778828e-03
1.004822578143130946e-02
2.094348291916551738e-02
2.287628756282998957e-02
1.458798862116464715e-02
-2.467882674045385714e-03
-1.606398605320529319e-02
-1.389977032517952620e-02
-2.384038835288487465e-03
1.243013915195682884e-02
2.179103675666993825e-02
1.379385728131578628e-02
-6.618562535972201226e-03
-7.567185768823491560e-03
1.409472601479590421e-02
2.518142538968242555e-02
4.120457437492749606e-03
-2.391952746849905151e-02
-3.598019367923172007e-02
-2.960207192951139210e-02
-1.930383298513937626e-02
-1.217078068277918645e-02
-3.293024601237481107e-03
1.642583506066114946e-02
3.078595469799809067e-02
2.663781089058303575e-02
1.658735135000474412e-02
9.523635343981401435e-03
1.145345516791262215e-03
-8.493648673769893520e-03
-1.406358971243477744e-02
-1.196603993948501879e-02
1.385531303544671291e-04
6.867188600768940436e-03
5.189494412314530833e-03
9.321876490742353428e-04
-6.772365574456143920e-03
-7.623592918289393526e-03
-6.086056788120622861e-03
-5.365205576939743870e-03
-3.442184651383294568e-03
-2.235658276526941712e-03
1.698183611822310886e-04
3.407170434721837251e-03
4.659943250682147507e-03
3.378721174767158539e-03
4.473625124868245255e-03
6.404142157016853333e-03
4.989925719266416482e-03
5.313870603101320672e-03
7.232782121821344778e-03
5.846457945199833549e-03
-3.604268593682727426e-03
-1.076596790812159310e-02
-1.319558253753300159e-02
-7.035438567555848434e-03
-1.038525131173916776e-03
4.650083592769255723e-03
1.102014103606158840e-02
4.631063575922546131e-03
-1.279139167580628164e-02
-2.528066383091409630e-02
-1.836053019600692934e-02
5.982278027856458187e-03
1.737345136882710583e-02
1.150081169035370790e-02
3.071887887414853115e-03
7.637664582076408512e-03
1.365628651054497794e-02
1.056504881418891123e-02
6.484252108910161516e-03
-1.519040229926639128e-04
-9.132742859247188275e-03
-1.295530414090419538e-02
-8.548907706966235240e-03
7.655845413680827756e-04
5.602003267131527332e-03
4.717097943137747544e-03
-9.283004514104264667e-04
-9.839934129058900553e-03
-1.693779366638873893e-02
-1.630835816926264406e-02
-4.726845405382650543e-03
3.674286101551508220e-03
4.846022413551647964e-03
4.642061130802573043e-03
5.515514077717296147e-03
6.951752053838260517e-03
8.195823597609877900e-03
5.037236918712534491e-03
7.661740801646047504e-03
1.578937887078647739e-02
2.266302682957292008e-02
2.026831971595721704e-02
1.036118730226527271e-02
1.463282894907151415e-03
-8.636757304839651900e-03
-3.207703880176374089e-02
-5.304777696871329495e-02
-6.455254064969172256e-02
-6.231486544514457104e-02
-3.520229374011354245e-02
1.838575708638379852e-02
6.984133145607143711e-02
7.674498789495218243e-02
5.877878307798255209e-02
4.304878828870024182e-02
1.751631156008297968e-02
-1.437067572425646672e-02
-2.968027057501201535e-02
-2.394062318967938793e-02
-1.397770306469016746e-02
-1.023185671689078036e-02
-7.846298311495893130e-03
-5.839935239295753443e-03
-5.997629819865095933e-03
-2.923480598292705311e-03
-3.405793074927590015e-03
-1.146483583968337626e-02
-2.379076901316893450e-02
-2.946868448161883008e-02
-2.634752821023410990e-02
-2.781618923301263160e-03
3.698376552845441395e-02
6.512957852627179745e-02
6.088930268833229326e-02
3.493790545658036900e-02
7.110380646656097071e-03
-9.142991830184132862e-03
-2.091019526980689852e-02
-2.616651839506228122e-02
-3.203435219506796383e-02
-3.459602435825518546e-02
-2.954182472405906049e-02
-1.169546086280087022e-02
4.232825554183331125e-03
9.264544094730223223e-03
6.226078241461033801e-03
5.897763171594648524e-03
1.095230279312688071e-02
1.805531917863181443e-02
1.768255889578257412e-02
1.561586240281479833e-02
1.264221729608509120e-02
6.543276119037645840e-03
-4.070983294511983618e-03
-7.679964166799778044e-03
-6.825152303488669220e-03
-5.865355954548285948e-03
-4.225569807723290362e-03
-2.162749879424456269e-03
-4.554213559024140011e-03
-1.248912057628302763e-02
-2.082055954844520829e-02
-1.893540845320309043e-02
-7.557424209641164757e-03
-3.049722814787060674e-03
-4.496023173837882490e-03
1.510082318244590179e-04
1.189778864602631867e-02
2.875470508194867547e-02
4.234605505396913522e-02
3.773901095109189613e-02
1.556709343672962181e-02
-2.917513578412844581e-03
-1.350030089762370260e-02
-2.163634275926260703e-02
-2.500609506752240335e-02
-2.002938376299420731e-02
-1.067502918745583118e-02
1.181474939994994018e-03
3.720328422209731763e-03
-1.078169042940215275e-02
-2.032572548545801688e-02
-1.486817773033574305e-02
-4.285447317929238012e-03
9.360158879668272619e-03
2.354114390625958522e-02
2.698700940658054284e-02
2.422014313143387026e-02
2.165033454591674261e-02
1.963302697803473093e-02
3.930689368022916193e-03
-2.390423895217171427e-02
-3.811263993935594396e-02
-2.745887268308921242e-02
-8.940179690993848433e-03
3.970006128096501170e-03
5.146189237720322392e-03
2.833377479419700758e-03
3.165508001000958901e-03
6.040969739350021510e-03
7.253339681972379750e-03
8.710459048870062768e-03
8.666653452725950335e-03
5.843616957844423830e-03
-2.091568116744939483e-03
-5.397792455224481589e-03
-7.581899373071620922e-03
-4.793324090107350249e-03
-7.181780280590222519e-03
-1.158434257814057629e-02
-9.615766136765357269e-03
-2.783819879733077929e-03
6.959106906753043803e-03
1.369178132765203754e-02
9.187642516466868609e-03
2.891158821989801321e-03
7.564586556355403467e-03
1.105511823546055997e-02
4.828860478722764478e-03
-4.886088598072976796e-03
-1.189266297536482365e-02
-1.581461353125730718e-02
-1.293298450693831925e-02
-5.640833112191064209e-03
7.638764103861773276e-04
2.045453704044701039e-03
1.135589195257561551e-02
2.047633447229955245e-02
1.645021992984332243e-02
4.629249207739585294e-03
-6.119215404047665015e-03
-1.011326704729999248e-02
-7.894447940750715792e-03
-5.757292420536265325e-03
-4.142455061675650446e-03
-5.413420885048610305e-03
-7.295831210062351212e-03
-7.918909205528545589e-03
-3.538593237339066402e-03
2.290604586436584961e-03
6.477799904654934528e-03
3.780320666598092905e-03
4.331572901325577221e-03
9.972566638474986839e-03
1.576511209287998969e-02
1.120694272699315590e-02
9.838283802053096865e-04
-4.941569210868346912e-03
-9.933906747007691107e-03
-9.917751479586784172e-03
-8.163480537520162797e-03
-7.337956845973031723e-03
-3.541763592116589122e-03
1.950516128725433103e-03
5.443173181323601902e-03
6.164393557530237037e-03
7.490688316186797785e-03
4.896518683931817308e-03
5.490562883396304071e-03
8.185438137902824318e-03
7.976991282277134943e-03
1.443744844785541060e-03
-1.340155728618209335e-02
-3.039846402246640031e-02
-4.028188062818301857e-02
-3.451286068707402899e-02
-1.552934830757516857e-02
1.237524223932194578e-02
4.057214617178676874e-02
6.247142672406782310e-02
6.007047025053421224e-02
3.187096394197091315e-02
3.705280115526712144e-04
-1.933719063823848006e-02
-2.516114938123517261e-02
-3.009555547388675575e-02
-3.256857733358074075e-02
-3.150960578183368416e-02
-2.846399246590715706e-02
-2.576128779148783091e-02
-2.119302597819646555e-02
-5.724238198007775740e-04
3.948178697159426126e-02
6.479130938063555611e-02
5.026266507182747256e-02
1.967937831342888438e-02
-3.962947817285406753e-04
-8.238862537379754852e-03
-1.335969866688416566e-02
-1.175718333329753805e-02
-1.258245030852411794e-02
-1.109458124571499615e-02
-9.378573767573561426e-03
-5.943968944894249644e-03
-5.168518907079296641e-03
-9.968518570650335142e-03
-1.554742052706435847e-02
-1.841423013132622785e-02
-1.427120116250812226e-02
1.955271950773183887e-03
2.509613172779142851e-02
4.306577419391195705e-02
4.355446822236241217e-02
3.446597547376069326e-02
2.179925666844296367e-02
-1.772513965256124245e-03
-2.985996999919884182e-02
-4.948888644382278684e-02
-5.510116319025232245e-02
-4.257742485937621862e-02
-9.682869591477960558e-03
2.073304418683934863e-02
3.382789346507619754e-02
2.868715382981227094e-02
1.615517519698260809e-02
8.428498671412775617e-03
1.941466922122028023e-03
-5.409002994726150836e-03
-7.711424603617210612e-03
-7.829745905298271177e-03
-1.419926157548868743e-02
-1.320538389658775652e-02
3.049027957408203225e-03
2.011876290261189332e-02
2.579251403152913596e-02
2.353504526433755975e-02
1.053520078848801597e-02
-1.036691349214131572e-02
-2.195261194481239880e-02
-2.021418308171434725e-02
-1.020988725126094690e-02
-6.046521253452403176e-03
-1.027289141930198130e-02
-1.403736568865624271e-02
-8.240896093566926067e-03
1.636047701798321345e-03
2.826504338045988420e-03
5.704264842963804134e-04
9.076170494082781356e-03
2.722733360093309782e-02
3.657519353087215763e-02
2.604575109609907207e-02
4.452065218527622055e-03
-1.291970099204915387e-02
-2.351321242503503703e-02
-2.022936867479276091e-02
-6.960083842069096464e-03
-1.764846546477040522e-03
-7.399733000457650763e-03
-1.191405086460101993e-02
-5.734112954315136006e-03
6.127589274128877710e-03
1.123595730776988204e-02
2.232275824203481217e-03
-5.787228484795030672e-03
-2.449111654320316155e-03
1.858215716094589092e-03
1.145909056948460130e-03
3.577320254176707178e-03
1.803136638789993793e-02
2.693808786383134271e-02
1.008486006594121361e-02
-1.768589596107110126e-02
-2.553749812978206579e-02
-1.545089869335414257e-02
3.725596665083646215e-04
6.543440380623975240e-03
4.939657149345961021e-03
2.200171498467518895e-03
-2.173888942082124673e-03
-4.069614065004828062e-04
4.171109681733281040e-03
-2.877780567878010596e-03
-1.216208879383265384e-02
-1.427051925661962893e-02
-8.592038398160853059e-05
1.738589708234787243e-02
2.513223266797450992e-02
1.195681274372373953e-02
-6.347014036346284270e-03
-1.812564032307471124e-02
-1.662586857953312833e-02
-1.517835018418906739e-03
1.408893114323831602e-02
1.143065372782219383e-02
3.627566739737967533e-03
-1.239394635682186359e-03
-6.992306023562594799e-03
-1.195970810852453950e-02
-1.156951377902096754e-02
-8.879317812571022039e-03
-1.915837037587555776e-03
1.067335228879863485e-02
1.664263686634246883e-02
1.196339013246826809e-02
7.382995991205493387e-03
4.318190698260038728e-03
1.575665576237393921e-03
-1.584842183588122287e-03
-6.047826729497537100e-03
-9.624002277773087075e-03
-1.054811577782992574e-02
-9.301965001237906192e-03
-1.059551075903804318e-02
-1.345149421289760366e-02
-6.026844183404489463e-03
1.148679759314034758e-02
2.562698375218892127e-02
2.795715388688095257e-02
1.932874659032021020e-02
-1.933326944278418067e-04
-1.500212088498944357e-02
-2.033933353519080944e-02
-1.374169159589983674e-02
-5.866777000333086960e-03
-5.992703903834432043e-03
-4.622235443543887962e-03
1.946945834204336740e-03
9.784560349234312782e-03
1.174606738804735359e-02
7.688501008995430631e-03
3.856138346429412340e-03
2.655931874813194371e-03
5.254066294984038009e-03
1.663482011884660989e-03
-5.749682366171080319e-03
-1.156553370116783497e-02
-1.340598684709208219e-02
-8.114904585816856003e-03
-1.216631915053706771e-03
4.068401871878677030e-03
3.156678701488349614e-03
1.538907532437650992e-03
1.955609557319347869e-03
7.137829046553029709e-03
1.476838661224064847e-02
1.336205638936945050e-02
3.479149148860895789e-03
-3.182477962202625264e-03
-8.802354155086426421e-03
-1.203168236804198592e-02
-1.134313253080439753e-02
-1.540244803212854549e-02
-1.835191620412296790e-02
-1.385636996214726843e-02
2.440637824111332836e-03
2.359219027651643374e-02
3.209304627229064844e-02
2.138131425069603880e-02
9.717446083797872530e-03
4.024795660683352060e-03
-2.234175633602511306e-03
-3.860163102385512184e-03
3.917353781762608579e-04
4.023702108818642993e-03
-8.859548193545348227e-03
-3.271029540616002956e-02
-4.632850108544028789e-02
-4.414720695447682530e-02
-1.931357237917265268e-02
2.483550973417778668e-02
6.039190474486522825e-02
6.031797997894337848e-02
3.274754531431325888e-02
2.806711806565624114e-03
-9.513168814854179589e-03
-1.665864954836306089e-02
-2.183696557158370383e-02
-1.898949249062498179e-02
-1.168803442210569407e-02
-6.247042607784104688e-03
-6.063633961798661244e-03
-5.812004561424033953e-03
-1.666624447674653871e-03
3.962901239657111441e-03
9.900375704490309292e-03
1.375325504535423321e-02
1.144832144019586329e-02
1.019875738300281970e-02
1.172252548803676825e-02
1.225065628177345045e-02
2.387910493885050077e-03
-1.334017373124453745e-02
-2.257461476802215955e-02
-2.189565184061703640e-02
-1.925928454099843160e-02
-2.591404180303730209e-02
-2.315241652702729538e-02
1.502708232825202645e-03
3.778795835376577011e-02
5.648410957077638211e-02
4.158718741756294718e-02
9.977272174782343683e-03
-7.808071789935785816e-03
-1.150792327798964496e-02
-1.860451194545100981e-02
-2.294674088641673534e-02
-1.715621443208558208e-02
-4.509910904957235671e-03
-1.980524451008848323e-03
-7.885455136562899425e-03
-9.522251467618467191e-03
-4.849590620234371652e-03
1.003588973355237909e-03
8.228920510095849919e-03
2.277584721693585307e-02
2.963147003471029717e-02
1.310604535293611456e-02
-1.036170077950436183e-02
-1.264143596419455527e-02
9.406286825194173874e-04
1.390464513342767189e-02
1.924577541540561931e-02
1.153179426451053126e-02
-5.283077474435059553e-03
-2.103284172685278980e-02
-2.862597466630357676e-02
-3.120520629046794059e-02
-3.711726328810169978e-02
-3.811441101485246730e-02
-2.114279330809320720e-02
2.076968086093696972e-02
6.251275108012542547e-02
6.026090808797587850e-02
2.954787055637672633e-02
1.227571411425413400e-02
5.140102174707583162e-03
-2.821943369651350696e-03
-1.479071394130664768e-02
-1.986430887415842339e-02
-1.406459603416510690e-02
1.242491305119470353e-03
1.146356810624036063e-02
1.489086529997158499e-03
-1.115733663398645048e-02
-1.596301827308134122e-02
-1.383611102957734741e-02
-1.695095304655500762e-02
-2.480567553390258112e-02
-2.257258137121277361e-02
-7.843986375747735718e-03
1.328163360363507697e-02
2.965111228981243130e-02
3.018691653440849429e-02
2.337048514299178148e-02
2.332079012350753502e-02
2.322842771618523899e-02
1.427932266185632376e-02
6.293439523676465320e-04
-1.108653937179521903e-02
-1.628494344093579099e-02
-2.245372290831142148e-02
-2.529914675728598197e-02
-1.938562072392123817e-02
-1.260239974716553454e-02
-7.532606100419082622e-03
-1.452380083209120877e-03
4.959858865272034727e-03
1.111126316753839778e-02
1.280473198922202002e-02
1.075360223886318543e-02
6.341310788648490222e-04
-5.120330863193050218e-03
1.145575115754485880e-03
1.268177618439161533e-02
1.595463769883958410e-02
9.110529321305084124e-03
6.092129962490298129e-04
-1.595864309587274226e-03
-5.756241871591751512e-03
-1.052067122021961044e-02
-1.208690675958700236e-02
-1.151004953408680913e-02
-1.133397136676055419e-02
-1.039919943954803298e-02
-5.218778432852756548e-03
2.842817361619219031e-03
1.381332862413088558e-02
2.223370231466795244e-02
2.050404519077064780e-02
9.252980258950774944e-03
9.991261255044802097e-04
-2.884589618303251383e-03
-7.431309561038343912e-03
-1.186205730132079347e-02
-1.277945018495530924e-02
-1.316427070417762468e-02
-1.474381954250240934e-02
-1.113139397409726623e-02
-3.705844714064405500e-03
4.628760527537390500e-03
2.254860576142014850e-02
3.764049788995128126e-02
2.951414675716696606e-02
7.489375863835427173e-03
-1.045495152711418269e-02
-1.643559270510270079e-02
-1.539308212137580414e-02
-1.469879822528293023e-02
-1.666446982113310021e-02
-1.609448571229362551e-02
-1.188483325408304543e-02
1.205978978466306804e-03
1.026130282784918843e-02
8.904349043467983324e-03
1.116070984144228867e-02
1.588708203390476470e-02
1.423486023587128106e-02
4.294609480677159981e-03
-4.015571314018165534e-03
-2.057528945936011686e-03
9.006156810269229721e-03
1.702180452634853569e-02
1.414031501946957578e-02
4.637455816468991771e-03
-4.354955789768673834e-03
-1.227435712870536544e-02
-2.891678342883577391e-02
-5.168921524288644376e-02
-6.317511006468375101e-02
-4.550613173321878951e-02
1.124801061802558439e-03
4.466473235601873398e-02
5.927212822963250083e-02
5.393125626048603932e-02
4.584578046724079731e-02
3.049045949325887572e-02
9.531154264388372321e-03
-7.789020725903833368e-03
-1.925918389263237690e-02
-2.918990994825534924e-02
-3.187594100517369272e-02
-2.222047576594682675e-02
-1.323456458630044991e-02
-8.688759192697431688e-03
-1.565332776628548155e-03
2.450018259640511335e-03
1.901094352648346813e-03
2.599111855981775347e-03
1.210993579586728576e-02
1.501207954816219034e-02
9.342594616311547875e-03
4.736399385310779237e-04
-3.482060007486701726e-03
-6.026556540122196721e-03
-4.126976093151260225e-03
1.709004230939239382e-03
1.536626062135232340e-02
2.055735302950193952e-02
4.020373618392148081e-03
-1.944982325340600254e-02
-2.454092269364323980e-02
-1.661550902767355148e-02
-5.309803381996529119e-03
-5.671606215237749759e-04
1.394607260663003083e-03
5.258091355976342481e-03
1.324128273681313833e-02
2.020904311038800374e-02
2.084378576799288119e-02
8.125179417350660710e-03
-1.480362153232978430e-03
-4.489557526166360459e-05
-2.804842051792316195e-03
-1.334944171305511157e-02
-2.054880672212485923e-02
-2.097301809084011273e-02
-2.178753102414825171e-02
-2.107798375539488012e-02
-1.168419924120840496e-02
9.311535139488052309e-03
4.360245528482098454e-02
5.790270607829590965e-02
2.588117956567822023e-02
-1.600849251072441332e-02
-3.124820807307436207e-02
-2.414532999167384036e-02
-1.006820917073632075e-02
1.157509666676954235e-02
2.256163564038497077e-02
1.486152541501521013e-02
-3.089023662537718033e-03
-1.201450268877311996e-02
-1.260363614003912058e-02
-7.944336544307662937e-03
-3.051691025649031115e-03
3.839147596694003454e-03
9.375380675524550358e-03
2.949461183189422842e-03
-1.026587919645514935e-02
-1.604175896349311140e-02
-1.186022439120758276e-02
-4.949932859471299455e-03
4.475646452656520564e-03
1.144363052196043645e-02
1.184295959557188707e-02
5.760297508402741941e-03
4.941266063191811740e-03
8.826701033954765380e-03
1.233608067471350135e-02
8.472146328336111615e-03
2.683510259103750670e-03
-2.672569281602952401e-03
-7.382787407114627630e-03
-8.307675421992732900e-03
-6.672575046141447468e-03
-5.137994872807800754e-03
-4.418191193504751417e-03
1.465504844815906536e-03
4.593046735052495368e-03
2.336958079066972624e-04
-1.347090399031744545e-02
-2.957803315073992759e-02
-3.710678820766011993e-02
-2.596365461881604969e-02
9.521060396258774301e-04
3.349215696190557118e-02
5.588490583430377745e-02
5.691486525047004946e-02
3.646352842769744890e-02
1.145094202813452811e-02
-7.791337243346507617e-03
-1.946629989395335519e-02
-2.919116576038376445e-02
-2.949275663275338286e-02
-2.264077195958191097e-02
-1.419248110608223312e-02
-4.413627276514109181e-03
1.670965473834569405e-03
2.676538127920240380e-03
4.363033361715561685e-03
6.193610957464485735e-03
3.756073474416542039e-03
1.556627362109528441e-03
1.550600947964932098e-03
6.766633430859398486e-04
2.430344517434366268e-03
4.484795443545230680e-03
2.642189515700083847e-03
3.182348457186980756e-03
1.370182569609250216e-02
1.702122493036346482e-02
3.539251389736440372e-03
