-8.004753129079057858e-04
-8.757590778178008569e-04
-9.457210525156788247e-04
-1.010360477875239674e-03
-1.069721480474075280e-03
-1.123888723848002775e-03
-1.172983127184305460e-03
-1.217157808478938272e-03
-1.256594347621434009e-03
-1.291499264494967800e-03
-1.322100865841265970e-03
-1.348646359915944490e-03
-1.371399386390184313e-03
-1.390637857172760412e-03
-1.406651959124270539e-03
-1.419742521690387383e-03
-1.430219546042052437e-03
-1.438400835501721896e-03
-1.444610830413118946e-03
-1.449179401921880635e-03
-1.452440635060854319e-03
-1.454731569493454904e-03
-1.456390779587646289e-03
-1.457756834700951742e-03
-1.459166584988563255e-03
-1.460953141664749671e-03
-1.463443730297322434e-03
-1.466957256704904365e-03
-1.471801725035286378e-03
-1.478271466767967345e-03
-1.486644197726808090e-03
-1.497178011380249007e-03
-1.510108316818843319e-03
-1.525644847381119095e-03
-1.543968807320984099e-03
-1.565230102371684183e-03
-1.589544998177930312e-03
-1.616994084966625819e-03
-1.647620677777290486e-03
-1.681429759007226554e-03
-1.718387562320997314e-03
-1.758421778440184520e-03
-1.801422447060515349e-03
-1.847243685579024472e-03
-1.895706062726860638e-03
-1.946599878735982662e-03
-1.999689066304789157e-03
-2.054715881310116392e-03
-2.111406278603885321e-03
-2.169475753503776871e-03
-2.228635746828864887e-03
-2.288600387650007156e-03
-2.349093514867284238e-03
-2.409855845550031711e-03
-2.470651971063143881e-03
-2.531277207168919786e-03
-2.591564112506639615e-03
-2.651388402278848869e-03
-2.710674183210472991e-03
-2.769398315207267144e-03
-2.827593792429253933e-03
-2.885351967066385713e-03
-2.942823484747342754e-03
-3.000217894740195030e-03
-3.057801840511726373e-03
-3.115895798547978646e-03
-3.174869237777112971e-03
-3.235134465850248754e-03
-3.297138946787659362e-03
-3.361356313016891726e-03
-3.428276237071970628e-03
-3.498393122423405430e-03
-3.572193954912159311e-03
-3.650145453212561703e-03
-3.732680757483813460e-03
-3.820185913314447755e-03
-3.912986397683708255e-03
-4.011334001810687964e-03
-4.115394252215666404e-03
-4.225234767348769183e-03
-4.340814856736672188e-03
-4.461976541521934375e-03
-4.588437272573968502e-03
-4.719784603246827796e-03
-4.855473008360731285e-03
-4.994823104202064309e-03
-5.137023196613200657e-03
-5.281133537255348204e-03
-5.426093211555982690e-03
-5.570729535168657612e-03
-5.713770091809035161e-03
-5.853857256632593285e-03
-5.989565089772126878e-03
-6.119418351833712071e-03
-6.241913388571712108e-03
-6.355540676707728716e-03
-6.458808579614024221e-03
-6.550268055548759752e-03
-6.628537869924365500e-03
-6.692329913227529521e-03
-6.740474165169346721e-03
-6.771942808558592888e-03
-6.785873068249941714e-03
-6.781588389098034894e-03
-6.758617425843287466e-03
-6.716710481487595322e-03
-6.655852971950807460e-03
-6.576275686679818391e-03
-6.478461345249917659e-03
-6.363147480044533191e-03
-6.231325138671190214e-03
-6.084233611045746642e-03
-5.923350867474378757e-03
-5.750379863264792890e-03
-5.567230776497609536e-03
-5.375999334920656542e-03
-5.178941490500707165e-03
-4.978444766076567905e-03
-4.776996529088516422e-03
-4.577149793160241453e-03
-4.381486927446707515e-03
-4.192581874480974524e-03
-4.012961357971162046e-03
-3.845065896352041577e-03
-3.691211069997145898e-03
-3.553549657581679243e-03
-3.434035483571506835e-03
-3.334389526966950214e-03
-3.256068770988408082e-03
-3.200238501142884349e-03
-3.167748621807120728e-03
-3.159114385117810231e-03
-3.174501930006473453e-03
-3.213719026630274672e-03
-3.276211317995260993e-03
-3.361064143597239547e-03
-3.467010097665944746e-03
-3.592442259924844179e-03
-3.735433117067445824e-03
-3.893758839879032409e-03
-4.064928708196977394e-03
-4.246219153865978847e-03
-4.434712197861385638e-03
-4.627337601891891826e-03
-4.820918026501514950e-03
-5.012216638238038702e-03
-5.197986413003977298e-03
-5.375020366961573426e-03
-5.540201845535152117e-03
-5.690554114405143790e-03
-5.823288463630150145e-03
-5.935849978561298819e-03
-6.025960214666046567e-03
-6.091656063279537840e-03
-6.131324067583356074e-03
-6.143729677116310621e-03
-6.128040737640904484e-03
-6.083844953011669290e-03
-6.011160897517867086e-03
-5.910442288677078895e-03
-5.782575371169224564e-03
-5.628869388354112643e-03
-5.451040314632631459e-03
-5.251187974015314626e-03
-5.031766784689737683e-03
-4.795550692262192868e-03
-4.545592675622595405e-03
-4.285179520870953211e-03
-4.017782544030058106e-03
-3.747004968597556721e-03
-3.476526949351018553e-03
-3.210048950906309491e-03
-2.951234423834336179e-03
-2.703652850759262483e-03
-2.470723937877500245e-03
-2.255663938883974672e-03
-2.061435037694855400e-03
-1.890698604194511381e-03
-1.745773142339310637e-03
-1.628597582534110867e-03
-1.540700618804726743e-03
-1.483176659717125225e-03
-1.456668709216257058e-03
-1.461358655384913932e-03
-1.496965046529738236e-03
-1.562748524722829295e-03
-1.657524693919780858e-03
-1.779684504020439661e-03
-1.927221617330810832e-03
-2.097766427756884641e-03
-2.288626258216032525e-03
-2.496831007283488186e-03
-2.719183539183079278e-03
-2.952314013672245347e-03
-3.192737260974500002e-03
-3.436912239474122690e-03
-3.681302630578965791e-03
-3.922437566077385460e-03
-4.156971376555469722e-03
-4.381741564094380342e-03
-4.593823868277434677e-03
-4.790583458398810397e-03
-4.969721561759486012e-03
-5.129316539794061963e-03
-5.267858868618524593e-03
-5.384279290446915278e-03
-5.477969670345657523e-03
-5.548796255074094595e-03
-5.597104989314414560e-03
-5.623718812540687284e-03
-5.629926914240930731e-03
-5.617466136392353787e-03
-5.588494740449648050e-03
-5.545558986776864992e-03
-5.491553053949014239e-03
-5.429672852146957135e-03
-5.363364524165945696e-03
-5.296268483043048945e-03
-5.232159858940824831e-03
-5.174886171787052534e-03
-5.128303428161946724e-03
-5.096211600827871627e-03
-5.082290456116189681e-03
-5.090036862082331776e-03
-5.122704521706516155e-03
-5.183247085332673421e-03
-5.274265546992500109e-03
-5.397960881303491380e-03
-5.556092456091767107e-03
-5.749943050744887874e-03
-5.980290908627492776e-03
-6.247389324375557558e-03
-6.550954028182351743e-03
-6.890158531755259143e-03
-7.263637399105333722e-03
-7.669497545057948375e-03
-8.105337153455415694e-03
-8.568271904817716111e-03
-9.054968112235210753e-03
-9.561682099348687430e-03
-1.008430517840912602e-02
-1.061841351763442159e-02
-1.115932187208400726e-02
-1.170214052170327583e-02
-1.224183428806117392e-02
-1.277328267893574482e-02
-1.329134017463677424e-02
-1.379089577099175054e-02
-1.426693071934735831e-02
-1.471457349262815344e-02
-1.512915129680310507e-02
-1.550623711623938528e-02
-1.584169172463511036e-02
-1.613170003966711910e-02
-1.637280120922098361e-02
-1.656191217995019171e-02
-1.669634423054179584e-02
-1.677381260352618988e-02
-1.679243903413608560e-02
-1.675074730113371851e-02
-1.664765202510169392e-02
-1.648244110439774437e-02
-1.625475215478473789e-02
-1.596454359716910354e-02
-1.561206098827474381e-02
-1.519779936963827106e-02
-1.472246244448634396e-02
-1.418691935923748967e-02
-1.359216011169307563e-02
-1.293925043338489504e-02
-1.222928699853650762e-02
-1.146335400357908693e-02
-1.064248193134784137e-02
-9.767609308710465191e-03
-8.839548282307589655e-03
-7.858954677550678350e-03
-6.826303229678964794e-03
-5.741868430815153315e-03
-4.605711401433811719e-03
-3.417673047505092720e-03
-2.177373876357693687e-03
-8.842202276638739871e-04
4.625829409229929054e-04
1.864013064579508059e-03
3.321204952055369346e-03
4.835420372433492896e-03
6.408012642547312489e-03
8.040386899708120566e-03
9.733956911255555594e-03
1.149009909293313009e-02
1.331010475216772189e-02
1.519513137322853549e-02
1.714615394428575801e-02
1.916391728579876219e-02
2.124889042068959025e-02
2.340122377842748791e-02
2.562071019149293055e-02
2.790675060171419683e-02
3.025832521600675326e-02
3.267397070900906336e-02
3.515176414747756689e-02
3.768931409857871617e-02
4.028375926533146745e-02
4.293177484961355206e-02
4.562958677500943833e-02
4.837299374597584661e-02
5.115739687044780493e-02
5.397783658753920605e-02
5.682903648128833501e-02
5.970545340030721654e-02
6.260133309778372068e-02
6.551077079630718281e-02
6.842777547436709740e-02
7.134633728659536822e-02
7.426049684239195703e-02
7.716441533735618474e-02
8.005244443959630418e-02
8.291919485759946529e-02
8.575960240370976428e-02
8.856899063712304898e-02
9.134312894068039035e-02
9.407828514662938679e-02
9.677127178452540890e-02
9.941948518212496977e-02
1.020209368296172703e-01
1.045742764895061655e-01
1.070788065365657071e-01
1.095344873145926018e-01
1.119419333805543593e-01
1.143024007825729771e-01
1.166177653718417778e-01
1.188904925429800641e-01
1.211235989526508322e-01
1.233206067010310381e-01
1.254854907835109001e-01
1.276226205028414828e-01
1.297366958951227944e-01
1.318326801311570373e-01
1.339157289694622444e-01
1.359911183041809524e-01
1.380641710268920297e-01
1.401401842317572533e-01
1.422243579446474393e-01
1.443217264203617012e-01
1.464370930194431597e-01
1.485749696451476587e-01
1.507395214736905742e-01
1.529345179572363933e-01
1.551632904645655064e-01
1.574286972099591675e-01
1.597330957898260850e-01
1.620783235740111405e-01
1.644656859714004604e-01
1.668959525512480890e-01
1.693693607798683887e-01
1.718856269942421744e-01
1.744439643043012300e-01
1.770431065745468602e-01
1.796813381704127910e-01
1.823565283534736847e-01
1.850661696906107379e-01
1.878074195754576015e-01
1.905771440197960021e-01
1.933719627113919814e-01
1.961882946500089486e-01
1.990224033219618882e-01
2.018704407322631511e-01
2.047284897096136591e-01
2.075926037793519863e-01
2.104588441388171860e-01
2.133233134185505697e-01
2.161821859726657802e-01
2.190317346726116388e-01
2.218683542595116243e-01
2.246885814374315060e-01
2.274891121001668126e-01
2.302668160993456559e-01
2.330187502566713198e-01
2.357421702177845135e-01
2.384345419460531801e-01
2.410935536167144733e-01
2.437171289598686896e-01
2.463034427434847851e-01
2.488509393082187771e-01
2.513583548623423147e-01
2.538247443302026340e-01
2.562495132099593675e-01
2.586324549190017752e-01
2.609737937696932075e-01
2.632742336893931778e-01
2.655350123911095483e-01
2.677579605602818380e-01
2.699455652440837516e-01
2.721010365660334052e-01
2.742283762486323329e-01
2.763324465302421373e-01
2.784190374613803587e-01
2.804949304482042827e-01
2.825679558034294159e-01
2.846470415849357560e-01
2.867422509110094664e-01
2.888648049427496867e-01
2.910270885117103856e-01
2.932426353418768339e-01
2.955260897840767398e-01
2.978931422675480389e-01
3.003604355764025180e-01
3.029454395355772323e-01
3.056662917433157767e-01
3.085416025819449626e-01
3.115902228790028428e-01
3.148309734313056718e-01
3.182823359097237126e-01
3.219621054961741557e-01
3.258870059726384771e-01
3.300722689591557568e-01
3.345311796959007933e-01
3.392745924810631752e-01
3.443104197166396707e-01
3.496430990815743156e-01
3.552730445456059871e-01
3.611960871735149237e-01
3.674029127959366203e-01
3.738785041317716495e-01
3.806015953188218726e-01
3.875441475942800751e-01
3.946708551253115815e-01
4.019386902855014987e-01
4.092964979946828175e-01
4.166846484628877745e-01
4.240347579490845176e-01
4.312694867947342026e-01
4.383024234474722780e-01
4.450380629085998185e-01
4.513718871954627843e-01
4.571905546792367492e-01
4.623722040331882943e-01
4.667868776671417197e-01
4.702970680786074387e-01
4.727583892181972947e-01
4.740203735769668025e-01
4.739273940125220408e-01
4.723197079687925237e-01
4.690346197135559225e-01
4.639077547372737476e-01
4.567744386891513519e-01
4.474711715704282611e-01
4.358371860990143398e-01
4.217160776464066729e-01
4.049574916286720061e-01
3.854188529176684197e-01
3.629671202362702576e-01
3.374805479672852160e-01
3.088504362731244179e-01
2.769828501259809506e-01
2.418002870630681644e-01
2.032432734845709132e-01
1.612718688884954843e-01
1.158670582165736013e-01
6.703201222594588893e-02
1.479319724830533561e-02
-4.079868371907061780e-02
-9.966793520045960642e-02
-1.617133140118797718e-01
-2.268076878775658889e-01
-2.947979194043436335e-01
-3.655049848301724080e-01
-4.387243343412327579e-01
-5.142264984836666386e-01
-5.917579423809548045e-01
-6.710421670458472931e-01
-7.517810538945856047e-01
-8.336564460673624444e-01
-9.163319572633519261e-01
-9.994549958210818819e-01
-1.082658989506990466e+00
-1.165565793453659849e+00
-1.247788261555626166e+00
-1.328932959338837261e+00
-1.408602994094805272e+00
-1.486400936583183841e+00
-1.561931806868347206e+00
-1.634806095700350070e+00
-1.704642792070982793e+00
-1.771072386861370251e+00
-1.833739822273642073e+00
-1.892307357073976570e+00
-1.946457317979065182e+00
-1.995894708299059461e+00
-2.040349646462948474e+00
-2.079579608345593300e+00
-2.113371449175208916e+00
-2.141543183108209902e+00
-2.163945500974183478e+00
-2.180463009247117778e+00
-2.191015176392819619e+00
-2.195556975843459213e+00
-2.194079218127039876e+00
-2.186608567805977010e+00
-2.173207244604852040e+00
-2.153972411433028533e+00
-2.129035255546011474e+00
-2.098559772214478869e+00
-2.062741263864506625e+00
-2.021804570578352056e+00
-1.976002050813917110e+00
-1.925611333978117345e+00
-1.870932868772354318e+00
-1.812287293674855304e+00
-1.750012657475847666e+00
-1.684461519520902950e+00
-1.615997960315835646e+00
-1.544994533997915420e+00
-1.471829194503502469e+00
-1.396882227409134813e+00
-1.320533218815281629e+00
-1.243158092151045668e+00
-1.165126242510198473e+00
-1.086797796569005659e+00
-1.008521024632731189e+00
-9.306299289228232574e-01
-8.534420301134229003e-01
-7.772563713137974339e-01
-7.023517559305373359e-01
-6.289852329976297618e-01
-5.573908402100528070e-01
-4.877786118995856013e-01
-4.203338557920272001e-01
-3.552166992990885008e-01
-2.925619027377861503e-01
-2.324789340966179618e-01
-1.750522964802261605e-01
-1.203420969553331416e-01
-6.838484269591482700e-02
-1.919444809970051805e-02
2.723656584991753296e-02
7.093570021508736889e-02
1.119489567889510456e-01
1.503391900747603482e-01
1.861843565139902901e-01
2.195756857556487307e-01
2.506157987928981923e-01
2.794167977925640090e-01
3.060983518703935258e-01
3.307858025948725578e-01
3.536083117345654725e-01
3.746970724249506501e-01
3.941836036259996345e-01
4.121981456523506893e-01
4.288681727429418666e-01
4.443170364375465531e-01
4.586627514641622994e-01
4.720169331126188861e-01
4.844838929000276906e-01
4.961598968602117243e-01
5.071325883632352705e-01
5.174805749431420354e-01
5.272731763788482962e-01
5.365703291246870510e-01
5.454226402053642397e-01
5.538715814990539110e-01
5.619498141452899942e-01
5.696816310812811146e-01
5.770835043425367461e-01
5.841647231220091774e-01
5.909281075898272784e-01
5.973707830700368815e-01
6.034849987639284707e-01
6.092589754804538238e-01
6.146777669645320241e-01
6.197241196104547045e-01
6.243793165947617574e-01
6.286239928374850461e-01
6.324389084086533552e-01
6.358056693880947963e-01
6.387073862956610393e-01
6.411292617353397949e-01
6.430591006072808868e-01
6.444877375405110298e-01
6.454093779528474739e-01
6.458218508593536189e-01
6.457267729301418013e-01
6.451296249249953707e-01
6.440397432125191113e-01
6.424702302172758950e-01
6.404377890616327340e-01
6.379624886885044699e-01
6.350674667355155067e-01
6.317785783512889219e-01
6.281239996160478123e-01
6.241337947533110997e-01
6.198394567626467344e-01
6.152734309702247995e-01
6.104686312544584936e-01
6.054579581185345338e-01
6.002738277152058766e-01
5.949477203644438772e-01
5.895097562945015301e-01
5.839883058592788556e-01
5.784096402539347093e-01
5.727976281394476787e-01
5.671734824716786472e-01
5.615555606379788456e-01
5.559592202583115705e-01
5.503967314546315270e-01
5.448772458763357918e-01
5.394068212959561848e-01
5.339884997905124386e-01
5.286224366438511124e-01
5.233060762418524359e-01
5.180343703580301273e-01
5.128000337845134426e-01
5.075938316065393696e-01
5.024048920039602129e-01
4.972210383350382235e-01
4.920291337153021027e-01
4.868154317742513504e-01
4.815659269235634810e-01
4.762666977860843254e-01
4.709042378747277935e-01
4.654657677470115940e-01
4.599395236231230144e-01
4.543150178267361117e-01
4.485832670966674041e-01
4.427369855073787774e-01
4.367707395321622221e-01
4.306810634423660078e-01
4.244665340705088274e-01
4.181278046860919528e-01
4.116675985049501052e-01
4.050906630018007437e-01
3.984036870833194133e-01
3.916151834499695950e-01
3.847353394041339580e-01
3.777758395701539262e-01
3.707496647164020276e-01
3.636708707015196551e-01
3.565543524145626253e-01
3.494155972541840294e-01
3.422704329837326087e-01
3.351347746985855469e-01
3.280243756879578365e-01
3.209545864175039065e-01
3.139401259577015435e-01
3.069948697773258184e-01
3.001316571934799504e-01
2.933621215123513037e-01
2.866965455032569055e-01
2.801437440133324741e-01
2.737109752545906494e-01
2.674038815514937495e-01
2.612264598938190407e-01
2.551810620453524026e-01
2.492684234236014762e-01
2.434877195352042889e-01
2.378366480190865773e-01
2.323115342949123585e-01
2.269074581935655865e-01
2.216183986825150942e-01
2.164373935960037520e-01
2.113567110472971133e-01
2.063680289922965871e-01
2.014626195757718841e-01
1.966315346993307289e-01
1.918657893883265464e-01
1.871565396401264902e-01
1.824952516803849123e-01
1.778738597368018648e-01
1.732849098811218014e-01
1.687216875133174809e-01
1.641783266504298899e-01
1.596498996857133035e-01
1.551324863114506569e-01
1.506232210538124838e-01
1.461203190828493648e-01
1.416230805334950937e-01
1.371318738229068135e-01
1.326480988223232294e-01
1.281741312985772430e-01
1.237132500425590781e-01
1.192695486334239136e-01
1.148478339505819151e-01
1.104535136825492009e-01
1.060924752978470859e-01
1.017709589013153781e-01
9.749542666414701131e-02
9.327243136367209531e-02
8.910848644008263764e-02
8.500994017360610777e-02
8.098285614698010060e-02
7.703290201623111400e-02
7.316524858416428856e-02
6.938448085436912938e-02
6.569452229993519299e-02
6.209857347549618128e-02
5.859906583701550431e-02
5.519763116883892595e-02
5.189508678459455598e-02
4.869143644515706165e-02
4.558588646556294838e-02
4.257687646223651257e-02
3.966212365758930991e-02
3.683867955808344669e-02
3.410299771184104739e-02
3.145101090802163157e-02
2.887821613531931994e-02
2.637976553816719083e-02
2.395056143542735605e-02
2.158535364610139617e-02
1.927883699816704960e-02
1.702574744773956844e-02
1.482095482983660298e-02
1.265955077092619299e-02
1.053693006622914187e-02
8.448864259578645411e-03
6.391566244105163601e-03
4.361744882672771544e-03
2.356648956012653406e-03
3.740998565194943518e-04
-1.587487325329762534e-03
-3.529094351240249974e-03
-5.451101912822944699e-03
-7.353302827524424781e-03
-9.234925876539434517e-03
-1.109466946530170139e-02
-1.293074425281501641e-02
-1.474092375985334817e-02
-1.652260158432440618e-02
-1.827285417993076630e-02
-1.998850773558331559e-02
-2.166620781874011720e-02
-2.330249038182354016e-02
-2.489385271110095693e-02
-2.643682308027292191e-02
-2.792802775830426076e-02
-2.936425423187924086e-02
-3.074250951004675603e-02
-3.206007253508125210e-02
-3.331454004110360329e-02
-3.450386490140352341e-02
-3.562638679352305576e-02
-3.668085458661554665e-02
-3.766644044455645657e-02
-3.858274551362760041e-02
-3.942979740092763391e-02
-4.020803981348905487e-02
-4.091831470592938863e-02
-4.156183759729228239e-02
-4.214016665660339639e-02
-4.265516651806369047e-02
-4.310896758967554254e-02
-4.350392177779816016e-02
-4.384255570143085617e-02
-4.412752230214923160e-02
-4.436155192055812879e-02
-4.454740385698338634e-02
-4.468781922772897125e-02
-4.478547617423717098e-02
-4.484294810318292107e-02
-4.486266571808442127e-02
-4.484688353039363584e-02
-4.479765136054585095e-02
-4.471679126598838289e-02
-4.460588005263266265e-02
-4.446623764195787448e-02
-4.429892141793758537e-02
-4.410472626274750813e-02
-4.388419022387119589e-02
-4.363760557300516013e-02
-4.336503468737554906e-02
-4.306633035911256596e-02
-4.274115989619661771e-02
-4.238903250756347746e-02
-4.200932920298953294e-02
-4.160133442590227548e-02
-4.116426883785669760e-02
-4.069732240629925224e-02
-4.019968708173606020e-02
-3.967058839599471587e-02
-3.910931528871840895e-02
-3.851524766783926551e-02
-3.788788098577854785e-02
-3.722684748513831188e-02
-3.653193375999089221e-02
-3.580309418964811724e-02
-3.504046014858770014e-02
-3.424434488745715238e-02
-3.341524412600512667e-02
-3.255383223302079493e-02
-3.166095437051179295e-02
-3.073761476226185424e-02
-2.978496146065185562e-02
-2.880426801098150483e-02
-2.779691245457545715e-02
-2.676435414694495682e-02
-2.570810906106124269e-02
-2.462972405951836460e-02
-2.353075077430558104e-02
-2.241271962094584097e-02
-2.127711463191896829e-02
-2.012534953230234874e-02
-1.895874574602874132e-02
-1.777851273812065813e-02
-1.658573106764551705e-02
-1.538133858551588018e-02
-1.416612006212411567e-02
-1.294070048924282276e-02
-1.170554219196083025e-02
-1.046094578162293405e-02
-9.207054989382942867e-03
-7.943865223749400559e-03
-6.671235796846691248e-03
-5.388905473083613340e-03
-4.096511042690351850e-03
-2.793608577665498277e-03
-1.479696986983772451e-03
-1.542433215719358347e-04
1.183290638550972985e-03
2.533421018942419358e-03
3.896614323339707073e-03
5.273260155838984178e-03
6.663644847316252569e-03
8.067926500356394776e-03
9.486111880377151584e-03
1.091803567737804383e-02
1.236334250765644752e-02
1.382147205698153539e-02
1.529164759447518632e-02
1.677286824019277520e-02
1.826390501055955018e-02
1.976330078116119923e-02
2.126937425349982938e-02
2.278022782246187997e-02
2.429375929040373389e-02
2.580767718019601545e-02
2.731951935668811698e-02
2.882667480327907178e-02
3.032640808118772929e-02
3.181588605181862733e-02
3.329220645495759717e-02
3.475242789197751508e-02
3.619360060862030631e-02
3.761279771806017025e-02
3.900714615319132023e-02
4.037385704627732830e-02
4.171025490288902959e-02
4.301380507336605152e-02
4.428213914390968092e-02
4.551307789874615983e-02
4.670465136240022075e-02
4.785511568689870820e-02
4.896296665193664716e-02
5.002694945832022316e-02
5.104606493053539390e-02
5.201957175915053466e-02
5.294698504690782681e-02
5.382807108325327744e-02
5.466283842470343740e-02
5.545152564103341536e-02
5.619458578615293964e-02
5.689266801168262749e-02
5.754659660179420322e-02
5.815734776958669111e-02
5.872602467887907962e-02
5.925383108648953762e-02
5.974204405488000441e-02
6.019198619278244566e-02
6.060499793304553739e-02
6.098241014707376367e-02
6.132551770548415326e-02
6.163555433836811343e-02
6.191366906737410386e-02
6.216090472465278516e-02
6.237817880804048809e-02
6.256626688410894810e-02
6.272578878935941571e-02
6.285719784867849214e-02
6.296077320654910880e-02
6.303661526633781709e-02
6.308464432248890585e-02
6.310460225575548199e-02
6.309605734240839037e-02
6.305841179877816338e-02
6.299091209528936974e-02
6.289266163845554092e-02
6.276263569308125623e-02
6.259969808579893269e-02
6.240261945709288383e-02
6.217009672060781061e-02
6.190077332952264449e-02
6.159325998713262307e-02
6.124615535107486713e-02
6.085806655209134025e-02
6.042762902996805241e-02
5.995352541812056651e-02
5.943450306799737820e-02
5.886939010252782711e-02
5.825710963079187843e-02
5.759669190127711391e-02
5.688728425913561898e-02
5.612815879839140598e-02
5.531871763612261628e-02
5.445849568268823493e-02
5.354716099911394772e-02
5.258451281873900013e-02
5.157047718318662904e-02
5.050510044773132839e-02
4.938854083639725168e-02
4.822105822477913695e-02
4.700300232781765702e-02
4.573479964261337877e-02
4.441693943911895898e-02
4.304995899999337211e-02
4.163442860968005754e-02
4.017093640900793600e-02
3.866007351002485187e-02
3.710241972941942523e-02
3.549853023982176697e-02
3.384892334376925216e-02
3.215406977003593125e-02
3.041438354541936562e-02
2.863021481193496823e-02
2.680184471591275444e-02
2.492948251479208677e-02
2.301326503049494834e-02
2.105325843263754215e-02
1.904946242763430955e-02
1.700181686815438117e-02
1.491021065264907033e-02
1.277449287875464384e-02
1.059448607127385505e-02
8.370001349237788171e-03
6.100855322852780614e-03
3.786888400498043990e-03
1.427984334505523305e-03
-9.759093385147014693e-04
-3.424760120465136348e-03
-5.918429161862459424e-03
-8.456649878676517074e-03
-1.103900693664097536e-02
-1.366491585645433424e-02
-1.633360366558850654e-02
-1.904409080373346483e-02
-2.179517465488457761e-02
-2.458541496957049668e-02
-2.741312127859143674e-02
-3.027634276631490512e-02
-3.317286059827673217e-02
-3.610018293816179974e-02
-3.905554276103340161e-02
-4.203589854274418502e-02
-4.503793782755149272e-02
-4.805808376797703757e-02
-5.109250449150826850e-02
-5.413712532992961263e-02
-5.718764369323733887e-02
-6.023954650290975349e-02
-6.328813003182201524e-02
-6.632852180566066458e-02
-6.935570461216840343e-02
-7.236454199658527708e-02
-7.534980526390838707e-02
-7.830620151716763400e-02
-8.122840249892272768e-02
-8.411107389157125580e-02
-8.694890486111692129e-02
-8.973663737313701538e-02
-9.246909504686730286e-02
-9.514121135287040287e-02
-9.774805671568745358e-02
-1.002848643046758692e-01
-1.027470543631484878e-01
-1.051302566670557770e-01
-1.074303311815345691e-01
-1.096433864936543490e-01
-1.117657960813004947e-01
-1.137942122425661534e-01
-1.157255775189611896e-01
-1.175571338234130542e-01
-1.192864290010260814e-01
-1.209113210537036270e-01
-1.224299798634826547e-01
-1.238408867597747681e-01
-1.251428318986849142e-01
-1.263349095104114306e-01
-1.274165113825951878e-01
-1.283873185736471856e-01
-1.292472915651518839e-01
-1.299966591480118117e-01
-1.306359061461585536e-01
-1.311657601707424403e-01
-1.315871777639792961e-01
-1.319013299882113854e-01
-1.321095877047833711e-01
-1.322135067713560153e-01
-1.322148132935858089e-01
-1.321153890869438963e-01
-1.319172575462169428e-01
-1.316225700127468812e-01
-1.312335927606767261e-01
-1.307526947541005902e-01
-1.301823360700238019e-01
-1.295250572526955857e-01
-1.287834694872111441e-01
-1.279602456307378233e-01
-1.270581120298716893e-01
-1.260798412091172771e-01
-1.250282452536085331e-01
-1.239061699349452705e-01
-1.227164893966686404e-01
-1.214621014373694630e-01
-1.201459230915670334e-01
-1.187708865781932216e-01
-1.173399354556490387e-01
-1.158560209692469922e-01
-1.143220982607615760e-01
-1.127411225257229227e-01
-1.111160450218147688e-01
-1.094498088110799072e-01
-1.077453442297271052e-01
-1.060055638662051603e-01
-1.042333572262967856e-01
-1.024315849061456507e-01
-1.006030723148502171e-01
-9.875060309596704611e-02
-9.687691208192759917e-02
-9.498467787879336099e-02
-9.307651526012034049e-02
-9.115496732085785758e-02
-8.922249760025834087e-02
-8.728148222600921879e-02
-8.533420211776361619e-02
-8.338283555682045323e-02
-8.142945105663049188e-02
-7.947600083105532676e-02
-7.752431489324898561e-02
-7.557609592801539655e-02
-7.363291509452499217e-02
-7.169620886719960118e-02
-6.976727698006146561e-02
-6.784728158290881384e-02
-6.593724769120515306e-02
-6.403806491816302349e-02
-6.215049068646506802e-02
-6.027515473037253768e-02
-5.841256497851773227e-02
-5.656311480348000242e-02
-5.472709155288862232e-02
-5.290468622717698494e-02
-5.109600429590807624e-02
-4.930107746939259988e-02
-4.751987639095778954e-02
-4.575232382456323466e-02
-4.399830852410151899e-02
-4.225769927104355145e-02
-4.053035910258300650e-02
-3.881615938764420431e-02
-3.711499367960208878e-02
-3.542679094223787073e-02
-3.375152821526702235e-02
-3.208924222145530941e-02
-3.044003992064097872e-02
-2.880410775854818500e-02
-2.718171952395215946e-02
-2.557324253950926315e-02
-2.397914223560521432e-02
-2.239998491882127726e-02
-2.083643865102938197e-02
-1.928927225823637293e-02
-1.775935240624733347e-02
-1.624763885787463419e-02
-1.475517786851978860e-02
-1.328309379113061170e-02
-1.183257913069193576e-02
-1.040488300917965722e-02
-9.001298385839517913e-03
-7.623148043398472913e-03
-6.271769692611708392e-03
-4.948500335863132218e-03
-3.654660108188619201e-03
-2.391535923139046730e-03
-1.160365090426376247e-03
3.768075763305206465e-05
1.201511147249683742e-03
2.330131517205405282e-03
3.422656969648768446e-03
4.478324706046432797e-03
5.496505112708555650e-03
6.476711082684639964e-03
7.418605562289247272e-03
8.322007120078455181e-03
9.186893573138862554e-03
1.001340336682926546e-02
1.080183481449162146e-02
1.155264319496968582e-02
1.226643568518972181e-02
1.294396412917288644e-02
1.358611589992742702e-02
1.419390290482280999e-02
1.476844882353420263e-02
1.531097481119006454e-02
1.582278400286026357e-02
1.630524488270691449e-02
1.675977381070236846e-02
1.718781699717342876e-02
1.759083228114697445e-02
1.797027083032949960e-02
1.832755918402044840e-02
1.866408182371905033e-02
1.898116461489694068e-02
1.928005935738656001e-02
1.956192967497760726e-02
1.982783846689387813e-02
2.007873715218767841e-02
2.031545685568216658e-02
2.053870163366047080e-02
2.074904394264948451e-02
2.094692228280545243e-02
2.113264121059457712e-02
2.130637356865534848e-02
2.146816503788403011e-02
2.161794082058058480e-02
2.175551442084091083e-02
2.188059832615572159e-02
2.199281640508422148e-02
2.209171788598678771e-02
2.217679260735603425e-02
2.224748737291756470e-02
2.230322302988429692e-02
2.234341208706109791e-02
2.236747646163555689e-02
2.237486523088823634e-02
2.236507196912214390e-02
2.233765140176013561e-02
2.229223504768991157e-02
2.222854570851107853e-02
2.214641042544911870e-02
2.204577183264545479e-02
2.192669756365364653e-02
2.178938757260322906e-02
2.163417934718959990e-02
2.146155081040071119e-02
2.127212087892094844e-02
2.106664763448390723e-02
2.084602421754284257e-02
2.061127237663010550e-02
2.036353383093558386e-02
2.010405959497281805e-02
1.983419734238105539e-02
1.955537704041892394e-02
1.926909516255136470e-02
1.897689762015887863e-02
1.868036166098643869e-02
1.838107707012085271e-02
1.808062696915619175e-02
1.778056849934221348e-02
1.748241370132809502e-02
1.718761082393011411e-02
1.689752647743322095e-02
1.661342882518862876e-02
1.633647199132286926e-02
1.606768214924795060e-02
1.580794530875878970e-02
1.555799704428347495e-02
1.531841435054024682e-02
1.508960979227965370e-02
1.487182788045266803e-02
1.466514390804386433e-02
1.446946510671702837e-02
1.428453427407135740e-02
1.410993559192610936e-02
1.394510276280066380e-02
1.378932918281817847e-02
1.364178006936835399e-02
1.350150631598016383e-02
1.336745987129174355e-02
1.323851043659680232e-02
1.311346324148598974e-02
1.299107748424988516e-02
1.287008539901051372e-02
1.274921151400814842e-02
1.262719179580272348e-02
1.250279250661419719e-02
1.237482849842880088e-02
1.224218054012377564e-02
1.210381164109298677e-02
1.195878194582737468e-02
1.180626224121016955e-02
1.164554566220921822e-02
1.147605765767548656e-02
1.129736391853164781e-02
1.110917638477418139e-02
1.091135708219055644e-02
1.070391988710000901e-02
1.048703018829213150e-02
1.026100251663243645e-02
1.002629626674339525e-02
9.783509443461669425e-03
9.533370734917287828e-03
9.276729991337433201e-03
9.014547257671439232e-03
8.747880567333938054e-03
8.477872706396711103e-03
8.205737145351221784e-03
7.932743326587370775e-03
7.660201648151402504e-03
7.389448159665201049e-03
7.121829339649738549e-03
6.858687089042794435e-03
6.601344211094324621e-03
6.351090392978100789e-03
6.109169060237791549e-03
5.876765094879871261e-03
5.654993578211703863e-03
5.444889763782079749e-03
5.247400195260903087e-03
5.063375204607003383e-03
4.893562650604501435e-03
4.738602993812413185e-03
4.599025803555125726e-03
4.475247484793046758e-03
4.367570381502765449e-03
4.276182967554270110e-03
4.201161212849034536e-03
4.142470995380640418e-03
4.099971487637213592e-03
4.073419349370403265e-03
4.062473640709321140e-03
4.066701358996198910e-03
4.085583414086569123e-03
4.118521038839957280e-03
4.164842479543715698e-03
4.223809722308056493e-03
4.294625453583663516e-03
4.376439910543357056e-03
4.468357698660298076e-03
4.569444323878859258e-03
4.678732650571438417e-03
4.795229003476821940e-03
4.917919063026178657e-03
5.045773416871009859e-03
5.177752890752882788e-03
5.312813418497839245e-03
5.449910768069977061e-03
5.588005032616759175e-03
5.726064747586110532e-03
5.863070875270544151e-03
5.998020746009423247e-03
6.129931699595293076e-03
6.257844752914517444e-03
6.380828172975238147e-03
6.497981070460686660e-03
6.608436984859766307e-03
6.711367549222381317e-03
6.805986139540787759e-03
6.891551618806547770e-03
6.967372108957184743e-03
7.032808797408917310e-03
7.087279773092736677e-03
7.130263860110067770e-03
7.161304363300100354e-03
7.180012693998752069e-03
7.186071903791631417e-03
7.179239940879801607e-03
7.159352604063595055e-03
7.126326121851010720e-03
7.080159375633089669e-03
7.020935591491080791e-03
6.948823430443255497e-03
6.864077436506685510e-03
6.767037820667292855e-03
6.658129554153563792e-03
6.537860619916621013e-03
6.406819449846608977e-03
6.265671542426913716e-03
6.115155262523672662e-03
5.956076776046842491e-03
5.789304196974752806e-03
5.615760997756934388e-03
5.436418645289684687e-03
5.252288602740305505e-03
5.064413826415868278e-03
4.873859679962208417e-03
4.681704550761073974e-03
4.489030133605687901e-03
4.296911591071802226e-03
4.106407728937282349e-03
3.918551212449416718e-03
3.734339055442134538e-03
3.554723454190085799e-03
3.380603112756258143e-03
3.212815200464566329e-03
3.052128019904710998e-03
2.899234480183632973e-03
2.754746472105710619e-03
2.619190313275916032e-03
2.493003201537568464e-03
2.376530737329672974e-03
2.270025655535160176e-03
2.173647606038930317e-03
2.087464182143145431e-03
2.011452954914737506e-03
1.945504583009618690e-03
1.889427028614085223e-03
1.842950576512516212e-03
1.805733735317607922e-03
1.777369872928157273e-03
1.757394472201585138e-03
1.745292858215012795e-03
1.740508230759268667e-03
1.742450031798036415e-03
1.750502303515487617e-03
1.764032010210015355e-03
1.782397146702571983e-03
1.804954519192668999e-03
1.831067122168287230e-03
1.860110946763087521e-03
1.891481132665953722e-03
1.924597364759143359e-03
1.958908469318054128e-03
1.993896126267952033e-03
2.029077742314644439e-03
2.064008410221427996e-03
2.098281959372508103e-03
2.131531083292937962e-03
2.163426671104204738e-03
2.193676331224900678e-03
2.222022241671643781e-03
2.248238276715037662e-03
2.272126709625046839e-03
2.293514437277200963e-03
2.312248923294922109e-03
2.328193950293839815e-03
2.341225249796866949e-03
2.351226281109260532e-03
2.358084169040471599e-03
2.361685957411343434e-03
2.361915261689301326e-03
2.358649382057504979e-03
2.351757164324388191e-03
2.341097328091120561e-03
2.326517715747659226e-03
2.307855180686797705e-03
2.284936359363299967e-03
2.257579214677845388e-03
2.225595353068901723e-03
2.188793129712107450e-03
2.146981454170847261e-03
2.099974223900459916e-03
2.047595295870226033e-03
1.989683914577769323e-03
1.926100532986488962e-03
1.856732801759646998e-03
1.781501652849855778e-03
1.700367348915090551e-03
1.613335325655969018e-03
1.520461781323042584e-03
1.421858682712641864e-03
1.317698263858418581e-03
1.208216752599419437e-03
1.093717302265189567e-03
9.745719258909683099e-04
8.512224330276027106e-04
7.241803069450268452e-04
5.940253827780907778e-04
4.614033232487709988e-04
3.270219927036475678e-04
1.916465808308149372e-04
5.609353689155385211e-05
-7.877643110112060078e-05
-2.120665091338702212e-04
-3.428528782190716734e-04
-4.701945964628472712e-04
-5.931441203098213348e-04
-7.107584103565057479e-04
-8.221104529719170566e-04
-9.263009403782775444e-04
-1.022470063729830157e-03
-1.109809150720340084e-03
-1.187572030293324293e-03
-1.255085883382065165e-03
-1.311761416843524155e-03
-1.357102283271027733e-03
-1.390713491972457366e-03
-1.412308659614074221e-03
-1.421716085584540492e-03
-1.418883453764086542e-03
-1.403881071944811706e-03
-1.376903583756325898e-03
-1.338270158766652297e-03
-1.288423043705344811e-03
-1.227924620680145113e-03
-1.157452767794726022e-03
-1.077794774798321179e-03
-9.898397661452478912e-04
-8.945698158993349710e-04
-7.930497646569303200e-04
-6.864158901287954404e-04
-5.758635731014376431e-04
-4.626342110336885871e-04
-3.480014066506750652e-04
-2.332567199502147783e-04
-1.196950955959968964e-04
-8.600140060510804159e-06
9.877046012925116600e-05
2.011991806376509919e-04
2.975225524105167322e-04
3.866443820630477641e-04
4.675481822346976317e-04
5.393086286316209951e-04
6.011019235541758881e-04
6.522149469384753593e-04
6.920530838932148401e-04
7.201466166414970463e-04
7.361556421908259634e-04
7.398734027571967839e-04
7.312281311916613751e-04
7.102832927815367833e-04
6.772362786005694862e-04
6.324155733634070952e-04
5.762764110234051135e-04
5.093951031180548369e-04
4.324620046792246666e-04
3.462732564981021327e-04
2.517214884189347430e-04
1.497854789324509523e-04
4.151905007433908447e-05
-7.196078794018175170e-05
-1.894861944673919456e-04
-3.098512893011502950e-04
-4.318251661449337957e-04
-5.541649674001483802e-04
-6.756289451659386281e-04
-7.949892958942665145e-04
-9.110447009874726720e-04
-1.022632339246407106e-03
-1.128639356532223090e-03
-1.228013597767325894e-03
-1.319773614625936731e-03
-1.403017753130406673e-03
-1.476932282950766144e-03
-1.540798525767846051e-03
-1.593998881184299906e-03
-1.636021828002684518e-03
-1.666465770810504621e-03
-1.685041746139285743e-03
-1.691575042531874356e-03
-1.686005664726330155e-03
-1.668387707412937598e-03
-1.638887754267116543e-03
-1.597782163526490808e-03
-1.545453494144769175e-03
-1.482385952241125704e-03
-1.409159979173916534e-03
-1.326446181701185136e-03
-1.234998440293442502e-03
-1.135646477997394191e-03
-1.029287852691764676e-03
-9.168794322700037558e-04
-7.994285914687332883e-04
-6.779839906457288097e-04
-5.536262139605202959e-04
-4.274582332403293662e-04
-3.005957956026747966e-04
-1.741577729493106288e-04
-4.925665381455517343e-05
7.301080288266609307e-05
1.915727889915068004e-04
3.053912630452435906e-04
4.134705663623201442e-04
5.148654856907015085e-04
6.086889062590031957e-04
6.941189629941514052e-04
7.704056268921871892e-04
8.368766270798703045e-04
8.929427907824955598e-04
9.381026953990445659e-04
9.719465102217010512e-04
9.941591178275084855e-04
1.004522491688762502e-03
1.002917244485855043e-03
9.893233224991461634e-04
9.638198868635827711e-04
9.265844039075006979e-04
8.778908850604171931e-04
8.181073031944089162e-04
7.476921752551569543e-04
6.671903969299641714e-04
5.772283123902842645e-04
4.785080443507828594e-04
3.718011347385222058e-04
2.579415583486950538e-04
1.378182338352438663e-04
1.236694273434783443e-05
-1.174381780583221246e-04
-2.505935200312528867e-04
-3.860751431600031045e-04
-5.228481965124151922e-04
-6.598764015248318252e-04
-7.961315761609851849e-04
-9.306030640018414860e-04
-1.062307042957723498e-03
-1.190295566569067555e-03
-1.313665273596722636e-03
-1.431565629031859681e-03
-1.543206688590114057e-03
-1.647866162248611465e-03
-1.744895802365145892e-03
-1.833727105077023745e-03
-1.913876131960346415e-03
-1.984947393953868152e-03
-2.046636830457574784e-03
-2.098733866742702979e-03
-2.141122372431684094e-03
-2.173780648213947952e-03
-2.196780441025576042e-03
-2.210284832883662072e-03
-2.214545202281742193e-03
-2.209897207677250126e-03
-2.196755862339333076e-03
-2.175609741623992042e-03
-2.147014324402775082e-03
-2.111584689084113238e-03
-2.069987538146128049e-03
-2.022932670970661699e-03
-1.971164023803190397e-03
-1.915450337958064493e-03
-1.856575571869487160e-03
-1.795329293828246478e-03
-1.732496967302894937e-03
-1.668850389812850119e-03
-1.605138339826211969e-03
-1.542077583957316951e-03
-1.480344359725050719e-03
-1.420566301708867584e-03
-1.363315078556241082e-03
-1.309099711690490161e-03
-1.258360804937405176e-03
-1.211465578078925551e-03
-1.168703809379009013e-03
-1.130284814538103262e-03
-1.096335403421117840e-03
-1.066898898113718963e-03
-1.041935222650652165e-03
-1.021321983106796873e-03
-1.004856592242018816e-03
-9.922594707110099933e-04
-9.831781325448985843e-04
-9.771921778742116618e-04
-9.738192251503697107e-04
-9.725215501601919884e-04
-9.727134313405920918e-04
-9.737691571879950221e-04
-9.750315069793496787e-04
-9.758207110238793867e-04
-9.754436807780645551e-04
-9.732035195095610882e-04
-9.684090577373459822e-04
-9.603844354124550049e-04
-9.484786016225010526e-04
-9.320745267327990545e-04
-9.105981266860054208e-04
-8.835267698273673639e-04
-8.503972608156346296e-04
-8.108132650858581756e-04
-7.644519577123776947e-04
-7.110699763716356054e-04
-6.505085139055931560e-04
-5.826975305600192801e-04
-5.076589821388590882e-04
-4.255091072276534817e-04
-3.364597111494516623e-04
-2.408183279394201506e-04
-1.389874697575728228e-04
-3.146270070617524363e-05
8.117026181705650314e-05
1.982395468794464425e-04
3.189920701248163655e-04
4.425994034490803052e-04
5.681646987212038511e-04
6.947303100705769187e-04
8.212863830042355963e-04
9.467800289072412232e-04
1.070125257034749717e-03
1.190213424996069014e-03
1.305924142094541619e-03
1.416136655379917567e-03
1.519741430141198068e-03
1.615651914302850076e-03
1.702816394606184976e-03
1.780229791051421125e-03
1.846945219023983422e-03
1.902085369638573196e-03
1.944853431362887977e-03
1.974543514640267512e-03
1.990550418772014680e-03
1.992378669101444767e-03
1.979650659532994957e-03
1.952113877807882484e-03
1.909647056414642266e-03
1.852265155693504604e-03
1.780123114133409963e-03
1.693518292424211558e-03
1.592891577328564654e-03
1.478827030511654450e-03
1.352050063282551765e-03
1.213424111396764048e-03
1.063945820699678307e-03
9.047387157881019507e-04
7.370454087895522048e-04
5.622183707276695542e-04
3.817093083013857100e-04
1.970571841228561157e-04
9.875027102230063208e-06
-1.781643994277331818e-04
-3.653438973924629267e-04
-5.499181007018949996e-04
-7.301304242150693808e-04
-9.042305750045189416e-04
-1.070492445181217772e-03
-1.227232210891199878e-03
-1.372826480264564180e-03
-1.505730223365540736e-03
-1.624494274995155968e-03
-1.727782329494434964e-03
-1.814387032180568094e-03
-1.883245058305938174e-03
-1.933451062868737219e-03
-1.964270167260459988e-03
-1.975148857636743228e-03
-1.965724185572131303e-03
-1.935830954835184589e-03
-1.885507016405722509e-03
-1.814996363438821500e-03
-1.724750010974825803e-03
-1.615424611750770987e-03
-1.487878745457796824e-03
-1.343166923370427450e-03
-1.182531210537832514e-03
-1.007390674183205291e-03
-8.193286420762964546e-04
-6.200779365367879194e-04
-4.115042131563198882e-04
-1.955875092613984013e-04
2.559774578961470168e-05
2.499040012869118864e-04
4.751329624888249318e-04
6.990588901458053873e-04
9.194523822342264398e-04
1.134104386067471756e-03
1.340850256499962530e-03
1.537593494802644897e-03
1.722328933797025782e-03
1.893164864697583199e-03
2.048344098105060653e-03
2.186263446800694021e-03
2.305491559435805630e-03
2.404784723234627657e-03
2.483100551685709940e-03
2.539609190929474451e-03
2.573702078648950394e-03
2.584997979669072764e-03
2.573346313701019815e-03
2.538827615570338637e-03
2.481751226409149597e-03
2.402650106635434522e-03
2.302272958029157914e-03
2.181573679354604275e-03
2.041698308000836418e-03
1.883969645187465614e-03
1.709869687940782394e-03
1.521020228430772225e-03
1.319161819929464069e-03
1.106131282684795708e-03
8.838382882070968229e-04
6.542411576393007688e-04
4.193223095082555807e-04
1.810636319033081057e-04
-5.857783705363559125e-05
-2.976936280588247529e-04
-5.344465540818158552e-04
-7.670922230767488392e-04
-9.939989917723535389e-04
-1.213666098254496516e-03
-1.424739679416186025e-03
-1.626026500160591146e-03
-1.816505282025451546e-03
-1.995335419968058150e-03
-2.161863097376844848e-03
-2.315624493579017569e-03
-2.456346301687730230e-03
-2.583943474285031391e-03
-2.698514354204348091e-03
-2.800333201166443214e-03
-2.889840281646258689e-03
-2.967629681796055650e-03
-3.034435199911943593e-03
-3.091114325365566795e-03
-3.138630808132424153e-03
-3.178035898126196305e-03
-3.210448733776543728e-03
-3.237036050521072128e-03
-3.258991774296343766e-03
-3.277516523437608211e-03
-3.293797531416150018e-03
-3.308989206641754516e-03
-3.324194811961559120e-03
-3.340449230955488784e-03
-3.358703364308951705e-03
-3.379810254232581187e-03
-3.404513125788220622e-03
-3.433435554337033180e-03
-3.467073840337056220e-03
-3.505791743380156766e-03
-3.549817519473745520e-03
-3.599243455909816643e-03
-3.654027622578821625e-03
-3.713997992226919682e-03
-3.778858647369356429e-03
-3.848198056649306930e-03
-3.921499159249180848e-03
-3.998151161511242883e-03
-4.077462748857769645e-03
-4.158676380997726463e-03
-4.240983550317062138e-03
-4.323540646438189285e-03
-4.405485123102237388e-03
-4.485951738662478580e-03
-4.564088554583936932e-03
-4.639072386604946134e-03
-4.710123479191819125e-03
-4.776519165360853386e-03
-4.837606240972069059e-03
-4.892811929826739424e-03
-4.941653150433151891e-03
-4.983743987701508803e-03
-5.018801372113026842e-03
-5.046648706923118934e-03
-5.067217585493743494e-03
-5.080547465911439999e-03
-5.086783318962978528e-03
-5.086171483341962382e-03
-5.079053664376349114e-03
-5.065859259265247973e-03
-5.047096164862639213e-03
-5.023340299391800684e-03
-4.995223996643536821e-03
-4.963423521362283000e-03
-4.928645869942648028e-03
-4.891615220588974369e-03
-4.853059131338680228e-03
-4.813694903658600512e-03
-4.774216235840075297e-03
-4.735280423222952041e-03
-4.697496375517480616e-03
-4.661413567909788308e-03
-4.627512225761566851e-03
-4.596194794507273834e-03
-4.567778864874426185e-03
-4.542491699357538958e-03
-4.520466445835041522e-03
-4.501739929520451322e-03
-4.486252248925923745e-03
-4.473848058417293459e-03
-4.464279490117765634e-03
-4.457210587052001273e-03
-4.452223342672866589e-03
-4.448824945117546385e-03
-4.446456334749689446e-03
-4.444501692747261472e-03
-4.442298892267731829e-03
-4.439150527696583692e-03
-4.434335466790256808e-03
-4.427120642843384093e-03
-4.416772915923469246e-03
-4.402570732355390488e-03
-4.383815492766584589e-03
-4.359842435777839219e-03
-4.330030780599861129e-03
-4.293813025835009969e-03
-4.250683283617971014e-03
-4.200204629340495432e-03
-4.142015164122232057e-03
-4.075832883237003219e-03
-4.001459298599510314e-03
-3.918781723060139194e-03
-3.827774345983647915e-03
-3.728497931191846176e-03
-3.621098441762792258e-03
-3.505804443036412629e-03
-3.382923525273632236e-03
-3.252837787096822357e-03
-3.115998558606713435e-03
-2.972920325246734916e-03
-2.824174158613914146e-03
-2.670380766365034776e-03
-2.512203248369298397e-03
-2.350339746123390836e-03
-2.185516063676425005e-03
-2.018478389422826650e-03
-1.849986371374666774e-03
-1.680806418576395516e-03
-1.511705438852992264e-03
-1.343445105145542199e-03
-1.176776632482264733e-03
-1.012436187846024564e-03
-8.511408610126030248e-04
-6.935852555804086512e-04
-5.404386192243569760e-04
-3.923425261461460254e-04
-2.499090935081089526e-04
-1.137195752590873272e-04
1.567660439854765936e-05
1.377625820181225126e-04
2.520545737350978789e-04
3.581023026718505899e-04
4.554893384895739917e-04
5.438335085929996062e-04
6.227874105275878073e-04
6.920392573134309579e-04
7.513138168200890867e-04
8.003737672325480579e-04
8.390212757423022713e-04
8.671000299750258140e-04
8.844976116987827031e-04
8.911481614530025784e-04
8.870353533693610014e-04
8.721956827108876941e-04
8.467218606982605334e-04
8.107663103251407837e-04
7.645447253462671301e-04
7.083394373650548671e-04
6.425025787537030388e-04
5.674589770812305542e-04
4.837084205133446971e-04
3.918273589018491862e-04
2.924699016258006123e-04
1.863679539107777330e-04
7.433029758332483194e-05
-4.275927817309512201e-05
-1.639450837806094065e-04
-2.882038246946890090e-04
-4.144502213219843577e-04
-5.415438069418901683e-04
-6.682970123486376172e-04
-7.934846209631105833e-04
-9.158542644780063528e-04
-1.034138077461785234e-03
-1.147065360125411326e-03
-1.253376051716839417e-03
-1.351834907048067190e-03
-1.441246156221003992e-03
-1.520468533836213162e-03
-1.588430309875996224e-03
-1.644144226294744389e-03
-1.686721961430280624e-03
-1.715388058961305872e-03
-1.729492879845876286e-03
-1.728524431701134638e-03
-1.712118878174762396e-03
-1.680069446707319969e-03
-1.632333530956112328e-03
-1.569037822763679358e-03
-1.490481372188443140e-03
-1.397136378997535606e-03
-1.289646655440061795e-03
-1.168823697499979039e-03
-1.035640397207670182e-03
-8.912223919342557744e-04
-7.368370609889666502e-04
-5.738803583086033019e-04
-4.038615997398708178e-04
-2.283863842094875944e-04
-4.913791500134677930e-05
1.321431610209433357e-04
3.136799507924126055e-04
4.936813807152559165e-04
6.703646569079250907e-04
8.419779493575288345e-04
1.006822819922183849e-03
1.163276075502368443e-03
1.309810778475959270e-03
1.445015851608208663e-03
1.567614289129681295e-03
1.676479337479790674e-03
1.770648554005369241e-03
1.849335482596997215e-03
1.911938667930939686e-03
1.958047926463407380e-03
1.987447647808569633e-03
2.000117194725804532e-03
1.996228223560539070e-03
1.976139050951580649e-03
1.940386127304025285e-03
1.889672667724679811e-03
1.824854791912939407e-03
1.746925184759323376e-03
1.656994663542886393e-03
1.556271989849753292e-03
1.446042111866843944e-03
1.327643421190160536e-03
1.202444177124884633e-03
1.071818722813988340e-03
9.371237999121524590e-04
7.996752746224991288e-04
6.607258998657904170e-04
5.214444202022864086e-04
3.828963236294369711e-04
2.460266010276834520e-04
1.116449909679152199e-04
-1.958619435273128466e-05
-1.471614131089855871e-04
-2.707381551356695783e-04
-3.901400199891298464e-04
-5.053565765126514110e-04
-6.165399397312606219e-04
-7.239981730149737697e-04
-8.281856093487529333e-04
-9.296902078526459541e-04
-1.029218213267489969e-03
-1.127576400706148743e-03
-1.225652121370714295e-03
-1.324391639664568776e-03
-1.424777110871807730e-03
-1.527802629395213010e-03
-1.634449709932928258e-03
-1.745662788625665677e-03
-1.862325171900833156e-03
-1.985235835062008816e-03
-2.115087564622370863e-03
-2.252446870150266907e-03
-2.397736098581687222e-03
-2.551218081766936166e-03
-2.712983667469658945e-03
-2.882942330796241411e-03
-3.060816284454318664e-03
-3.246137996668813953e-03
-3.438251387424233994e-03
-3.636316723730529613e-03
-3.839319082812522356e-03
-4.046080498384099257e-03
-4.255275319837936721e-03
-4.465448836718303484e-03
-4.675038685596908522e-03
-4.882398896633417286e-03
-5.085826003791132227e-03
-5.283586891261183617e-03
-5.473947832719296136e-03
-5.655204336631566853e-03
-5.825711127474422421e-03
-5.983911878581024517e-03
-6.128368058041009855e-03
-6.257786467127449993e-03
-6.371044910191890794e-03
-6.467215434135541868e-03
-6.545584915326397267e-03
-6.605672386521799742e-03
-6.647242937857100395e-03
-6.670317659093039954e-03
-6.675179642458605248e-03
-6.662375749395452705e-03
-6.632714192868718883e-03
-6.587257706733841596e-03
-6.527312534869715750e-03
-6.454413336658160541e-03
-6.370304158059393075e-03
-6.276915791865998219e-03
-6.176339914541892177e-03
-6.070800270926304289e-03
-5.962621449775403100e-03
-5.854195773200602908e-03
-5.747948700379455073e-03
-5.646303359624230654e-03
-5.551644877536485861e-03
-5.466284980094274042e-03
-5.392427472691471886e-03
-5.332135168941030436e-03
-5.287298847549445728e-03
-5.259608669034200254e-03
-5.250528590767489581e-03
-5.261274168619659714e-03
-5.292794130163684489e-03
-5.345756052449828453e-03
-5.420536247917781894e-03
-5.517214174834651416e-03
-5.635571415337331178e-03
-5.775095131582128928e-03
-5.934986040814041984e-03
-6.114170689561023234e-03
-6.311317862593901137e-03
-6.524858793546237101e-03
-6.753010870470432976e-03
-6.993804323752597814e-03
-7.245111629258419936e-03
-7.504678844157144230e-03
-7.770158559061958285e-03
-8.039143849680952664e-03
-8.309202582067224188e-03
-8.577911587725112197e-03
-8.842890126440355533e-03
-9.101831959088955287e-03
-9.352535691295904563e-03
-9.592932762987902220e-03
-9.821112659725230939e-03
-1.003534509227875168e-02
-1.023409861886708308e-02
-1.041605549063501918e-02
-1.058012262341807147e-02
-1.072543857355998803e-02
-1.085137636099921948e-02
-1.095754226158080456e-02
-1.104377061129107988e-02
-1.111011493180153950e-02
-1.115683548972393885e-02
-1.118438361080022030e-02
-1.119338321425606200e-02
-1.118460988870357588e-02
-1.115896803274130621e-02
-1.111746654986419010e-02
-1.106119361590319691e-02
-1.099129097163713785e-02
-1.090892834724065813e-02
-1.081527859454107544e-02
-1.071149390882123083e-02
-1.059868362225478006e-02
-1.047789417068958721e-02
-1.035009143941689053e-02
-1.021614593076562542e-02
-1.007682099074634283e-02
-9.932764317300831619e-03
-9.784502910824503102e-03
-9.632441517108762327e-03
-9.476864552850938414e-03
-9.317941450200348946e-03
-9.155735261247650164e-03
-8.990214253966496982e-03
-8.821266331181517456e-03
-8.648715771795725815e-03
-8.472342030823377598e-03
-8.291899986945875864e-03
-8.107141287808558236e-03
-7.917836250460144956e-03
-7.723795794316506980e-03
-7.524892838507570708e-03
-7.321082674809010343e-03
-7.112421725383033001e-03
-6.899084317738514091e-03
-6.681376938834356766e-03
-6.459749604709678038e-03
-6.234803982169513821e-03
-6.007297976606730365e-03
-5.778146594416695182e-03
-5.548418866421239715e-03
-5.319330882934273155e-03
-5.092234917956025599e-03
-4.868604667106182261e-03
-4.650016824511419948e-03
-4.438129378572267143e-03
-4.234656759399784212e-03
-4.041342438917816006e-03
-3.859929261385203203e-03
-3.692128203805981022e-03
-3.539586003542182988e-03
-3.403852369062505562e-03
-3.286347284046381260e-03
-3.188329222074846522e-03
-3.110864680113245313e-03
-3.054799842917554301e-03
-3.020734961818319179e-03
-3.009001909665604425e-03
-3.019645650807706392e-03
-3.052409833215382826e-03
-3.106727057734912437e-03
-3.181714138405411681e-03
-3.276172616230444649e-03
-3.388594601601756674e-03
-3.517174046120861552e-03
-3.659823479765087449e-03
-3.814195850113045322e-03
-3.977711504516013262e-03
-4.147589817855450167e-03
-4.320885143984075534e-03
-4.494526495049144463e-03
-4.665360413904080621e-03
-4.830196435991799229e-03
-4.985854490395546720e-03
-5.129213290351755314e-03
-5.257259116471768232e-03
-5.367134181034321182e-03
-5.456183675572685333e-03
-5.522000741273598926e-03
-5.562468667765072504e-03
-5.575799459150128715e-03
-5.560568250791637565e-03
-5.515742724050858893e-03
-5.440707119819566083e-03
-5.335280338002403380e-03
-5.199727735035315941e-03
-5.034766327878577134e-03
-4.841563283177971640e-03
-4.621727567512039919e-03
-4.377294838822439783e-03
-4.110705711586268296e-03
-3.824777650995562269e-03
-3.522670878058106574e-03
-3.207848828734276205e-03
-2.884033630426904079e-03
-2.555157318160212760e-03
-2.225309520940273525e-03
-1.898682254044503593e-03
-1.579512832146079838e-03
-1.272025718616031460e-03
-9.803741968488744428e-04
-7.085826335181627609e-04
-4.604904601522235934e-04
-2.396985579715236070e-04
-4.951884848180174815e-05
1.070720209497379508e-04
2.274743775455895429e-04
3.095017679899390623e-04
3.514114652321884808e-04
3.519285741728927120e-04
3.102635940114156516e-04
2.261231932639145594e-04
9.971397473514985259e-05
-6.826058020242705110e-05
-2.766099489656620534e-04
-5.236729221286562938e-04
-8.073401563454585305e-04
-1.125082316924198595e-03
-1.473983434851580633e-03
-1.850778742388693244e-03
-2.251896386334041340e-03
-2.673502124009564680e-03
-3.111546237672117854e-03
-3.561811943443197927e-03
-4.019964285778158085e-03
-4.481598777989830376e-03
-4.942288921025371831e-03
-5.397631817796567401e-03
-5.843291131543471018e-03
-6.275036662635764297e-03
-6.688780057668255660e-03
-7.080605978261363641e-03
-7.446798356682365200e-03
-7.783861487758243075e-03
-8.088535635455692402e-03
-8.357807095724549898e-03
-8.588912689506893183e-03
-8.779338891073086223e-03
-8.926815763064959580e-03
-9.029306043900658246e-03
-9.084989850677224754e-03
-9.092245564771955432e-03
-9.049627495994031628e-03
-8.955840868005441463e-03
-8.809715105707873958e-03
-8.610176013675639381e-03
-8.356217748503364309e-03
-8.046875310113931271e-03
-7.681198381670376919e-03
-7.258227300232066546e-03
-6.776971906603144677e-03
-6.236393817136059135e-03
-5.635392822432253729e-03
-4.972797874542485459e-03
-4.247363145669865586e-03
-3.457769282013059900e-03
-2.602630172066264756e-03
-1.680505304598555035e-03
-6.899175078766977979e-04
3.706239872823447910e-04
1.502595581691322079e-03
2.707426799119273114e-03
3.986463874682855645e-03
5.340930097512358241e-03
6.771883572797425185e-03
8.280173359997707039e-03
9.866394844685421120e-03
1.153084535244007676e-02
1.327348090177977655e-02
1.509387526977137503e-02
1.699118215261544509e-02
1.896410159191959377e-02
2.101085147779811757e-02
2.312914511716844188e-02
2.531617551371085836e-02
2.756860707993111573e-02
2.988257538449894113e-02
3.225369532862277372e-02
3.467707805982611635e-02
3.714735675799325787e-02
3.965872122526762494e-02
4.220496117018313759e-02
4.477951774582359518e-02
4.737554289386822909e-02
4.998596578463847251e-02
5.260356553867127916e-02
5.522104931525205485e-02
5.783113458626670811e-02
6.042663453240358640e-02
6.300054516496425561e-02
6.554613290320093766e-02
6.805702111538919352e-02
7.052727429127800263e-02
7.295147841569228631e-02
7.532481614626895805e-02
7.764313549109273793e-02
7.990301073036880364e-02
8.210179434094738715e-02
8.423765900000125539e-02
8.630962875044004279e-02
8.831759859325639950e-02
9.026234199421606652e-02
9.214550592901987747e-02
9.396959333928776859e-02
9.573793305951125432e-02
9.745463747572352675e-02
9.912454841244501547e-02
1.007531719157845757e-01
1.023466028166128694e-01
1.039114402120097924e-01
1.054546949412832058e-01
1.069836906235507451e-01
1.085059595548080319e-01
1.100291353020621393e-01
1.115608434757118100e-01
1.131085924871578635e-01
1.146796661006148910e-01
1.162810194301461403e-01
1.179191800143694208e-01
1.196001556735685895e-01
1.213293505480731449e-01
1.231114907893671173e-01
1.249505610546934181e-01
1.268497527499034827e-01
1.288114249844423964e-01
1.308370787548019110e-01
1.329273447289701371e-01
1.350819847245501582e-01
1.372999068687664193e-01
1.395791940260469877e-01
1.419171448771075206e-01
1.443103268983144116e-01
1.467546401124766586e-01
1.492453905315131446e-01
1.517773717447986892e-01
1.543449532653521639e-01
1.569421737777169368e-01
1.595628378496706801e-01
1.622006141022217796e-01
1.648491331178384423e-01
1.675020833322515279e-01
1.701533031693697462e-01
1.727968679104620597e-01
1.754271697184644208e-01
1.780389895949389123e-01
1.806275600264276304e-01
1.831886175474109479e-01
1.857184444271929025e-01
1.882138991907097714e-01
1.906724357734984054e-01
1.930921113820161239e-01
1.954715834477599445e-01
1.978100964237262394e-01
2.001074591894703714e-01
2.023640143642416456e-01
2.045806006812608546e-01
2.067585100087105388e-01
2.088994407636089456e-01
2.110054492870158394e-01
2.130789011841218994e-01
2.151224243561514204e-01
2.171388655331400741e-01
2.191312521420483161e-01
2.211027608981136483e-01
2.230566947188029059e-01
2.249964690107434939e-01
2.269256083041596150e-01
2.288477538569659575e-01
2.307666824439373043e-01
2.326863361941336472e-01
2.346108630739508760e-01
2.365446670572390053e-01
2.384924666992882247e-01
2.404593602422055443e-01
2.424508952677960627e-01
2.444731403806392478e-01
2.465327560354755587e-01
2.486370614493823850e-01
2.507940939941520897e-01
2.530126576317781040e-01
2.553023566598328076e-01
2.576736109226935856e-01
2.601376487291450212e-01
2.627064737738796230e-01
2.653928025465746576e-01
2.682099692119644940e-01
2.711717948312871718e-01
2.742924187660019109e-01
2.775860901634711886e-01
2.810669185244268342e-01
2.847485825998997688e-01
2.886439979108207377e-01
2.927649438173009488e-01
2.971216520055315335e-01
3.017223590418336987e-01
3.065728267961173037e-01
3.116758350425584689e-01
3.170306518358951831e-01
3.226324878513963657e-01
3.284719417980823120e-01
3.345344448089316858e-01
3.407997122411955404e-01
3.472412122033992632e-01
3.538256602001551010e-01
3.605125500991749887e-01
3.672537314075234316e-01
3.739930432070757149e-01
3.806660150056036529e-01
3.871996444061020504e-01
3.935122611170104867e-01
3.995134863865869579e-01
4.051042960598342790e-01
4.101771945121443497e-01
4.146165059068937508e-01
4.182987877220746831e-01
4.210933702062022443e-01
4.228630240486854208e-01
4.234647568471990309e-01
4.227507372946385789e-01
4.205693441825076873e-01
4.167663356849954370e-01
4.111861322576282896e-01
4.036732049981546222e-01
3.940735591200450472e-01
3.822363007671812363e-01
3.680152735627448823e-01
3.512707496413732811e-01
3.318711586757205345e-01
3.096948369757244746e-01
2.846317776145471101e-01
2.565853618501513500e-01
2.254740511613496368e-01
1.912330190453303824e-01
1.538157013787149752e-01
1.131952444623935961e-01
6.936582993140437414e-02
2.234385668159549754e-02
-2.783103946871362880e-02
-8.109514595390605873e-02
-1.373600300664114260e-01
-1.965121065288110980e-01
-2.584124287570147560e-01
-3.228967142770895471e-01
-3.897756123774851478e-01
-4.588352195811131184e-01
-5.298378456834634820e-01
-6.025230304885340615e-01
-6.766088082996334352e-01
-7.517932144010518458e-01
-8.277560246630020213e-01
-9.041607169584077175e-01
-9.806566396647679040e-01
-1.056881370211055549e+00
-1.132463243942173126e+00
-1.207024031336102032e+00
-1.280181739145199726e+00
-1.351553509587059887e+00
-1.420758589614731893e+00
-1.487421341309886902e+00
-1.551174263440927348e+00
-1.611660993348521309e+00
-1.668539258345724585e+00
-1.721483745691234857e+00
-1.770188860815565590e+00
-1.814371344246671569e+00
-1.853772718857181312e+00
-1.888161540522759196e+00
-1.917335427546574822e+00
-1.941122845970987498e+00
-1.959384630733274513e+00
-1.972015225032049512e+00
-1.978943623764990445e+00
-1.980134009692908537e+00
-1.975586074514349644e+00
-1.965335020411875577e+00
-1.949451241202779128e+00
-1.928039685947433801e+00
-1.901238911095420203e+00
-1.869219830958800399e+00
-1.832184179667851742e+00
-1.790362700756942482e+00
-1.744013083854361712e+00
-1.693417670690163579e+00
-1.638880954846484217e+00
-1.580726902298210668e+00
-1.519296121501903851e+00
-1.454942913295677931e+00
-1.388032232166588109e+00
-1.318936591248796919e+00
-1.248032943527590088e+00
-1.175699572136229776e+00
-1.102313021968731599e+00
-1.028245104114044128e+00
-9.538600033725553873e-01
-8.795115177953274355e-01
-8.055404570728492697e-01
-7.322722245914798922e-01
-6.600146055326984174e-01
-5.890557805476113185e-01
-5.196625817125762881e-01
-4.520790044407761998e-01
-3.865249856925025429e-01
-3.231954556457167782e-01
-2.622596665585947839e-01
-2.038607993739743607e-01
-1.481158449985750525e-01
-9.511575445205595891e-02
-4.492584855436670965e-02
2.413524586110440354e-03
4.688609927027259650e-02
8.849858606993203647e-02
1.272793693047563068e-01
1.632770293580540488e-01
1.965587125742233876e-01
2.272083730056813078e-01
2.553249109404050476e-01
2.810202336474732498e-01
3.044172644079754519e-01
3.256479254449072824e-01
3.448511198857471260e-01
3.621707374681207847e-01
3.777537071934177759e-01
3.917481190285723724e-01
4.043014351582205346e-01
4.155588093514401282e-01
4.256615308403154940e-01
4.347456072346876366e-01
4.429404983643526750e-01
4.503680105380805654e-01
4.571413583211922371e-01
4.633643983899019547e-01
4.691310374075295941e-01
4.745248134731251954e-01
4.796186483055119298e-01
4.844747652765100665e-01
4.891447658871811988e-01
4.936698557063800008e-01
4.980812087949380018e-01
5.024004582902248384e-01
5.066402994150924766e-01
5.108051901361596592e-01
5.148921340457496276e-01
5.188915291837916666e-01
5.227880664463485649e-01
5.265616612297360222e-01
5.301884020809269904e-01
5.336415004503961557e-01
5.368922265794784376e-01
5.399108172989717236e-01
5.426673425256239858e-01
5.451325184919465494e-01
5.472784572076963006e-01
5.490793430370252137e-01
5.505120288692146868e-01
5.515565458798215026e-01
5.521965227092938688e-01
5.524195115052062954e-01
5.522172198346986249e-01
5.515856490034454218e-01
5.505251411699866315e-01
5.490403386994658907e-01
5.471400606636267483e-01
5.448371027188890769e-01
5.421479673587323855e-01
5.390925326942697104e-01
5.356936684330765308e-01
5.319768084817140252e-01
5.279694896069165866e-01
5.237008663035809253e-01
5.192012115639573766e-01
5.145014132905190163e-01
5.096324759741779342e-01
5.046250363303749209e-01
4.995089014204900368e-01
4.943126169899096367e-01
4.890630726794920058e-01
4.837851501139882604e-01
4.785014188449009387e-01
4.732318839996046966e-01
4.679937884053463337e-01
4.628014710590696579e-01
4.576662825142931990e-01
4.525965568819709239e-01
4.475976390679372585e-01
4.426719647833365356e-01
4.378191903116168127e-01
4.330363678900488456e-01
4.283181620410503876e-01
4.236571016679464563e-01
4.190438619897463579e-01
4.144675703413084333e-01
4.099161293757534463e-01
4.053765513130789255e-01
4.008352967180973114e-01
3.962786114705185714e-01
3.916928557105957553e-01
3.870648191850420972e-01
3.823820175293883850e-01
3.776329645103495003e-01
3.728074162090603272e-01
3.678965833472802593e-01
3.628933088636156490e-01
3.577922085355701998e-01
3.525897731267443325e-01
3.472844313903570290e-01
3.418765738275335031e-01
3.363685380320362017e-01
3.307645569064157631e-01
3.250706718021003638e-01
3.192946132674234216e-01
3.134456524055792559e-01
3.075344264691025065e-01
3.015727426976198555e-01
2.955733645127158749e-01
2.895497845941324977e-01
2.835159892723548292e-01
2.774862189564964443e-01
2.714747289872380676e-01
2.654955553792447409e-01
2.595622895838040622e-01
2.536878662353752589e-01
2.478843673968790517e-01
2.421628465592113866e-01
2.365331749111446724e-01
2.310039123748616752e-01
2.255822048295572368e-01
2.202737090064413317e-01
2.150825456321577012e-01
2.100112808525785302e-01
2.050609357405933086e-01
2.002310228184949192e-01
1.955196083849416178e-01
1.909233987782090747e-01
1.864378484561181326e-01
1.820572873551689341e-01
1.777750648108359366e-01
1.735837068346182677e-01
1.694750837572208124e-01
1.654405848603826279e-01
1.614712967073992089e-01
1.575581818294345959e-01
1.536922545334783730e-01
1.498647508237105075e-01
1.460672893736911504e-01
1.422920210914455086e-01
1.385317647337451774e-01
1.347801265936301174e-01
1.310316024087429532e-01
1.272816602562640287e-01
1.235268033945950972e-01
1.197646124901869252e-01
1.159937669359622225e-01
1.122140455386177876e-01
1.084263070474765084e-01
1.046324514119138238e-01
1.008353630338131995e-01
9.703883754513370485e-02
9.324749371873033987e-02
8.946667268867396217e-02
8.570232651744190411e-02
8.196089842184134389e-02
7.824919703802460380e-02
7.457426724471367951e-02
7.094325973207095404e-02
6.736330195418005484e-02
6.384137261070768621e-02
6.038418181840684434e-02
5.699805899496442757e-02
5.368885026240066000e-02
5.046182696731803946e-02
4.732160659923788371e-02
4.427208731182623314e-02
4.131639665875831008e-02
3.845685526608128707e-02
3.569495561737383305e-02
3.303135586351733238e-02
3.046588842616189050e-02
2.799758276493774858e-02
2.562470160363410077e-02
2.334478954150107435e-02
2.115473284654730349e-02
1.905082902347289553e-02
1.702886478379303514e-02
1.508420053881878026e-02
1.321185992916712633e-02
1.140662263314933672e-02
9.663118628143665609e-03
7.975922246237599628e-03
6.339644393309571725e-03
4.749021210490783629e-03
3.198997824115591172e-03
1.684805795706723541e-03
2.020330373344537609e-04
-1.253314731287558451e-03
-2.684761951148521408e-03
-4.095321205024344581e-03
-5.487461710949205658e-03
-6.863088468090223528e-03
-8.223532243421904572e-03
-9.569550193549585665e-03
-1.090133688520949357e-02
-1.221854500055654866e-02
-1.352031533531370192e-02
-1.480531512896189963e-02
-1.607178381366459324e-02
-1.731758518005266020e-02
-1.854026483457752589e-02
-1.973711174489687151e-02
-2.090522266753522956e-02
-2.204156825086702604e-02
-2.314305958720537862e-02
-2.420661391424768286e-02
-2.522921843308392406e-02
-2.620799122129632147e-02
-2.714023803933326637e-02
-2.802350426442797374e-02
-2.885562120542976838e-02
-2.963474602513111247e-02
-3.035939481792862896e-02
-3.102846841729903216e-02
-3.164127068343863119e-02
-3.219751918081046466e-02
-3.269734824770767490e-02
-3.314130455951678350e-02
-3.353033557136492204e-02
-3.386577113272114942e-02
-3.414929879830299470e-02
-3.438293347331602273e-02
-3.456898207203406431e-02
-3.471000386877560323e-02
-3.480876734775851383e-02
-3.486820441552680033e-02
-3.489136287348074822e-02
-3.488135780249342760e-02
-3.484132298980205378e-02
-3.477436304088368790e-02
-3.468350694350074565e-02
-3.457166392819232409e-02
-3.444158226080636098e-02
-3.429581154440443369e-02
-3.413666911058745035e-02
-3.396621092724222413e-02
-3.378620735449026913e-02
-3.359812403679478948e-02
-3.340310816575944863e-02
-3.320198015306281836e-02
-3.299523056480462707e-02
-3.278302254144249694e-02
-3.256519921833609527e-02
-3.234129608642492132e-02
-3.211055784576305472e-02
-3.187195948521874544e-02
-3.162423097653214998e-02
-3.136588535001245959e-02
-3.109524935015804334e-02
-3.081049636898360727e-02
-3.050968086522762995e-02
-3.019077392936385384e-02
-2.985169933537414749e-02
-2.949036938978474506e-02
-2.910472025492470693e-02
-2.869274617524199267e-02
-2.825253204909882604e-02
-2.778228396224173904e-02
-2.728035732046831668e-02
-2.674528228862236776e-02
-2.617578605285246496e-02
-2.557081200795268197e-02
-2.492953532430345481e-02
-2.425137504210649400e-02
-2.353600253172512258e-02
-2.278334631417600412e-02
-2.199359334683706826e-02
-2.116718678245055676e-02
-2.030482031951945723e-02
-1.940742954427372366e-02
-1.847618022170619337e-02
-1.751245394091465249e-02
-1.651783140262457275e-02
-1.549407364496034611e-02
-1.444310143692688342e-02
-1.336697329039017619e-02
-1.226786237520855437e-02
-1.114803276381732579e-02
-1.000981530476486442e-02
-8.855583415112265946e-03
-7.687729212038394572e-03
-6.508640221317603565e-03
-5.320677034971877176e-03
-4.126152094928649261e-03
-2.927309937154410832e-03
-1.726309058047559471e-03
-5.252057018293920711e-04
6.740603967797699362e-04
1.869678136423784864e-03
3.059974873607014447e-03
4.243424004268813582e-03
5.418650232790402088e-03
6.584432312711376196e-03
7.739703585690023077e-03
8.883550180179309447e-03
1.001520707996628526e-02
1.113405197763997143e-02
1.223959724772542140e-02
1.333148010522608277e-02
1.440945113656860732e-02
1.547336135467882595e-02
1.652314794092989494e-02
1.755881915771013296e-02
1.858043828808801298e-02
1.958810719972430350e-02
2.058194942206469438e-02
2.156209322795212338e-02
2.252865497831752634e-02
2.348172273567284557e-02
2.442134064575537250e-02
2.534749416502565106e-02
2.626009637018577106e-02
2.715897554007369250e-02
2.804386424855344687e-02
2.891439001872435702e-02
2.977006786878691469e-02
3.061029469864995009e-02
3.143434566369911198e-02
3.224137269575222398e-02
3.303040506590738251e-02
3.380035208407854153e-02
3.455000800442142167e-02
3.527805899029020503e-02
3.598309206086799245e-02
3.666360598197309500e-02
3.731802403368857796e-02
3.794470834241614465e-02
3.854197576805422354e-02
3.910811506075496935e-02
3.964140510194031491e-02
4.014013403617345405e-02
4.060261888367061589e-02
4.102722552815381285e-02
4.141238882714584624e-02
4.175663239835140927e-02
4.205858791731870161e-02
4.231701366487312238e-02
4.253081204832626777e-02
4.269904561752608380e-02
4.282095163333020371e-02
4.289595476389355261e-02
4.292367772026837308e-02
4.290394963830729963e-02
4.283681204036941803e-02
4.272252227860193208e-02
4.256155424702571383e-02
4.235459637498056179e-02
4.210254679048073406e-02
4.180650578747735491e-02
4.146776548431591047e-02
4.108779681398035816e-02
4.066823389308372311e-02
4.021085608755414764e-02
3.971756772669118168e-02
3.919037587801099676e-02
3.863136632651680002e-02
3.804267806536753421e-02
3.742647662604734610e-02
3.678492650196201613e-02
3.612016313778957516e-02
3.543426466537076547e-02
3.472922396267128647e-02
3.400692115263000831e-02
3.326909718257762411e-02
3.251732862611606684e-02
3.175300419267395452e-02
3.097730319781076200e-02
3.019117637228971307e-02
2.939532920603808719e-02
2.859020811780474056e-02
2.777598980569375917e-02
2.695257379592590555e-02
2.611957841436121641e-02
2.527634023329584576e-02
2.442191709755867773e-02
2.355509477136281254e-02
2.267439712199439961e-02
2.177809979019904377e-02
2.086424720297534036e-02
1.993067280310821879e-02
1.897502228644928554e-02
1.799477949606082677e-02
1.698729490148458837e-02
1.594981609071533663e-02
1.487952010401679369e-02
1.377354722186489334e-02
1.262903579720516672e-02
1.144315773868519875e-02
1.021315420016102350e-02
8.936371124773285698e-03
7.610294123893513590e-03
6.232582354732943072e-03
4.801101090946023608e-03
3.313952452299795924e-03
1.769504001115494718e-03
1.664149082280392265e-04
-1.496340641434596276e-03
-3.219453050364382094e-03
-5.003260154399275308e-03
-6.847733488902946718e-03
-8.752468094078981811e-03
-1.071667599418160872e-02
-1.273918341841932464e-02
-1.481843167719676217e-02
-1.695248180438948746e-02
-1.913902268388779221e-02
-2.137538282100525169e-02
-2.365854524729057301e-02
-2.598516565801325603e-02
-2.835159334220087660e-02
-3.075389475906372544e-02
-3.318787946985837095e-02
-3.564912806143206991e-02
-3.813302167674390009e-02
-4.063477291214445675e-02
-4.314945766541649491e-02
-4.567204758108417417e-02
-4.819744277388528231e-02
-5.072050440563397739e-02
-5.323608678936089800e-02
-5.573906876629747265e-02
-5.822438395610598366e-02
-6.068704959532402604e-02
-6.312219372074222290e-02
-6.552508050478858537e-02
-6.789113344334210542e-02
-7.021595630184231107e-02
-7.249535161499333358e-02
-7.472533676461720620e-02
-7.690215730734219213e-02
-7.902229778285882467e-02
-8.108248981637677932e-02
-8.307971775498196321e-02
-8.501122166678147518e-02
-8.687449793609680615e-02
-8.866729751348914612e-02
-9.038762206660375109e-02
-9.203371805319709997e-02
-9.360406904362000846e-02
-9.509738648816533357e-02
-9.651259903924071237e-02
-9.784884071250170290e-02
-9.910543814048931865e-02
-1.002818971598542913e-01
-1.013778889583699383e-01
-1.023932359774888251e-01
-1.033278977758708139e-01
-1.041819571442220982e-01
-1.049556065487267237e-01
-1.056491352776905146e-01
-1.062629172122098314e-01
-1.067973995015401439e-01
-1.072530922816885418e-01
-1.076305593893980145e-01
-1.079304103195398989e-01
-1.081532933706793320e-01
-1.082998900184015539e-01
-1.083709105946766005e-01
-1.083670910847080726e-01
-1.082891912222534586e-01
-1.081379936511589201e-01
-1.079143041268262188e-01
-1.076189527114479877e-01
-1.072527958270207277e-01
-1.068167190112741805e-01
-1.063116402508096220e-01
-1.057385138699554750e-01
-1.050983347396957368e-01
-1.043921426184086648e-01
-1.036210265736213776e-01
-1.027861293935534576e-01
-1.018886517066952685e-01
-1.009298558175074773e-01
-9.991106903321515798e-02
-9.883368647366186366e-02
-9.769917327612313851e-02
-9.650906608129117270e-02
-9.526497368476073702e-02
-9.396857695134078203e-02
-9.262162776214809268e-02
-9.122594721966763298e-02
-8.978342289471953619e-02
-8.829600533132221651e-02
-8.676570364505872823e-02
-8.519458044146983877e-02
-8.358474605175596206e-02
-8.193835206549612837e-02
-8.025758441556607448e-02
-7.854465602438566452e-02
-7.680179904119824319e-02
-7.503125690630128852e-02
-7.323527628050648108e-02
-7.141609902786685837e-02
-6.957595420870962832e-02
-6.771705040638217876e-02
-6.584156829371708153e-02
-6.395165365372645905e-02
-6.204941090308083856e-02
-6.013689722458025883e-02
-5.821611740933706203e-02
-5.628901942148469006e-02
-5.435749070401397348e-02
-5.242335540242059472e-02
-5.048837236301858405e-02
-4.855423402666999427e-02
-4.662256615674288673e-02
-4.469492838594819190e-02
-4.277281556020447878e-02
-4.085765988095262091e-02
-3.895083372581988057e-02
-3.705365301447295645e-02
-3.516738116042102125e-02
-3.329323349499729856e-02
-3.143238203336148895e-02
-2.958596046964969556e-02
-2.775506929450922630e-02
-2.594078095540335027e-02
-2.414414495655041459e-02
-2.236619271897601416e-02
-2.060794220884604178e-02
-1.887040208435419170e-02
-1.715457541182308435e-02
-1.546146273532728911e-02
-1.379206454861038079e-02
-1.214738301358304386e-02
-1.052842292121268335e-02
-8.936191781302683587e-03
-7.371699075308969784e-03
-5.835954602415894914e-03
-4.329966097511839078e-03
-2.854735893747392672e-03
-1.411256867156165289e-03
-5.075121233111370603e-07
1.376553629836190559e-03
2.718994140650034339e-03
4.025914464887123817e-03
5.296455079087524116e-03
6.529803979820284626e-03
7.725204381907006292e-03
8.881962505887908144e-03
9.999455316221778772e-03
1.107713807191948799e-02
1.211455158931111671e-02
1.311132908460310199e-02
1.406720234120708429e-02
1.498200728852055671e-02
1.585568869953564441e-02
1.668830398657669689e-02
1.748002597973066785e-02
1.823114462860842694e-02
1.894206749863653130e-02
1.961331909462589451e-02
2.024553886840787381e-02
2.083947796095292695e-02
2.139599478166459914e-02
2.191604915526183806e-02
2.240069541273795664e-02
2.285107419467012624e-02
2.326840321946084880e-02
2.365396708213983110e-02
2.400910619338016486e-02
2.433520485270769529e-02
2.463367880328090967e-02
2.490596228561002545e-02
2.515349482684115304e-02
2.537770783569624072e-02
2.558001127897028409e-02
2.576178056647899714e-02
2.592434387669563176e-02
2.606897002305395145e-02
2.619685705576378643e-02
2.630912184385889377e-02
2.640679074701323542e-02
2.649079145382042880e-02
2.656194623774826846e-02
2.662096660509178855e-02
2.666844952353886189e-02
2.670487535488657443e-02
2.673060733819989168e-02
2.674589286850504594e-02
2.675086650197031762e-02
2.674555453942102992e-02
2.672988134298768040e-02
2.670367720671612891e-02
2.666668769205369008e-02
2.661858424390831090e-02
2.655897607318937273e-02
2.648742312855701178e-02
2.640344983497723910e-02
2.630655963793296359e-02
2.619624985443990903e-02
2.607202689100375156e-02
2.593342149475431208e-02
2.578000375269258806e-02
2.561139762611728404e-02
2.542729495127261582e-02
2.522746846136380769e-02
2.501178380593887043e-02
2.478021023841955883e-02
2.453282987546952579e-02
2.426984527582181153e-02
2.399158540169000001e-02
2.369850959926020004e-02
2.339120966316324962e-02
2.307040990029886676e-02
2.273696515118063879e-02
2.239185679890099215e-02
2.203618665345788430e-02
2.167116903086645230e-02
2.129812092396787468e-02
2.091845033205093699e-02
2.053364319568781043e-02
2.014524883074357911e-02
1.975486412972188993e-02
1.936411684811183490e-02
1.897464797303562156e-02
1.858809370356499790e-02
1.820606714680331889e-02
1.783014003735307329e-02
1.746182469750697311e-02
1.710255657177740113e-02
1.675367756790094309e-02
1.641642042644285079e-02
1.609189439325137486e-02
1.578107240925494606e-02
1.548477991921624018e-02
1.520368566145630616e-02
1.493829444190167451e-02
1.468894209246045419e-02
1.445579254806910255e-02
1.423883728165056817e-02
1.403789694364768539e-02
1.385262532770021975e-02
1.368251557059469055e-02
1.352690844129627624e-02
1.338500266905377420e-02
1.325586707492128549e-02
1.313845440296496601e-02
1.303161667266792938e-02
1.293412171085519223e-02
1.284467067836053342e-02
1.276191643104846764e-02
1.268448224985649006e-02
1.261098076327745766e-02
1.254003276689814872e-02
1.247028573725571590e-02
1.240043157578045625e-02
1.232922346843848098e-02
1.225549152334759646e-02
1.217815714866416453e-02
1.209624573963518496e-02
1.200889753458315307e-02
1.191537659083616481e-02
1.181507777855657186e-02
1.170753149289035025e-02
1.159240628495988509e-02
1.146950927279312069e-02
1.133878438596326935e-02
1.120030842934467002e-02
1.105428522879471284e-02
1.090103779606781988e-02
1.074099872839897468e-02
1.057469918208293023e-02
1.040275632673890588e-02
1.022585982999324634e-02
1.004475739860688846e-02
9.860239677649176165e-03
9.673124835487810838e-03
9.484243150782226822e-03
9.294421656796178835e-03
9.104469393611583014e-03
8.915163303099403469e-03
8.727235088139457392e-03
8.541359300627023379e-03
8.358142753000161185e-03
8.178115582901233915e-03
8.001723984940051909e-03
7.829324712488185123e-03
7.661181490215550859e-03
7.497463457512443946e-03
7.338245484432873340e-03
7.183510426999611606e-03
7.033153303433272753e-03
6.886987135964734059e-03
6.744750513946273437e-03
6.606116659988245897e-03
6.470703776758673399e-03
6.338086447226377179e-03
6.207807950101999761e-03
6.079393185733993066e-03
5.952361995114200006e-03
5.826242519172215341e-03
5.700584445411492271e-03
5.574971850966279827e-03
5.449035316037197790e-03
5.322463128718930847e-03
5.195011401423832789e-03
5.066512732185808957e-03
4.936883462235027581e-03
4.806129110898358335e-03
4.674348062774580717e-03
4.541733359703019161e-03
4.408572515382860012e-03
4.275245384626673827e-03
4.142220003766248874e-03
4.010046581162423490e-03
3.879349643428027256e-03
3.750818433415436300e-03
3.625195815280539153e-03
3.503265706123994544e-03
3.385839488895051042e-03
3.273741375485265861e-03
3.167793116529371567e-03
3.068798320259546498e-03
2.977526586260772871e-03
2.894697822472272475e-03
2.820966925512072201e-03
2.756909108550980366e-03
2.703006254261321618e-03
2.659634432269935688e-03
2.627052880237855641e-03
2.605394598800233382e-03
2.594658753512522897e-03
2.594705150440235024e-03
2.605250726634932273e-03
2.625868298622559792e-03
2.655987488787606588e-03
2.694897936520914555e-03
2.741754826886914301e-03
2.795586533638407846e-03
2.855304286991507297e-03
2.919713938493766203e-03
2.987529452576311115e-03
3.057387950438888568e-03
3.127866189030247164e-03
3.197498175622411586e-03
3.264793693110009266e-03
3.328257358364030121e-03
3.386408038641934744e-03
3.437798291143093730e-03
3.481033528945406269e-03
3.514790615908622989e-03
3.537835637239747540e-03
3.549040535131386953e-03
3.547398398651523902e-03
3.532037192182962710e-03
3.502231667435402700e-03
3.457413288536630245e-03
3.397178077882106410e-03
3.321292227251942085e-03
3.229695401995017010e-03
3.122501676749711141e-03
2.999998195512058614e-03
2.862641411897747651e-03
2.711051128337771312e-03
2.546002405843198792e-03
2.368415392418801897e-03
2.179343272130108197e-03
1.979958669482883606e-03
1.771538433398273885e-03
1.555447233749332340e-03
1.333120190935425161e-03
1.106044778168769477e-03
8.757422666209196700e-04
6.437489097002488088e-04
4.115972637451329212e-04
1.807978165316509250e-04
-4.717876823885741149e-05
-2.709186057146069815e-04
-4.890804451491940086e-04
-7.004103180269175694e-04
-9.037547281617741438e-04
-1.098072171861965048e-03
-1.282442972301890216e-03
-1.456077289599230079e-03
-1.618321265390105113e-03
-1.768661101483414268e-03
-1.906725317803805147e-03
-2.032284983140513965e-03
-2.145252070507804292e-03
-2.245676013136235858e-03
-2.333738483852472543e-03
-2.409746653743532769e-03
-2.474124981869994452e-03
-2.527405691076571766e-03
-2.570218128815801324e-03
-2.603277235484719593e-03
-2.627371216335452463e-03
-2.643348757412982385e-03
-2.652105828439421317e-03
-2.654572421198298903e-03
-2.651699319988641470e-03
-2.644445133040739492e-03
-2.633763756100807301e-03
-2.620592428538381577e-03
-2.605840424354801625e-03
-2.590378789570060760e-03
-2.575030885974413913e-03
-2.560564087417066623e-03
-2.547682601766213147e-03
-2.537021479007094821e-03
-2.529141768030347594e-03
-2.524526989136207863e-03
-2.523580748469973593e-03
-2.526625567764999736e-03
-2.533902768548550958e-03
-2.545573561140003580e-03
-2.561721063357446770e-03
-2.582353165747558379e-03
-2.607406237243138376e-03
-2.636749562455898994e-03
-2.670190315554621299e-03
-2.707479077639149065e-03
-2.748315655112063428e-03
-2.792355211268026348e-03
-2.839214504664712424e-03
-2.888478180414828355e-03
-2.939704972045550403e-03
-2.992433843280786418e-03
-3.046189851555474934e-03
-3.100489750239946232e-03
-3.154847306591905196e-03
-3.208778189937002562e-03
-3.261804445746342707e-03
-3.313458588538128850e-03
-3.363287246956461751e-03
-3.410854369958706955e-03
-3.455743954609402212e-03
-3.497562486489224406e-03
-3.535940918224233197e-03
-3.570536308067721095e-03
-3.601033250947625972e-03
-3.627144955079405868e-03
-3.648614108653894586e-03
-3.665213564386776961e-03
-3.676746929888854553e-03
-3.683049004478158601e-03
-3.683986217347229395e-03
-3.679456983914527329e-03
-3.669392044620353906e-03
-3.653754776526195718e-03
-3.632541652502270079e-03
-3.605782523596940195e-03
-3.573541036315210778e-03
-3.535915010010221536e-03
-3.493036796521574103e-03
-3.445073562319257016e-03
-3.392227584174237892e-03
-3.334736227728805034e-03
-3.272871970810029268e-03
-3.206942079849070017e-03
-3.137288181344472220e-03
-3.064285395190123173e-03
-2.988341169605568566e-03
-2.909893825243300980e-03
-2.829410591707079686e-03
-2.747385246128170120e-03
-2.664335292985700251e-03
-2.580798738187737099e-03
-2.497330275898674429e-03
-2.414497018156696456e-03
-2.332873844367735518e-03
-2.253038198762991485e-03
-2.175564611727251376e-03
-2.101018799279110848e-03
-2.029951490549285545e-03
-1.962892027073753331e-03
-1.900341846107618700e-03
-1.842767851979084867e-03
-1.790595895252694320e-03
-1.744204257510461372e-03
-1.703917503912692711e-03
-1.670000586398224076e-03
-1.642653354585874330e-03
-1.622005640783644826e-03
-1.608112992145250587e-03
-1.600953147803770970e-03
-1.600423259492286506e-03
-1.606338081473613136e-03
-1.618429068845043169e-03
-1.636344520567826338e-03
-1.659650771773029960e-03
-1.687834464422356294e-03
-1.720305874809311244e-03
-1.756403410350990081e-03
-1.795399164940144048e-03
-1.836505474044480531e-03
-1.878882427093460112e-03
-1.921646368806990317e-03
-1.963879176611057781e-03
-2.004638193590635269e-03
-2.042966884942748647e-03
-2.077906036306378067e-03
-2.108505078692390813e-03
-2.133833794078071871e-03
-2.152994043677166573e-03
-2.165131409067713557e-03
-2.169446522703727311e-03
-2.165206041880971596e-03
-2.151753057575518310e-03
-2.128516797325487753e-03
-2.095021479108873964e-03
-2.050894110384677248e-03
-1.995871344327553205e-03
-1.929805014239620265e-03
-1.852666475785956848e-03
-1.764549486422411703e-03
-1.665671688842741390e-03
-1.556374696586434927e-03
-1.437122632138120156e-03
-1.308499260707630691e-03
-1.171203644763172107e-03
-1.026044397250708935e-03
-8.739325984306678743e-04
-7.158735087633134962e-04
-5.529570162030696730e-04
-3.863471037253022656e-04
-2.172704227848253902e-04
-4.700402097514480413e-05
1.231374567891207669e-04
2.918150918823473900e-04
4.576793629611573930e-04
6.193838395747189264e-04
7.755989013406919264e-04
9.250252114143555325e-04
1.066406841012309484e-03
1.198543828133533584e-03
1.320304035684503104e-03
1.430634161952849858e-03
1.528569889488586324e-03
1.613244835390915954e-03
1.683898319323874930e-03
1.739881977607536353e-03
1.780665019650259353e-03
1.805838033822718212e-03
1.815115480136551352e-03
1.808336712254930397e-03
1.785465660207842141e-03
1.746589074904392799e-03
1.691913557425952152e-03
1.621761266652534030e-03
1.536564484750913050e-03
1.436859110623600307e-03
1.323277154513637218e-03
1.196538457521077476e-03
1.057441609641685985e-03
9.068543703352648566e-04
7.457036408399694274e-04
5.749651453757595888e-04
3.956528992826072286e-04
2.088087921048187995e-04
1.549220889608989281e-05
-1.832299730769089841e-04
-3.862930885520236336e-04
-5.926437910205636234e-04
-8.012485716523221144e-04
-1.011101580230917276e-03
-1.221231579845895830e-03
-1.430708093373221851e-03
-1.638646610438373357e-03
-1.844212895342158941e-03
-2.046626232889621391e-03
-2.245161811738034720e-03
-2.439152036699589968e-03
-2.627987070585439868e-03
-2.811114396933885474e-03
-2.988037591910680437e-03
-3.158314310546438564e-03
-3.321553680867832259e-03
-3.477413054627085786e-03
-3.625594238069228606e-03
-3.765839439657922474e-03
-3.897926925540899906e-03
-4.021666563451336066e-03
-4.136895204605502488e-03
-4.243472213069491607e-03
-4.341275131993936956e-03
-4.430195695065136142e-03
-4.510136104541109803e-03
-4.581005834680009110e-03
-4.642718921798821841e-03
-4.695191871979201119e-03
-4.738342138826333663e-03
-4.772087404654738046e-03
-4.796345460118131565e-03
-4.811034748867681031e-03
-4.816075730286470576e-03
-4.811392866339327806e-03
-4.796917286336837422e-03
-4.772590011401406027e-03
-4.738365754598560312e-03
-4.694217116364865321e-03
-4.640139202838173063e-03
-4.576154536319972620e-03
-4.502318121090478735e-03
-4.418722580269722824e-03
-4.325503225504387372e-03
-4.222843010708754626e-03
-4.110977185922602001e-03
-3.990197567243318304e-03
-3.860856269087726677e-03
-3.723368868383483948e-03
-3.578216879256873855e-03
-3.425949284558256046e-03
-3.267183341197606086e-03
-3.102604391559076521e-03
-2.932964657854223497e-03
-2.759080910365420761e-03
-2.581831240254486588e-03
-2.402150637697985595e-03
-2.221025563647211539e-03
-2.039487481344990760e-03
-1.858605387917164472e-03
-1.679477449381915760e-03
-1.503221811806477407e-03
-1.330966650095765248e-03
-1.163839588581676949e-03
-1.002956619694970629e-03
-8.494106712229862509e-04
-7.042599286610392835e-04
-5.685161337839449982e-04
-4.431329324998293053e-04
-3.289944894186872600e-04
-2.269045383013081182e-04
-1.375760641473272735e-04
-6.162170641428256393e-05
4.549536889481384181e-07
4.826706945315974612e-05
8.155094810236812966e-05
1.001712748661436400e-04
1.041248115877751421e-04
9.354264189666093967e-05
6.869085033668086474e-05
2.996964204231428310e-05
-2.208924076493114274e-05
-8.682669964184501347e-05
-1.634621335644347549e-04
-2.511007933658992671e-04
-3.487427259920440181e-04
-4.552931241605026320e-04
-5.695738856416406211e-04
-6.903363834569928824e-04
-8.162753398554466145e-04
-9.460435056882407750e-04
-1.078266973039042169e-03
-1.211560943637484105e-03
-1.344545795106865055e-03
-1.475863203151793566e-03
-1.604192068655881055e-03
-1.728264094997621503e-03
-1.846878673959512478e-03
-1.958917018194691970e-03
-2.063355218074392969e-03
-2.159276162234920714e-03
-2.245880022452909335e-03
-2.322493182482920828e-03
-2.388575497183254622e-03
-2.443725745516118781e-03
-2.487685185959032791e-03
-2.520339240073468396e-03
-2.541717118869883749e-03
-2.551989480367771335e-03
-2.551464142334280028e-03
-2.540579894777148483e-03
-2.519898429864460450e-03
-2.490094561579960473e-03
-2.451944999985689044e-03
-2.406315539832103514e-03
-2.354147141528330732e-03
-2.296440922902713740e-03
-2.234242369992540944e-03
-2.168624953963063130e-03
-2.100673460414376713e-03
-2.031467245159453844e-03
-1.962063690380530089e-03
-1.893482086864762496e-03
-1.826688190949208408e-03
-1.762579714328959711e-03
-1.701973035509548281e-03
-1.645591111847023247e-03
-1.594053118837725474e-03
-1.547865726305295685e-03
-1.507416264909206254e-03
-1.472967769237082175e-03
-1.444656154151883424e-03
-1.422489461127277293e-03
-1.406349152265021218e-03
-1.395993610328827728e-03
-1.391063556268752307e-03
-1.391089423816887702e-03
-1.395500600362019035e-03
-1.403636306809474951e-03
-1.414758000180172401e-03
-1.428063005569997620e-03
-1.442699299092239451e-03
-1.457780966972500435e-03
-1.472404402828485269e-03
-1.485664678232151903e-03
-1.496672035474077558e-03
-1.504568037492070827e-03
-1.508541212644216867e-03
-1.507841907320073673e-03
-1.501796115693760031e-03
-1.489817949639630655e-03
-1.471420768382128083e-03
-1.446226456671173208e-03
-1.413972959922347875e-03
-1.374519787643000996e-03
-1.327851423006692943e-03
-1.274078607735438249e-03
-1.213437398235932664e-03
-1.146286140925618447e-03
-1.073100227621016445e-03
-9.944648449025702414e-04
-9.110657534012165954e-04
-8.236782664293626184e-04
-7.331547544926948507e-04
-6.404105700784960224e-04
-5.464089210188364642e-04
-4.521448453091856312e-04
-3.586284745909813104e-04
-2.668680297060565913e-04
-1.778526412457431002e-04
-9.253551828937065741e-05
-1.181757720542167709e-05
6.346809833046935980e-05
1.325707888346820229e-04
1.948352864910772543e-04
2.497134427135912498e-04
2.967739683263504857e-04
3.357103462197866413e-04
3.663465826452322240e-04
3.886408147590909704e-04
4.026866236735680577e-04
4.087120140736484283e-04
4.070761157084178128e-04
3.982636557959831018e-04
3.828772398372083077e-04
3.616275704798037490e-04
3.353217741485594087e-04
3.048500387996710059e-04
2.711707681479802218e-04
2.352944957054523131e-04
1.982668431881760211e-04
1.611507366095278908e-04
1.250082846987488625e-04
9.088258329958059456e-05
5.977973706338403191e-05
3.265143935077254939e-05
1.037830573066247595e-05
-6.245585888856679405e-06
-1.652683101648145920e-05
-1.988519199341699418e-05
-1.586418673277378432e-05
-4.139722806714149017e-06
1.547344585178606557e-05
4.301764881578047157e-05
7.839049358044550395e-05
1.213455778493551960e-04
1.714955987449690478e-04
2.283177890842478565e-04
2.911616311690396809e-04
3.592588052333337283e-04
4.317350814223588039e-04
5.076240618839476500e-04
5.858825019372513373e-04
6.654069789662051980e-04
