-1.002736017462836003e-04
-1.192486288851045493e-03
6.947904034928290538e-05
1.235486697682676221e-03
7.752348759754493744e-04
9.770905017136533813e-04
6.235193890183002166e-04
-1.194552311682707839e-03
-2.178927182521324217e-03
-6.393055543319930197e-04
2.335805704185686313e-04
-6.138917732002311441e-04
-1.156633373064944967e-04
1.741280310233719788e-03
2.526321586246164236e-03
1.789663403087926466e-03
-9.214370411897264282e-04
-1.026900486947141759e-03
-9.675235670289547953e-04
-5.910204648295072855e-04
-8.132493383730586773e-04
4.457856308924552501e-05
-1.524004023525051996e-04
-1.809871216278579524e-04
5.726042369303536951e-04
-6.342385432888107168e-04
-4.406134124837800064e-04
1.156859343213860860e-03
1.413839244198678924e-03
-4.319327789453386210e-04
-1.482394524867323374e-03
7.009640839844798448e-04
1.383455659240734716e-03
1.322419562682407420e-03
6.643244634844666175e-04
-1.207064700450129853e-03
-3.381097221418421367e-03
-2.656689927839655640e-03
6.596038369751162011e-04
1.837929926496884719e-03
1.795471459267624671e-03
1.907872044169856268e-03
6.518026303232498037e-04
-2.918066018724449809e-04
-1.531007406355011950e-03
-2.911074642090344042e-03
-1.530966146221484281e-03
6.269321402644490024e-04
1.273813465984814913e-03
1.017994669304284451e-03
-4.505537337176525737e-04
1.437603994273324234e-03
1.635405764524475994e-03
4.333081828581633230e-04
-8.122292939000368269e-04
1.238210708665125068e-03
-2.982569802970541964e-04
-5.522472714719227002e-04
-6.004668511252134059e-04
-1.513277105791191283e-03
-2.064918686680974891e-03
-1.327281393087275220e-03
2.613806483494875090e-04
-1.730601716658552232e-04
4.496976161203970930e-04
1.701518415304636555e-03
7.114376832232067278e-04
-3.598434949372474804e-04
-1.201809508051512372e-04
1.442374503177664639e-03
1.890880386195706005e-03
9.173260222384339597e-04
1.564295179379596298e-03
4.609844151281494696e-04
-1.951290574180072684e-03
-3.095294447890238523e-03
-3.443834876241882656e-03
-1.177768934939707945e-03
3.259062830002891844e-05
1.250573350423428171e-03
1.100542054502505083e-03
8.019380870586087810e-04
8.109571654137797412e-04
1.277182143918567138e-03
2.500685190016621682e-03
5.068962358924430098e-04
-2.271752438690972584e-03
-5.044042329711825650e-04
1.069427536137309643e-03
-1.067478732548376519e-03
-2.953038629496865936e-03
-2.911002155295715297e-03
-2.512588817257163304e-05
2.198136916608165944e-03
1.474437381636082211e-03
1.470719798202119741e-03
2.954318530897316608e-03
1.808978295315609138e-03
-1.046713505418946826e-03
-2.862985867036913802e-03
-2.872673179369093863e-03
-7.645250457514991089e-04
1.333594919050053737e-03
-5.349927994492961270e-04
-8.648080793567690990e-04
2.047049641853694276e-04
1.618327647962875546e-03
1.251389013825085278e-03
1.249412354901167357e-03
9.291224605116074977e-05
-9.941930330341797618e-04
-9.437151364154672739e-04
-1.284356916548231361e-03
1.147253999002014374e-04
1.262285405806707174e-03
6.229678439162525134e-04
1.694459168774287454e-04
-1.178403810766955485e-03
-2.287457107874484908e-04
1.632712321353043923e-03
1.037332296414471061e-03
-1.567502135343702523e-03
-1.612651000196557282e-03
-4.775866656237652574e-04
7.659363155353900729e-04
7.435140054192996900e-04
6.667933882321997222e-05
-4.985380951360095063e-04
-1.846796309934479064e-04
-5.444868376978213246e-05
-4.072837088578294055e-04
1.051132354174690638e-03
-5.572650721096569348e-04
2.642837328341872990e-04
1.381757165072895841e-03
3.545459716881849935e-04
-3.763568315123890537e-04
-5.069917991942525905e-04
1.137576617612120604e-04
-1.937051869355670586e-04
9.625884469750525991e-05
-3.885714780762133730e-04
-1.645593630258332602e-03
-4.663487365976775483e-04
1.027428883058509958e-04
2.203134256933712354e-04
8.079875069202865911e-04
2.023853632996508878e-03
9.731469550762474009e-04
-9.677742182088918408e-04
-1.050556630936256381e-03
5.729556501605100570e-04
3.933457899337025111e-04
-1.284348186075334654e-03
-1.255845859978049935e-03
6.316139119816908476e-04
5.637269221943735616e-04
2.193765304415446328e-04
-1.164266220860728316e-03
3.794814331176233984e-04
-3.394125071243800552e-05
-1.190173311895083020e-04
4.242563251563839940e-04
9.783303098461683823e-04
1.076301783965649770e-03
5.548774285507744640e-04
-4.449516567541737387e-04
3.540641419850281899e-04
-5.680928672216880920e-04
-1.999135922892840249e-03
-1.350609393765162198e-03
6.123321364091205898e-04
-2.290581590067780149e-04
-1.276713526713324715e-03
5.274295233967325790e-04
2.291856154955165988e-03
1.125524071893099472e-03
8.809635254307722843e-05
2.549845412159229183e-04
5.647212639551489870e-04
1.080346612130484823e-04
-1.413953496808349362e-03
-1.400451475632648324e-03
-1.217134527346029832e-03
6.000518831812994881e-05
1.512118391426243373e-04
-1.891938218657298056e-05
6.260412030639746304e-04
1.024750422937665412e-03
1.029185416293171111e-03
1.099054096007940880e-03
-9.026424087435975033e-04
-2.489340993695295036e-04
3.149747494610773660e-06
-1.373788701850964635e-03
3.777620434617578939e-05
5.678822069782662541e-04
-7.068349749089336814e-04
-1.047440106258278828e-03
-1.562005120862055001e-04
1.349182556162528560e-03
1.043535565689674766e-04
6.793290968606609855e-04
1.540420802609983710e-03
-6.674872200629901841e-05
-4.874525076401559662e-04
-7.962469858007272016e-04
-6.929181566209994224e-04
-3.331262731576377801e-04
-1.243766923147132620e-03
-8.299481638415823941e-04
6.055195915083461024e-04
7.769695940876307277e-04
-7.267422570438351833e-06
1.459595099795506874e-03
1.974447480685189837e-03
-1.412925734349868066e-04
-1.226741928569554741e-03
8.963623989398777903e-05
-4.660948433128204679e-04
1.575077552686580072e-04
-3.267030904575681047e-04
-3.885279321507820204e-04
8.949523825120502115e-04
-2.803771355965985136e-04
-2.680274096595240772e-03
-1.253467965373513847e-03
3.551011209992406569e-04
3.314615986023850165e-04
5.220733630520993027e-04
1.244268854733678997e-03
1.895313308153891976e-03
2.172327252777668961e-03
1.309231773522792153e-03
-5.493761776347066061e-04
-1.889289283742103757e-03
-1.656234361070223985e-03
-2.000922447008917759e-03
-1.106159185787805067e-03
1.000834104847408268e-04
2.337724170062936561e-04
9.642059247682593535e-04
1.978249092097234419e-03
2.170075076811961727e-04
-2.061936988011621680e-04
1.313059601828145797e-03
4.972735283352115255e-04
-1.589054581754632866e-03
5.456539646160769039e-04
1.885578378727011291e-04
-1.435621446896907924e-03
-2.031019105673547397e-03
-2.503517029144414555e-03
-1.315943027356043186e-03
1.390635887131202574e-03
2.574523901454146141e-03
3.158235490062010625e-03
2.534171175631811171e-03
1.005629622194740462e-03
-8.230417176183234306e-04
-1.282197342784895198e-03
-1.449743574599690827e-03
-4.188895285846432124e-04
-7.894627432872163876e-04
-1.952649101760433074e-03
-2.428250310426960086e-04
5.339148001050059286e-04
-1.287872858817621638e-03
-1.988513514071000579e-04
7.668300204379537672e-04
1.003888575564466321e-04
-4.730746196160606667e-05
1.860096133313984519e-03
2.165584515278652991e-03
1.478673177769588556e-03
1.623888757747670147e-03
3.012082379495937515e-04
-2.656206872765529917e-03
-2.686071579230546284e-03
-2.091774813406818700e-03
-1.038223470495580223e-03
7.590056661173463655e-06
1.802635425893592443e-03
1.444654122592613004e-03
4.586056321383866707e-04
-1.307683809280612381e-03
2.665940127322971392e-04
2.993675221007619110e-04
-4.464601655309803391e-04
7.744599148204425092e-04
7.551344416961363422e-04
2.544597138697092878e-04
3.020793821993050541e-05
-2.285833130984561278e-04
8.271075346460490254e-05
-4.141018732116971755e-04
-4.387670516838540642e-05
-4.861805797654075137e-04
-3.661496433081745465e-04
-7.474595959312092331e-04
5.556319306356575464e-05
-3.889071525345673560e-04
-8.592347242625395702e-05
2.137752763596684723e-04
1.285323369780198540e-03
1.156412380539457259e-03
-1.631824130056296117e-04
-3.768976691513735325e-04
-5.473692192575580970e-04
-9.766013688253100383e-04
3.200007863197764616e-04
1.370018163054259358e-04
6.077616400361563007e-04
1.880590130845823235e-03
7.459736770437086755e-04
-2.074922657279344598e-04
-1.747647372887404073e-03
-2.504949890731969324e-03
-1.260903356415609116e-03
1.691736952186024570e-07
3.631223743324313281e-04
1.507050999933883103e-03
5.326852426579013408e-04
3.374667168553204086e-04
1.375177036738925484e-03
1.655724387993105437e-03
7.126838494954777390e-04
-1.158951272345577592e-03
-1.986245236007766479e-03
-1.321570714386213806e-03
-8.905718527518772718e-05
6.367678741983946603e-04
-6.739304253486568972e-04
-2.039124954320810541e-03
5.099725582471618783e-05
1.783292527225174449e-03
1.328821474261086344e-03
1.436282410620105506e-03
1.802380725873788505e-03
7.504917614007926155e-04
-2.785084146168878387e-03
-1.628841283358437855e-03
1.021141811298243362e-03
2.914609838261123247e-04
-1.058359015450822949e-03
-1.943789293487364640e-03
-8.196399735598846638e-04
3.515606172185158280e-04
-3.924681436494055595e-04
-5.905813039834793008e-04
1.299249476481076750e-03
2.846380614959054950e-03
1.766011981889763346e-03
1.909598236591818329e-04
2.467166575959658134e-04
8.505651707498697409e-05
-1.635119086611860624e-04
-8.292232403618311591e-04
-1.327702446724746436e-03
-2.446855467166967821e-03
-1.615078822290560339e-03
9.962869637998863440e-04
2.778674718767065472e-03
9.752354227506313455e-04
-7.580049207395604975e-04
-1.343628325867833562e-04
-5.149197524457510458e-05
-6.571968191368433984e-04
-1.333597992952274391e-03
-1.155596035176373803e-03
4.979026059872315767e-04
2.722299215896361625e-03
6.449341828020980051e-04
-3.850250477593943608e-04
-2.084521249657149162e-04
-1.943092586183132466e-04
5.751989212327155094e-04
1.170330225418668809e-04
-9.589363916493372783e-04
7.033619873033751264e-04
1.441334784489467806e-03
-4.228437919788411814e-04
-2.140172423177703030e-03
-6.542379746237545358e-04
-7.787228560465204563e-05
-1.012239918267244425e-03
-1.310419703724507870e-03
7.172756812849639561e-04
2.182266257706197074e-03
1.567488354765420944e-03
5.575415651680218051e-04
5.286691983256067541e-04
4.125113013260254462e-04
-8.620665883704676721e-04
-1.621661509759555900e-03
-8.044066980402949686e-04
8.201421774797886194e-04
1.109419687363546016e-03
-7.051478805306847595e-04
-2.339508513326774876e-03
-1.661430924605158477e-03
1.020304566557599102e-03
1.887198079921530419e-03
1.716335274002481496e-04
1.665835088694632643e-03
1.784338010416921779e-03
-7.029786414129839687e-04
-9.237929947873601199e-04
-1.095641578179307039e-04
-4.066181481655355341e-04
-7.554194543674511196e-04
-2.077936807496479250e-03
-1.936790100632081960e-03
-2.852444063054742661e-05
2.273716480275906997e-03
3.445479328090130574e-03
2.573444814194116893e-03
-9.499295893767891992e-04
-1.933027951289634228e-03
-9.812325798491674470e-04
-9.867940674382787419e-04
-7.196847576268474919e-04
-4.732182577487458711e-04
1.445214348662053009e-03
1.084123439601638282e-03
-2.913255694796827722e-03
-2.443643770290199364e-03
9.815271309897811384e-04
3.559043573502580944e-03
2.702310595715878404e-03
-2.127878086344645178e-04
-3.057935778934416549e-04
2.802390890119841422e-04
-2.960495144725702288e-04
-9.790326593411590502e-04
-1.324238862917871424e-03
-8.867529373569822725e-04
-5.935620007002211920e-04
-3.016037117422678301e-04
-1.709201429816604707e-04
1.166199028144638238e-03
1.569414884805333480e-03
-1.850629371536624773e-04
3.253796569008224099e-04
8.099307867139570469e-04
4.628786160747033328e-05
-4.408100142298127249e-04
-9.571343824405529688e-04
-1.960516844334371338e-03
-2.840377240094562553e-03
3.705868956270370039e-04
2.025689999274077335e-03
1.359313267695853346e-03
2.944093018229409792e-03
2.042409630288337385e-03
1.709672325365601349e-04
-8.587004790761881997e-05
-8.725432467252614618e-04
-1.125606104325808758e-03
-1.759718353785581302e-03
-1.851450996783546256e-03
-1.385171329819184045e-03
-1.405922533110250594e-03
-6.638139564229917711e-04
1.112724132262741633e-04
2.021462848614992858e-03
3.682641507236678502e-04
3.659656816264643072e-04
2.032750808241524758e-03
1.409491432479703871e-03
3.244698153803429156e-04
3.036670119726445332e-03
1.741284998877596800e-03
-1.302686278488844997e-03
-3.534989536336393366e-03
-1.938139452409351048e-03
1.320076881733441140e-03
-8.055125557764813505e-04
-2.687949219395771756e-03
-1.133379171618167924e-03
3.464716029363303627e-04
7.828335319427192067e-05
-2.486701272863679041e-04
9.057634491452505815e-04
1.115521056488650740e-03
8.954292395475626891e-05
1.195729108756774612e-03
2.151754329377190533e-03
1.433186551709384696e-03
5.625444418819745872e-04
-9.579420948762440929e-06
-1.055536361322976678e-03
-3.042891398123771622e-03
-2.165350769391853527e-03
5.033711855970294602e-04
-7.410383398089518531e-05
-1.301971643056607170e-03
3.344763728548128348e-04
1.638628177246844201e-03
1.246425132232657773e-03
2.356614693929068598e-04
-1.112072579139250676e-05
6.669055540464210183e-04
4.456544368275110386e-04
7.041562292477771727e-04
-8.416299851113252925e-04
-1.898687608904565472e-03
-1.242336825941966431e-03
-8.932604538386438263e-05
9.538907615524681036e-04
1.890894157591293916e-03
2.831355209597915330e-04
-2.647008969771416989e-03
-2.016705651007409152e-03
7.986620731832472274e-04
1.674588837425263323e-03
2.587256206598664409e-03
2.763445741056524962e-03
-1.166424843686325119e-03
-3.112951007880503194e-03
-3.438849651195711511e-04
2.092165917017713497e-03
-6.984464295206315463e-04
-1.856750659635353828e-03
-7.759185510963412030e-04
-5.071168270733966959e-04
-1.304572053566664333e-04
9.717243279109996591e-04
-9.067181141007985945e-05
-1.172011258543317110e-03
-1.348526311658484675e-03
7.587427017939707766e-04
4.083641238329089804e-03
3.130608230153081924e-03
3.343358784034173897e-04
-1.111030426999357577e-03
-9.124613912999017052e-04
-9.131086175566776025e-04
-1.733260764769247852e-03
-1.744544341920527752e-04
1.007980936240996766e-04
-4.438680551721788776e-04
-1.948802174508197952e-03
-1.039080842853513714e-03
9.344728001262184213e-04
9.452371105808974423e-04
-6.560801962153369946e-05
5.198463287275969244e-04
-2.492306995673352306e-05
1.455639030047946390e-04
1.954356993350163385e-03
2.502276477185345818e-03
-4.917656452045565489e-05
-1.136412756916007358e-03
5.946696002777821606e-04
-2.189522399726260941e-04
-1.159530305347083318e-03
-3.470701120547831781e-03
-3.053211884294825419e-03
2.211939083598052531e-03
3.766535600870803309e-03
8.384146803778050935e-04
-1.635756661794286225e-05
-1.977833898634990485e-05
-6.951838584935824718e-04
-1.578581606860738219e-03
-6.767622323012317679e-04
1.914628218422170737e-04
-1.706600683509028630e-03
-1.626577363428751647e-03
9.020808640154669026e-04
2.226988966453097296e-03
2.658486196409307056e-03
1.585802786730839634e-03
-6.921930126547161605e-04
-2.199068590026526375e-04
6.980347650259032411e-04
9.754487118141694181e-04
-6.264737178934457569e-04
-2.292490099867818768e-03
-1.439960906856375912e-03
2.474776072411552703e-04
-2.798410819661834264e-04
-1.944145757518238012e-03
-7.614195708683636982e-04
1.917632173946721020e-03
-5.942406672021408693e-04
-1.402165716028176560e-03
2.846027039257189402e-04
2.812442279418250757e-03
1.776144865551929292e-03
8.511617155101258844e-04
1.961534985163798596e-04
4.202903260913852068e-04
-7.729534947080906248e-04
-1.921963226868726661e-04
-1.363595754589673947e-03
-1.864386616632043381e-03
4.225635692802190879e-04
9.013568291880393784e-04
7.762583929698411772e-04
-1.192426174275078781e-04
-7.280128753395378278e-04
-7.527494887254200908e-04
-1.419028670987117560e-03
4.752210076464123754e-04
1.114961150234187104e-03
-1.094128299241844585e-04
1.599702428456888992e-04
1.160480565999638192e-03
1.445835807102004882e-04
-4.489126446070299589e-04
1.385800145066260348e-04
2.226470242824972348e-04
-3.564581714244266096e-04
-5.384194790598992222e-04
4.319759357526116515e-04
1.022015115465054651e-03
1.379244219465782526e-03
-3.296937656168893202e-04
-1.509438716906395242e-03
-1.086048505507934388e-03
-1.032375639134562421e-03
3.458725383123885323e-04
-2.878072486718761722e-04
-4.679009034043790714e-04
-1.538238575592947762e-05
7.916903445307324526e-04
-3.095167528976736451e-04
-5.493936906116294238e-04
1.005979321377557106e-03
1.164625164135603842e-03
5.422795786461364351e-04
5.102140550710095382e-04
2.962529657618720533e-04
9.528504214138728591e-04
1.238543618742271547e-03
-5.492642095456436863e-04
-2.910258698035443452e-03
-2.207432895319403742e-03
-1.057818788542895776e-03
5.187316223192742692e-04
1.590612366983973737e-03
7.723683060728585206e-04
3.444303425950976977e-04
3.019362812013660566e-04
4.907039112169380530e-04
4.544164284100321344e-04
-2.604200894649586384e-04
-2.562516475032168908e-03
-2.933413190355784253e-03
3.157657062328768902e-04
2.618389855594688027e-03
2.764386486529973180e-03
1.373507101288418348e-03
1.318628362104889062e-04
-1.412522008564635369e-03
-1.271809216300476926e-03
-6.636405920263002255e-04
-6.537485757106595947e-04
-4.771830297595171179e-04
-1.047739260238199918e-03
1.755809836792864053e-03
1.067780879390572025e-03
7.028785868549961187e-04
1.118074055487132618e-03
-1.294504237387691730e-04
-1.057695986264370943e-03
-9.050972414166403657e-04
-1.350743971392404617e-03
4.722804664233965128e-05
1.001638317988887616e-03
1.209989357463276067e-03
-1.002798568699347220e-03
-1.360636184103245156e-03
-9.283376180170088785e-04
4.490126376457300437e-04
1.703981385075914760e-03
1.003957541248706427e-03
6.335866411498263743e-04
4.334388539777962669e-04
-3.686259416743354884e-04
-1.478364337132803902e-03
-3.136095232759616362e-04
8.250198794915604948e-04
2.481900522632220370e-04
6.933771134780576922e-04
1.703014622092002296e-04
-1.477258681160975237e-03
-1.503073622893306982e-03
-1.430167097914970169e-03
-7.952069411440505125e-04
1.040109236197511445e-04
1.885841642054576902e-03
2.726604593338934936e-03
6.483459239051122874e-04
-2.256913709808456572e-04
-4.713762072320328521e-05
1.182988343717426751e-03
4.107911415241903477e-04
-1.755519633215189574e-03
-1.959985409530978599e-03
-9.643404524429622727e-04
4.725281874529610308e-04
-8.367417603124577177e-05
-3.342088245684438075e-04
3.818864370483695907e-05
1.199444847101116714e-03
-4.126765296202920981e-05
-1.382534215669441657e-03
2.380505925735642051e-04
2.081742030309252645e-03
1.406374621783923560e-03
-4.140443545481951328e-04
-4.832376798627067353e-04
-6.383322547658568753e-04
-5.827357759729268885e-04
-1.741706743920635634e-04
2.709494605065897676e-04
1.351565148058417407e-03
9.205433984138866382e-04
-1.031924876731703982e-03
-2.683067736897059782e-03
-2.818751495698720768e-03
3.870732065533841909e-04
2.810597368409052579e-03
2.312005365191349606e-03
1.080437851623177668e-04
-1.059542245875454885e-03
6.344100071733534563e-04
6.054839778149420561e-04
-1.000954268229597034e-03
-9.875861302237204115e-04
-5.812102946823478325e-04
1.892236183089222867e-03
2.463494745046398808e-03
-6.973340455560039309e-04
-3.007709934354837328e-03
-1.711958396233632896e-03
9.144985975006442560e-04
9.217469800049516273e-04
-2.280019150190726058e-03
-7.337167583572191780e-04
2.531878168557594958e-03
9.772990529665584892e-04
-1.258540857787488441e-03
4.168645863578646321e-04
8.251617804335519132e-04
5.804538045206228446e-04
1.511479754654808513e-03
-3.571304298710543793e-04
-1.376374956492789356e-03
-3.740319124639710370e-05
2.832246271469304679e-04
4.802154794212210747e-04
-3.825995743228608218e-04
-1.103733868543160541e-03
-7.844188830495662460e-04
-3.537435871687570339e-04
2.573904068922505588e-05
3.477262717545253202e-04
6.093718057572566427e-04
8.109036560101348570e-04
9.551634962116586523e-04
-3.261546507871686154e-04
-1.195329243935026441e-03
-4.237962881565088464e-04
-1.360013476628933564e-03
-1.096442302255095074e-03
3.743154138418234504e-04
9.215350626442318348e-04
1.158360746464098638e-03
1.999884879089574956e-03
2.832082252519962928e-03
1.665010949183374665e-03
-1.051265018860177104e-03
-3.187958105127669875e-03
-2.461681004058460451e-03
-2.383922540805161194e-03
-1.731675750936691096e-03
1.119778874151460755e-04
3.462264051437972424e-03
1.922699406200647056e-03
-1.747317139285396769e-03
-3.642046581180884255e-04
1.809462125422322447e-03
1.118594283498757771e-03
4.661782400134501761e-04
5.571116839426555312e-06
6.506444631633262954e-04
2.620706522863101872e-04
-1.316099377746879394e-03
-1.644922234738125039e-03
-8.776249924205025733e-04
-6.909966822825096061e-04
-3.181652767849627614e-04
-1.584640367343731612e-03
-1.737830586512662976e-03
1.058302859058988122e-03
3.601796543158268353e-03
4.212630269030838599e-03
2.731977413174642953e-03
-1.613956096149223507e-03
-3.193981562284797533e-03
-6.515506652874609528e-04
3.504592020793990720e-04
-3.563355794374276140e-04
-1.564329831281055646e-03
-2.520122106466408680e-03
-9.405995941515506295e-04
1.798757754841185221e-03
1.273436703321512977e-03
-2.255358492928159124e-04
9.667832824422514749e-04
2.106465173786656580e-03
1.364532003884222052e-03
7.262232690754135507e-04
-8.748948124321322866e-04
-1.757697323988219188e-03
-1.154626193671237644e-03
-1.264120634669772608e-04
-2.477205430650021405e-03
-1.784759434599868808e-03
2.882933393260490970e-04
2.080390036169923931e-03
2.845092963527459662e-03
1.681526815398979918e-03
-6.357253850713570327e-04
-1.046991911339438964e-03
-1.587233479100439999e-04
-1.022740833743323577e-03
-1.201420411031103386e-03
1.281718896195192109e-03
6.181878418596815439e-04
4.574146356457029113e-04
-2.833709325181913200e-04
-5.519994348575034794e-04
7.032043931529741772e-04
7.195969237781095354e-04
5.505099899891185934e-04
-5.796335678548517620e-04
-1.459872499859666542e-03
-1.791358471216044539e-03
-1.729421244607241663e-03
4.050089050149221028e-04
2.173857728277456963e-03
2.056466283417734010e-03
6.694427672347768145e-04
1.556433349355253735e-04
-1.156791009136304456e-03
-1.277752924431180531e-03
2.568851925470472535e-04
1.317260613942254025e-03
-2.263881989333402613e-04
-1.010499862027439437e-03
-1.028292004140705018e-03
7.951938339186122523e-04
8.045513942399772815e-04
-1.451715819761720217e-03
-6.275512899908793551e-04
1.297741708398394240e-03
2.071923049709782985e-04
3.745659726931565322e-04
2.104803356581392594e-03
2.192118222203001069e-03
-7.388195284598121941e-04
-2.875168883272632113e-03
-3.607496498819472239e-03
-1.409427831145517200e-03
1.737302081989791072e-03
1.257852446413280532e-03
-2.510148599148338713e-04
-6.514099119567240415e-04
1.734679958267386921e-03
2.326319305402964506e-03
6.592972057896320662e-04
8.441049420681387026e-04
1.225698795591335054e-04
-1.975759046364074581e-03
-1.953871355236740451e-03
-8.910511410040725848e-04
-1.237710261294598527e-03
-1.169299858027793943e-03
9.884833224431690234e-04
1.113410101191463419e-03
1.950810798611807414e-03
2.736972034931583076e-03
2.669069169896204894e-04
-1.645163297138040352e-03
-1.168132399662189956e-03
-8.948885829979853247e-04
-5.176107309158725850e-04
-6.421887076207107503e-04
-4.165425911355554063e-05
-2.341166358762210146e-04
9.254152235655859274e-04
1.004673370780586987e-03
1.651800203337506210e-04
7.040489940419385846e-04
6.450771543765049373e-04
-9.206664612462250223e-04
-1.725319066129631887e-04
7.588603660666943000e-04
-1.020092746108778930e-03
-1.688973890128514163e-03
-1.241901582457330530e-03
9.372886766801613286e-04
1.191777982854094536e-03
7.464486898051636522e-04
-9.104539651455635727e-05
2.054827047400726366e-04
-6.549225835766179669e-04
8.326165541494814004e-04
1.456747885426517902e-03
-6.226289228925888097e-04
-2.364381437579746344e-03
-4.232592410789986635e-04
6.108603223966526307e-04
-6.476840419879274996e-04
1.129553237477345234e-03
2.268952124138349201e-03
9.290421476326284934e-04
-1.522984257237342172e-04
-1.439099152111103118e-03
-2.324131310620176395e-03
-1.128412489751499199e-03
7.790330887065372804e-04
4.893380960521700118e-05
-2.566955540894817430e-04
-2.787288391512551615e-04
2.998481926490626837e-04
4.215080543285389179e-04
3.995016765895369692e-04
2.383967826888465271e-04
2.380070781259769307e-03
1.175067553527718361e-03
-1.552958924762667600e-03
4.419990494509456655e-04
8.924485660654028893e-04
-8.230282916581519023e-04
-2.272148320058047649e-03
-1.477037566659159104e-03
6.453774769746347404e-04
1.351983989627894350e-03
-1.485155871646483229e-03
-1.292189791700663589e-03
5.734819430632556682e-04
9.254353620241856457e-04
5.450763288162174423e-04
6.705848726136050741e-04
-9.718038544904227883e-04
-7.085718105797909677e-04
3.989934103253557174e-04
1.589606180137669890e-03
1.791448427939116173e-03
-7.236137304083129190e-05
4.101892811620299500e-04
1.239386324016879823e-03
-1.111873963668579381e-03
-3.761926706932921562e-03
-2.301762653287072174e-03
5.064855850307429391e-05
1.300836242166596981e-03
3.724913792793330060e-04
-2.990752650548120207e-04
1.722863685381700221e-03
1.856800333421974956e-03
1.472594630939931841e-03
-6.534820064395798151e-04
-2.387532539345411584e-03
-6.789509455417578427e-04
3.529373092915999801e-04
-6.625218765175699054e-04
-2.109033514359009932e-04
-5.739009004148519629e-04
1.614536174018369992e-03
1.634953904344375181e-03
1.097596877386307243e-04
-1.269581770160885031e-03
-1.421339166686827948e-03
-7.894100348599069998e-04
1.097600562118824369e-03
5.903514810108943366e-04
-3.163431083211520325e-04
-6.981453039809317395e-04
-1.159677740544298860e-03
1.321507993657769270e-04
2.259735811741715641e-03
2.622772865122260499e-03
7.532619077012240498e-04
-1.578066101936430635e-04
-1.498932526657628878e-03
-1.301984358373166816e-03
-3.441293886787762687e-04
-1.230937652930869835e-03
-9.186101351509923284e-04
2.267444242083180295e-03
2.402312087533326650e-04
-3.029266854292036494e-03
-1.888971598164726658e-03
1.074848309894849358e-03
2.970704055503733780e-03
1.210771068563808303e-03
-5.394348420551220132e-04
8.717694122092982243e-06
1.020093325796277671e-03
9.610814047511518883e-04
1.262110768253679684e-04
-8.865919638846701551e-04
-2.090138355572855079e-03
3.185517660374395156e-04
1.600021192247086388e-03
3.754117535840536938e-04
-1.067467460235801621e-03
-1.809002498693619045e-03
-1.534733409514103331e-03
-1.451291320739543601e-03
1.663597440119539504e-03
2.337196503212300974e-03
2.856734890861637268e-04
1.073428972318538397e-04
4.475314159659403847e-04
-5.093701399767263738e-04
-1.531197778405993509e-03
2.881598292753115233e-04
2.051675955006491622e-03
-3.631960849783632509e-04
-8.601648604078276266e-04
1.922852476526699028e-03
1.410232915835685479e-03
-2.109254651835016162e-03
-1.939016671195656783e-03
-2.322418005925314252e-04
1.164398847313306623e-03
1.011795985450883586e-04
-3.810029102730003365e-04
-2.901074506430781981e-04
6.368336953270946549e-05
-5.425395282301833126e-04
2.772014550322684679e-05
8.612040642372527409e-04
1.305773189700551961e-04
4.344311960717804903e-04
9.923164015808033916e-05
-5.650611432313149950e-04
-7.913013578547874747e-04
-7.288454400503360060e-04
5.397123206450419024e-04
1.488675598443072725e-03
5.903991572332572537e-04
-1.395988510052228451e-03
-5.089515158716625531e-04
8.027305882606936092e-04
5.469271486236636183e-04
2.406137440520444049e-04
1.096068531062164252e-03
-9.792543859438319193e-05
6.218037140516618566e-04
1.271487140725640957e-03
-1.195674871155928297e-03
-3.106770424393710296e-03
-3.529440002857072226e-03
-2.136251621769323997e-03
3.360356240269694113e-04
1.168643725218001996e-03
2.371850222913464163e-03
3.052763210342883740e-03
2.006926594211218447e-03
1.073688766293549174e-03
-8.152639654322395681e-04
-1.531905971988337762e-03
4.347758127119506180e-04
1.403102198396201632e-03
1.045934558020315602e-03
-1.879365649642989388e-03
-3.730319966090153358e-03
-8.602842317035568455e-04
1.532652032647646755e-03
-9.809085885362747899e-04
-2.601654673135560432e-03
-2.726930824964851337e-04
2.198868978462082280e-03
8.537696113654606343e-04
-2.910771203490080877e-05
1.994731610982786521e-03
2.193647653776350289e-03
5.612900142099387689e-04
-1.408703849904402621e-05
-4.623830918268733293e-04
-4.945850494073971955e-04
-1.499973699766324678e-03
-1.203568979941208169e-03
7.950885790808301910e-05
3.608890014671722293e-04
-5.107273042194083361e-04
-2.389671331413613842e-04
2.741665574443138032e-04
-1.088872297100518076e-03
-1.253760072713222193e-03
-5.009030122963432224e-04
-2.599613875960822440e-05
1.720006067303477730e-03
1.704710678310723902e-03
1.620570392844309813e-03
1.475227354740548747e-03
-7.138827190291615081e-04
2.362665580576321460e-04
-1.092362574204091354e-04
-1.153262740228911754e-03
-1.537416412735129276e-03
-1.124081427952732795e-03
7.299374506906742080e-05
-9.405575023163023098e-05
-1.084157253368413552e-04
7.864323192392639250e-04
1.365798012074121532e-03
-9.662546538429720019e-04
-5.643517596308288793e-04
4.359362235990639554e-04
-4.056473561618666288e-04
-9.517847558268386233e-04
6.290844778956079840e-04
1.437287976788837298e-03
1.928823460649599928e-03
4.221862877736556126e-04
-1.255611650882265413e-03
-1.278077806799363505e-03
-5.652536784918868506e-04
-1.562527180730777319e-03
-7.635497233486278259e-04
6.086380640873194315e-04
8.738994841252019797e-04
2.167236180564418788e-03
1.893752498953998626e-03
5.301501199240280491e-05
-4.553277196875720151e-04
-8.499162237511763722e-04
-1.278972103842534363e-03
-2.193047607438210027e-03
-1.750870519258665436e-03
1.128560320172960867e-03
6.616274806007409800e-04
3.732137930992258392e-04
7.357289669406202924e-04
1.609228355787118174e-03
4.093228137609479446e-04
-1.789969686307477841e-03
5.064686379595344191e-04
2.108811225826687577e-03
8.757151004074795317e-04
1.565453965161589772e-04
-1.430995431184292491e-03
-1.912660450991083292e-03
-2.060314239326079943e-03
-1.424185775155367316e-03
-1.384680427467400131e-03
1.103179684122697650e-03
2.522577422161456639e-03
3.627787804529906176e-03
2.119441308822684559e-03
-3.363574827238062048e-04
-1.616799501743796611e-03
-8.195289615469457216e-04
5.182583585635591175e-04
-5.104731639951167518e-04
-1.467416907947743931e-03
-1.739741120443023337e-03
-1.624412818184510152e-03
-1.260688134924961437e-03
8.944270578691344451e-04
4.348616638035388113e-04
8.887451596018496698e-04
1.051406507383990463e-03
2.612929399989450795e-03
1.001695113919770248e-03
6.428368750814045110e-04
1.531085547952515565e-03
6.054794754996234213e-04
-1.534719633970222817e-03
-2.000955717900652995e-03
-2.479540268953190144e-03
-1.753000788889568472e-03
4.863261114826205309e-04
2.795825404193604739e-04
-7.068930585779223212e-05
-2.416657480677435849e-04
-6.109857066934899197e-05
-8.828521336364463607e-04
2.090662448162544749e-04
1.090375321882741146e-03
1.613638509704114123e-03
8.603538230538526187e-04
1.260316366013529204e-03
2.641143461707464671e-03
1.009023567261398829e-03
-3.100130712359906184e-04
-7.378784504656747158e-04
-2.441120303007626117e-03
-2.850971489511300739e-03
-1.222094602816358637e-03
-7.672365393071532138e-04
-1.332579190970955597e-03
-6.191618745578944365e-04
3.222411866490654188e-04
1.513740724349699977e-03
2.369081626354503731e-03
1.080541224529661540e-03
-1.954505114087876398e-04
9.978398412214554893e-04
1.312942432269315713e-03
6.006365647184566626e-04
-1.446536505027173295e-03
-1.936366351051316400e-03
3.633504366856879855e-05
3.421212790628138181e-05
7.909449009401756754e-04
-1.471236406602674659e-04
-1.112043295441648202e-03
-1.280612158928120701e-04
8.165925363384726483e-04
8.055462893153179883e-04
9.100194752168036007e-04
-1.609550390622631420e-03
-2.775247044221258383e-03
-1.320569376668524720e-04
5.372510363703791305e-04
3.169655971097843044e-04
-3.199589134669519430e-04
3.175322587978632208e-04
2.543359877730006651e-04
1.172339500126187315e-03
2.611569267607886588e-03
3.038503237767548829e-03
1.522244931600886511e-04
-4.163702792600170745e-04
-1.124109210292219925e-03
-2.900206198025241829e-03
-4.076183284425323287e-03
-3.131244255432261321e-03
5.449732533391735611e-04
1.616127522773264753e-03
1.157077617309470964e-03
1.463728003848902394e-03
1.320630970472432822e-03
7.294248972790094493e-04
1.060302707305038269e-03
1.847367798700399804e-03
7.891896165269457432e-04
-9.092939683163768797e-04
-1.281456769047774292e-03
-4.959622107638816816e-04
-8.546080395266834407e-04
-2.518052361577318224e-03
-1.978699629407667474e-03
1.073367573913194080e-03
2.071724362294544673e-03
1.338425220604566373e-03
-6.474436580891914728e-04
-2.030530766364647098e-03
-6.489440111639695283e-04
2.149359454480180044e-03
-1.736041203236027254e-04
-5.791578272811157479e-04
-5.786175325400967845e-04
7.519583539113051550e-04
1.735726632666783047e-03
2.367416084015058157e-03
1.109497341742791921e-03
-1.291972081082720788e-03
-1.347908369050333571e-03
-1.484369301965981060e-04
-7.668883434874123077e-04
-1.391573768922581972e-03
-8.176249159109052556e-04
-8.876473595582012269e-04
-3.880628270216595417e-04
6.766106446439732272e-05
1.395105624827936352e-03
1.765381036463968892e-03
8.765303592045454876e-04
-3.525118929007617515e-04
6.492661719428346860e-05
-6.153355416223430614e-04
-2.552899337437420095e-04
9.938120894218431447e-04
-2.237920743700422710e-04
-3.972733733005992160e-04
-2.878645760954910075e-04
-2.487300738807854319e-03
-1.263320806439424476e-04
2.220526854976203127e-03
7.416731156992098549e-04
1.740741500817480621e-05
-1.018495217554960712e-03
-8.392607127198949135e-04
7.075154473754842379e-04
2.247339343301124615e-03
1.031628351684230928e-03
-1.110957032553849897e-03
-1.588651888999902942e-03
-7.080816395443191406e-04
-7.582009186826314849e-04
-5.902311556265503370e-05
1.850506181733507392e-03
7.029121913820475607e-04
-1.053909139868078717e-03
-1.123393726536712827e-03
8.083541915489773693e-04
2.004127450964981582e-03
-1.035922326903717305e-03
-1.893521249974515703e-03
2.033302248007226533e-04
6.850327728202758966e-04
1.683750273788615069e-04
-1.217283474779472919e-04
-7.942611185821523345e-04
-4.779645316520205779e-04
6.686987581587712373e-04
4.995171696419232251e-04
6.788714793528985740e-04
2.257047414360947336e-03
6.356265580382861827e-04
-5.457872100685001900e-04
-1.157252960039098239e-03
3.060833319220995232e-04
-2.933351073679934390e-04
-2.052876881337724509e-03
-1.164973551252869227e-03
-1.597900816451797851e-03
-1.424639123043066789e-04
1.532636157137015403e-03
2.219989229474959337e-03
-3.540286771892804467e-04
-1.596314416410406526e-03
3.384673165158774287e-04
1.189774748670835176e-03
1.424118558789796594e-03
1.046707625689112086e-03
-1.466530234357308693e-03
4.447227178081192473e-04
1.589802715693441329e-03
2.871991798823071013e-04
-1.328791902530820001e-03
-1.273932981430550950e-03
-4.594826324186547062e-04
-1.776016193305266812e-03
-2.006272583260615069e-03
2.395411456858755701e-04
1.317983024878002871e-03
-1.498645730479499861e-03
-4.114938523490130101e-04
3.066198298565862151e-03
2.379666421675767553e-03
1.037545075409334119e-03
8.621608942346602232e-04
3.115594094870624661e-04
-6.363208160069493005e-04
-2.385383643390996805e-05
-9.303507768815874168e-04
-1.398764031348545328e-03
-1.605045055445325237e-03
-4.164501286756381096e-05
2.275447142077261246e-04
-4.977842320096934970e-04
-5.382415370625822986e-04
-8.028867501596328136e-04
-8.233189082596432430e-04
4.816461611410160744e-04
1.294550884189801885e-03
1.780283930895422287e-03
1.490601943878632190e-03
1.499439637272890905e-03
2.828079883687403579e-04
-6.349938968871609310e-04
-1.715763556450729818e-03
-5.232365404047383765e-04
1.911777725556337534e-04
-1.101635060169162302e-03
-1.045407551372232961e-03
6.675317154459534195e-04
2.283253516969569374e-04
-2.178109240800105942e-04
-4.890970421576231191e-05
7.485239496437051058e-04
-4.050420632382876421e-04
-1.382497927977183541e-04
1.889567608447343002e-04
-6.328805137224722752e-04
-6.119368181129277622e-04
4.086564940489938527e-04
9.027606593760687838e-04
1.322998201996187281e-03
1.506821191439070310e-03
8.296381548620387208e-04
-1.031230900144970881e-03
-1.806341734728266661e-03
-7.524065360457535268e-04
7.389349852342895616e-04
1.431327012942237810e-03
-5.181490329494003446e-04
-2.217679247705537683e-03
-1.838784236962418212e-03
-4.476191837447422522e-04
-2.211833838962409205e-05
1.124389917187614647e-03
1.322607748837405228e-03
5.811019560503168134e-04
1.271833433475693211e-04
1.490419307524386370e-03
1.009015525989024080e-03
-4.044785651846709274e-04
-1.992827051311249053e-03
5.117767341412554378e-05
6.840223087897442673e-04
1.118923946420425719e-03
5.873210198539587784e-04
-1.828933604850215737e-03
-2.008651981413348345e-03
-4.037557434010212421e-04
2.496768832829764366e-04
-7.964974365600367787e-04
9.010330374451447268e-04
2.158492060205960579e-03
4.034184075579544588e-04
-9.861486654052608984e-04
-2.753829448986672233e-03
-9.161153224306376429e-04
1.792286863387131677e-03
6.475472212845387061e-04
1.295468437223583433e-03
1.898299411161491132e-03
1.679874829237379321e-03
9.265203194733647677e-04
-1.910587287372275764e-03
-2.584066927360116964e-03
-1.424216144682233058e-03
-1.327422821042621075e-04
6.601709585876506256e-04
3.287827574893957094e-04
-3.743597279508863629e-04
-8.122226162240245566e-05
1.360455656565109353e-03
2.926747316615738669e-04
-2.056049808989198879e-03
-2.318228061348542868e-03
7.389749139546075143e-04
2.092529748931511082e-03
2.277795158859756235e-04
3.415227617033830669e-04
7.607336573351610029e-04
1.029193270875726008e-03
7.639213911369328533e-05
-1.035459959604311019e-03
-1.787231336836963723e-04
-5.679065737717802712e-04
9.908769005528938849e-04
1.131282979319075651e-03
7.618044531770140756e-04
-8.839281273654614642e-04
-2.278857799576320970e-03
-1.738123221398264794e-03
-1.538892824372517119e-03
-4.441962746858037800e-04
4.974403172808372717e-04
1.307137725382138786e-03
2.158121790452952916e-03
1.542741068586230479e-03
2.381838018462839981e-04
-1.135966398885000089e-03
-7.449021001520750871e-04
9.519475955364781758e-04
4.384717887695738637e-04
1.454062479449129701e-04
-2.460579150055093416e-04
1.643224308851018803e-04
-1.227939342196428292e-05
2.778296624794663575e-04
-5.033388269386594597e-04
-2.517269862739894212e-03
-8.863624867694399907e-04
-3.424143443612557972e-04
-2.735949600452988978e-04
-3.712406951306351311e-04
8.947043188193894723e-04
2.001875297541564919e-03
2.799420370381286351e-03
2.523720282294621836e-03
4.087249633421481437e-04
-1.872048118167088165e-03
-4.019211243144488882e-03
-3.139143890325782772e-03
3.058947714334865034e-04
1.429991772600000717e-03
-7.387803823497006721e-05
9.812072710398995080e-04
1.847827767351409864e-03
1.304253720264721356e-03
-1.930901235702491491e-04
-8.145699224604273933e-04
5.069704870250452177e-04
-4.292378658932626196e-05
-4.783823763819330141e-04
-1.841669264848147416e-04
-2.051484072394272554e-03
-1.491622818841581736e-03
-1.084824172009905959e-03
7.103204793630757798e-04
1.926207167057263298e-03
1.204664158930886719e-03
2.370198913143854323e-04
7.113176212322047231e-04
8.022145796953542062e-04
-2.514706350304357911e-04
7.527738218569669055e-04
-1.570505102683644771e-04
-1.766917838856766829e-03
-1.185357584887172496e-03
2.064103776979614999e-04
1.119154362356513771e-04
-1.781241984158852968e-03
-5.972434437252388583e-04
7.574904207642947033e-04
2.911532798391643149e-04
1.961297018805576321e-03
8.733477175823248445e-04
-8.739645008937694376e-05
1.810071090456977097e-03
1.513987207942953279e-03
-5.336830106033185360e-04
-2.057738288473589562e-03
-1.084342426007282260e-03
-1.280259538144050109e-03
-3.101979817380806203e-03
-1.201694300187698813e-03
1.076102274360701697e-03
1.611409437350332227e-03
1.185376166555630320e-03
2.105140758065996830e-03
1.183180162716558148e-03
1.121609029442062721e-04
-4.865470664808636630e-04
-7.577316166575045597e-04
-1.459404357276747550e-03
-1.063072241492849998e-03
1.195131051249584539e-03
3.026241974351134324e-03
4.581878462335742820e-06
-2.682419636872534000e-03
-2.440784155317732296e-03
-3.378202806425442662e-04
8.815081977848530882e-04
1.524500138111654305e-03
2.199935876308489345e-04
-8.941776540856723578e-04
1.234401170251768400e-03
2.180177146258390972e-03
5.682318335112603253e-04
-7.047319579043990296e-04
-2.099335040991311824e-03
-2.092486455377059584e-03
-8.392096468708788509e-04
7.428577885802612911e-04
9.731055931888762077e-04
4.591144195777665691e-04
5.701086760921384887e-04
-6.834970955461749540e-04
6.573906227006895073e-04
9.201315314794927163e-04
-6.708522972444715430e-04
1.427234952384858900e-04
1.057223424664772244e-03
1.600617051262801221e-03
6.924948380630408266e-04
-1.370742018578038294e-03
-1.846266311259377917e-03
-1.647121241618637079e-03
-4.587134979130424724e-04
-8.586981023083733316e-04
-8.409581411873663171e-04
6.897229583432413873e-04
2.534746052843126949e-04
-1.362853466965996115e-04
3.107664351315233956e-04
8.543394578376582683e-04
2.731128188518822282e-03
1.524132128976185075e-03
1.321305613167696733e-04
-2.326653026254486627e-04
-1.264231657070568737e-03
-5.420561450928146775e-04
-1.142238884855799374e-03
-4.965678731685946702e-04
1.522231795627916823e-03
1.228914371365230672e-03
-2.273624287888099219e-05
-1.637099207046932483e-03
-2.250084164334199312e-03
-2.322884853135195188e-03
-1.243173845720299542e-03
2.063590421038477216e-03
3.487031627884592654e-03
2.275263782061723566e-03
-3.397314362429306313e-04
-5.326844463988570722e-04
1.799137164427051263e-04
-1.093020789638093513e-03
-9.876909080132024402e-04
-4.138751293271400520e-04
3.278925536526017758e-04
-7.426597702916386398e-04
-1.945312430007520299e-03
-2.286604583671632588e-04
2.115483770303149425e-03
2.639648992851553223e-03
1.639744995919312784e-03
-4.385917868260060990e-04
-1.625832371563978385e-03
1.994917210539898093e-04
1.056314675262964723e-03
4.757939083316092724e-04
-7.858881491918094002e-04
-2.577245878981765988e-03
-1.993706099113560712e-03
-2.438703096885741636e-04
5.542693867531772560e-04
2.712128606648029944e-04
1.145793943673655521e-06
7.606392787364638617e-05
-5.469506508819943925e-04
-6.259124166085482848e-04
1.533014485229205635e-03
4.411921969392950532e-03
1.907109851468044657e-03
-1.564587949910610553e-03
-2.200519392059307989e-04
5.796863107625536493e-04
-1.325062330631864667e-03
-2.601465816809600713e-03
-1.288454192583161082e-03
-9.148654859211907122e-04
6.406018762378933072e-04
1.842045152443070374e-03
9.034979548246727641e-05
-4.952016476061114414e-04
2.413050854632018446e-04
4.752909177940508939e-04
2.155030684143456946e-04
-1.443531092045140024e-03
-1.439729189520056818e-03
-3.739447117242840238e-04
3.880941106353725145e-04
1.919118450673573586e-03
2.694178691758648391e-03
1.947302731694718200e-03
-1.396297313016315244e-03
-1.089907686846076527e-03
-4.342162630092422516e-05
-7.086909124815525497e-04
-9.580598822177267522e-04
1.186652125426360143e-04
2.315771002938737195e-04
-1.225972055402536594e-03
-5.833268944590161908e-04
-2.689601368191773525e-04
-8.768286137980202920e-04
8.159532802927331550e-04
1.624154413364115555e-03
-4.178296773480796845e-04
-7.169524552352407555e-04
4.330920369638122124e-04
1.360458727632108148e-03
2.676787738993648309e-03
8.685649408917197343e-04
-1.936668406085233479e-03
-2.241752329368404580e-03
-6.144721848122789733e-05
1.075148642707168640e-05
-8.202535602488170196e-04
4.824848789704486011e-04
1.464441451339776887e-03
-7.844747756845460657e-04
-1.691176405649742330e-04
8.635129851190260488e-04
4.796379267403375079e-04
-1.168070178753889948e-03
-1.940737507596804754e-03
-6.129454452033243411e-04
1.448055311049984122e-03
1.287819686433453153e-04
-1.818542904760512202e-03
-2.702335698621748496e-04
3.248920983742888992e-03
2.480644101785904523e-03
1.386766363446584674e-03
2.643363029577888994e-04
-1.964355371883148935e-03
-5.785313531154628354e-04
-7.737584002317485004e-04
-3.622351937517294482e-03
-1.189530350131203385e-03
2.104685179971797250e-03
1.692267204012702251e-03
-4.297083436692179207e-04
-1.345916732017074296e-03
-2.758297440656497560e-04
8.145770367208685645e-04
1.026200367418287967e-03
3.730533349822108958e-04
8.654984894041282799e-05
1.089106674050220862e-03
9.422821226686789410e-04
1.031772513605497163e-04
-1.431872131089578044e-03
-1.532477755955070431e-03
-3.583903637678400038e-04
9.900454931962151758e-05
1.357796734219719401e-03
5.112900191757851652e-04
-1.989907720473634706e-03
-2.337957358340180761e-03
6.810393011741836108e-04
2.482309702539846862e-03
6.165538459504678152e-04
1.102016669969251912e-04
8.005489793405372615e-04
9.981191169237781709e-04
-3.765469940631909298e-04
-7.403529510850797267e-04
-8.658310312215109026e-04
-1.523442427437420163e-03
-2.260361389758538606e-03
-3.322028580285238029e-04
1.209619255306009942e-03
1.604611161768564618e-03
2.230147900539177549e-03
2.481353930076968944e-03
1.602305118955541646e-03
-8.556315411568428961e-04
-3.201881063842419804e-03
-2.826512359225366675e-03
-1.540336891283020267e-03
-9.974703230815570344e-04
-1.170465389976821325e-03
2.582785588566899521e-04
2.706257125970609051e-03
3.298790363276019738e-03
1.139302118364209516e-03
5.428898386212767911e-05
-1.050559038658282015e-04
-8.689657690419860976e-04
-1.486487510408460817e-03
-6.030089593629739744e-04
2.314264152968879601e-04
1.293708473006830286e-03
8.744428009831618645e-04
-1.428224075554547121e-04
1.109735801817653003e-03
-1.271121359813261328e-04
-2.657718209631255383e-03
-1.466454032445197201e-03
-3.816240025555380877e-04
5.896363369394134806e-04
-6.898598327914030274e-04
-1.011357480034936985e-03
8.544348790375762889e-04
2.477506274775172213e-03
1.734478957305261556e-03
1.079936823523038915e-03
-1.914817137622350880e-03
-2.355179436744437704e-03
7.469213221297773067e-05
5.014341553304198966e-04
1.539237653115913993e-04
4.123311445430427841e-04
1.587490094708758409e-03
1.547832239155463949e-03
-7.706960082443284734e-04
-2.159772006521778684e-03
-2.004640601948668235e-03
-1.475371878267203436e-04
1.128729003857295099e-03
-3.082287095653872164e-07
-1.845284436270573297e-05
6.226798197546609681e-04
7.073980142226792738e-04
5.442382024684012595e-04
5.923184304087008569e-04
-1.132835691347039084e-03
-2.345458083219134626e-03
6.113380598853211017e-04
7.112010467861588870e-04
9.966137582888710735e-04
8.461977347040388481e-04
-8.205577071601141822e-04
5.608146041926751401e-04
1.162466934340892653e-03
-2.485016877983144351e-04
-9.357726158018706214e-04
-1.364530058005033368e-03
-1.277801232867118057e-05
-8.485329631050879905e-05
-1.119156814758278263e-03
-5.677000178672476688e-05
-9.245034476735023213e-05
-7.576268392444379012e-04
9.456719571877245144e-05
9.473121100834301775e-04
1.501687961033672161e-03
1.455128614792247470e-03
2.027018656763543512e-03
1.381436513061427970e-03
-6.415983015781793726e-04
-2.524620146956891090e-03
-2.749479584599913602e-03
-7.113030665271885327e-04
3.834797970892630755e-04
6.893258500196203014e-04
-7.035107159566192587e-04
-1.802250660704848720e-03
-1.539465432646888699e-04
2.728273741145168484e-03
3.195006946286342055e-03
-5.732506785414908735e-04
-1.090102244076927851e-03
-2.683653984134378234e-05
-8.883738854040358146e-04
-9.261089104909656393e-04
-4.457200876266500579e-04
2.446331892529274711e-04
5.291761518963015434e-04
8.579046507445115986e-04
1.373528918056224303e-03
1.301572837207039127e-03
1.918207850476284090e-05
-2.791407302915885173e-03
-2.259125005501754716e-03
1.148173349720713271e-03
1.776828659878775148e-03
-8.364330205913762936e-04
-1.506822198128215766e-03
-1.151087604213780428e-03
5.361664201219347751e-04
1.572290093361444719e-03
1.805782294648678420e-03
7.795253415098107614e-04
1.933954688410550844e-05
-1.703148482518014779e-04
-1.774156216863241597e-03
-1.741451972198476868e-03
2.323748915994466250e-04
1.801059268755860864e-04
2.387890278108557439e-04
1.630690541261350587e-03
1.916721640732718755e-03
-4.258141568693838016e-04
-2.035695790878036364e-03
-1.839102504804113886e-03
9.343033150098467013e-04
1.563524980659295469e-03
1.127700439635810755e-03
-9.708931570206422732e-04
-2.276944324153422350e-03
-7.921295083947928759e-04
5.991147907900067028e-04
2.321502745585557188e-04
-6.605220883833313366e-04
-5.444190798909149349e-04
1.805536428482979730e-03
2.268878400146064067e-03
1.907893541310727061e-03
1.017015161499820264e-03
-5.710733840979907846e-04
-2.721095167987526431e-03
-2.399562587713584445e-03
-6.922864427979519156e-04
2.485720215588832775e-04
2.569805364382688286e-04
3.903655042041990022e-04
6.407205455959310691e-04
1.155035926788618291e-03
9.871970261040226042e-05
-2.412271712103613447e-04
-6.281472291891909698e-04
-6.035577399227325763e-04
1.392352114538298192e-04
-1.449596889892567882e-03
-1.801777360695914880e-04
1.812637738733175298e-03
1.172379884996725078e-03
1.255324159728158154e-03
5.338864305019020481e-04
-8.417120186523103760e-04
-2.721285780565717034e-03
-2.237398711698012895e-04
1.462564289389159519e-03
-1.023157172700349914e-04
-4.897368450300158523e-04
-3.042200915889172884e-04
4.622372268690723017e-04
4.462961956264681470e-04
-7.982728468475819034e-04
-5.122671618010701073e-04
-5.587645155367531582e-05
-4.843280646290230688e-04
6.557212043216143751e-04
1.543495740099111750e-03
3.559782821863062357e-04
-1.548312969800154989e-04
-2.914424413015069396e-04
-5.116062962036823031e-04
9.783254318821475260e-05
6.169623650016306787e-04
-3.334880083350802416e-04
-9.296236476293285016e-04
1.938829460101753721e-04
2.819824027687756998e-04
-3.689182136848334799e-04
-1.615197136999082074e-03
4.352801088936763499e-05
2.309114641136438342e-03
8.996193208812667012e-04
7.802379539619979959e-05
7.507475362612676647e-04
1.046108144599945062e-05
-1.844163147171259997e-03
-1.155160088871937281e-03
8.555276258574187566e-04
6.995821615612286403e-05
-1.065438260026729247e-03
-1.169686750170890761e-03
-1.453905820896701220e-03
8.389498488527135636e-04
2.209543666203724575e-03
2.971859981978679666e-03
6.911053412110857710e-04
-1.424337505886740180e-03
-9.315087711872556018e-04
-4.248673916742041882e-04
-2.114017287286328072e-04
9.271489067779840063e-04
-3.685656172536488071e-04
-5.908897428073714257e-04
-2.029616263883335034e-03
-1.480369199511578525e-03
1.210349619544175831e-03
3.755210425622212099e-03
8.153640489532120979e-04
-8.935735609605484570e-04
-7.594776192061135139e-04
-4.588125167164647657e-04
6.213099719729508119e-04
1.954278620426649503e-04
-1.121762751636177233e-03
-1.493896827191749975e-03
-3.046166616255072145e-04
-1.417579921367727802e-04
3.734965171313234570e-04
1.092529770292909172e-03
1.406492809614482732e-03
9.297076540753348225e-05
-4.120187270097956244e-04
-1.338371833907878823e-03
-1.048931332074377426e-04
2.204390586302659716e-03
1.146174403594906214e-03
-2.473446978702775528e-04
-1.210683279565404446e-05
-6.076903515049130984e-04
-2.354610586104086741e-03
-3.813381711816312618e-04
5.755405027999274887e-04
3.624121331123987609e-04
-1.009306835177762712e-04
-1.568334865434560391e-03
-6.697661513475547390e-04
6.271393172459690515e-04
8.141322463833348131e-04
1.282441452517803660e-03
1.133611695921697086e-03
8.407326205128903785e-04
2.642937379214950933e-04
-8.901845381035395103e-04
-1.546131757658179536e-03
-1.849661252361113183e-03
-4.227604527385279260e-04
1.822114884392315353e-03
1.376847340902583776e-03
7.217308388866715979e-05
-1.178413970893163508e-03
-1.310418682166253866e-03
1.807436788811099494e-03
2.370896116457313785e-03
-2.367888698011393815e-04
-2.054618714297529354e-03
-9.518989309056350876e-04
6.257482698550268603e-04
9.973379888597872899e-04
-1.058549578761828818e-03
-2.031515129174908414e-03
-1.004089797809860169e-03
5.000093052628036853e-04
6.510232339135454656e-04
5.163189962434389666e-04
5.498109677466708539e-04
1.659363573170873464e-03
2.002266594789481064e-03
9.529963137750730980e-04
9.354250978875908651e-04
-6.626028752077297310e-04
-2.179326044638887731e-03
-1.339066096384252226e-03
-1.506555078916788819e-03
-2.530525730514656627e-03
-7.434075787208542984e-04
8.147167565833497325e-04
1.092301683682393417e-03
1.177103502106675121e-03
1.394996793922525071e-03
2.399530575235378786e-04
-2.869571742003515827e-04
1.048861661151711611e-03
5.950490827334983844e-04
-7.273824124550085654e-04
-1.085850410140943309e-03
5.859699716569689550e-04
1.689842838230883569e-03
-6.790979165072814515e-04
-1.338977005763866256e-03
-6.005232391734473740e-04
-6.041593705140007198e-04
-4.366629377080967597e-04
1.580222606281106315e-03
5.654729373210423118e-04
-7.308898850075891060e-04
-6.258531171298580041e-04
-1.708480071934966081e-03
-9.225838932854669040e-04
1.734746757860869447e-03
1.533636588360769940e-03
1.494310793945036393e-04
1.689401251563656234e-04
5.126631260276055682e-04
1.623158462903928059e-03
8.883039267740226600e-04
-7.960762878969110086e-04
-9.266240962768085710e-05
-2.235471448565175886e-04
-2.576261216681049668e-03
-3.803353182427376793e-03
-3.993685341018082878e-04
2.601616263609447376e-03
1.238395098017934038e-03
-5.418418618485488180e-05
2.621073394540104494e-04
6.752137617454952688e-04
1.352177700895810988e-03
9.342660684878879981e-04
-4.114726946369344734e-04
-1.144721304624667308e-03
-3.012981559033182171e-05
-1.043773246315442689e-04
-2.267426438321418995e-03
-1.925831300063800006e-03
3.255070056900819767e-04
9.912160399998986345e-04
9.985148730678493952e-04
2.644296841599997130e-03
8.966837792318645877e-04
-1.346730399728023660e-03
-1.346135795467027791e-03
-9.442555948675716154e-04
1.481184846995853798e-04
2.369302065809340829e-03
2.187867467333329177e-03
-1.141339937738787531e-04
-1.050093021909555540e-03
-1.861915129375438325e-03
-1.347039633291661044e-03
-1.198050461303653462e-03
-1.882399311170055095e-03
-8.115677831560334224e-04
1.402071872952416693e-03
2.927814153748422785e-03
3.462093482316860784e-03
1.633669205177866587e-03
-1.639765522535244950e-03
-2.235862392207705034e-03
1.302390402410023590e-06
1.937621783981888733e-04
-2.567155224315086255e-03
-1.711130023845576064e-03
9.417787907978193663e-04
5.210870260446805657e-04
-6.127528609335015366e-05
2.411240380341524159e-03
2.303660433954616074e-03
3.877020634634131498e-04
-2.414539475570264427e-03
-3.199422462372696931e-03
3.245492333417981262e-04
2.818037418837462775e-03
2.144962746014131370e-03
-7.797002341517698379e-04
-1.684299555073498662e-03
-2.642530876893581541e-04
-2.908404699600854353e-05
-1.893582353768255349e-03
-2.957273615173000494e-03
1.381422543939159057e-04
4.188996198576010188e-03
3.090958053706492799e-03
3.506564998363292528e-04
-6.974875290433354784e-05
-1.381616755307005315e-03
-2.067231363362858135e-03
-1.513358003325048862e-04
1.001436124413563515e-03
1.153286842769513969e-05
-9.890941218270758121e-04
-1.878176090567384209e-05
1.763043282568599378e-04
1.429915278383016861e-03
6.949621073428365828e-04
-1.869807064975119709e-03
-2.442705657084117028e-03
-1.474557118132413394e-03
-3.328690306041681940e-04
3.274543054659685183e-03
3.549072789517652114e-03
6.385097821488646590e-04
-1.499541945545308135e-03
-1.963828757048018819e-03
-1.619933941722732234e-04
2.512275732342868217e-03
2.070534248754865407e-03
3.237962020596360057e-04
-2.134491604735769352e-03
-2.569545522558044914e-03
-1.901924023569781042e-03
-2.813899063597772687e-04
1.845328621008281720e-03
6.823831760836581274e-04
-8.454428658010005150e-04
-8.762786754351672980e-04
-5.967621665684245567e-04
3.333532288989667211e-04
-3.410913615579773688e-04
-4.540504925220871925e-04
1.086308910728564850e-03
2.464702057139387011e-03
1.551494084760622833e-03
9.376832138438528095e-04
9.163420362105506199e-04
-5.160382581649006119e-04
-1.401418583113229772e-03
-5.480085552480010083e-04
-7.321038979015102042e-04
-2.287110294170180153e-03
-2.186193763429058589e-03
6.183610929113304280e-04
2.143986385983921109e-03
1.922825080686010142e-03
-5.029322347397566738e-05
-2.665267391843407466e-04
-9.586332013136629460e-05
-1.057484075349486878e-03
-1.005794874856748419e-03
-1.150401149242796838e-03
-1.174451877201237613e-03
7.640299616080204782e-04
1.622091000853287043e-03
2.320762937812984907e-03
2.556321451067377314e-03
-2.679542521382530826e-04
-1.428167006260674856e-03
-1.751665831040308022e-05
5.975615600734337368e-04
4.085910407000375565e-04
-1.353093459212268779e-03
-2.247642902964423935e-03
-3.644847540034991222e-03
-1.110911892625987031e-03
3.231354322407971932e-03
2.074605556690478636e-03
1.518906834429414185e-05
-1.814713452758606618e-04
-7.867778396226087498e-04
1.876101485216449946e-03
1.409592942657291945e-03
-9.586087757807246071e-04
-1.868839071915227639e-03
2.034529042608161718e-04
1.591226380040406318e-03
1.371058213227331927e-03
-1.619594647685721107e-04
-1.493358847699137416e-03
-1.719509246306879114e-03
-1.462466455012801899e-03
3.347548338085971323e-04
7.624603556877898375e-04
-1.895384803181340621e-04
-3.953053995322547030e-04
5.920734265941018752e-04
2.150544608111740110e-03
1.826152492432917950e-03
9.792063968804226668e-04
5.126766272536099423e-04
-2.025766226966092647e-03
-3.287129006168749284e-03
-1.138934329098135112e-03
7.579406936577384778e-04
1.036661687915700018e-03
-1.512125054072447922e-03
-1.685000842194906128e-03
2.214856162145465313e-03
3.035751763806018161e-03
-2.702639757843959089e-04
-1.275306626128142528e-03
-8.776402925755954305e-04
4.795945169754158347e-04
3.664733300040237001e-04
3.168990694248879198e-04
-1.224516814720797862e-04
-3.402921958446547437e-04
2.714452039882113464e-04
6.396249104271270122e-04
2.993881579761795966e-04
3.104971478277102699e-04
3.590943426968746361e-04
-4.783897324021467055e-04
-1.445517086430553799e-03
-7.154873610339041639e-04
-2.735589890196791682e-04
-2.712999299569791183e-04
5.747470804219174348e-05
-6.558214677424129523e-04
4.931225761331689767e-04
4.569777939731764970e-04
4.590367542637141095e-04
4.990958719235991494e-04
7.261015394249716428e-04
9.801511473292554184e-04
1.555658467865226940e-03
-4.600789743095035143e-04
-8.098613201930205795e-04
-1.035312174371613757e-03
-2.524716661699658807e-03
-1.629196007906950775e-03
2.671407523116979305e-04
2.393210118809739606e-03
1.081410453604170164e-03
9.064154842284066543e-04
1.104804419560932466e-03
-1.523578659821451695e-04
-1.486792924630271455e-03
-9.067008935176996921e-04
-3.842204293744072899e-04
-6.675392293937937619e-04
-6.710114368544417302e-04
-2.225992972340327437e-04
8.751418018439321967e-05
-2.639234554157057373e-05
5.210252984617937382e-04
8.278333123620098882e-04
5.976899338276034498e-04
9.021114712153486788e-04
1.433790259570162130e-03
1.575243181086872536e-03
2.473686214792570888e-04
-7.319840863855984125e-04
-1.528924808987337054e-03
-2.460602787538585662e-03
-1.704883187736166376e-03
-7.926295871477411154e-04
-1.825341721777570347e-04
1.043436935504010862e-03
-1.617397879584284767e-04
-2.831330861649034199e-04
1.446654651884777838e-03
1.672756386076170018e-03
1.614530112951419356e-03
1.419384020334133563e-03
6.207967399225205627e-04
-1.403028788587720255e-03
-2.376059450454412296e-03
-1.547938837671818850e-03
1.375589229474417094e-03
8.932792492129421362e-04
-1.320861144035610042e-03
-1.147433482077891065e-03
-1.088720979649334986e-04
1.232331415923292419e-04
-8.994398973433728175e-04
-1.334986784027183048e-03
1.726718134851505529e-03
2.649723230682080738e-03
2.357195541619654805e-03
-6.146562680444044534e-05
-1.399696704118792755e-03
2.100171393211754716e-05
3.846630878972329896e-04
-9.206063881898044398e-04
-1.301664000414960070e-03
-1.215717105455007847e-03
-1.270822008068608075e-03
-8.977924008493548883e-05
6.539059431942688709e-04
9.653745864316717407e-04
1.306715287372319694e-03
1.070177964111048655e-03
1.476697544032599908e-03
-3.753272275280136890e-04
-3.575414051700023885e-03
-2.637762797091286297e-03
1.818008055967590018e-03
3.982863888802169565e-03
1.709036329875178754e-03
6.307023423056942269e-04
-9.411384187471429725e-04
-2.099199583249019771e-03
-3.000835373235930751e-03
-2.273224815119967955e-03
3.928706922076964062e-04
2.106458520831262088e-03
1.047808998561596374e-03
1.044803389740892518e-03
-4.828754231464685623e-04
-4.705626446363845813e-04
9.402223175266709700e-04
-3.620085381453285183e-04
-1.778178313632623611e-03
-1.025541674053608623e-04
2.220993999338368233e-03
1.371578636948547758e-03
8.633137246835368317e-05
6.422104632835917660e-04
7.373311517677673312e-04
-1.319611795350697893e-03
-2.488001689795344210e-03
-1.402717835186713998e-03
-5.094986591946589751e-04
-5.714418926885873364e-04
1.467030647695165106e-03
2.408764736481406547e-03
1.272568238532685266e-04
-3.307183614049395855e-04
-3.262652391702785333e-04
-9.152658158970394505e-04
-1.323236998936688129e-03
-3.193716243301111444e-04
8.835270245541916329e-04
1.374911749808615082e-03
1.156294366013762252e-03
3.780531155348801592e-04
-5.078524269623040967e-04
3.207477348775442582e-04
4.113147389067040244e-04
2.092674884788099871e-04
-1.060790996725678162e-03
-2.800068851851150557e-03
-1.051171566413250987e-03
1.126343206462710562e-03
9.802357810342399776e-04
9.481617952063062845e-04
1.027902787555287937e-03
1.502802133992611571e-04
-2.142682464578720899e-03
-2.048273722054339094e-04
3.189178127651989434e-04
-1.126438223516383223e-04
9.429508034810258699e-04
2.822852617134401026e-04
-1.102313226824851790e-04
-8.129415498727160397e-05
6.752088937194677390e-04
2.460877637471650499e-05
2.584137886375998121e-04
4.654599471754337242e-04
-5.684106544208205811e-04
-2.223748073159734131e-03
-1.437020718833965233e-03
8.904749346857954899e-04
2.333434025885368183e-03
9.758843162674527206e-06
-1.333391878865309698e-03
-2.138213285432396388e-03
-1.018506414387745224e-03
1.119137067217443066e-03
1.379296262591744697e-03
2.048434848779467302e-03
2.965128555531516656e-03
2.741126836126087617e-03
-1.237485520157101610e-03
-3.653170212450128958e-03
-2.546211936637112969e-03
7.714638008533127392e-05
2.302002153507061650e-04
-1.183625921445441621e-04
-3.680237745899435473e-04
-6.566284416986244014e-05
2.588598415709246722e-05
-5.471456710367585694e-04
-8.625122030093731584e-04
1.559937549389421119e-04
2.669046920888419345e-03
2.716210785604133982e-03
-4.607591950373343573e-04
-2.282178464353626455e-03
-9.176714454628785017e-04
5.778277532297100994e-04
-3.949309830901721365e-04
8.874743618692037313e-04
2.974580975150911731e-04
-4.943794299048873825e-04
1.556585129284091115e-03
1.562136934482980790e-03
-7.855066827242739762e-04
-2.128198379675534484e-03
-6.290204584021471786e-04
-1.159829635065450773e-03
-1.263271578150073444e-03
-1.529475016437864066e-03
8.113440153578870299e-04
2.274123359729081448e-03
2.730087553394874595e-03
1.132477302472712465e-03
-1.433184645666922595e-03
-2.513111467051720380e-03
-7.273585282577671712e-04
1.098899190852207082e-04
1.060941978548663898e-03
1.808587087547040319e-03
1.419504569426835363e-03
-1.289101562883058756e-04
3.655342473906393467e-05
9.729480673056602408e-04
-9.301946918977498872e-05
-1.506665980830809931e-03
-3.134250563218693355e-03
-8.682736706103231583e-04
1.013757306329726672e-03
7.278464138093974575e-05
-7.829719261685122531e-04
-1.081339059885359430e-03
-4.992054030720662451e-04
1.593096916107742842e-03
1.857092769605535624e-03
3.124062436730951297e-06
9.364556414533429753e-06
8.128436665293638707e-04
8.866399017186974785e-04
-2.339825821992342540e-04
1.101118423776113698e-03
2.282523450640423258e-03
8.900994090307180588e-05
-2.901483399851734896e-03
-2.276885239814388159e-03
-1.249533785236267656e-03
-1.041886046428624731e-03
-2.757525192449063341e-04
9.073758163103696475e-04
-2.229977271846893423e-04
-1.358747058713026621e-03
1.145695534396618632e-04
1.622402379286132235e-03
3.486436120795156739e-03
2.667037279929102174e-03
8.672300785228933770e-05
-1.048279187115443850e-03
-1.198264868798957572e-03
-1.742372000130523258e-03
-1.620470514592723408e-03
-1.452068985266163513e-03
-7.891581141455256956e-04
3.580510778250026453e-04
1.368343873162117209e-03
1.772115410206562399e-03
2.624459464039008167e-03
1.469914193033374341e-03
-1.801168522581341228e-04
-1.881716191083307238e-03
-1.815748290751916091e-03
-4.487000114485627570e-04
-1.599832662605102547e-03
-5.388645372366172902e-04
1.447715700036062726e-04
6.120699791977132808e-04
2.638546046432941987e-04
-7.346582824416427859e-04
8.335921501328308336e-04
2.538765167573578396e-03
7.282191142031557230e-04
-1.386872893109854883e-03
-1.403053627683394490e-04
2.180791570516483948e-03
9.987037185603309022e-04
-3.229814166098856146e-03
-2.418674736547985361e-03
-3.829838263837328084e-04
5.891213612784154544e-04
1.567605697240424594e-03
5.716404347285862411e-04
-2.591237178935652786e-04
-1.581137917599619101e-04
-3.425489227958849266e-04
-5.042318353930455967e-04
4.272522359710992498e-04
1.385173214429529865e-03
9.966141962866380353e-04
-1.349389085826197378e-03
-1.687013774059170504e-03
2.868033078509724955e-04
2.970350028060649689e-04
-1.332980270853259357e-04
9.764419884995123719e-04
2.707756098632459370e-03
-8.929654239703588335e-04
-2.198393172329831270e-03
-9.044777865667211463e-04
-3.681495089889618333e-04
-1.305623829563703922e-04
-1.898867603330262261e-04
6.623977645153421268e-05
1.097079131716840062e-03
1.377052022815943716e-03
-4.685759938886041131e-04
-6.285958323668375865e-04
1.044036746293236550e-03
7.273050481177911405e-04
9.112040531109002388e-05
-4.157978762450964777e-04
-3.917212324269554616e-05
-1.227807169398130536e-03
-2.156022851124291331e-03
-9.955825896050308783e-04
2.406094828763675857e-03
2.863843773620495387e-03
2.306242893750220927e-04
-6.025849830731299294e-04
-1.150950303210333120e-03
-1.401319031155056011e-03
-4.228445314467126656e-04
2.755229632179993890e-04
-9.670356108965813546e-04
-6.238256395540811875e-04
5.575084208551760829e-04
4.526806381299603951e-04
5.948002202911852878e-04
1.595674619601438349e-03
1.009003854071987465e-03
6.546410226434466566e-04
5.157882431579989329e-04
1.136265932638214098e-04
3.402023295593520368e-04
-4.897923374334052624e-05
-2.296583341019894225e-03
-2.606164568822116803e-03
-1.448674773678096687e-03
-1.120423756130151278e-03
2.077061803685639090e-04
2.691113064756334595e-03
3.131782697274790479e-03
9.278734203358132053e-04
-2.690434196926542142e-03
-1.457552897980710603e-03
9.731727075683975492e-04
2.015238052403285629e-03
3.011381420604018560e-04
-2.029121056600887221e-03
-1.617042969212213700e-03
-7.522407908423726485e-04
4.094150723041052446e-04
1.556889977764228192e-03
1.766285911482641134e-03
1.637446589806503417e-03
7.007749561948802561e-04
-7.504337836950733575e-04
-5.902286224196505839e-04
4.115858319684775738e-04
-1.256247765741878158e-03
-1.621703076358499765e-03
-2.046111298046375971e-03
-1.594810020893451140e-03
5.205411977335429883e-04
5.151874158539552877e-04
2.523112227312425382e-04
8.316315212168405146e-04
7.555942053426385665e-04
3.519124122004758611e-04
2.456696362433586256e-04
1.357979548942874707e-03
1.395929945680291417e-03
1.261610860917763760e-03
9.334395044478996763e-04
-1.294827027505831077e-03
-1.487380318575154490e-03
1.707503239103750606e-04
-7.762367807874521889e-04
-2.524075885058569158e-03
-1.889575406302866026e-03
3.497360338126450263e-04
1.592006265172006725e-03
4.556290939711562901e-06
6.264265827648501797e-04
1.786829826778762401e-03
2.918393727494848788e-04
-2.320767127380915333e-03
-1.918913521476562408e-03
1.203641898219754520e-03
1.563376158978866748e-03
9.983908225888406176e-04
5.807308175070565208e-04
5.912372445107980843e-06
1.872365517613440195e-04
-8.633689318594564522e-04
-9.977155684769664667e-05
1.556854415999700276e-03
7.451195316519342070e-04
-2.384528067376387363e-03
-2.337851574324063732e-03
1.270067643125729858e-04
1.357548975932973791e-04
-1.079220126542958279e-03
-7.575486105077405309e-04
8.100668075263160175e-04
2.111326013292751623e-03
1.021173154392707822e-03
1.056690838329668375e-03
6.952135620108987292e-04
-3.697544520796550399e-04
-4.652745312758359915e-04
-1.278838033105783546e-03
-1.601332225222910867e-03
-2.252194752496169494e-04
1.004653095867560735e-03
2.074750267805148488e-03
1.599367204053259075e-03
2.587062164590658335e-05
-1.585090383858582443e-03
-1.711354346529041356e-03
-2.183414263651428655e-03
-8.601481290874446505e-04
-1.742784388785965108e-04
1.907468152713365174e-04
2.383725992933080975e-03
1.533955178788321211e-03
-1.432920001281553926e-03
9.668441964815840560e-04
1.717243476722421979e-03
5.120510066269043413e-04
2.456194744262186146e-04
-1.836452757341632252e-03
-1.929227335822647840e-03
4.145443197966778887e-04
1.370038248499014190e-03
6.233553479384288526e-04
3.042631985107001032e-04
-8.114602131317018080e-04
-1.960989709013149628e-03
-1.309828488418197457e-03
-5.296816767500905909e-04
9.992419559926631750e-04
6.941014715618052571e-04
-2.126526427765666153e-04
1.647186531745809847e-03
2.774071640735072120e-03
1.040003560970705282e-03
-4.967835755075763722e-04
-1.983809750627112123e-03
-2.653966898331651045e-03
-8.251100943844033890e-04
-9.190235945450468073e-04
-1.254759642791619667e-03
1.372943267554972268e-03
1.621836295338920835e-03
1.470292075401288074e-03
1.519076791593559211e-03
1.143732774727278375e-03
9.364028775443480846e-04
-2.023378168234811220e-03
-2.875716345391079835e-03
3.499765674779330507e-05
1.957423026824764867e-03
1.500419648104083436e-03
-1.285878216664272471e-04
-2.479506927843633766e-03
-2.044195364241368790e-03
-6.485852882203822648e-04
9.556483027930712379e-04
8.013435734727245366e-04
-4.808297768924970576e-04
3.079622542490161312e-05
9.858526901835892690e-04
2.697597184266534577e-04
3.428009708946162608e-04
-7.637631104285986508e-04
4.696899454057521330e-04
1.301466627102607510e-03
8.157470191325946187e-04
-5.347008483950645282e-04
-1.210146813408972865e-05
-6.925591877841189915e-05
-7.187200292839484791e-04
-1.416650702303468674e-04
1.041082983333317799e-03
2.280459938856370286e-04
-1.516197470983592132e-03
-5.285512680760414425e-04
-1.686224663197321552e-03
-2.538063698685368366e-03
1.331151292430287432e-04
3.442521932523980813e-03
2.216255449246601599e-03
-1.397505640951316385e-03
-1.592213865626155482e-03
1.177637219101397006e-03
2.179437865762785462e-03
1.842476474770061328e-04
-1.312146588260063203e-03
5.710939329602117464e-04
2.150315748574974442e-03
9.611133387929652380e-04
-2.103450699697074350e-03
-2.180461624396132746e-03
-8.112929802595853336e-04
-1.418691732703688711e-04
-1.090823845424004120e-03
7.704894923398897385e-04
1.637163364929162266e-03
-1.069848674327892549e-03
-1.838708819812998616e-03
-4.961446685452738405e-04
2.320685331962604877e-04
1.127881222914969969e-03
2.664526597395566569e-03
1.953425595995005037e-03
-3.900836058889392793e-04
-1.620050928976890471e-03
1.157106181702276249e-03
4.552416196640008306e-04
-3.802402988466122295e-04
-5.983853843385395074e-04
-6.676833972879941395e-04
-7.486852058572402357e-04
-1.150649888339147801e-03
1.104582526803143673e-04
-3.174171573443894303e-04
-1.204793249855641828e-03
-1.471980128431872679e-03
5.723461374955769341e-04
1.736245651279706573e-03
2.487727883561328176e-03
1.307593447949195655e-03
2.914457530148126602e-05
-7.396485721875670520e-04
1.283485802329677314e-03
4.430920021481604665e-04
-1.288674509315094292e-03
-1.482148600269004180e-03
-4.530417915002320022e-04
1.120258784802839991e-04
-1.775624079738090432e-03
-4.719501611352378630e-04
3.622266713615748921e-04
2.726312969586364588e-04
2.674619526209445159e-05
-6.598063906069778111e-05
6.074797419009352875e-04
6.737702246190651776e-04
1.044792952669995958e-03
1.102659735330083256e-03
3.783532359841962150e-04
5.361256833606769991e-04
-8.813521668030963605e-04
-6.857569670210283963e-04
6.508027034584496070e-04
2.182311380286225671e-04
-1.684286461448983091e-03
-2.615278673500203918e-03
-2.792238134328656001e-04
1.522480337496615824e-03
-2.426874999307636999e-04
9.502496290423230474e-05
1.189558080222870729e-03
-5.924737446534800904e-04
-4.924487318233729911e-04
1.426082233980185499e-04
-8.011118043763871882e-04
-2.548191543165339852e-04
7.237335287080938571e-04
2.137349911129426874e-03
2.455036221009088051e-03
-1.441959563599173701e-05
-1.323134264800545972e-03
-2.748858580156730998e-04
3.561752415286983790e-04
-3.739640150169672834e-04
-5.089475990692822905e-04
-1.598882524262194025e-03
-2.290219411511548817e-03
-6.137018696081413807e-04
2.048612333596940872e-03
1.878600773802331907e-03
-3.595464288632877945e-04
-8.460827913181347788e-04
-1.834718924464356731e-04
-1.930197480431579372e-04
-2.537276238446279524e-04
5.605765391169802462e-04
1.191651317080808826e-03
1.648049149639221542e-03
1.056846865430780843e-04
-1.141191142886775495e-03
-7.150935586035875183e-04
-1.206632969518748721e-03
-6.291713710179555998e-04
8.676252168321993462e-04
5.401999700652873170e-04
2.228077999805936466e-04
8.343798534694102723e-04
-5.206097389976896504e-04
-7.864582105556716099e-04
-1.114425671763222600e-04
1.358568087577575773e-04
-1.920608270858277782e-04
7.412412102703991963e-04
4.999122172266142264e-04
5.069692152908261829e-06
-2.800481321159224496e-04
-5.028524339745680085e-04
-9.638987993092342854e-04
-1.049155047057932603e-03
6.528899809499119160e-06
5.247771451912694148e-04
1.265821137284029070e-03
3.925273050207185263e-04
1.839446505006232422e-04
1.389597401429081827e-03
1.093716514999270662e-03
-1.027791204729669970e-03
-1.485453075440433274e-03
6.093073825809452184e-06
5.294776554100892509e-04
2.219454816818356975e-04
-3.176393246770281413e-04
-4.858818593541515516e-04
-8.952836492197242856e-04
-2.458910540960188452e-03
-1.508290804227079051e-03
4.397577801801508279e-04
1.411790362233709397e-03
2.027819629395277799e-03
2.295510109547802425e-03
1.456657674753155350e-03
1.343932522962448459e-03
1.253836573775450201e-04
-1.285578619615189780e-03
-1.059523828563603293e-03
-1.484612833543908330e-03
-2.861576610587695212e-03
-1.519147821970161629e-03
1.030836068376233530e-03
1.449759874763705382e-03
2.167235980351851939e-04
-6.619766498264220483e-04
-1.164291669274443832e-03
-5.002527512801976196e-05
1.780424014423339762e-03
2.505290256540459743e-03
1.516727892145204332e-03
4.886794848468247994e-04
-1.047670274129062660e-03
-1.430264879981314264e-03
8.466441453306332906e-04
2.679100594557628514e-04
-1.815139246346107261e-03
-8.451243141460292258e-04
2.615794167622643583e-04
-9.496955844042141151e-04
-5.205960510246501229e-04
7.812246090087939833e-04
2.081457311240114238e-04
-5.595995146725180709e-04
-2.978129221512936398e-04
9.975708143005696058e-04
1.499013224116353075e-03
4.455780901815202598e-04
-1.552608426079477716e-03
-9.889021516056881265e-04
-5.197716680742213214e-06
1.237604768916400391e-03
1.203095148144374751e-03
1.252583775494070040e-03
9.160296711162287326e-04
3.349631525673565056e-04
-8.038645743715396421e-04
-1.435624247243576885e-03
-1.709837040281469208e-03
-2.378976346598017308e-03
-1.136053845492923219e-03
1.433909972410591640e-03
1.089598081653569972e-03
-3.029617840196106014e-04
-1.133571858686751118e-04
3.204328649142997921e-04
1.145657793504068265e-04
5.154813613952190145e-04
3.202975002837297395e-04
-4.625577987726121778e-04
6.064843807161540397e-04
1.989265345042245253e-03
1.680002605629094285e-03
1.058244693810009540e-04
-4.814862807298703846e-04
-1.190807710370186392e-03
-3.851544368950673438e-04
8.282215029244952053e-04
-1.786157251166754138e-04
-2.363889612401233117e-03
-7.091674225798608828e-04
3.538692299772379737e-04
-1.917609907455556685e-03
-2.627549254794862583e-03
-7.651934045242241532e-05
1.184043568506492174e-03
2.403372394300743505e-03
2.236078422273327267e-03
1.317181288542578887e-03
-3.338214310862902957e-04
1.263590471068793764e-03
1.843697231737178753e-03
-2.102257655306862330e-03
-3.101617084985691317e-03
-1.314689823830578154e-03
8.071922029748620489e-04
2.032411110198235980e-03
2.138452586756154565e-04
-1.454188132194441513e-03
6.819535074858645374e-04
-2.505373327731653097e-04
-1.966708429624602558e-03
4.150342916801884091e-04
2.318433926554306322e-03
1.305839175680620703e-03
-1.854021163165576504e-03
-2.423526872799530631e-03
-3.942130409027822207e-04
1.038424577770740353e-03
5.095107253489998501e-04
4.675731389047023466e-04
1.222857535972252845e-03
3.364569369024884306e-04
-3.608401549137674907e-04
3.487900537112755255e-04
6.292647187293288038e-04
1.634294370195589857e-05
-1.497069811151762473e-03
4.944121441714545960e-05
-5.380360544956384536e-04
-1.432931695380361067e-03
-9.596302821460574390e-04
1.033126359604697028e-03
1.798590813791863625e-03
1.337279097961360623e-03
2.602692410793764981e-04
-8.215166557516252006e-04
-1.907919722688381685e-03
-1.473527719729312473e-03
2.254706587778196501e-05
-4.740122726125714069e-04
1.457739942595065582e-03
2.607629280697950323e-03
3.120857540689789700e-03
2.073632965953554723e-03
-5.419597040670177468e-04
-3.358570037354797165e-03
-4.242246924402249056e-03
-2.732530523687068044e-03
2.632879991183604347e-04
1.706858180099557129e-03
8.963651721468628869e-05
-4.491157281933466985e-04
-4.273684820470511389e-05
1.325687016712317383e-03
2.448110888080008707e-03
1.653080062556537772e-03
7.723496163103200267e-04
-5.047200880573574728e-04
-1.425907145036293651e-03
-2.203807594224899480e-05
1.554295296050545649e-03
-5.278784586417964875e-04
-2.010401101647137090e-03
-4.626111526555029096e-04
-6.208238118993961857e-04
-2.180848395348287082e-03
-1.476727981679591727e-03
1.194066108619936751e-03
9.587368369827182308e-04
8.794871424871217964e-04
6.600923439115503151e-04
3.063293037362750507e-04
7.351195022651266318e-04
2.095479201302441648e-03
1.632411268459081849e-03
-3.613405199308148525e-04
-1.764565182682319849e-03
-4.568150022102248514e-04
-1.182921232650046986e-03
-7.501974464436454802e-04
7.108240401460361364e-05
-8.574795879674983320e-04
-9.386418228361730455e-04
1.410965883057920271e-04
4.106416169249030366e-04
-8.774244843716540263e-04
-3.491564004717643546e-04
9.443074560204224024e-04
3.171138971049260961e-03
3.445380059538862613e-03
5.567354302848909848e-04
-2.435268108080890573e-03
-2.167931451828392954e-03
-1.230660823087842198e-03
-1.145235447467416725e-03
-1.907745493840410809e-03
-1.225857329456679938e-03
1.971000795228442220e-03
3.105648842677721788e-03
1.412663580335325351e-03
7.006660429554489476e-04
-2.608795628096554817e-04
-1.180010669085518977e-03
-8.884491333232027424e-05
4.014533751126102648e-04
4.261694163597294681e-04
-3.360314535400691976e-04
-1.136074864617820637e-03
-1.221691079781526013e-03
-9.049908870116412686e-04
-6.468368783630160275e-04
3.161072888009189307e-04
2.139623270281454555e-03
1.471862685860225164e-03
-4.604343541258089346e-04
-1.209716401915175406e-03
-9.230141319704324079e-04
-2.062701525238262940e-04
2.780644100541971060e-05
6.956707796415726678e-04
2.406632672898363894e-03
1.953578472955068857e-03
-3.621727355111363316e-04
-1.187617220073001675e-03
-5.254969654666863865e-04
-8.174905658338453085e-04
-1.449998245897121327e-03
-1.194942419452286542e-03
-4.985639749433336829e-04
-8.716754461236937918e-04
4.497431141586669015e-04
7.373347711766151591e-04
1.381631806146153222e-03
1.786838268711943116e-03
1.323720185618068622e-04
-5.245467697667133451e-04
2.739106025767462974e-04
-2.240350121980896035e-04
-3.497878410394328710e-04
7.985908548436585971e-04
1.526569646897728500e-03
5.963473447211822646e-04
-1.093143604452573693e-03
-2.183229006836143703e-03
-2.380163100549847772e-03
-1.538864569304538871e-03
9.475707537773897992e-04
1.722366235088754801e-03
1.093565713139567049e-03
-1.882456302332761747e-05
-8.392033920272727674e-05
1.971011851850826366e-03
3.511973610374553357e-04
-2.805027886514143212e-03
-1.851455288804967469e-03
1.684802874237623484e-03
2.307719618266867133e-03
9.285089179091962240e-04
-9.323615559894974291e-04
-1.297211835458403567e-03
-4.770488482021217023e-04
-3.079172527645862795e-04
5.799621636869905584e-04
1.116955306585765010e-03
3.883971671211766132e-04
-3.814983965933995314e-04
-4.235083373648683121e-04
-1.864887307641229083e-03
-2.252929949754660204e-03
-6.592015875871426716e-04
1.861658885677197573e-03
3.338826575635975118e-03
2.737514724251106164e-04
-4.588935216184256301e-04
7.777162996341030574e-05
9.700001143070678764e-04
5.383203859887010804e-04
-7.625477478138259751e-04
-1.410881257891761446e-03
-1.258412073217420827e-03
-1.562263344381218408e-04
5.199127144175831215e-04
1.379347541582967443e-03
7.440566605466519823e-04
-9.265294229125974577e-04
-2.561845335197402481e-03
-1.717917024318788097e-03
-2.240303518467344544e-04
1.767073625617187910e-03
1.505566085134928903e-03
1.425542227331781132e-03
1.667708938628341018e-03
9.950639665272215627e-04
3.032940167012260278e-04
-5.820421418788029313e-04
-6.147102708114174276e-04
-5.773970687604452557e-04
-1.401217442391490802e-03
-2.027887591804953919e-03
-2.002787856729364765e-03
-1.169661336525837153e-03
4.812842556798304521e-04
1.591309845244394177e-03
1.262436824481083259e-03
2.259976097952698382e-03
1.703126414461450522e-03
3.718085417228536430e-04
-4.033513301819975280e-05
-2.827391651492923582e-04
-1.411174423783340083e-03
-8.198248402844385231e-04
-1.701226256303722080e-03
-1.754590725799918746e-03
-2.051404415010978923e-04
5.889888013873620213e-05
1.145713144239149758e-04
1.951169874560477633e-03
2.213001601995431399e-03
1.506518940512016234e-03
-2.485634202162077287e-05
4.640395586062279990e-05
4.821843211597422771e-04
4.246082629695140413e-05
-1.749928608670868685e-03
-1.708352204936760708e-03
-1.831057368711959269e-03
-1.060555134044497859e-03
5.967068440142949933e-04
2.388405288993812245e-04
3.073094412171158162e-04
1.414059683652275912e-03
9.669478068598907601e-04
1.876733833864860140e-04
1.059235826472050470e-03
6.797991327966582467e-04
-1.260485785461066188e-03
-6.480849489342487219e-04
-1.305153796954080722e-03
-2.018943169597700073e-03
1.322583544346859910e-03
3.676904371459967756e-03
2.444273226775455030e-03
-9.007010064003750569e-05
-2.858453473189987576e-03
-2.958032154182566216e-03
-1.448377294355831634e-03
6.160827631329525563e-04
1.117617471366080936e-03
3.838157732094790524e-04
-3.396196671417774115e-04
-2.637453819759070302e-04
6.367599821753926453e-04
-6.668930356854600120e-04
-7.986986408191899508e-04
1.781094481630242842e-03
2.502577741830102308e-03
1.461643870073269338e-04
-7.159134300826155593e-04
5.154195317366042171e-04
-1.058684341436066977e-03
-4.221992122059278524e-04
4.200717287912560734e-04
3.785996482158831221e-04
-7.194832899266942342e-04
-2.434424200803412229e-03
-3.561206582819349017e-04
2.299596627439304611e-03
3.154013759964998970e-05
-1.061670929932609234e-03
-9.823901026642285501e-04
-9.518919479053172383e-04
1.318984982372308759e-03
2.778868549132979416e-03
3.756960390386671175e-04
-7.039929581591962632e-04
-1.577119517399616026e-04
1.797982720095564013e-04
1.517689846617395564e-04
-8.561709777650893362e-04
-1.168703660349482013e-03
1.280967361496500691e-04
1.661468502968019593e-03
5.353706385995492907e-04
-8.027033415520032486e-04
-9.701718787073315394e-04
9.610800092168332500e-04
-6.389327927641793225e-04
-8.688366959270240166e-04
2.920381639603696934e-04
-6.440459611712620385e-04
-1.061482562952268012e-03
-6.351760629896485363e-04
4.988535671814291585e-04
3.685317610169321556e-04
1.996931788698266656e-04
2.278857353955885453e-03
2.933860945199511915e-03
1.384476005055351256e-03
5.067872729697802140e-04
-4.887544893155723168e-04
-1.171666387143123576e-03
-1.872024390881266284e-03
-1.999184555860800301e-03
-4.973818252847684489e-04
-1.490273730841547295e-03
-1.921242627935536773e-03
-1.625274919754743407e-03
-2.793237803276637002e-04
9.163184634753709880e-04
2.439066627335181783e-03
3.083900725950903220e-03
2.554739579173899260e-03
1.462813401956988184e-03
2.581392320756815376e-04
-6.727815181841872079e-06
-1.031796032099180707e-03
-1.011023472189390452e-03
-1.038226926287877079e-03
-2.510431455667982547e-03
-1.937687378964664340e-03
-9.683942412604523698e-05
5.631922180806488197e-04
3.464662506314984919e-04
7.836068378541453895e-04
2.647323004922467419e-03
1.984209378911165264e-03
-5.782219086840433399e-04
-2.426231828755072428e-03
-1.859665101670824466e-03
-1.297035675871521278e-03
-7.152221611718637823e-04
6.708268046689185374e-04
2.728232402483339765e-03
1.963444452910010230e-03
6.612577332861626679e-05
-2.112858758160234311e-04
-3.941925184519630789e-04
-1.402598517698072905e-03
-4.985910215038116952e-04
7.800608515875908722e-04
1.808988434429939377e-03
1.505108354881711050e-03
-1.366977028311970729e-03
-1.632505295048362502e-03
-9.806834119689502617e-04
-1.555341861079517383e-03
-1.377155851105974459e-03
-6.001725320506283261e-04
7.760889558451187402e-04
2.142476573896593371e-03
2.431546661191596841e-03
1.795055657474556613e-03
-7.498125916092529704e-05
-5.892399731070783976e-04
-6.691383004755496093e-04
-6.259847909519540001e-04
-6.176620053696162604e-04
-1.410604849170796161e-03
-1.022195232456027782e-03
-2.136429285543482378e-04
4.090633083313004160e-04
1.005051775868619430e-03
1.887560996127422668e-03
4.714817289948815987e-04
-2.013400548533936414e-03
-1.133257080824315484e-03
1.594121830345282542e-03
1.445601406566735274e-03
-3.522555882683350262e-04
-1.200971683551074363e-03
-1.707865594623421933e-03
-3.455216148117677406e-04
1.665348038229697491e-03
2.186926941612777394e-03
1.063529993768442010e-03
-1.251450453107946868e-03
-2.779604415973642439e-03
-9.325273171059305418e-04
1.232554453425118270e-03
2.337384943046255745e-03
1.004514904952527599e-03
-4.803087379612166401e-04
-1.661033127987879537e-03
-1.622280346152971770e-03
-9.729837637376482834e-04
2.895520261300267941e-04
3.246357951224922731e-05
-6.258170068020603818e-05
1.227241217624958861e-03
1.613361310249537004e-03
1.398829703408578868e-03
1.189435936576174442e-03
6.734162560920903826e-04
-1.225142826284550141e-03
-2.530576818051342904e-03
-2.944889985299409350e-03
-1.863455684942391839e-03
4.044439195337553900e-04
1.872344725253613854e-03
2.385466709802567132e-03
2.399319276859814606e-03
5.378486314331333779e-04
-9.134288654571608894e-04
-1.500196016959287571e-03
-6.149997374691997193e-04
6.214335902946450170e-05
3.791817757405926124e-04
-2.710510966402138069e-04
-8.142780512473975869e-04
-7.835318043718929489e-04
4.435726941515410310e-04
1.202957159192937853e-03
-3.203809901898950767e-04
-1.515573394330983975e-03
7.555399828928551908e-05
9.591800142274023661e-04
2.334807666109602259e-04
-2.595941028817080171e-04
1.471083984762850240e-03
1.004229218404754497e-03
1.709464903113765957e-04
-1.165797999128188677e-04
-1.543001945759513030e-03
-1.675294406656716679e-03
-5.234405763189078692e-04
9.858701132300356097e-04
8.568752326972376701e-04
-6.182644616361583243e-04
-7.068882114522441950e-04
-3.393529059676093224e-04
1.231621087601109978e-03
2.463897865092618249e-03
1.510038209159867166e-03
-1.187948723221135192e-03
-7.613625904811437096e-04
-1.188831102102055328e-03
-1.257191545328234560e-03
-3.590998622948620724e-04
-4.763872274566182557e-04
-1.144870326392244267e-03
-5.231359159851159749e-04
1.554689610702905938e-03
2.204475844596011629e-03
1.594487324545481319e-03
1.979426377844284294e-04
-7.497059236782492629e-04
-6.241763663694090353e-04
-2.255663088191709004e-05
-1.007836506241823230e-07
-5.441203762092474989e-04
-4.213202716565207762e-04
-1.450426098741504658e-03
-2.246547439773893297e-03
5.573447154483122295e-04
1.933430640427213302e-03
8.175777958889427453e-04
7.187648931357030818e-04
1.783965062217929796e-03
1.255900730655648513e-03
1.874927057740831784e-04
-1.134664983732275832e-03
-1.815540271326858152e-03
-1.570768448247267376e-03
-4.199980134641804401e-04
1.009115324285332627e-03
1.329133226784321277e-03
-1.148941477893642522e-03
-6.335207160479995863e-04
5.835110756976291451e-04
-7.018936954268953062e-04
9.104278656626202024e-05
9.839894827642886154e-04
3.052033776104013741e-04
3.508633245428011398e-04
-5.502418483425449000e-04
-1.781297483630651848e-03
-2.855141756446754036e-04
1.193535608792153533e-03
-3.954207388745271056e-04
1.332421681222448271e-04
2.469111629114382079e-03
2.637175689948183070e-03
-4.400360553570641336e-04
-8.212620787221205226e-04
-3.459041902782302520e-04
-1.155529176280236476e-03
-1.572541183608411027e-03
-2.355344752854894412e-03
-1.662720417636642843e-03
-2.423923062766783281e-04
5.512919911955985576e-04
1.349501893926306805e-03
2.020282567007944917e-03
1.971832365531174091e-03
1.524380317576193734e-03
1.146529173950684450e-03
-2.231763929004894657e-04
-5.979307572440226842e-04
-1.655443336576514421e-03
-2.633237839090076145e-03
-1.395806036584426330e-03
-5.376294346570985880e-04
-3.642205717881011394e-04
4.969066894018628290e-04
1.127973961041207332e-03
1.829376420520544347e-03
1.219594818192589912e-03
5.071307227997914327e-04
-1.716007186021996334e-04
7.933730928183861371e-05
1.726358040959326162e-05
7.694635663627430965e-05
-5.270212014189023034e-04
-1.509854811955638502e-03
-4.470792933533576847e-04
5.492274051672895081e-05
-3.161787109291491218e-04
1.164390919243075631e-04
7.461787131841954128e-04
-9.671614931716560656e-05
-1.331169512492787676e-03
-1.415001831927563229e-03
8.910772720673127908e-04
3.318015384570607244e-03
1.918438430046006359e-03
-9.996039775349125581e-04
-1.145651391618088136e-03
-7.920881246573397176e-04
-1.602776342320818594e-03
-2.039418349656852390e-03
-4.138617717663133056e-04
8.387129390904484458e-04
2.178064859302751739e-03
2.838436804698172417e-03
1.896532564453943040e-03
7.134146488200417439e-04
-1.184216046188618122e-03
-1.066954149101911106e-03
-1.087958580313779433e-03
-2.330258956831015443e-03
-2.821787676491809265e-03
-8.916455759357433701e-04
1.472907293238022918e-03
2.745645443214533767e-03
1.097380310866015668e-03
1.931565226358243398e-04
-4.217761002100043114e-04
-4.398641219986406162e-04
4.453948200857752197e-04
8.608389209486470416e-04
3.477170024946717240e-04
-7.906391065586462286e-04
-1.183265156306013022e-03
-2.222211145344174445e-04
-4.590094227095572403e-05
1.022456483721083300e-03
3.876837866290950814e-04
-1.798315718212136665e-03
-1.568597144426004926e-03
3.136723779406402923e-04
1.406689666839190667e-03
1.709650112598839382e-03
1.831638718665844516e-03
3.978948672207603004e-04
1.539465144967272785e-04
3.194270086738180416e-05
-2.254355025135403728e-03
-3.037110387458589068e-03
-1.696697652307336017e-03
2.536035199812645123e-04
6.925941173803341205e-04
-3.637079554853673191e-04
1.067232579365422164e-03
1.488614430548264225e-03
1.214329692344627044e-03
1.774033840254698015e-03
2.250806171774339705e-03
6.549667427090483324e-04
-2.565212667495393468e-03
-2.843425018469839059e-03
-4.963030542393236664e-04
4.987522153938047731e-04
-1.391929370413129722e-03
-2.053554302827406350e-03
-1.154068774340042644e-04
1.217385900522034627e-03
1.792213102420378351e-03
1.913869267292300390e-03
6.651448276565216601e-04
-5.842341073789815648e-04
-3.139856278497560956e-04
-2.099638059851868441e-04
-4.334094074589744353e-04
2.271460718239157216e-04
8.415503999147209860e-05
-5.654303943828194916e-04
-5.076688505212421584e-04
-2.051707363035400460e-04
-8.813053779095859821e-04
5.750691016178826394e-05
1.544896993781835282e-03
1.143180034367082031e-03
-3.792042344594526225e-04
-5.737186306305584868e-04
-4.204647638214818988e-05
1.578218674155909800e-04
-5.730127372266788149e-04
-1.153885453733426159e-03
1.069530900469556545e-04
1.086785814677330856e-03
1.202816374505224708e-04
-4.916375261466912746e-04
3.295793198839567627e-04
-7.648012918033704867e-04
-5.649350893961554336e-04
9.316466941023801226e-04
1.282838698377980133e-03
2.010773310736470830e-03
1.125450206831636732e-03
-1.381349936823120629e-03
-2.314400868779696498e-03
-1.377568981671293971e-03
-1.478223051984115010e-03
-6.396905241949562637e-04
1.895186348764491338e-03
1.696386987908493757e-03
4.376771297779148456e-04
-6.651819723141764789e-04
2.133295025671763819e-04
7.781239955858118475e-04
-3.510300841303969359e-04
-4.349298394799057518e-04
6.715487936287933271e-04
-7.008361820728226761e-04
-8.963610678684150223e-04
1.147810123237282768e-03
6.975410411590842602e-04
-1.028873370022607200e-03
-2.201293215338856121e-03
-1.140853439959829034e-03
1.848624263951744459e-03
2.038742652944587792e-03
-2.635069058191756293e-04
-7.841976499065404088e-04
6.302944573390157181e-04
1.844568896142116448e-03
8.761293677657734690e-04
1.686242663772708308e-04
-1.036608427169216076e-03
-1.664212281113417249e-03
-1.855879358764521729e-03
-8.338917208346153208e-04
-1.173972606555610115e-03
-5.665861829837652922e-04
8.572368822203056422e-04
1.286880741802878467e-03
1.044817745885213154e-03
1.211533806759319603e-03
1.182845606859893360e-03
1.263306897720205746e-03
5.301515885378506971e-04
-4.192318177436218387e-04
-5.339547527599989782e-04
-1.054415638825527152e-03
-1.695748243594950811e-03
-1.714286764414777982e-03
-2.114978568387432657e-04
1.120172917438938846e-03
-3.239920842933616762e-04
-7.369144684416709503e-04
1.554968641183591136e-03
2.734301700296849335e-03
3.588591980128633227e-04
-7.742602000276913542e-05
-1.318871981412294636e-03
-2.141052093027857178e-03
-1.318221767707475995e-03
-3.702938606001368355e-04
9.856741445938238891e-05
9.381981756517212819e-05
5.346880505772795208e-04
2.032579297896912069e-03
3.059537848424378256e-03
1.626812638517180151e-03
-8.996525869580976028e-04
-7.133130057553235511e-04
4.250620251161349244e-05
-7.724908012715662672e-04
-2.699849486782159545e-03
-2.223444274526217932e-03
-1.314065545335828689e-03
-8.687602456331221289e-04
-1.020268158284004973e-04
1.468266083877686886e-03
2.034561180432819562e-03
1.311630131412872598e-03
9.920344539685892107e-04
9.297964635841606288e-04
2.077199750609585777e-04
-5.737121084038720184e-04
7.045465741640932365e-04
1.883316333077128925e-03
-1.031368163145235124e-03
-2.727040849358609940e-03
-7.895183958907457623e-04
-1.258734100078946121e-04
-4.506002835001113554e-04
-5.570083804440438937e-04
-4.529576931668483357e-04
3.175875170916418375e-04
1.758602148650529337e-03
1.132481272598441502e-03
-6.321023441695495767e-04
-3.143587672822056411e-04
8.838781327825089972e-04
-3.739350491595714774e-04
-1.930645929277766430e-03
-1.324528075138099248e-03
-8.259988059536465827e-04
-5.726490076562119804e-04
1.124038350062746749e-03
2.589310094212995093e-03
1.683352464592157002e-03
1.904548035286646049e-03
1.098599898780758385e-03
1.575923206460302266e-04
-1.820145048198319423e-04
-1.320177397067706909e-03
-2.517827114951489993e-03
-1.809686560793129619e-03
-7.324188419031227174e-04
-6.613203829599925655e-04
8.907151525166282998e-05
6.185225093575433784e-04
7.965561488704008377e-04
-1.333588752086019682e-03
-1.622792120276459003e-03
1.636472233513079676e-03
2.519659997827832995e-03
5.905275015668590968e-04
2.891270650802092051e-04
4.022964702876725865e-04
1.082533284388446275e-03
1.407168253862888917e-03
-4.678267854441552618e-04
-2.575931649705882030e-03
-1.579578743131143312e-03
8.230185573340507771e-04
4.934560381594470376e-04
-1.363687207289646748e-03
-1.251874069945787702e-03
3.615551733433791507e-04
-1.918421872067059585e-04
8.990235072045508081e-04
1.801472733094168412e-03
7.363596798283637845e-05
-1.080219481642761799e-03
-1.355277713849409055e-03
-6.001359239786946756e-04
1.030187918622616676e-03
1.548120032923872447e-03
1.253402259450415177e-03
1.512745860034343023e-03
1.829643775960166881e-04
-9.110825310709519875e-04
-1.468303544304736278e-03
-8.789930054660814772e-04
-1.428122303474213192e-03
-1.428308905869681662e-03
3.551208122628930698e-04
5.836551945555802862e-04
9.575460243527567734e-04
1.805715876939433017e-03
1.005853827940888530e-04
-2.456287639432070801e-03
-1.571877699965169546e-03
1.092047642416427633e-03
1.122067598284494242e-03
-1.029483230508059318e-04
1.383211722792167557e-03
3.283928010023295322e-03
1.160167927637515773e-03
-1.650136007180723428e-03
-2.727944412838631712e-03
-1.486756346817149320e-03
-3.915044097851007473e-04
7.833255607251337499e-05
6.668339389802106732e-04
1.378914106076086085e-04
-7.572819250294281126e-04
1.094318880419038639e-04
9.022067717691059944e-04
7.036808286340660249e-04
-4.855073937766717367e-04
-1.594597612122663436e-03
1.272059324589852418e-04
1.938715122595982337e-03
1.404794272771352822e-03
-3.994614476747449200e-04
-1.024958457893942890e-03
7.575320928206000530e-04
-5.356181455294573750e-04
-2.147186092015484788e-03
-1.624104731339108326e-03
1.045976469564191894e-03
2.671185872506171011e-03
3.642389000214100113e-04
-9.814803017416011757e-04
-2.892307702977531757e-04
-1.214944048630846882e-03
-7.035124598975685912e-04
1.550503531170081394e-03
2.034669803071396943e-03
1.353412611861847881e-03
1.086407674216762045e-04
-4.890714453922706930e-04
-1.976353623296866948e-03
-1.922065266088111542e-03
1.227141070556262770e-04
7.942405236186924440e-04
-5.223921439105889530e-04
-9.304446995844765011e-04
1.797265728704870843e-04
1.587873378589931385e-03
1.006200765887825012e-03
1.142690055545081607e-04
8.965825841511077367e-04
1.493598734682442710e-04
-4.485332062172990250e-04
-1.659568850358208265e-03
-1.651958692479116178e-03
-8.824329769419234602e-04
6.501357732467267754e-04
1.725842269115235306e-03
1.276511969588783098e-03
5.214574885995058168e-04
-5.423348070858101866e-04
-1.919560921387299850e-03
-2.595184555766538530e-04
1.225977922736098090e-03
8.501709935329134112e-04
8.933149409530050534e-04
7.369257833196223104e-04
-2.361954057287071935e-04
-1.572924357414531632e-03
-1.138611619023423760e-03
-6.096376565357799560e-04
-4.377872084458058377e-04
-3.082426064354880564e-04
2.493945521836922214e-04
-1.235628527194945639e-04
-3.436689111746346484e-04
8.245365924970334860e-04
2.325934502656525332e-03
1.424267787985846606e-03
1.103267002858751463e-04
-3.912733404989424970e-04
-1.757997209952446996e-03
-1.702382990051032590e-03
-9.904909098686404036e-04
8.310542478378201607e-04
2.231073326579009579e-03
9.148025690854848322e-04
-7.232192982320976161e-05
-1.652198319623063164e-03
-1.542063101947196979e-03
2.526715254220510761e-04
1.591224911540974453e-03
6.389531176272548801e-04
-7.757006226090645004e-04
-3.655727733170231991e-04
-8.779901419607250099e-04
1.285331536880179708e-04
2.044417398846741854e-03
9.036815929004036151e-04
-1.003177799881669208e-03
-1.690623021061369484e-03
-2.835214807844924599e-03
-9.258395907309077905e-04
2.665032741325597601e-03
4.427443810545873999e-03
2.070564944781290093e-03
-4.418488839341624670e-04
-2.351423446427081988e-03
-3.357798908342117614e-03
-1.939344811285330329e-03
5.275579194484557441e-04
1.294629389842631532e-03
2.192538118606411103e-03
1.390925738813216439e-03
-1.261213548453996806e-03
-1.183832133402193268e-03
1.016046786616305129e-03
1.070383366963716847e-03
-4.047669772135184725e-04
-1.723812341515758078e-03
-1.047137592074736745e-03
1.091866976488870190e-04
3.824894422128991282e-04
6.990597685888798535e-04
6.112086699789621947e-04
-3.303318029144677198e-04
-1.051404531290494162e-03
-7.862915041881645773e-04
1.586359366659500310e-04
1.319883257849257564e-03
1.313570940426258367e-03
1.242827891563480708e-04
-1.315175832558625744e-04
1.285952153522656755e-03
8.420329416339955401e-04
3.424252115744197563e-04
-6.942399684925809784e-04
-2.287861445537506602e-03
-2.164117409406862268e-03
-1.783274832977353437e-04
-7.563550931160837503e-04
7.513474424442139713e-05
9.548836338924750894e-04
-8.409779278441117587e-05
7.925354691386343265e-04
1.469523138209686457e-03
-4.737783748466623391e-04
-2.878385125458545585e-04
8.236017561378815603e-04
7.384370515909579507e-04
5.359692199818056300e-04
2.247064009141609730e-04
-3.415576985072821628e-04
-3.949019497518176840e-04
-8.465267290141850710e-04
-1.081814216462992449e-03
-1.401443657749372809e-03
-1.190450753864615930e-03
1.311430420873081068e-05
3.810594224310616461e-04
1.134548492626419455e-03
2.423211388336945268e-03
1.035628875739961260e-03
7.751431902240742871e-04
1.168825562131195180e-03
6.255448188001928357e-05
-1.342037855578115000e-03
-1.079799456655194121e-03
-1.913547434693049819e-03
-1.719732075274917017e-03
-8.119534075434969118e-04
-8.728413236928496107e-04
-2.244835209574285210e-04
2.203153774863249315e-03
2.140656648203642567e-03
2.032368087795330576e-03
1.727669539493536686e-03
-1.061573240191753540e-03
-2.978810914218222965e-03
-6.679596437396287476e-04
1.597979124383872148e-03
1.225541300805044632e-03
-1.020097156038220947e-03
-2.082791880734020940e-03
-1.650648449189202329e-03
1.326459845697452870e-04
1.294029402843944760e-03
4.716892310331936237e-04
8.814381020199939199e-04
5.502260889260326754e-04
9.744555146856287182e-05
-1.646556659280067633e-04
8.369982352258473028e-04
3.587717645282527965e-04
-5.300167061589991296e-04
-2.592496722284278951e-03
-1.710058317532517401e-03
1.199634171007683695e-03
2.013753276067517875e-03
7.285146464214208245e-04
8.593618507456923458e-05
6.912516947539683711e-04
5.555881347978968918e-04
-3.257860507468401620e-04
-4.305506779703627144e-04
-1.744148968814299453e-03
-1.977476030677870981e-03
-1.433404225458865871e-03
-2.607380199016396858e-04
1.697422623902845483e-03
2.766265593915974517e-03
1.726925341921956491e-03
1.044224097703005065e-04
-1.647476161646301961e-03
-1.247076866409508981e-03
-7.755221442663343720e-05
1.391311210499368263e-03
1.467661562710548392e-03
-4.726909242025650122e-04
-4.757464938794175413e-04
-3.842656884410271755e-04
-8.178038109052380078e-04
-1.934972882908494009e-03
-8.391288946179274472e-04
7.921427706389609765e-04
6.349699685609141010e-05
7.956857927172525944e-04
1.470330761387924441e-03
1.485355924157750812e-03
2.390450575524882598e-04
-5.812364095402041070e-04
8.649186550167433209e-04
-1.425471158524954055e-04
-2.829350821975933072e-03
-2.605162527059834421e-03
8.611829087616810010e-05
5.286875555296051887e-04
1.483098528075181425e-03
5.202364467485467775e-04
-2.142883474064669893e-04
9.634322467480401463e-04
1.612821791146684149e-03
2.039863903937525304e-04
-1.440650221514588707e-03
-7.396930948208493405e-04
9.179702033022184250e-04
4.631716785936333398e-04
7.771627573060434745e-04
6.221656548451999199e-04
-1.542619713050612110e-03
-2.066712786574072865e-03
-4.211200821936519022e-05
-1.270239432066756985e-03
-8.671234689587766767e-04
2.087444720595373233e-03
1.039273041037684598e-03
-6.465509415167664279e-04
-9.785450302132858019e-04
-1.030514410488005491e-04
1.220571374803340863e-03
1.771775353872607388e-03
-1.315215098239040442e-04
-6.818457491150828331e-04
1.483962724623570260e-03
2.386788872341137190e-03
-1.215020915344712358e-04
-2.236300884665342811e-03
-1.827716188578627820e-03
-5.751136699239910990e-04
-4.564188102355635850e-04
-8.554012158068343894e-05
-1.273969762574527409e-03
-1.249895287739001028e-03
1.683910837352309015e-04
4.175975183775598103e-04
7.481008122484837739e-04
1.796261263678745890e-03
6.828840821131949628e-04
-4.437027597538620110e-04
7.084029486920723944e-04
1.691536306289708001e-03
1.880249550529305806e-03
1.837933075779357706e-04
-1.900152006874840978e-03
-2.266689230396215678e-03
2.730118207296968022e-04
1.263958573680116571e-03
-8.456262421047650935e-04
-1.803517787600695090e-03
-1.318093137679128514e-03
-3.113877377730674026e-04
3.013020252087467480e-04
-8.429949981114310295e-05
3.734650265638737301e-04
2.298550747524903421e-03
2.043944771840035691e-03
-9.854157714332030266e-04
-8.241065561381564824e-04
2.520959199843501798e-04
-1.870444676146742569e-04
-7.592140055110492168e-04
-1.305174193145661231e-03
-4.475876815634018493e-04
4.414419064519822041e-04
5.970691726001912860e-04
1.082296024289564670e-03
1.278586521723940701e-03
8.700112047508221612e-04
1.064874144415026104e-03
-4.383719690666712629e-04
-1.209799829664573705e-03
4.204640120929371166e-04
-8.924263065928074402e-04
-3.468961915585680629e-03
-2.419650020522299324e-03
-7.843942467661574195e-04
8.422333969292089681e-04
2.478085713457456839e-03
3.378026128607118563e-03
1.268986730019482307e-03
-6.325428287601576579e-04
-7.930803130243114845e-04
-4.305817491065973127e-04
-1.573220017740751587e-04
2.064203226611055966e-05
3.990543129438043116e-04
-2.547103190848499653e-04
-1.343776938552591416e-03
-4.408502927877389955e-04
6.091218065831176904e-04
1.488050746266521328e-03
9.639880748103851413e-04
-5.142430083841828363e-04
-1.426819428920344515e-03
-4.031633240450393932e-04
-3.415788784971875267e-04
1.355956348406909130e-04
-6.426553551212197627e-04
-1.445858832530409581e-03
4.836137089178422685e-04
1.189576324920986082e-03
1.139680423330417282e-03
1.888776823140252950e-04
-1.326169294629151948e-04
4.810319608737753856e-04
5.008760775849020784e-04
-2.321132475132133943e-04
-4.855679671330642613e-05
7.356587141371949455e-04
8.887288312748813741e-04
-8.202073572737021484e-04
-1.194715635080755402e-03
-1.307461808066964250e-03
-1.006282017680032838e-03
7.809362683181964157e-04
9.510543371600106634e-05
-7.632579906311590676e-04
-4.067483586513578691e-04
1.117023017914224413e-04
3.491081388620527622e-04
1.658120062497071498e-04
1.250131026155158363e-03
2.082106701884123539e-03
1.900469789657371076e-03
-3.651892970800390387e-04
-6.003963817816035126e-04
-3.307964084297640851e-05
-1.264841929237466760e-03
-2.623896631424020402e-03
-3.046971918438056391e-03
-7.057105449554506834e-04
1.652405436705062540e-03
1.585974978780284013e-03
9.257903869251215114e-04
1.348660688671627977e-03
1.782622352566544518e-03
1.458418499237997034e-03
-3.953849017790820523e-04
-1.347271087348539354e-03
-1.560038477848049243e-03
-1.348296848716338875e-03
-1.482783471002232329e-03
-9.011063191113863379e-04
-2.173101209987067051e-04
1.176834906613987526e-03
1.449030675945915799e-03
1.666344607720591457e-03
9.119686685355647780e-04
1.168035327059877655e-03
7.548397597828449164e-04
-3.276440497771862070e-04
-1.771850054758989821e-03
-1.740705406134765085e-03
-1.139159334069559390e-03
-5.620214514541535793e-04
-2.942375583009866949e-04
-1.532578400699005812e-03
1.740251164494716356e-04
1.189497740781178666e-03
1.690178242694851058e-03
-2.883547603380890909e-04
-7.660558901294334559e-04
2.245613622414342758e-03
2.944620785452968948e-03
2.506098910352774615e-04
-1.736512392565465112e-03
-7.541172287162641388e-04
-1.895713518271399634e-04
-1.448637363576077029e-03
1.401766727219943764e-05
1.269136723877155619e-03
4.595948963820435337e-04
-4.515160037374267685e-04
-1.172889816460877081e-03
1.200971394577846882e-04
-8.079277829747706630e-05
-1.156477145306783472e-03
-1.718325782738236570e-03
-1.440605506852755480e-03
1.379066826165296087e-03
2.798519966321785356e-03
5.530325336730296639e-04
-9.112571043713571040e-04
1.321364262137909472e-03
8.532499342275035601e-04
-2.155122981448927795e-05
-8.260899800632060311e-05
9.703523754288417239e-04
3.825568267315505020e-04
-4.825513931561974936e-04
-7.191782780122283692e-04
-3.008900793939284915e-05
-1.929585943661224620e-03
-1.840803174151981044e-03
-1.286202796814726141e-03
-5.639177115155277449e-04
-7.326408061862974127e-04
1.116855303534805078e-03
3.314855677524796047e-03
2.662688153324435907e-03
6.875700050400817198e-04
-2.000343709388617897e-05
3.793628118989472741e-04
-5.672403313880824451e-04
-1.194814983090060302e-03
-1.059305589369353854e-03
-9.359424593938611052e-04
-6.816570952865048244e-04
4.606392519270527245e-04
6.580829857467034938e-04
-6.975901766819082471e-04
-2.075135831153526299e-03
-1.635882624380025725e-03
3.235146851127388454e-04
3.200616711197402930e-03
3.186589103622192512e-03
4.367488816140049847e-04
-1.669969926372362001e-04
6.080362359234305894e-04
8.165200417128358853e-06
-1.670142209098270493e-03
-1.841977246608142394e-03
-2.499374663545889195e-03
-1.055343954949045874e-03
6.536593135746375125e-04
1.555499828192304784e-03
2.257415385022075449e-03
1.688610782799625362e-03
4.569498285816437863e-04
-2.050102961811770246e-03
-1.256339330707331508e-03
1.922718866909350205e-03
1.385760094041815337e-03
-8.784375554323678838e-04
-1.962039637431451863e-03
-1.740464375086843310e-04
2.294215840548290478e-04
-2.410534650464209172e-03
-3.036875764780232276e-03
-2.543039967817402043e-04
1.532392259413126656e-03
3.102413226727510510e-03
3.092721690252449480e-03
2.574325066558864027e-03
3.216484307064845370e-04
-9.307167657613444689e-04
-1.047730732357555214e-03
-1.271028480897419327e-03
-8.595776979005237623e-04
-1.359854319850098631e-03
-1.568558523252907427e-03
3.324638561741473310e-04
9.785557107033749334e-04
8.250155983595644938e-04
1.794098351919772396e-04
-4.940172505194988326e-04
-1.185732507926099506e-03
-9.688790927017916282e-04
9.311794880033797545e-04
8.628739127384371351e-04
-5.555569793661729221e-04
-7.261975726180159782e-04
1.570633739898741115e-03
2.208595773260283758e-03
1.175862161338582859e-03
-1.811662372454404289e-05
-7.826058523295758608e-04
-5.281080277066444936e-04
4.203925552666724409e-04
5.206294933990473052e-04
-5.433031982500907946e-04
-2.801692862043661696e-05
-9.796178416066878870e-04
-3.383084851429370328e-03
-3.552366259229666322e-03
-1.303542776505516119e-03
1.568473658316862094e-03
2.049499276106290808e-03
1.242904693598551177e-03
1.466851103426798511e-03
2.284064420160287351e-03
2.636158726267521808e-03
1.605924277273540609e-03
-2.087357283647389239e-04
-1.761127430680318800e-03
-2.163499309385400263e-03
-1.446960899184221178e-03
3.570446662627049382e-04
3.202165839299056884e-04
-1.124419359609826708e-03
-1.859572308689005655e-03
-1.134761134574766234e-03
2.810674938423918094e-04
2.235112877552138631e-03
1.680088949510869824e-03
-9.184259080960512122e-04
-9.730126645176824041e-04
6.112665848655167607e-04
7.926667153125217021e-04
-2.676167251429406829e-04
-1.217103566808996174e-04
3.186947742066874832e-04
-3.187198539650133093e-04
-5.217974488601287311e-05
8.087042473492645931e-04
2.738046554336542870e-04
-9.017244288119393141e-04
4.783341442923708217e-04
2.422989813719072984e-03
1.112209225330175813e-03
-8.620881015370265117e-04
-2.429482771945520696e-03
-3.735120060774554853e-03
-2.477452120631989420e-03
5.979556306468569509e-04
1.849573805165866678e-03
6.888010715302175747e-04
1.103553763900960672e-03
1.585300794708162332e-03
1.078273445164097026e-03
6.568788287453628709e-04
7.788306132984157372e-04
-8.767744107206712912e-05
-4.274719602350051306e-04
-2.544984837699751173e-04
-8.049096963040573011e-04
-1.788801467436454580e-03
-1.846576874199784774e-03
-1.294580239986691797e-03
1.384847686554913646e-03
2.371686196789929858e-03
1.205370480457523472e-03
-4.364131739580311641e-04
-7.218534285140425569e-04
-5.645980205177422674e-04
-2.671909761934048604e-04
2.078875080978934882e-05
7.600876649254605056e-04
8.851261865095456233e-04
-1.280884664547928768e-03
-2.227983115756491418e-03
4.840966409800261040e-04
1.664354341552497707e-03
1.155141869235651059e-03
6.278615298990508110e-04
6.841624869829563338e-04
-2.114471452665899322e-04
-2.373968097551506975e-04
1.404229616356732907e-04
-4.567982206986308247e-04
-1.878294217322578306e-03
-1.222261410403510098e-03
-1.075314946814090846e-03
1.003057566029879802e-04
1.709893452114998307e-03
2.093282608568043743e-03
3.546157519594916548e-04
-1.807910642654600355e-03
-1.476581307658382525e-03
-7.714360657146743889e-04
6.254329119699909368e-04
1.806779198107137576e-03
1.402378987856703904e-03
1.726450400658158973e-04
5.509829629137269350e-04
5.409285217466412070e-04
-2.662459111421170124e-05
-7.126693879053483350e-04
-6.210676286762623023e-04
-1.296176722915160905e-03
-1.838758144591917882e-03
-1.499110416257239510e-03
1.086244431644781865e-03
1.943561685256232083e-03
1.527126842933283898e-03
4.463150930739598061e-04
-1.145187233548072793e-03
-1.927534734754363913e-04
5.614729695607505134e-04
9.707516824089883157e-04
-1.399258666535441436e-03
-2.420692376647898530e-03
-2.540290240083074576e-04
5.313719514974274980e-04
4.005194470928397522e-04
1.216493756617276098e-04
1.550485010582980123e-04
1.110261491895534261e-03
3.135605593525886935e-03
2.103874436175850147e-03
-1.231419197337092286e-03
-2.150124849271079896e-03
-1.729387998670624043e-03
-1.043687968792596232e-03
-2.480527241390484915e-04
4.935224950083771250e-05
-6.023420517279111938e-04
-6.661533533875287159e-04
4.826011321689964331e-04
4.187549234445286581e-04
6.848501213552058093e-04
9.913338963370246261e-04
1.198933634121651355e-03
-5.557346067619282199e-05
-3.245057177783123160e-04
-5.210676782610250933e-04
-1.889648445981440157e-04
2.091687226968218748e-04
9.707738932996730265e-04
-5.081274016773919050e-04
-1.645139790676547996e-03
-1.079598185274486914e-03
-3.505531388158245336e-04
6.812216694537810138e-04
2.002455920688969715e-03
1.769235506543698124e-03
1.221811902912876520e-04
-3.550792818549342012e-04
-4.333521789739303693e-04
-7.274002479547761859e-04
-3.218233521670897592e-04
-1.348179318636137354e-03
-1.202946287389530453e-03
-2.482438805133232049e-05
-8.483839519676126747e-04
-1.213287930653315872e-03
4.251163559231640565e-04
2.404960327031732681e-03
2.144817070976391682e-03
4.147652812796050127e-04
8.779286607628794580e-04
2.613798177620726363e-03
7.295232816981284075e-04
-2.652160912807004656e-03
-2.815996969810550740e-03
-1.302285437395527597e-03
-8.697853644839013748e-04
-7.643536020252157627e-04
6.875502450299672249e-04
1.195959446335320610e-03
9.155819819782415065e-04
1.562517089595823574e-04
1.450887987458854094e-04
1.266154379373257601e-04
1.087390388089784005e-04
4.045113409447448523e-04
-5.044784308674334647e-04
-1.848543164670148195e-03
-4.176016386171449804e-04
2.114305923585265042e-03
1.324962031602532932e-03
-9.535630818021391094e-04
-6.022976878244759883e-04
-2.180261508701722471e-04
-4.156568670250158893e-04
1.936455134170252029e-05
9.269204109739963933e-04
9.543196528211703671e-06
1.072503377020336433e-03
7.491028075521766845e-04
-2.038354058414566621e-03
-1.805555729042076412e-03
3.717336079193413992e-04
1.283057981572534182e-03
9.240259969023778986e-04
-7.079651905004003551e-04
4.839612197005679157e-05
-3.154133147793696814e-04
-1.181759762193217964e-04
1.867490400034378965e-04
-4.628622211091670282e-04
3.815395396718645094e-04
-3.236991603342299342e-04
-1.284320684245532070e-04
1.281558005735976497e-03
1.016129763867377285e-03
-9.159754417772098369e-04
-3.133255290203170243e-03
-5.928795060227778652e-04
1.981277361464208429e-03
2.610517049254603133e-03
5.351793576829675476e-04
-7.336805530482737444e-04
-1.196129645883371728e-03
-8.535175023120761912e-04
1.512605609360669111e-03
4.062502554064383845e-04
-2.344712871389207851e-03
-1.403201305371925634e-03
2.248815505600823032e-05
-5.603570449449030665e-05
1.406983138503515619e-03
2.572817591863285191e-03
2.275852609939962282e-04
-6.045350008747940639e-04
1.437452465443656577e-03
1.000598706441985534e-03
-5.530041900578195864e-04
-2.011364149303465285e-03
-3.379565718205068507e-03
-1.606592767988124270e-03
1.175038383234844027e-03
8.530944600512882850e-04
7.950215326508733088e-04
9.732738483226261253e-05
1.060985201624969941e-03
7.978452128364856748e-04
-7.282381452779113941e-05
-6.292896883190367491e-04
4.723120190861007965e-05
1.346804601150607432e-03
1.131187196132464514e-03
-1.824117818871750889e-03
-2.183302884171618979e-03
5.065010872584650150e-04
1.358242325963977771e-03
3.689887852666468991e-04
-3.261362430027963614e-04
-4.208432870350129547e-04
-3.692969147450251384e-04
5.976246587897693146e-04
4.717313639864258797e-05
-9.417422845249422050e-04
-1.746426870926757503e-03
-9.805339005908163437e-04
7.582981576391927383e-04
2.565736175059816354e-03
2.161508501909885967e-03
8.389648249913160923e-06
-8.409005782909132051e-04
-1.610270464192277299e-03
-1.808552273626223229e-05
-3.476038850903317404e-04
-1.086916451883709975e-03
3.413058046779431196e-04
8.664828473832602565e-04
1.689009307513636513e-03
1.719870723246768110e-03
1.701704000843552505e-03
-8.251364972179678304e-04
-2.518280296103112860e-03
-1.708635449819009746e-03
-1.756213559064319753e-03
-1.436648510472304406e-03
-4.347165887717352266e-04
1.417472944902412307e-03
1.392166119624973575e-03
5.777717023021006247e-04
-5.482864488690750897e-04
-1.378166972452112709e-04
1.211943430859536031e-03
1.830638568497249159e-03
1.110662059848960314e-03
2.703968841371012636e-04
-3.914303435784343235e-04
-2.736073296961410322e-04
-6.069411441886736437e-04
-1.400746849629898360e-03
-2.051671426467851621e-03
-2.744862358277054006e-04
1.164587027360535003e-04
-4.168487545441234080e-04
4.219403140960457650e-04
1.727202759269394049e-03
1.679043865884050296e-03
-1.237139656070161469e-03
-1.212670854987423202e-03
-3.753138919071671029e-04
-5.503484449233253788e-04
7.060059464673707321e-04
1.866292749506235802e-03
-2.796647109373078823e-04
5.643298950881537126e-05
1.334904409853743647e-03
3.346896023657553051e-04
8.911684081926736620e-05
4.268869409831956788e-04
-1.263476102246204047e-03
-2.402842331669105460e-03
-1.629114435974228590e-03
-4.751514680086869175e-04
-1.188030053300089502e-05
6.770023548938319943e-04
1.442326624437612797e-03
9.157903917501236451e-04
3.237016268291494276e-04
1.350100359743901246e-03
9.485401006347695015e-04
6.501559610033218672e-04
-6.073921620615908195e-04
-1.901496560006433719e-03
-1.239349919931311949e-03
-1.508336848417027700e-03
-1.168066350234992640e-03
4.086442797108676942e-04
1.866773899603722418e-03
1.698947443252336008e-03
-8.403667426864037471e-04
-1.005909515513354153e-03
-7.697760489122589108e-04
6.381367365646742470e-04
2.304447772040445729e-03
4.112882354362339273e-04
-6.246737016786959012e-04
9.905242460147462588e-05
8.872698519807939574e-04
1.949592768045038530e-04
-1.540186133028261396e-03
-9.806948010726906570e-04
1.856030261146812341e-03
1.004947822312587122e-03
-1.712805703989995825e-03
-2.945533021160383520e-03
-1.778294295458013883e-03
4.190494006877756622e-04
-1.619673583575529177e-04
-1.570247173304252768e-04
1.966491750019516444e-03
4.229398577875177062e-03
2.818064324746819612e-03
-1.339760755740099197e-04
-2.191326091735159350e-03
-1.225962624157523337e-03
-1.214097348960581487e-03
-1.553536475441902754e-03
-7.245812255623026348e-04
-4.091393039484962960e-04
3.078890143326440594e-04
5.134184468053580889e-04
3.649338264986875884e-04
1.547748966733392822e-03
2.544361067518396448e-03
1.075646298366143188e-03
-1.321466074407416083e-03
-2.192961149248157018e-03
-2.592614588257852182e-03
-8.259837704563578612e-04
-3.855178554652033299e-04
-1.101484923074120843e-03
1.466986040982062129e-03
4.281114462533105493e-03
2.619453358042045550e-03
-6.151682828788555693e-04
-2.372797484095842246e-03
-2.507929146974673638e-03
3.573387802133455766e-05
1.732828453426591472e-03
8.858013200286027648e-04
-1.000959553153685016e-03
-1.203833833785938586e-03
1.779665142293539084e-03
2.433684844816415803e-03
-9.410207941496778620e-04
-1.495635856029048144e-03
-6.441855460787791360e-06
-9.066018582484710328e-04
-2.214813969901567418e-03
-8.758377505176693579e-04
1.898454488055234188e-03
2.306611354649987407e-03
-8.556554769229065280e-04
-1.466641129465322659e-03
-7.285056315727840397e-04
3.081566581890656637e-04
7.430507307615607290e-04
1.045831050114092234e-03
1.987285202531263555e-03
1.892531770515903282e-03
3.034540756777821141e-04
-2.783417896857652216e-03
-3.253649607578436298e-03
-3.504788279528613690e-04
2.410744122915113672e-03
1.668436209771002139e-03
-9.018264540184684321e-04
-1.791279474831304489e-03
-8.283714871517692559e-05
4.126330672159231262e-04
-6.042428404868006604e-04
-2.270628853677752578e-04
3.314055794865839919e-04
1.634476965377845042e-04
9.543916214354698866e-04
1.336130827514377161e-03
-6.165590107561377375e-05
-1.560053491137906000e-03
-5.672303958440286188e-04
-1.396436886708620135e-04
6.311838028420939167e-04
1.736134478465216303e-03
2.652576662286972357e-04
-7.415849345648934570e-04
-8.389690111277695603e-04
-4.967165183013393668e-04
-3.110087759377617035e-05
9.053276472582433819e-05
3.182769387257466985e-04
3.414281797551208474e-04
-1.484842363270102582e-04
-1.457738797634718997e-03
-2.284783945123808021e-04
1.405731407955761094e-03
2.445772964275835424e-04
-9.603640609828750091e-04
3.904876315094240355e-04
1.861619292212472439e-03
5.598947343735717359e-04
-2.135260577508001859e-03
-1.029564829578492229e-03
1.747295247807853719e-03
2.512392292689795046e-04
-1.744488424180213549e-05
-1.340301979771086000e-03
-2.184281932095845976e-03
5.127175968541021836e-05
9.469052861787228105e-04
3.539253887196177977e-04
1.325729544216675297e-03
3.098471408800617267e-03
1.396360719796592041e-03
-7.339957253761749062e-04
-2.230452478726986827e-03
-2.030489395667437087e-03
-5.959940705359926009e-04
-1.133228019105667365e-03
-1.047681979319752639e-03
8.839843504198882955e-04
1.308859940478696764e-03
6.891394033619800642e-04
1.470069629755668466e-03
9.074895855160267609e-04
-6.929672160778673580e-04
-1.196811488779550786e-03
-1.065733571238311993e-03
1.520837514620318020e-04
1.075621908231633693e-03
1.697778025466902614e-04
-2.870034178521929809e-04
-7.635694995942601338e-04
1.475406711472006379e-03
1.994087017518790094e-03
1.992147795652859414e-05
-2.471139394809872096e-03
-1.822102688249333533e-03
-1.239434112246183680e-03
-1.027381692500287970e-03
1.411671213028562214e-03
2.116096350533723611e-03
1.245403498538674497e-03
1.248530349474872301e-03
6.073598335017571124e-04
-1.127936942678810185e-03
-1.507659905142341890e-03
-1.591005210485487483e-03
-3.001491178561203053e-04
3.916947906847117089e-04
3.427478508884529754e-04
2.140226687690033224e-05
-5.625737199768042181e-04
8.878621959750467420e-04
