1.172293616695804699e-03
1.202979497886373043e-03
1.226778931792563013e-03
1.242910634899383132e-03
1.250744376585661340e-03
1.249808864839113990e-03
1.239797055569173993e-03
1.220568767935290228e-03
1.192150609434719814e-03
1.154733216361099411e-03
1.108665839447625125e-03
1.054448399213517209e-03
9.927212500393078464e-04
9.242526987689888250e-04
8.499245220236389996e-04
7.707158134248714553e-04
6.876853869691352834e-04
6.019529982530432690e-04
5.146798093674742830e-04
4.270483343696907571e-04
3.402422732844331008e-04
2.554265192005424263e-04
1.737277111006661019e-04
9.621565193389967289e-05
2.388588532003650160e-05
-4.235630118004362488e-05
-1.017101296986236810e-04
-1.534916581459384486e-04
-1.971440282033033080e-04
-2.322454009148791317e-04
-2.585145192724273020e-04
-2.758138375364948798e-04
-2.841501442505720400e-04
-2.836727947085135727e-04
-2.746695557229740492e-04
-2.575601444811885629e-04
-2.328876574285933438e-04
-2.013081019063741044e-04
-1.635781933617647761e-04
-1.205416816484898064e-04
-7.311448417334257769e-05
-2.226891494500152110e-05
3.098264720913447334e-05
8.560446448560793745e-05
1.405540252629782156e-04
1.947983688045451316e-04
2.473297226452061156e-04
2.971802855318950816e-04
3.434358733625370291e-04
3.852481426462604536e-04
4.218452573726658877e-04
4.525407814754939359e-04
4.767407677506339207e-04
4.939488601285539062e-04
5.037694085198997059e-04
5.059086151031826984e-04
5.001738441233841712e-04
4.864709991173296372e-04
4.648002225113202096e-04
4.352500102447617262e-04
3.979899934131248874e-04
3.532626081700064005e-04
3.013737997923310124e-04
2.426831768549336050e-04
1.775937322945674924e-04
1.065415551022237851e-04
2.998561809810859630e-05
-5.160188432851385554e-05
-1.377445772280798701e-04
-2.279699915271543662e-04
-3.218165230503277100e-04
-4.188391475180530633e-04
-5.186136371488524665e-04
-6.207392986427054350e-04
-7.248401338762589614e-04
-8.305644352314063604e-04
-9.375828192202287185e-04
-1.045584835562228141e-03
-1.154274151147615963e-03
-1.263362630680673997e-03
-1.372563419354718090e-03
-1.481583272684670926e-03
-1.590114439756383545e-03
-1.697826313015625942e-03
-1.804357247545459531e-03
-1.909306727959142122e-03
-2.012228298671770495e-03
-2.112623598233319758e-03
-2.209937590096891415e-03
-2.303555423469493945e-03
-2.392801219392952112e-03
-2.476938756303429315e-03
-2.555174348572140670e-03
-2.626662097758759515e-03
-2.690511425363952425e-03
-2.745797026304484540e-03
-2.791571067767084548e-03
-2.826877587527024636e-03
-2.850768865645108598e-03
-2.862323572589527826e-03
-2.860666455984662345e-03
-2.844989071031327112e-03
-2.814571219270123412e-03
-2.768802752569232088e-03
-2.707205272984217117e-03
-2.629453127932157401e-03
-2.535393316614140222e-03
-2.425063774475909491e-03
-2.298709463722730696e-03
-2.156795951708092088e-03
-2.000019966517867058e-03
-1.829316431812453517e-03
-1.645861753828296425e-03
-1.451073056942721795e-03
-1.246603003531086004e-03
-1.034330249844373677e-03
-8.163453207675102144e-04
-5.949319636190124241e-04
-3.725441425874269352e-04
-1.517787849723897515e-04
6.465536853917175169e-05
2.739724223103432560e-04
4.733471223801161251e-04
6.599550784813865839e-04
8.310149263982815823e-04
9.838316978720961642e-04
1.115840659628141275e-03
1.224650890514451546e-03
1.308087778726778469e-03
1.364233628218406835e-03
1.391465567756718742e-03
1.388489988379099831e-03
1.354372764309197483e-03
1.288564568092687547e-03
1.190920653461708615e-03
1.061714505057761082e-03
9.016449809841135506e-04
7.118365019907404046e-04
4.938321656900694504e-04
2.495795764384240020e-04
-1.859058213779014138e-05
-3.079930098320187749e-04
-6.156230423953384717e-04
-9.381983299018407680e-04
-1.272206314197058680e-03
-1.613956844271427233e-03
-1.959639202791637214e-03
-2.305382618256318888e-03
-2.647319248833198812e-03
-2.981648627575201379e-03
-3.304702505259412074e-03
-3.613008888518735168e-03
-3.903354133693882292e-03
-4.172841891283008385e-03
-4.418947865058769735e-03
-4.639569204884206460e-03
-4.833067578198546252e-03
-4.998305048568140591e-03
-5.134671842684374043e-03
-5.242105329320750733e-03
-5.321099716271102467e-03
-5.372706056285907888e-03
-5.398522335609180420e-03
-5.400673557181795426e-03
-5.381782033717691718e-03
-5.344928141138389696e-03
-5.293601984351407885e-03
-5.231646759586279678e-03
-5.163194556365859056e-03
-5.092595678276855796e-03
-5.024342521654004932e-03
-4.962989271093723974e-03
-4.913068706928275936e-03
-4.879007795021646915e-03
-4.865043312127800487e-03
-4.875139108983708898e-03
-4.912906497235814025e-03
-4.981529335239906313e-03
-5.083695117244876188e-03
-5.221533471062805506e-03
-5.396563339530226037e-03
-5.609649888519259442e-03
-5.860972139081470182e-03
-6.150002082433820953e-03
-6.475495812786120908e-03
-6.835497111912309555e-03
-7.227353526526411609e-03
-7.647744935973055727e-03
-8.092724232713541938e-03
-8.557769675378535876e-03
-9.037848046340279939e-03
-9.527487689624171419e-03
-1.002086021956379372e-02
-1.051186963804805717e-02
-1.099424723978049794e-02
-1.146165073199360840e-02
-1.190776582568974125e-02
-1.232640844761839424e-02
-1.271162581225655092e-02
-1.305779445118425246e-02
-1.335971333222123886e-02
-1.361269038505189682e-02
-1.381262070654791160e-02
-1.395605497754686536e-02
-1.404025674678722503e-02
-1.406324734428910858e-02
-1.402383743664502996e-02
-1.392164460930100239e-02
-1.375709642520776994e-02
-1.353141881036679789e-02
-1.324660984017529859e-02
-1.290539920541426168e-02
-1.251119410438544625e-02
-1.206801227251901205e-02
-1.158040353269788533e-02
-1.105336102878412205e-02
-1.049222389077793770e-02
-9.902573000874921247e-03
-9.290121861925119962e-03
-8.660604573056137831e-03
-8.019663115442617063e-03
-7.372735929546528344e-03
-6.724950236130047311e-03
-6.081019991978445574e-03
-5.445151579451312090e-03
-4.820959213638233501e-03
-4.211391736380943294e-03
-3.618672453870111928e-03
-3.044253200796627392e-03
-2.488783812219595021e-03
-1.952097556664636772e-03
-1.433213277718955059e-03
-9.303542325796423842e-04
-4.409834325676134452e-04
3.814509740348683481e-05
5.109198346817145657e-04
9.817912716067890132e-04
1.455678885571326736e-03
1.937867336270864254e-03
2.433893785669400539e-03
2.949428498415640823e-03
3.490151128740704659e-03
4.061625081044841976e-03
4.669172511082802027e-03
5.317752546622247709e-03
6.011845238444980810e-03
6.755343747159877829e-03
7.551457055180925936e-03
8.402625381489956316e-03
9.310450285661782052e-03
1.027564110317358108e-02
1.129797911506533019e-02
1.237630044975289445e-02
1.350849852823277075e-02
1.469154619810199118e-02
1.592153758717679279e-02
1.719374910873299259e-02
1.850271875719281325e-02
1.984234244441699171e-02
2.120598562883410643e-02
2.258660828519036198e-02
2.397690101986076419e-02
2.536942950157049237e-02
2.675678461826280774e-02
2.813173519099801401e-02
2.948738027381835394e-02
3.081729779041608025e-02
3.211568638251054153e-02
3.337749737643413983e-02
3.459855386650247111e-02
3.577565410211810265e-02
3.690665676004025592e-02
3.799054576714779030e-02
3.902747299126298197e-02
4.001877712427274331e-02
4.096697795043459378e-02
4.187574539002592716e-02
4.274984328756560592e-02
4.359504847376085429e-02
4.441804606527609278e-02
4.522630249218499016e-02
4.602791839097923610e-02
4.683146361247120942e-02
4.764579735772023206e-02
4.847987674973357891e-02
4.934255732151163892e-02
5.024238937516194159e-02
5.118741424588438976e-02
5.218496463016172177e-02
5.324147317809137941e-02
5.436229348634164654e-02
5.555153759694803767e-02
5.681193382526337349e-02
5.814470841335737245e-02
5.954949419855828929e-02
6.102426909731043653e-02
6.256532647817562853e-02
6.416727920596378143e-02
6.582309831164465108e-02
6.752418678897166571e-02
6.926048806228692067e-02
7.102062828385738436e-02
7.279209074132086954e-02
7.456141991362058574e-02
7.631445227972420697e-02
7.803657016138015878e-02
7.971297438848833072e-02
8.132897105838210461e-02
8.287026731059386753e-02
8.432327050672358548e-02
8.567538514414246853e-02
8.691530157599454409e-02
8.803327064831921456e-02
8.902135833402255449e-02
8.987367477944409322e-02
9.058657232984079766e-02
9.115880747497799585e-02
9.159166244183158945e-02
9.188902255109218653e-02
9.205740619792548984e-02
9.210594513315889520e-02
9.204631359201295715e-02
9.189260571615402717e-02
9.166116169771075517e-02
9.137034402897835361e-02
9.104026628190226011e-02
9.069247767241266078e-02
9.034960773743215545e-02
9.003497645225991275e-02
8.977217560200841107e-02
8.958462836801664442e-02
8.949513445657374111e-02
8.952540879390004369e-02
8.969562205814674005e-02
9.002395176233526919e-02
9.052615258890263361e-02
9.121515475253662297e-02
9.210069888621039147e-02
9.318901565268691845e-02
9.448255766661882438e-02
9.597979081637024457e-02
9.767505113435817621e-02
9.955847237704248953e-02
1.016159885609717040e-01
1.038294144411488484e-01
1.061766054507158052e-01
1.086316975635415183e-01
1.111654259474315759e-01
1.137455198999548639e-01
1.163371700281157911e-01
1.189035623957781229e-01
1.214064727644205421e-01
1.238069129039598010e-01
1.260658196661932351e-01
1.281447763971589326e-01
1.300067553844324875e-01
1.316168690813060427e-01
1.329431173691234258e-01
1.339571177428330040e-01
1.346348049041074524e-01
1.349570863317866853e-01
1.349104406205525741e-01
1.344874458772743753e-01
1.336872260787063671e-01
1.325158041787186936e-01
1.309863519330193293e-01
1.291193276341157103e-01
1.269424945502390656e-01
1.244908145099538205e-01
1.218062127631132224e-01
1.189372123098615952e-01
1.159384378724729464e-01
1.128699918388744866e-01
1.097967064830698281e-01
1.067872789832210595e-01
1.039132979165134224e-01
1.012481716748475924e-01
9.886597139691630232e-02
9.684020277042680591e-02
9.524252250093495631e-02
9.414141676466160347e-02
9.360086018635917215e-02
9.367897479578579656e-02
9.442670902371846919e-02
9.588655734124737484e-02
9.809134105664661651e-02
1.010630707685789692e-01
1.048119102334738595e-01
1.093352607830504752e-01
1.146169841195083666e-01
1.206267800313350069e-01
1.273197337834665599e-01
1.346360458757532019e-01
1.425009548624192046e-01
1.508248613530325521e-01
1.595036587875365286e-01
1.684192737347721680e-01
1.774404158245943830e-01
1.864235342722430633e-01
1.952139751075606111e-01
2.036473305362745401e-01
2.115509684527690781e-01
2.187457279947791766e-01
2.250477639731742752e-01
2.302705207287542855e-01
2.342268137116092219e-01
2.367309952953917107e-01
2.376011793835386410e-01
2.366614982502019127e-01
2.337443639618919100e-01
2.286927060452942084e-01
2.213621568398600747e-01
2.116231561611665313e-01
1.993629471577167411e-01
1.844874364162540914e-01
1.669228923538401688e-01
1.466174578194395228e-01
1.235424546158447739e-01
9.769345997093691059e-02
6.909113772671918174e-02
3.778180958611058321e-02
3.837755117315296352e-03
-3.264276778785639432e-02
-7.153578659504500337e-02
-1.126921633999851124e-01
-1.559384274079416155e-01
-2.010778847489908816e-01
-2.478919964873318171e-01
-2.961420118874332208e-01
-3.455708410708294154e-01
-3.959051479387145633e-01
-4.468576414991826673e-01
-4.981295409651263495e-01
-5.494131878985231143e-01
-6.003947768014961106e-01
-6.507571737042155968e-01
-7.001827912990041813e-01
-7.483564883352596953e-01
-7.949684606752044358e-01
-8.397170913290089578e-01
-8.823117272748669526e-01
-9.224753518483891357e-01
-9.599471226238557309e-01
-9.944847464124525471e-01
-1.025866665026298197e+00
-1.053894027750340134e+00
-1.078392429055455848e+00
-1.099213393221477153e+00
-1.116235590284367918e+00
-1.129365771385483663e+00
-1.138539414796617910e+00
-1.143721077480389203e+00
-1.144904450773345239e+00
-1.142112121948896108e+00
-1.135395047474172525e+00
-1.124831746643451424e+00
-1.110527227851362486e+00
-1.092611662690767815e+00
-1.071238826036150282e+00
-1.046584322817036172e+00
-1.018843624356891686e+00
-9.882299392550196737e-01
-9.549719454196565760e-01
-9.193114110166379360e-01
-8.815007331235312771e-01
-8.418004231976580209e-01
-8.004765689159298869e-01
-7.577983013925634337e-01
-7.140352961874764093e-01
-6.694553357551087380e-01
-6.243219595230801167e-01
-5.788922261583278051e-01
-5.334146106975058421e-01
-4.881270570117077212e-01
-4.432552037944409440e-01
-3.990107996052190686e-01
-3.555903197207542776e-01
-3.131737948277742989e-01
-2.719238586942978597e-01
-2.319850189726164469e-01
-1.934831524009673343e-01
-1.565252227627670079e-01
-1.211992174439507075e-01
-8.757429533297361735e-02
-5.570113695030833728e-02
-2.561248480143844125e-02
2.676139617429068498e-03
2.916555787164391497e-02
5.387191276316269373e-02
7.682552111558857422e-02
9.806962061069510184e-02
1.176590307448564660e-01
1.356587484010713385e-01
1.521424987345964819e-01
1.671912617675475332e-01
1.808917947391825154e-01
1.933351694342425042e-01
2.046153428713901601e-01
2.148277784825173009e-01
2.240681334575413408e-01
2.324310266008206838e-01
2.400088990795160859e-01
2.468909787285341606e-01
2.531623568431953797e-01
2.589031841551197033e-01
2.641879908054725057e-01
2.690851331866361273e-01
2.736563685765291964e-01
2.779565566617588357e-01
2.820334849374576680e-01
2.859278137992847246e-01
2.896731350199380217e-01
2.932961364116637992e-01
2.968168639355864835e-01
3.002490715450985559e-01
3.036006482260186212e-01
3.068741109342550955e-01
3.100671517774021835e-01
3.131732274879723832e-01
3.161821791031054762e-01
3.190808699945562044e-01
3.218538305993669524e-01
3.244838986842676909e-01
3.269528447233533974e-01
3.292419725795027730e-01
3.313326866538124360e-01
3.332070176623695423e-01
3.348481003260683764e-01
3.362405972596980708e-01
3.373710646405085334e-01
3.382282564758765098e-01
3.388033654616773860e-01
3.390901994828622867e-01
3.390852942599780206e-01
3.387879633834732784e-01
3.382002882447661674e-01
3.373270513381758651e-01
3.361756170780165753e-01
3.347557650372923188e-01
3.330794813123026943e-01
3.311607139577341652e-01
3.290150990194415370e-01
3.266596637884183196e-01
3.241125141260016718e-01
3.213925125190166265e-01
3.185189536297182156e-01
3.155112436865505909e-01
3.123885896860912337e-01
3.091697041686964909e-01
3.058725305709687481e-01
3.025139936085454173e-01
2.991097785774008422e-01
2.956741427209726991e-01
2.922197610297297965e-01
2.887576081055495680e-01
2.852968771634554201e-01
2.818449361756929505e-01
2.784073207723622434e-01
2.749877626360986427e-01
2.715882516111083889e-01
2.682091290262913486e-01
2.648492094736038527e-01
2.615059276612238248e-01
2.581755065061109855e-01
2.548531427250319559e-01
2.515332055600790206e-01
2.482094444109522458e-01
2.448752011363690140e-01
2.415236226779093609e-01
2.381478699251745046e-01
2.347413188661034433e-01
2.312977503456550010e-01
2.278115251569755306e-01
2.242777415060496771e-01
2.206923723632145395e-01
2.170523804664973300e-01
2.133558096084622602e-01
2.096018509087908821e-01
2.057908836482254256e-01
2.019244904175194477e-01
1.980054471172422448e-01
1.940376885508413307e-01
1.900262509477022577e-01
1.859771930941012674e-01
1.818974980938911079e-01
1.777949581159909143e-01
1.736780447632310653e-01
1.695557677793497198e-01
1.654375250978530332e-01
1.613329472765558381e-01
1.572517393547309406e-01
1.532035231315662382e-01
1.491976827858794985e-01
1.452432167446284228e-01
1.413485982554653908e-01
1.375216472339833018e-01
1.337694153879570858e-01
1.300980864406418303e-01
1.265128929728960294e-01
1.230180511046038427e-01
1.196167136843311191e-01
1.163109425937937369e-01
1.131017001910355896e-01
1.099888595763782173e-01
1.069712330972177050e-01
1.040466182324565891e-01
1.012118596270553950e-01
9.846292576898470206e-02
9.579499866629964666e-02
9.320257461746508931e-02
9.067957399734459523e-02
8.821945796963483188e-02
8.581534988650228735e-02
8.346015905062195706e-02
8.114670473869012302e-02
7.886783823520064629e-02
7.661656078922816915e-02
7.438613551293583870e-02
7.217019156019431614e-02
6.996281876655290055e-02
6.775865150779993018e-02
6.555294059480366864e-02
6.334161219499871709e-02
6.112131320651046501e-02
5.888944265371016951e-02
5.664416896542070340e-02
5.438443325934739364e-02
5.210993896068417258e-02
4.982112837427709467e-02
4.751914707238515806e-02
4.520579703994696830e-02
4.288347980617700228e-02
4.055513084738904261e-02
3.822414678022785506e-02
3.589430677577041401e-02
3.356968992347409558e-02
3.125459003149301529e-02
2.895342959018801232e-02
2.667067445520166641e-02
2.441075073519487909e-02
2.217796539217943563e-02
1.997643181498887088e-02
1.781000164682495363e-02
1.568220389009574237e-02
1.359619209470690031e-02
1.155470053110154403e-02
9.560009677588630558e-03
7.613921553565099198e-03
5.717744837917075433e-03
3.872289928671552098e-03
2.077873643596074051e-03
3.343332175231263277e-04
-1.358950947981244980e-03
-3.003024555854458787e-03
-4.599321394168964794e-03
-6.149618998129595393e-03
-7.655989051630945376e-03
-9.120743611787942087e-03
-1.054637820247090671e-02
-1.193551299766011133e-02
-1.329083322388983739e-02
-1.461502995971967513e-02
-1.591074245243607327e-02
-1.718050286746742109e-02
-1.842668460432589708e-02
-1.965145492978843597e-02
-2.085673284075914222e-02
-2.204415262008883186e-02
-2.321503382608638630e-02
-2.437035796386522943e-02
-2.551075220708125951e-02
-2.663648027217647984e-02
-2.774744043478539687e-02
-2.884317055207560529e-02
-2.992285992605389633e-02
-3.098536749318540201e-02
-3.202924598536409373e-02
-3.305277142052139711e-02
-3.405397728439934352e-02
-3.503069276656419623e-02
-3.598058412054490340e-02
-3.690119846875784121e-02
-3.779000920421173026e-02
-3.864446204113968636e-02
-3.946202103394302191e-02
-4.024021363476033841e-02
-4.097667414812053432e-02
-4.166918470003866393e-02
-4.231571314929263167e-02
-4.291444742079066066e-02
-4.346382567376397277e-02
-4.396256180848250733e-02
-4.440966616868480960e-02
-4.480446106979393134e-02
-4.514659101153978282e-02
-4.543602761942946294e-02
-4.567306920831110811e-02
-4.585833526845313479e-02
-4.599275599299130352e-02
-4.607755718856452326e-02
-4.611424092687924775e-02
-4.610456226148801351e-02
-4.605050270170911453e-02
-4.595424086260282287e-02
-4.581812077655809945e-02
-4.564461847461166039e-02
-4.543630748959383292e-02
-4.519582379239833747e-02
-4.492583075948407278e-02
-4.462898481306386972e-02
-4.430790208862114138e-02
-4.396512668996233053e-02
-4.360310105712292272e-02
-4.322413874338070644e-02
-4.283039996002976912e-02
-4.242387024624933584e-02
-4.200634235571571590e-02
-4.157940164443334197e-02
-4.114441499654272055e-02
-4.070252329914837014e-02
-4.025463754174646996e-02
-3.980143838183174826e-02
-3.934337905879219804e-02
-3.888069149358384241e-02
-3.841339533618566560e-02
-3.794130969685861887e-02
-3.746406728297940053e-02
-3.698113069009264370e-02
-3.649181036505327880e-02
-3.599528407607579389e-02
-3.549061737144451611e-02
-3.497678478678249020e-02
-3.445269145802301591e-02
-3.391719476554300172e-02
-3.336912570605732320e-02
-3.280730972670087980e-02
-3.223058672019672027e-02
-3.163782999988955930e-02
-3.102796393315141593e-02
-3.039998021195527630e-02
-2.975295244869266900e-02
-2.908604909276027786e-02
-2.839854457849679686e-02
-2.768982862869227499e-02
-2.695941368527916479e-02
-2.620694049999674341e-02
-2.543218191530520131e-02
-2.463504490271230599e-02
-2.381557088911026229e-02
-2.297393453444895178e-02
-2.211044103411608300e-02
-2.122552207465400881e-02
-2.031973046006278066e-02
-1.939373374349887685e-02
-1.844830688731641938e-02
-1.748432407446457934e-02
-1.650274985387576929e-02
-1.550462969878050462e-02
-1.449108010840971343e-02
-1.346327838365445929e-02
-1.242245222243141753e-02
-1.136986915519305925e-02
-1.030682595780652022e-02
-9.234638110473742875e-03
-8.154629394856812222e-03
-7.068121652802543051e-03
-5.976424816660200548e-03
-4.880827255019951245e-03
-3.782586449040501939e-03
-2.682920068622186589e-03
-1.582997461758430370e-03
-4.839316338170304883e-04
6.132282431189632795e-04
1.707503683551944620e-03
2.797993270784124211e-03
3.883878318306079741e-03
4.964427846622460061e-03
6.039002849493812879e-03
7.107059788296744493e-03
8.168153226227096997e-03
9.221937589890809306e-03
1.026816805203362333e-02
1.130670040272109891e-02
1.233748998702224355e-02
1.336058955337563955e-02
1.437614605932267635e-02
1.538439638662818763e-02
1.638566196956409149e-02
1.738034232721836700e-02
1.836890751079309908e-02
1.935188949506429223e-02
2.032987261399964857e-02
2.130348304107337193e-02
2.227337737050128982e-02
2.324023048611886799e-02
2.420472269995176465e-02
2.516752636277911834e-02
2.612929215521813189e-02
2.709063504729390323e-02
2.805212028748705483e-02
2.901424948079209254e-02
2.997744693993536352e-02
3.094204656855201185e-02
3.190827943882512674e-02
3.287626230289543428e-02
3.384598718198443545e-02
3.481731227916822630e-02
3.578995432774777219e-02
3.676348257963698435e-02
3.773731460295866313e-02
3.871071399713097577e-02
3.968279014547469036e-02
4.065250005706648462e-02
4.161865240575169517e-02
4.257991368171586827e-02
4.353481660925478947e-02
4.448177065120817453e-02
4.541907458353981047e-02
4.634493103519259777e-02
4.725746284056830948e-02
4.815473102973868991e-02
4.903475425752390482e-02
4.989552938949196048e-02
5.073505311136063123e-02
5.155134415622048688e-02
5.234246591843925295e-02
5.310654911055303490e-02
5.384181418548918130e-02
5.454659318703026366e-02
5.521935064279721167e-02
5.585870324823780791e-02
5.646343796147839517e-02
5.703252832819567797e-02
5.756514869545916596e-02
5.806068602706746656e-02
5.851874910438537025e-02
5.893917500532895593e-02
5.932203267176485578e-02
5.966762346933613542e-02
5.997647854350102170e-02
6.024935316937200802e-02
6.048721794934321799e-02
6.069124695413447707e-02
6.086280304260733437e-02
6.100342033838039579e-02
6.111478415964302635e-02
6.119870867051734747e-02
6.125711242789440986e-02
6.129199229348070849e-02
6.130539589215593110e-02
6.129939308798537656e-02
6.127604682310029000e-02
6.123738370221128852e-02
6.118536482219316675e-02
6.112185710556158197e-02
6.104860567019682049e-02
6.096720759907425791e-02
6.087908745738124239e-02
6.078547493199606966e-02
6.068738494939669020e-02
6.058560049176513196e-02
6.048065852293298822e-02
6.037283900568157086e-02
6.026215743489007209e-02
6.014836082503133979e-02
6.003092734061946101e-02
5.990906951313720169e-02
5.978174111035054056e-02
5.964764749443320080e-02
5.950525931269422253e-02
5.935282943071626405e-02
5.918841293192612235e-02
5.900988971029465929e-02
5.881498955478622892e-02
5.860131925289806254e-02
5.836639141723675567e-02
5.810765463449662355e-02
5.782252446331735685e-02
5.750841496099951683e-02
5.716277016856851495e-02
5.678309524421158022e-02
5.636698681874968697e-02
5.591216203918927818e-02
5.541648604722726468e-02
5.487799751060282172e-02
5.429493178688101634e-02
5.366574151692042605e-02
5.298911432278022998e-02
5.226398742517975732e-02
5.148955894227983526e-02
5.066529589152790614e-02
4.979093870391607807e-02
4.886650226783673806e-02
4.789227350165987246e-02
4.686880556649838242e-02
4.579690884022367958e-02
4.467763877973199987e-02
4.351228099438286812e-02
4.230233368494919211e-02
4.104948780555305043e-02
3.975560514476163265e-02
3.842269489158060131e-02
3.705288884651556508e-02
3.564841577672820533e-02
3.421157526726403136e-02
3.274471142660854983e-02
3.125018690690193474e-02
2.973035759587884866e-02
2.818754831443086653e-02
2.662402982074977414e-02
2.504199757235023305e-02
2.344355245801857043e-02
2.183068373882523366e-02
2.020525442957481210e-02
1.856898935622787461e-02
1.692346587646892039e-02
1.527010742716298532e-02
1.361018007468248886e-02
1.194479190904205838e-02
1.027489525348456757e-02
8.601291562793047032e-03
6.924639001069011861e-03
5.245462434245541650e-03
3.564165711267160835e-03
1.881045887854081947e-03
1.963091787601280993e-04
-1.489911697418327746e-03
-3.177539024874579884e-03
-4.866530785960573521e-03
-6.556860951992642128e-03
-8.248499597470050279e-03
-9.941393311602054680e-03
-1.163544612523519095e-02
-1.333050136793445008e-02
-1.502632466134820252e-02
-1.672258841560689269e-02
-1.841885798655975778e-02
-2.011457982059133495e-02
-2.180907178653429535e-02
-2.350151577979097198e-02
-2.519095272184571424e-02
-2.687628009217609554e-02
-2.855625203948539137e-02
-3.022948205707179370e-02
-3.189444814438868736e-02
-3.354950049904271980e-02
-3.519287146178950304e-02
-3.682268772711760896e-02
-3.843698455124928276e-02
-4.003372177314588193e-02
-4.161080136170815930e-02
-4.316608630048777290e-02
-4.469742053962907219e-02
-4.620264960997634562e-02
-4.767964175485674139e-02
-4.912630911642077575e-02
-5.054062880872906699e-02
-5.192066344722023885e-02
-5.326458088790894663e-02
-5.457067294368535965e-02
-5.583737275256453469e-02
-5.706327056685433358e-02
-5.824712767903850175e-02
-5.938788837230572770e-02
-6.048468972957012774e-02
-6.153686907401847289e-02
-6.254396901444304879e-02
-6.350573996516113706e-02
-6.442214019878213238e-02
-6.529333338450310498e-02
-6.611968363452798425e-02
-6.690174809040735915e-02
-6.764026723001244357e-02
-6.833615305607759760e-02
-6.899047522845479230e-02
-6.960444533244443399e-02
-7.017939964422235943e-02
-7.071678043900282706e-02
-7.121811618515605513e-02
-7.168500093894154823e-02
-7.211907314805827973e-02
-7.252199410329517038e-02
-7.289542638941309827e-02
-7.324101260808131564e-02
-7.356035464423556214e-02
-7.385499372231792148e-02
-7.412639150556529777e-02
-7.437591251079557486e-02
-7.460480801586205635e-02
-7.481420167931321363e-02
-7.500507703247563662e-02
-7.517826699568924687e-02
-7.533444560548382962e-02
-7.547412187607387135e-02
-7.559763603868702164e-02
-7.570515806763367106e-02
-7.579668857567634088e-02
-7.587206198895327103e-02
-7.593095202131265598e-02
-7.597287930588292326e-02
-7.599722101649018791e-02
-7.600322251118023231e-02
-7.599001066701001339e-02
-7.595660885345564828e-02
-7.590195327277289572e-02
-7.582491050971700008e-02
-7.572429596632047899e-02
-7.559889309143444369e-02
-7.544747306003209142e-02
-7.526881470277983766e-02
-7.506172442752893914e-02
-7.482505585993033670e-02
-7.455772900690436911e-02
-7.425874875757712545e-02
-7.392722236903906396e-02
-7.356237586626465652e-02
-7.316356903400007827e-02
-7.273030894810264546e-02
-7.226226183981278306e-02
-7.175926313755340291e-02
-7.122132561583074950e-02
-7.064864550075453109e-02
-7.004160655546927405e-02
-6.940078200049273893e-02
-6.872693433434390320e-02
-6.802101299346302588e-02
-6.728414992863283872e-02
-6.651765319545631383e-02
-6.572299847653877147e-02
-6.490181879333331572e-02
-6.405589246598761277e-02
-6.318712943384167946e-02
-6.229755610188632275e-02
-6.138929895195849307e-02
-6.046456703326079374e-02
-5.952563350029953237e-02
-5.857481644716399510e-02
-5.761445926479556723e-02
-5.664691071200766981e-02
-5.567450488458747238e-02
-5.469954134666214079e-02
-5.372426566547484905e-02
-5.275085048188133535e-02
-5.178137735263486918e-02
-5.081781961731789837e-02
-4.986202635045094977e-02
-4.891570768636856192e-02
-4.798042165501065909e-02
-4.705756257163990625e-02
-4.614835126924460296e-02
-4.525382713516321043e-02
-4.437484203256980564e-02
-4.351205632365195974e-02
-4.266593683947221549e-02
-4.183675699255008651e-02
-4.102459885384630162e-02
-4.022935727550936563e-02
-3.945074600802884329e-02
-3.868830573776929627e-02
-3.794141392489373821e-02
-3.720929626320345490e-02
-3.649103978319197944e-02
-3.578560736566632067e-02
-3.509185347055809173e-02
-3.440854093568555816e-02
-3.373435861844664707e-02
-3.306793980256827331e-02
-3.240788096349832975e-02
-3.175276077767495014e-02
-3.110115917976272529e-02
-3.045167624118025329e-02
-2.980295056318413294e-02
-2.915367698843146158e-02
-2.850262352874494837e-02
-2.784864724503913549e-02
-2.719070885296179588e-02
-2.652788586360421350e-02
-2.585938424550878259e-02
-2.518454832217980124e-02
-2.450286880822137928e-02
-2.381398894770685518e-02
-2.311770863430761755e-02
-2.241398652866409200e-02
-2.170293996631071989e-02
-2.098484292842547547e-02
-2.026012186700958465e-02
-1.952934959930270262e-02
-1.879323724622624855e-02
-1.805262439958159673e-02
-1.730846756194971692e-02
-1.656182705666424046e-02
-1.581385262971720870e-02
-1.506576780542916855e-02
-1.431885335153055411e-02
-1.357442995070571451e-02
-1.283384035507025879e-02
-1.209843131297059018e-02
-1.136953541283687932e-02
-1.064845313005219687e-02
-9.936435419668999611e-03
-9.234666896868437905e-03
-8.544249999958496503e-03
-7.866190308886961483e-03
-7.201383159834599985e-03
-6.550601852013395246e-03
-5.914487562304739619e-03
-5.293541096967935115e-03
-4.688116594222977232e-03
-4.098417319308157204e-03
-3.524493654954485682e-03
-2.966243128168425443e-03
-2.423412773627165156e-03
-1.895603533964307710e-03
-1.382276800383730204e-03
-8.827629727786504270e-04
-3.962719736653490450e-04
7.809453996031084000e-05
5.413293224384811957e-04
9.945042952404922146e-04
1.438754127146207613e-03
1.875258745533976224e-03
2.305225196240296738e-03
2.729869007117369413e-03
3.150395357600432617e-03
3.567980301870574654e-03
3.983752291429114474e-03
4.398774297700342936e-03
4.814026808483814514e-03
5.230391908491828674e-03
5.648638661077763808e-03
6.069410067174791680e-03
6.493211786097766343e-03
6.920402683287095284e-03
7.351187523181582605e-03
7.785611712045258266e-03
8.223558380594592904e-03
8.664747778848441023e-03
9.108738890985325354e-03
9.554933389896307777e-03
1.000258190730184647e-02
1.045079240698330858e-02
1.089854060942874354e-02
1.134468237031547970e-02
1.178796781398959090e-02
1.222705693932622448e-02
1.266053662281857277e-02
1.308693869811089830e-02
1.350475882380176157e-02
1.391247598230023301e-02
1.430857226343890988e-02
1.469155260506939745e-02
1.505996435429867927e-02
1.541241621609028625e-02
1.574759636427481777e-02
1.606428957604610561e-02
1.636139301510196667e-02
1.663793044830577314e-02
1.689306481600260854e-02
1.712610886921000358e-02
1.733653372726696659e-02
1.752397532423163526e-02
1.768823862410554698e-02
1.782929952092003612e-02
1.794730442123343428e-02
1.804256759736603405e-02
1.811556623098460606e-02
1.816693337591580512e-02
1.819744881144859730e-02
1.820802804140798231e-02
1.819970957951057636e-02
1.817364061518034549e-02
1.813106144855532523e-02
1.807328882401965098e-02
1.800169841954771602e-02
1.791770677284809654e-02
1.782275279502150075e-02
1.771827932317807455e-02
1.760571481711917588e-02
1.748645560142986569e-02
1.736184873116287594e-02
1.723317585531708787e-02
1.710163825740380200e-02
1.696834322703893311e-02
1.683429199609708452e-02
1.670036934415092961e-02
1.656733503091900248e-02
1.643581715556570108e-02
1.630630744594866247e-02
1.617915862619762057e-02
1.605458377159828254e-02
1.593265764983465074e-02
1.581332001690247124e-02
1.569638080059464202e-02
1.558152704807615023e-02
1.546833143790818030e-02
1.535626235206521972e-02
1.524469518083385218e-02
1.513292477374026182e-02
1.502017879052774084e-02
1.490563183518095296e-02
1.478842001874120828e-02
1.466765585412338480e-02
1.454244317181566798e-02
1.441189188846109769e-02
1.427513243100290638e-02
1.413132961410467486e-02
1.397969581243659228e-02
1.381950323082384129e-02
1.365009512541518616e-02
1.347089583601025070e-02
1.328141958263841065e-02
1.308127787880685594e-02
1.287018549208386597e-02
1.264796496852948517e-02
1.241454967575865952e-02
1.216998535286038102e-02
1.191443021605615576e-02
1.164815366092098597e-02
1.137153363319604385e-02
1.108505270967379344e-02
1.078929305336940106e-02
1.048493032194868120e-02
1.017272656022498098e-02
9.853522406232814723e-03
9.528228564829807623e-03
9.197816749998706520e-03
8.863310219606596041e-03
8.525774060391733133e-03
8.186305368887125331e-03
7.846023370266014610e-03
7.506059689652968235e-03
7.167548807206164038e-03
6.831618853654135466e-03
6.499382791857510715e-03
6.171930068364859731e-03
5.850318813206155377e-03
5.535568602366563139e-03
5.228653844375276936e-03
4.930497779797516321e-03
4.641967121686903924e-03
4.363867356954889698e-03
4.096938657233990810e-03
3.841852402291426067e-03
3.599208267164088169e-03
3.369531863750872304e-03
3.153272898042215177e-03
2.950803766937385667e-03
2.762418575126465974e-03
2.588332536832728924e-03
2.428681786333660754e-03
2.283523397523269920e-03
2.152835723083818160e-03
2.036518965535520642e-03
1.934395954562509543e-03
1.846213204687043984e-03
1.771642142035664402e-03
1.710280513715108650e-03
1.661654013120645885e-03
1.625218189258232672e-03
1.600360531096372933e-03
1.586402893928361450e-03
1.582604171359823075e-03
1.588163318333042943e-03
1.602222759727308125e-03
1.623872159899932867e-03
1.652152657345015273e-03
1.686061536044511497e-03
1.724557406901187267e-03
1.766565845945042854e-03
1.810985556925589612e-03
1.856695018227258031e-03
1.902559680490551559e-03
1.947439644847668780e-03
1.990197722933279619e-03
2.029707923878813682e-03
2.064864347203765760e-03
2.094590341605995568e-03
2.117847835798836783e-03
2.133646813313403064e-03
2.141054790850573271e-03
2.139206198539306356e-03
2.127311571068197290e-03
2.104666413501426504e-03
2.070659607643686104e-03
2.024781189306218074e-03
1.966629502978140594e-03
1.895917422661928028e-03
1.812477738425872587e-03
1.716267373665898190e-03
1.607370475175216558e-03
1.486000258325651576e-03
1.352499531054232118e-03
1.207339775606744610e-03
1.051118850702323229e-03
8.845572251507565539e-04
7.084927584832908425e-04
5.238740100877589895e-04
3.317521630736991207e-04
1.332716370861813818e-04
-7.034061350844586274e-05
-2.777869357116112482e-04
-4.877118187746050208e-04
-6.987156982822908570e-04
-9.093694635049621002e-04
-1.118229500116690129e-03
-1.323853177382175840e-03
-1.524814509203740575e-03
-1.719719796159700212e-03
-1.907223099429348426e-03
-2.086041302713972229e-03
-2.254968519754562296e-03
-2.412889746573028751e-03
-2.558793503391619800e-03
-2.691783351040537026e-03
-2.811088065298197620e-03
-2.916070349098513325e-03
-3.006233957082317561e-03
-3.081229171321953151e-03
-3.140856459623630418e-03
-3.185068380530352121e-03
-3.213969637267740428e-03
-3.227815250250216147e-03
-3.227006963397147359e-03
-3.212087854594783583e-03
-3.183735300554550902e-03
-3.142752337213829735e-03
-3.090057614949167329e-03
-3.026674035678708283e-03
-2.953716112282548170e-03
-2.872376551377234070e-03
-2.783911933366565485e-03
-2.689627921380449357e-03
-2.590864052229531478e-03
-2.488978373670454151e-03
-2.385332149625642596e-03
-2.281274828511461496e-03
-2.178129502802806771e-03
-2.077179049476907992e-03
-1.979653044077005555e-03
-1.886715788673121565e-03
-1.799455368909566458e-03
-1.718874087940814579e-03
-1.645880226386125514e-03
-1.581281261204374239e-03
-1.525778586682119756e-03
-1.479963791398611729e-03
-1.444316487976751414e-03
-1.419203659844288758e-03
-1.404880452868695730e-03
-1.401492430501937109e-03
-1.409079108803263421e-03
-1.427578701504177107e-03
-1.456833977881297031e-03
-1.496599117871947812e-03
-1.546547297340884666e-03
-1.606278962651961012e-03
-1.675330556298521619e-03
-1.753183559275509973e-03
-1.839273707467488665e-03
-1.933000133980909523e-03
-2.033734373217236345e-03
-2.140829004285183662e-03
-2.253625861314488901e-03
-2.371463630981230676e-03
-2.493684780032872847e-03
-2.619641701226028008e-03
-2.748702005126009863e-03
-2.880252920538167640e-03
-3.013704789375089895e-03
-3.148493586847619582e-03
-3.284082571523196624e-03
-3.419963014578088559e-03
-3.555654164162409467e-03
-3.690702387971862234e-03
-3.824679606134403186e-03
-3.957181214686087203e-03
-4.087823505000532688e-03
-4.216240701781608091e-03
-4.342081799653940526e-03
-4.465007267641813229e-03
-4.584685768253105032e-03
-4.700791024331824920e-03
-4.812998947681767885e-03
-4.920985124752866140e-03
-5.024422803896824719e-03
-5.122981411332210022e-03
-5.216325677915950761e-03
-5.304115450814861875e-03
-5.386006301420877447e-03
-5.461650779973134875e-03
-5.530700475840050895e-03
-5.592808793600754884e-03
-5.647634431471649542e-03
-5.694845528738104977e-03
-5.734124356162031456e-03
-5.765172490459808882e-03
-5.787716374701006375e-03
-5.801513132935694032e-03
-5.806356589221995344e-03
-5.802083247965144491e-03
-5.788578247291221307e-03
-5.765780997567820747e-03
-5.733690456017148142e-03
-5.692369862664929149e-03
-5.641950879901546333e-03
-5.582636982156851703e-03
-5.514705928737513932e-03
-5.438511303361300529e-03
-5.354483079783094353e-03
-5.263127040822317138e-03
-5.165023101251102478e-03
-5.060822511147010545e-03
-4.951243865454423541e-03
-4.837068052132007835e-03
-4.719132124098385228e-03
-4.598322145212432530e-03
-4.475565110074134628e-03
-4.351820070709035149e-03
-4.228068573924834497e-03
-4.105304513661262554e-03
-3.984523606802225885e-03
-3.866712621227654401e-03
-3.752838439138154319e-03
-3.643837213909146503e-03
-3.540603787022901083e-03
-3.443981570545720950e-03
-3.354752962374168111e-03
-3.273630428103020511e-03
-3.201248572320258313e-03
-3.138157132483133764e-03
-3.084815158252475226e-03
-3.041586353015770031e-03
-3.008735757365377673e-03
-2.986427735373906565e-03
-2.974725405351490767e-03
-2.973591404687267459e-03
-2.982890084325457401e-03
-3.002391051052745452e-03
-3.031773987463147468e-03
-3.070634691257315314e-03
-3.118492166045047989e-03
-3.174796754934573317e-03
-3.238939085509524515e-03
-3.310259665111398540e-03
-3.388059095677512910e-03
-3.471608502662829488e-03
-3.560160222548334943e-03
-3.652958431281126683e-03
-3.749249545878614951e-03
-3.848292290800610273e-03
-3.949367127521633512e-03
-4.051785026944585040e-03
-4.154895324768384524e-03
-4.258092548233877346e-03
-4.360822144659135674e-03
-4.462584958601968979e-03
-4.562940392363953532e-03
-4.661508246461358237e-03
-4.757969146114212657e-03
-4.852063588533231039e-03
-4.943589651656038128e-03
-5.032399311652229965e-03
-5.118393643986967646e-03
-5.201516801269712685e-03
-5.281749014859732014e-03
-5.359098695086280707e-03
-5.433593811312391851e-03
-5.505272750519208703e-03
-5.574174830628626093e-03
-5.640330612039622799e-03
-5.703752231807433792e-03
-5.764424007949784691e-03
-5.822293520507044670e-03
-5.877263267818629879e-03
-5.929183205246247278e-03
-5.977844268281756572e-03
-6.022973063043843625e-03
-6.064227862543319914e-03
-6.101196050591600056e-03
-6.133393148949648627e-03
-6.160263359731322011e-03
-6.181181829243503727e-03
-6.195458584597353206e-03
-6.202344102215195769e-03
-6.201036514892342352e-03
-6.190690402305664905e-03
-6.170427038195231730e-03
-6.139345914360569943e-03
-6.096537505443823043e-03
-6.041096999897532967e-03
-5.972138786464187277e-03
-5.888811591499018908e-03
-5.790313913009737315e-03
-5.675909625856158380e-03
-5.544943363897500768e-03
-5.396855476166469850e-03
-5.231196320926011917e-03
-5.047639610914429753e-03
-4.845994604744363263e-03
-4.626216879061011318e-03
-4.388417461605427852e-03
-4.132870009616383504e-03
-3.860016100300412041e-03
-3.570468265743027662e-03
-3.265010826638309500e-03
-2.944598214924050873e-03
-2.610350912311555291e-03
-2.263548950739445280e-03
-1.905622963289803438e-03
-1.538142863521929681e-03
-1.162804191832311458e-03
-7.814123365165643893e-04
-3.958647949147884562e-04
-8.131650894234885161e-06
3.797655195816647552e-04
7.657759412861183919e-04
1.147843016435573342e-03
1.523928365845942864e-03
1.892036147778037572e-03
2.250237382723942366e-03
2.596693879695285544e-03
2.929681557214363578e-03
3.247612626332562619e-03
3.549056372912398529e-03
3.832758082395461893e-03
4.097655997898519420e-03
4.342895865446947876e-03
4.567842848940776093e-03
4.772090626185331551e-03
4.955467385722894455e-03
5.118038596823568098e-03
5.260106448769241022e-03
5.382205937676647414e-03
5.485097555992092186e-03
5.569756624036394967e-03
5.637359350632792539e-03
5.689265813484085423e-03
5.726999943956243011e-03
5.752226872168995052e-03
5.766727863283695535e-03
5.772373190439354304e-03
5.771093281264487104e-03
5.764848587292018336e-03
5.755598592277187155e-03
5.745270440654501841e-03
5.735727584090357170e-03
5.728739012531301571e-03
5.725949487269380370e-03
5.728851342835957622e-03
5.738758209867607721e-03
5.756781196639677509e-03
5.783807888936030005e-03
5.820484571074592030e-03
5.867202108637003220e-03
5.924085566353274115e-03
5.990988033795598307e-03
6.067488655015306973e-03
6.152895126651473402e-03
6.246250589345572410e-03
6.346344968273445221e-03
6.451730675032163118e-03
6.560742475972066931e-03
6.671521352584509901e-03
6.782041951301843660e-03
6.890143316899961616e-03
6.993562555447662733e-03
7.089970772619620318e-03
7.177010934500555224e-03
7.252336937548966266e-03
7.313653379510576431e-03
7.358755343798177237e-03
7.385567580975571471e-03
7.392182366804161443e-03
7.376895459741563896e-03
7.338239555566040094e-03
7.275014508353050413e-03
7.186313838236053214e-03
7.071547040152363281e-03
6.930457118256984177e-03
6.763133043866253677e-03
6.570016791856666746e-03
6.351904702711823857e-03
6.109943036397398608e-03
5.845617625026508848e-03
5.560737699409780584e-03
5.257414044181258662e-03
4.938031650501729583e-03
4.605217238180335688e-03
4.261802078081688983e-03
3.910780615730509099e-03
3.555265479294431128e-03
3.198439561975234113e-03
2.843505940233435024e-03
2.493636390606492059e-03
2.151919294101555576e-03
1.821307864885206513e-03
1.504569519759041234e-03
1.204237361965212073e-03
9.225645683825185262e-04
6.614825319627791857e-04
4.225635903856425949e-04
2.069890024667397639e-04
1.552294883825474303e-05
-1.515069676076062448e-04
-2.942221527358025918e-04
-4.131981013301317144e-04
-5.094617730943878844e-04
-5.844811969962656305e-04
-6.401472640266285584e-04
-6.787478318727084656e-04
-7.029344702398343785e-04
-7.156821212673208747e-04
-7.202423626134036661e-04
-7.200907696135597832e-04
-7.188692067954138192e-04
-7.203239473505801795e-04
-7.282405335143833950e-04
-7.463764720748641010e-04
-7.783927706520194509e-04
-8.277856093497023594e-04
-8.978191700929074280e-04
-9.914609570447947568e-04
-1.111320695250030783e-03
-1.259593922081464826e-03
-1.438011401620334102e-03
-1.647795382700241581e-03
-1.889623583289035775e-03
-2.163601717020877373e-03
-2.469245215376399995e-03
-2.805470738402990674e-03
-3.170597838657514354e-03
-3.562360905419224063e-03
-3.977931567387192439e-03
-4.413951319338619943e-03
-4.866574078751602708e-03
-5.331518217671956349e-03
-5.804127360495513720e-03
-6.279439135867600531e-03
-6.752260897078032897e-03
-7.217251280314834760e-03
-7.669006317432385846e-03
-8.102148795230764908e-03
-8.511419373822092307e-03
-8.891767950329509604e-03
-9.238443738526922605e-03
-9.547082496449709604e-03
-9.813789445028749808e-03
-1.003521620555018062e-02
-1.020863040653982590e-02
-1.033197665312837743e-02
-1.040392757912948773e-02
-1.042392389908659497e-02
-1.039220270146465862e-02
-1.030981299810143637e-02
-1.017861820198299669e-02
-1.000128512582921549e-02
-9.781259435478303205e-03
-9.522727703477886982e-03
-9.230566374294764398e-03
-8.910278278227344584e-03
-8.567917526313863566e-03
-8.210003830110208442e-03
-7.843427375379538255e-03
-7.475345738264057086e-03
-7.113074415663920430e-03
-6.763972629057849253e-03
-6.435326296799422606e-03
-6.134229969147521506e-03
-5.867469764084202316e-03
-5.641409163988820794e-03
-5.461879719245664108e-03
-5.334078420590825965e-03
-5.262473673285402408e-03
-5.250721521451830361e-03
-5.301593592898627173e-03
-5.416918174873496493e-03
-5.597535542302598498e-03
-5.843268556494593015e-03
-6.152909047407769359e-03
-6.524220572236965124e-03
-6.953957607219408629e-03
-7.437901038911684873e-03
-7.970909555948537187e-03
-8.546986262862316455e-03
-9.159359607424788149e-03
-9.800577283958250563e-03
-1.046261177509622865e-02
-1.113697579323452876e-02
-1.181484583721618964e-02
-1.248719180742480575e-02
-1.314491061025677490e-02
-1.377896147159758840e-02
-1.438050069035213228e-02
-1.494101365696516755e-02
-1.545244170321591684e-02
-1.590730179053707893e-02
-1.629879690295742839e-02
-1.662091515503457545e-02
-1.686851596532365147e-02
-1.703740180979907912e-02
-1.712437415752694411e-02
-1.712727268234058575e-02
-1.704499700757324335e-02
-1.687751057115213435e-02
-1.662582655480144070e-02
-1.629197607211116741e-02
-1.587895918422811345e-02
-1.539067955395023030e-02
-1.483186400997738366e-02
-1.420796832278059182e-02
-1.352507098638352362e-02
-1.278975691199143658e-02
-1.200899310682683810e-02
-1.118999865460642076e-02
-1.034011136560561428e-02
-9.466653543423509537e-03
-8.576799323231439412e-03
-7.677446063531249802e-03
-6.775092219191990867e-03
-5.875723958556627533e-03
-4.984712664583113018e-03
-4.106725134215107216e-03
-3.245648350514621517e-03
-2.404530128138492647e-03
-1.585536804457512994e-03
-7.899288101785855321e-04
-1.805448660187312124e-05
7.306376256733945144e-04
1.457568295449213937e-03
2.164979560268876901e-03
2.855870040836259657e-03
3.533914912058081816e-03
4.203372012360628504e-03
4.868976152517591124e-03
5.535823489110287474e-03
6.209248560606252069e-03
6.894696302280672352e-03
7.597591621155023144e-03
8.323209353255161050e-03
9.076547152413886113e-03
9.862204036920419262e-03
1.068426714554847855e-02
1.154620915184867945e-02
1.245079849458669875e-02
1.340002449531670428e-02
1.439503903321254219e-02
1.543611615637461264e-02
1.652263068699788909e-02
1.765305652412751253e-02
1.882498482511418825e-02
2.003516198535832890e-02
2.127954685854230657e-02
2.255338624604820083e-02
2.385130732973043607e-02
2.516742539931618103e-02
2.649546462792586737e-02
2.782888973458236964e-02
2.916104581046151736e-02
3.048530344605149267e-02
3.179520622965859022e-02
3.308461749591378592e-02
3.434786311634925593e-02
3.557986728072997512e-02
3.677627820480023485e-02
3.793358085729542362e-02
3.904919401130933082e-02
4.012154926769843227e-02
4.115014989862692679e-02
4.213560789241506399e-02
4.307965769379604182e-02
4.398514597016979499e-02
4.485599698806718577e-02
4.569715366411256779e-02
4.651449494710085952e-02
4.731473063602695955e-02
4.810527521451881533e-02
4.889410293541109759e-02
4.968958653257886382e-02
5.050032254527161285e-02
5.133494649246464481e-02
5.220194150597180088e-02
5.310944424464560110e-02
5.406505194107266710e-02
5.507563477066534235e-02
5.614715743657784641e-02
5.728451406584971622e-02
5.849138015709826055e-02
5.977008515680426459e-02
6.112150895718915927e-02
6.254500515154563789e-02
6.403835347302570813e-02
6.559774328970671697e-02
6.721778956579314845e-02
6.889158185760974051e-02
7.061076654093048632e-02
7.236566168287021650e-02
7.414540320409980512e-02
7.593812048266852799e-02
7.773113881355794841e-02
7.951120559953019085e-02
8.126473632357537891e-02
8.297807626317518781e-02
8.463777310931296094e-02
8.623085544487231469e-02
8.774511166085716130e-02
8.916936383034330948e-02
9.049373089873299913e-02
9.170987553635988332e-02
9.281122913977503386e-02
9.379318987208977443e-02
9.465328878126735845e-02
9.539131946082925195e-02
9.600942756540038758e-02
9.651215687588145242e-02
9.690644931160036224e-02
9.720159729263279369e-02
9.740914755170450301e-02
9.754275647136247118e-02
9.761799791975542262e-02
9.765212553109882399e-02
9.766379223667202847e-02
9.767273092747602581e-02
9.769940080959736706e-02
9.776460503753392484e-02
9.788908568870349769e-02
9.809310310105544273e-02
9.839600691973254820e-02
9.881580673902394529e-02
9.936875045034172793e-02
1.000689186581191492e-01
1.009278434825090220e-01
1.019541599177831714e-01
1.031532976592081374e-01
1.045272208378253131e-01
1.060742225838647163e-01
1.077887804434071589e-01
1.096614779509866855e-01
1.116789965926129891e-01
1.138241812748912868e-01
1.160761811976068203e-01
1.184106668009231172e-01
1.208001220928057451e-01
1.232142101886938568e-01
1.256202086830383591e-01
1.279835099436740786e-01
1.302681801459826538e-01
1.324375695882982484e-01
1.344549655425142654e-01
1.362842780050250446e-01
1.378907474303879555e-01
1.392416630448609360e-01
1.403070794783995157e-01
1.410605190823700228e-01
1.414796470062701372e-01
1.415469060365582288e-01
1.412500983521018938e-01
1.405829017904626776e-01
1.395453087894881761e-01
1.381439769728276257e-01
1.363924812919768970e-01
1.343114590278225162e-01
1.319286401528388386e-01
1.292787574178750065e-01
1.264033319780626385e-01
1.233503323094989890e-01
1.201737061898790898e-01
1.169327874501866205e-01
1.136915812790482150e-01
1.105179339489431034e-01
1.074825948120589764e-01
1.046581804798025622e-01
1.021180529447889562e-01
9.993512509077133454e-02
9.818060878848536288e-02
9.692272224606200692e-02
9.622537426908225888e-02
9.614684430492513589e-02
9.673847772926259803e-02
9.804341647775927093e-02
1.000953850718268590e-01
1.029175521805803517e-01
1.065214873064291023e-01
1.109062314802922028e-01
1.160574998401732727e-01
1.219470327583506986e-01
1.285321103635188866e-01
1.357552435967934457e-01
1.435440529472823135e-01
1.518113433841916105e-01
1.604553818989913894e-01
1.693603811628048295e-01
1.783971901553262074e-01
1.874241897350690245e-01
1.962883883004456764e-01
2.048267097564715200e-01
2.128674632694808333e-01
2.202319813996596320e-01
2.267364108077723484e-01
2.321936369706563141e-01
2.364153224171327561e-01
2.392140358041071613e-01
2.404054474511135298e-01
2.398105654365590422e-01
2.372579854331604288e-01
2.325861266249537596e-01
2.256454254565408990e-01
2.163004592556322658e-01
2.044319718180198642e-01
1.899387740000134106e-01
1.727394933520535469e-01
1.527741482937517437e-01
1.300055241408085149e-01
1.044203304424781154e-01
7.603012147643058161e-02
4.487196462218663584e-02
1.100884401192026539e-02
-2.547020988170403677e-02
-6.445027069896171190e-02
-1.057909493732600847e-01
-1.493271092308017245e-01
-1.948698586184351433e-01
-2.422078133801212618e-01
-2.911086179969929466e-01
-3.413207108226825603e-01
-3.925753160772186279e-01
-4.445886419860930472e-01
-4.970642620005673584e-01
-5.496956536503636581e-01
-6.021688674556895382e-01
-6.541652968554036995e-01
-7.053645182870186270e-01
-7.554471701201029843e-01
-8.040978381902267325e-01
-8.510079158807078992e-01
-8.958784066151698200e-01
-9.384226376054920493e-01
-9.783688545325917030e-01
-1.015462668360906040e+00
-1.049469327316583822e+00
-1.080175789242811657e+00
-1.107392571836347317e+00
-1.130955361271513748e+00
-1.150726362343899689e+00
-1.166595376669887107e+00
-1.178480598754327646e+00
-1.186329123094908011e+00
-1.190117158922637586e+00
-1.189849952872423344e+00
-1.185561423186667573e+00
-1.177313512493244119e+00
-1.165195269529735400e+00
-1.149321673197295723e+00
-1.129832215332335021e+00
-1.106889261092951049e+00
-1.080676208559153695e+00
-1.051395470983217395e+00
-1.019266306932749000e+00
-9.845225251444610359e-01
-9.474100918297004847e-01
-9.081846689348385127e-01
-8.671091122456479061e-01
-8.244509580579151287e-01
-7.804799268731376083e-01
-7.354654716413445703e-01
-6.896743972101816444e-01
-6.433685759056195774e-01
-5.968027827375793626e-01
-5.502226716414603258e-01
-5.038629118860660228e-01
-4.579455013722524837e-01
-4.126782711362326217e-01
-3.682535923754081675e-01
-3.248472947793099030e-01
-2.826178018654655899e-01
-2.417054864491117172e-01
-2.022322462649195352e-01
-1.643012971682309420e-01
-1.279971786597343675e-01
-9.338596392992759565e-02
-6.051566438226513300e-02
-2.941681628813795982e-02
-1.032354474919177717e-04
2.742707610247457212e-02
5.319088848746387349e-02
7.721858602948572514e-02
9.955291214479405904e-02
1.202476370126111527e-01
1.393661680697317884e-01
1.569801236095748342e-01
1.731678893371860761e-01
1.880131770831304783e-01
2.016036043984198167e-01
2.140293125561858745e-01
2.253816391228719018e-01
2.357518601860218443e-01
2.452300154489565065e-01
2.539038278296253948e-01
2.618577274125917231e-01
2.691719877092184632e-01
2.759219801976766084e-01
2.821775512220313087e-01
2.880025234444578142e-01
2.934543220335610325e-01
2.985837241221305227e-01
3.034347280883680220e-01
3.080445380538666122e-01
3.124436570264869095e-01
3.166560810235507506e-01
3.206995853437471511e-01
3.245860934076291726e-01
3.283221172665450882e-01
3.319092587760901214e-01
3.353447598542594887e-01
3.386220899367174408e-01
3.417315589689221556e-01
3.446609442873145301e-01
3.473961200428085649e-01
3.499216783826268884e-01
3.522215324115817170e-01
3.542794915156060043e-01
3.560798005710395508e-01
3.576076357762068003e-01
3.588495506355234843e-01
3.597938668554104824e-01
3.604310062536618675e-01
3.607537607405252866e-01
3.607574987931244093e-01
3.604403078417958151e-01
3.598030731790466952e-01
3.588494952417997652e-01
3.575860477172055352e-01
3.560218803589718095e-01
3.541686706369435722e-01
3.520404295256762683e-01
3.496532669858528064e-01
3.470251233694836568e-01
3.441754732685337603e-01
3.411250084825945827e-01
3.378953069620676541e-01
3.345084944203099986e-01
3.309869053054845245e-01
3.273527495185662439e-01
3.236277908790664570e-01
3.198330429419275478e-01
3.159884871322520827e-01
3.121128177609941989e-01
3.082232175920391337e-01
3.043351671903931077e-01
3.004622903036224812e-01
2.966162369943035060e-01
2.928066053804957436e-01
2.890409021111982057e-01
2.853245411199858972e-01
2.816608793593017857e-01
2.780512876313583348e-01
2.744952541585182759e-01
2.709905179407061659e-01
2.675332285221962980e-01
2.641181283607831332e-01
2.607387538110066405e-01
2.573876505133048664e-01
2.540565987254920777e-01
2.507368442563384092e-01
2.474193306464372577e-01
2.440949283148589610e-01
2.407546565764543123e-01
2.373898947650907587e-01
2.339925789228882447e-01
2.305553809896604689e-01
2.270718676907760303e-01
2.235366368556204741e-01
2.199454294179140068e-01
2.162952158070946818e-01
2.125842558369565316e-01
2.088121318486673428e-01
2.049797552716704774e-01
2.010893472438075869e-01
1.971443944426010675e-01
1.931495815457179299e-01
1.891107022753661937e-01
1.850345513459103197e-01
1.809287995620539047e-01
1.768018550732905758e-01
1.726627134880182879e-01
1.685207999282257729e-01
1.643858061316274266e-01
1.602675257113921337e-01
1.561756905694056674e-01
1.521198113094933968e-01
1.481090245744410006e-01
1.441519497811087902e-01
1.402565575955960764e-01
1.364300523063020631e-01
1.326787697987738823e-01
1.290080926170583397e-01
1.254223831404363276e-01
1.219249356770055609e-01
1.185179478723209223e-01
1.152025114932872102e-01
1.119786222621939054e-01
1.088452081825016099e-01
1.058001753917346549e-01
1.028404702384252134e-01
9.996215626980253788e-02
9.716050434396064639e-02
9.443009408393782111e-02
9.176492448312231764e-02
8.915853171649905373e-02
8.660411189776272278e-02
8.409464648332072578e-02
8.162302822617438502e-02
7.918218542564145479e-02
7.676520241105685982e-02
7.436543435111163391e-02
7.197661454076192955e-02
6.959295249561384122e-02
6.720922154142897065e-02
6.482083453599879475e-02
6.242390687447468833e-02
6.001530599813014594e-02
5.759268691274233715e-02
5.515451354915436311e-02
5.270006589183653251e-02
5.022943320961877067e-02
4.774349386426140346e-02
4.524388249310899029e-02
4.273294529386859747e-02
4.021368460833173175e-02
3.768969408451634806e-02
3.516508558414067204e-02
3.264440950093345367e-02
3.013256994290523794e-02
2.763473631275545003e-02
2.515625294794589933e-02
2.270254831079437929e-02
2.027904530327095597e-02
1.789107417434011166e-02
1.554378944228897337e-02
1.324209202077102424e-02
1.099055776507649150e-02
8.793373424945280514e-03
6.654280847034479279e-03
4.576530070994393185e-03
2.562841875341408896e-03
6.153801193024032497e-04
-1.264266003869810940e-03
-3.075089784839992943e-03
-4.816665098448875276e-03
-6.489135103742087012e-03
-8.093192068600428210e-03
-9.630048857320603825e-03
-1.110140287732708231e-02
-1.250939336063205780e-02
-1.385655285010162739e-02
-1.514575396377365255e-02
-1.638015238018424372e-02
-1.756312723084473698e-02
-1.869821988863095558e-02
-1.978907228029013962e-02
-2.083936569869848654e-02
-2.185276121855897133e-02
-2.283284259390357812e-02
-2.378306250447627737e-02
-2.470669294488368056e-02
-2.560678045209923911e-02
-2.648610666127634156e-02
-2.734715481196927159e-02
-2.819208237083785720e-02
-2.902270017023968196e-02
-2.984045811367717557e-02
-3.064643736500621482e-02
-3.144134907035579102e-02
-3.222553928994647404e-02
-3.299899984741747061e-02
-3.376138468854793240e-02
-3.451203134951478374e-02
-3.524998681930682776e-02
-3.597403738047207783e-02
-3.668274169003157142e-02
-3.737446638966388651e-02
-3.804742363054638976e-02
-3.869970973899151262e-02
-3.932934438938137656e-02
-3.993430956586216385e-02
-4.051258770564208217e-02
-4.106219835772057652e-02
-4.158123288155123748e-02
-4.206788660591092438e-02
-4.252048802378300546e-02
-4.293752469410423017e-02
-4.331766550265562371e-02
-4.365977906397255220e-02
-4.396294810180668977e-02
-4.422647978240837330e-02
-4.444991189782161733e-02
-4.463301501025301876e-02
-4.477579068072992663e-02
-4.487846595270540695e-02
-4.494148441656285048e-02
-4.496549402389977274e-02
-4.495133204527082538e-02
-4.490000753801078048e-02
-4.481268165687130045e-02
-4.469064641910670127e-02
-4.453530202997024040e-02
-4.434813346691118124e-02
-4.413068655910143412e-02
-4.388454409106663096e-02
-4.361130230732215840e-02
-4.331254812941229271e-02
-4.298983747202170941e-02
-4.264467490092047758e-02
-4.227849501313897529e-02
-4.189264562272279613e-02
-4.148837307439824651e-02
-4.106680976805177075e-02
-4.062896397676889204e-02
-4.017571206027338582e-02
-3.970779303336054861e-02
-3.922580561246158393e-02
-3.873020744555302763e-02
-3.822131667556346452e-02
-3.769931550375577728e-02
-3.716425571934629107e-02
-3.661606602301789581e-02
-3.605456091918118194e-02
-3.547945095466909643e-02
-3.489035412237494888e-02
-3.428680818232884842e-02
-3.366828369801955212e-02
-3.303419753407156600e-02
-3.238392662779778636e-02
-3.171682183294605856e-02
-3.103222158792542235e-02
-3.032946531473529675e-02
-2.960790630990885533e-02
-2.886692401563712221e-02
-2.810593551274515045e-02
-2.732440618687874412e-02
-2.652185944687652022e-02
-2.569788536557782513e-02
-2.485214836260794466e-02
-2.398439374067466018e-02
-2.309445312443791226e-02
-2.218224882371118076e-02
-2.124779715314206036e-02
-2.029121065413050026e-02
-1.931269931280139504e-02
-1.831257084229419643e-02
-1.729123011258169168e-02
-1.624917774394905173e-02
-1.518700790511547279e-02
-1.410540547164141484e-02
-1.300514248284714153e-02
-1.188707409482851057e-02
-1.075213400927101104e-02
-9.601329429498402582e-03
-8.435735695802021664e-03
-7.256490525123510636e-03
-6.064787966763083953e-03
-4.861872163768266898e-03
-3.649030833321512211e-03
-2.427588565186787183e-03
-1.198899970867635867e-03
3.565726767501300163e-05
1.274689479404277851e-03
2.516794131299039498e-03
3.760567045097949063e-03
5.004609649812476538e-03
6.247536270220207036e-03
7.487981314909515455e-03
8.724606495152933613e-03
9.956107896103459295e-03
1.118122290382159503e-02
1.239873704083960249e-02
1.360749057947099362e-02
1.480638486519533087e-02
1.599438827981191844e-02
1.717054188298552941e-02
1.833396457273376093e-02
1.948385774331557255e-02
2.061950939972254093e-02
2.174029762573865404e-02
2.284569334155341427e-02
2.393526236503406082e-02
2.500866667383769976e-02
2.606566476622028394e-02
2.710611117921911048e-02
2.812995507600661235e-02
2.913723790978796011e-02
3.012809014714337361e-02
3.110272707031006695e-02
3.206144362183321883e-02
3.300460842457351995e-02
3.393265692492181823e-02
3.484608374992720359e-02
3.574543437967999532e-02
3.663129622777425848e-02
3.750428911960095035e-02
3.836505537943622063e-02
3.921424964793684270e-02
4.005252854999948042e-02
4.088054029157586061e-02
4.169891437297692377e-02
4.250825156187380133e-02
4.330911425244099444e-02
4.410201734984860872e-02
4.488741984616111819e-02
4.566571711838007114e-02
4.643723422552194918e-02
4.720222014341916156e-02
4.796084315305901985e-02
4.871318736076597766e-02
4.945925053907362229e-02
5.019894321544128568e-02
5.093208909271902673e-02
5.165842675048336330e-02
5.237761266934255061e-02
5.308922540563567466e-02
5.379277101684085127e-02
5.448768959724720196e-02
5.517336278080659656e-02
5.584912211377504598e-02
5.651425816810322356e-02
5.716803023888785557e-02
5.780967639789762191e-02
5.843842385589868849e-02
5.905349935177420240e-02
5.965413945151675640e-02
6.023960051003567073e-02
6.080916810528206456e-02
6.136216591771941065e-02
6.189796363655905576e-02
6.241598402379028993e-02
6.291570868962832741e-02
6.339668281471698419e-02
6.385851839383903383e-02
6.430089604224872857e-02
6.472356541720672429e-02
6.512634406927973740e-02
6.550911483641436162e-02
6.587182166148942974e-02
6.621446406475824109e-02
6.653709024727288979e-02
6.683978890958283681e-02
6.712267994233041268e-02
6.738590418295227480e-02
6.762961236990752689e-02
6.785395346600375799e-02
6.805906259177746387e-02
6.824504873252736081e-02
6.841198247674282196e-02
6.855988405270070640e-02
6.868871178710747594e-02
6.879835134488657133e-02
6.888860580000932821e-02
6.895918690752461666e-02
6.900970764804199853e-02
6.903967626173940220e-02
6.904849193863588086e-02
6.903544220271400078e-02
6.899970221756966671e-02
6.894033598329300794e-02
6.885629947094311365e-02
6.874644573986300744e-02
6.860953198237709771e-02
6.844422843107408894e-02
6.824912907158396658e-02
6.802276392693967777e-02
6.776361284082825509e-02
6.747012065186118457e-02
6.714071338852063697e-02
6.677381538865612143e-02
6.636786699954658197e-02
6.592134267753681220e-02
6.543276914306844771e-02
6.490074343690856173e-02
6.432395040926434937e-02
6.370117953422961554e-02
6.303134067734530999e-02
6.231347862660505110e-02
6.154678615905696815e-02
6.073061538241242285e-02
5.986448719811134078e-02
5.894809867554712257e-02
5.798132829719007675e-02
5.696423887981542228e-02
5.589707817661193623e-02
5.478027714112250479e-02
5.361444586476177276e-02
5.240036720479557264e-02
5.113898826437918155e-02
4.983140983670507340e-02
4.847887389987992623e-02
4.708274954693950076e-02
4.564451740729739276e-02
4.416575287593506316e-02
4.264810845124827193e-02
4.109329548647421004e-02
3.950306557690441700e-02
3.787919194617141855e-02
3.622345125039266867e-02
3.453760593465429740e-02
3.282338758834194709e-02
3.108248149450675707e-02
2.931651276482394666e-02
2.752703419954656908e-02
2.571551609718969109e-02
2.388333821779179203e-02
2.203178416901638986e-02
2.016203812526647446e-02
1.827518404532184684e-02
1.637220747926973821e-02
1.445399978699795154e-02
1.252136480514351273e-02
1.057502789194620166e-02
8.615647106729211122e-03
6.643826357559837886e-03
4.660130301169428980e-03
2.665100696071221603e-03
6.592739745806420332e-04
-1.356800322822201716e-03
-3.382540645249925391e-03
-5.417314396086222311e-03
-7.460419096821386230e-03
-9.511064135868732561e-03
-1.156835349677440630e-02
-1.363126981864451123e-02
-1.569866010516605959e-02
-1.776922342308208738e-02
-1.984150095601745420e-02
-2.191386851907721825e-02
-2.398453192790662644e-02
-2.605152522644698515e-02
-2.811271205957436778e-02
-3.016579020490140969e-02
-3.220829929467372565e-02
-3.423763169129504652e-02
-3.625104652079318146e-02
-3.824568663553943454e-02
-4.021859833947943191e-02
-4.216675370441487491e-02
-4.408707521089041959e-02
-4.597646225264180597e-02
-4.783181929283641942e-02
-4.965008518763310008e-02
-5.142826332382066656e-02
-5.316345206674365220e-02
-5.485287506441434424e-02
-5.649391100406319505e-02
-5.808412227798587235e-02
-5.962128219521792283e-02
-6.110340012468291893e-02
-6.252874436407211689e-02
-6.389586223340636140e-02
-6.520359702111194755e-02
-6.645110151739283544e-02
-6.763784785987352055e-02
-6.876363347627237332e-02
-6.982858300294608744e-02
-7.083314603628196315e-02
-7.177809072436612536e-02
-7.266449319213022506e-02
-7.349372296235016921e-02
-7.426742450437989751e-02
-7.498749504281383704e-02
-7.565605906348819854e-02
-7.627543975665039555e-02
-7.684812778556256163e-02
-7.737674785826879897e-02
-7.786402349891304031e-02
-7.831274055084598562e-02
-7.872571000665268270e-02
-7.910573054053146591e-02
-7.945555142511252777e-02
-7.977783635653686034e-02
-8.007512863403697112e-02
-8.034981836225454921e-02
-8.060411202526988894e-02
-8.084000497023322018e-02
-8.105925716491041433e-02
-8.126337261969687753e-02
-8.145358279573899907e-02
-8.163083426348533012e-02
-8.179578071462116629e-02
-8.194877960746241308e-02
-8.208989335453172054e-02
-8.221889504328627751e-02
-8.233527872802061387e-02
-8.243827399351336127e-02
-8.252686463569747222e-02
-8.259981115442044386e-02
-8.265567672740659066e-02
-8.269285621120664453e-02
-8.270960775285193800e-02
-8.270408652727859189e-02
-8.267438009230503038e-02
-8.261854473243870900e-02
-8.253464229541095099e-02
-8.242077688030063909e-02
-8.227513091510124665e-02
-8.209599992253992229e-02
-8.188182554658889056e-02
-8.163122619864505991e-02
-8.134302494303337350e-02
-8.101627422120544209e-02
-8.065027687837948711e-02
-8.024460331102424571e-02
-7.979910436803178131e-02
-7.931391986371469360e-02
-7.878948258613245603e-02
-7.822651770387725745e-02
-7.762603761798511637e-02
-7.698933234159927030e-02
-7.631795550913245130e-02
-7.561370636932468470e-02
-7.487860798933038131e-02
-7.411488196114923710e-02
-7.332492012382199609e-02
-7.251125370035571560e-02
-7.167652036126660742e-02
-7.082342977906432024e-02
-6.995472814761845293e-02
-6.907316225067132442e-02
-6.818144378276039252e-02
-6.728221427099997931e-02
-6.637801130110829173e-02
-6.547123660553522129e-02
-6.456412637034883439e-02
-6.365872442596059999e-02
-6.275685854221892124e-02
-6.186012031336328432e-02
-6.096984886898720174e-02
-6.008711872733584619e-02
-5.921273188943786125e-02
-5.834721437154721108e-02
-5.749081708310423144e-02
-5.664352108613136816e-02
-5.580504714628858887e-02
-5.497486937000684026e-02
-5.415223269172429049e-02
-5.333617386249502046e-02
-5.252554558432043219e-02
-5.171904345048868035e-02
-5.091523519730099118e-02
-5.011259171145888286e-02
-4.930951929120343247e-02
-4.850439277659051446e-02
-4.769558878866211188e-02
-4.688151864722810841e-02
-4.606066045435775608e-02
-4.523158965946206395e-02
-4.439300781843072419e-02
-4.354376891444580039e-02
-4.268290301429669698e-02
-4.180963669550401968e-02
-4.092340995960535438e-02
-4.002388950361505937e-02
-3.911097804487011220e-02
-3.818481959416985400e-02
-3.724580062950460374e-02
-3.629454716379395401e-02
-3.533191782233988804e-02
-3.435899303268191013e-02
-3.337706056672194721e-02
-3.238759760690072820e-02
-3.139224986618750074e-02
-3.039280795525401910e-02
-2.939118146329586234e-02
-2.838937117618686029e-02
-2.738944000947236140e-02
-2.639348306589655788e-02
-2.540359734503139927e-02
-2.442185161609441643e-02
-2.345025700759868770e-02
-2.249073868397565013e-02
-2.154510922884755528e-02
-2.061504404134150564e-02
-1.970205920804005834e-02
-1.880749222306761503e-02
-1.793248575931431776e-02
-1.707797485163928611e-02
-1.624467758246529378e-02
-1.543308951792559704e-02
-1.464348182533748398e-02
-1.387590313616368816e-02
-1.313018505393560333e-02
-1.240595128123933751e-02
-1.170262999588423183e-02
-1.101946940433744075e-02
-1.035555606168633326e-02
-9.709835642272370698e-03
-9.081135843508234343e-03
-8.468190976503893810e-03
-7.869667705259932380e-03
-7.284191618165870678e-03
-6.710374067692461732e-03
-6.146838860993855159e-03
-5.592248271042305971e-03
-5.045328023554897581e-03
-4.504890762251621307e-03
-3.969857581945687199e-03
-3.439277316500970530e-03
-2.912343231010262098e-03
-2.388406888833249659e-03
-1.866988832383406974e-03
-1.347786147816641428e-03
-8.306766788161751725e-04
-3.157197478350643859e-04
1.968465190931529348e-04
7.066110442332365410e-04
1.212998963235411209e-03
1.715283762093574617e-03
2.212602163821135622e-03
2.703971559407330246e-03
3.188309610752620201e-03
3.664455566026007371e-03
4.131193088322613130e-03
4.587274178037906158e-03
5.031443548103410775e-03
5.462463220790238390e-03
5.879136905817427226e-03
6.280333607413290595e-03
6.665010159980181738e-03
7.032232364790703093e-03
7.381194152066620356e-03
7.711234652528999554e-03
8.021852796514274131e-03
8.312719216255657143e-03
8.583685261566687333e-03
8.834788971867429952e-03
9.066258000272277642e-03
9.278509239121521951e-03
9.472145440207139361e-03
9.647948695980594278e-03
9.806870984565991753e-03
9.950022011234037345e-03
1.007865440295583823e-02
1.019414668376358857e-02
1.029798412328192248e-02
1.039173803223470728e-02
1.047704372444082689e-02
1.055557745658216619e-02
1.062903280979167996e-02
1.069909684897896174e-02
1.076742652447418638e-02
1.083562561768483187e-02
1.090522263958357795e-02
1.097764993921253145e-02
1.105422446094206715e-02
1.113613032358799250e-02
1.122440354741540379e-02
1.131991911497907434e-02
1.142338049861564737e-02
1.153531181491522679e-02
1.165605274805034917e-02
1.178575615029911830e-02
1.192438836374544973e-02
1.207173214782780897e-02
1.222739227652924580e-02
1.239080352370203197e-02
1.256124084138165835e-02
1.273783162236074261e-02
1.291956969136296221e-02
1.310533091348453812e-02
1.329388997956204056e-02
1.348393815077994669e-02
1.367410166636450972e-02
1.386296048244149183e-02
1.404906706948193425e-02
1.423096493934996286e-02
1.440720668350178695e-02
1.457637123562589322e-02
1.473708000822732990e-02
1.488801191217192441e-02
1.502791690604137441e-02
1.515562803154348569e-02
1.527007174213465199e-02
1.537027644930345598e-02
1.545537932890293092e-02
1.552463136112055414e-02
1.557740046313278726e-02
1.561317301728830723e-02
1.563155364658061833e-02
1.563226355197889009e-02
1.561513749131198531e-02
1.558011948211857761e-02
1.552725742095645463e-02
1.545669687116466885e-02
1.536867418561168978e-02
1.526350913917719383e-02
1.514159725170640541e-02
1.500340208988464562e-02
1.484944757482620052e-02
1.468031053789813252e-02
1.449661369645940945e-02
1.429901914784446719e-02
1.408822244952740756e-02
1.386494746966531431e-02
1.362994190272332276e-02
1.338397365046070653e-02
1.312782794224651856e-02
1.286230519543376041e-02
1.258821961010944158e-02
1.230639839652810860e-02
1.201768153569166692e-02
1.172292199082120706e-02
1.142298616503339102e-02
1.111875456025426812e-02
1.081112242003302859e-02
1.050100028658196467e-02
1.018931422229190156e-02
9.877005623089872566e-03
9.565030486710519517e-03
9.254357978361394885e-03
8.945968213998498064e-03
8.640849157204248676e-03
8.339992586833959096e-03
8.044389094737819032e-03
7.755022071201240520e-03
7.472860693869075484e-03
7.198852018687588311e-03
6.933912252446662074e-03
6.678917200990230896e-03
6.434692106288446463e-03
6.202001026088277760e-03
5.981535861333276902e-03
5.773905353748158553e-03
5.579624151801367525e-03
5.399102153267007834e-03
5.232634510450230592e-03
5.080392374719615127e-03
4.942414647959567087e-03
4.818601029402248478e-03
4.708706486223153756e-03
4.612337377103848356e-03
4.528949496543904080e-03
4.457848058164851773e-03
4.398189748392075139e-03
4.348987053951337660e-03
4.309114780195955757e-03
4.277318869747344897e-03
4.252227470763463718e-03
4.232364203057362335e-03
4.216163480642412358e-03
4.201987744281200816e-03
4.188146463304362119e-03
4.172916699610424753e-03
4.154564881232311428e-03
4.131369613430353575e-03
4.101645157506261623e-03
4.063765243056175445e-03
4.016186865832463600e-03
3.957473710691493916e-03
3.886318854664806526e-03
3.801566322700812833e-03
3.702231230363713186e-03
3.587518111450471291e-03
3.456837105064112722e-03
3.309817685688319112e-03
3.146319669813445012e-03
2.966441324104292666e-03
2.770524305523352181e-03
2.559155319015017117e-03
2.333164383442679068e-03
2.093619688839247917e-03
1.841818987360707791e-03
1.579277572126312496e-03
1.307712983548264037e-03
1.029026591117907820e-03
7.452823105487232360e-04
4.586825563042969231e-04
1.715419585139375629e-04
-1.137410299330666395e-04
-3.947141553792810585e-04
-6.689025860402913548e-04
-9.338409705597464127e-04
-1.187105865501408321e-03
-1.426347991691373886e-03
-1.649323985059441850e-03
-1.853927095296407489e-03
-2.038216409906882555e-03
-2.200444216124978342e-03
-2.339080989976653497e-03
-2.452837765893820833e-03
-2.540685425507754891e-03
-2.601870719728602288e-03
-2.635928670330625698e-03
-2.642691237350425302e-03
-2.622292090231187998e-03
-2.575167350704168998e-03
-2.502052336927804502e-03
-2.403974290866408778e-03
-2.282241199851586626e-03
-2.138426876069466232e-03
-1.974352465220647126e-03
-1.792064663162464076e-03
-1.593810905197639476e-03
-1.382011942444124307e-03
-1.159232109465769840e-03
-9.281477305176067359e-04
-6.915141213735242478e-04
-4.521316269229747812e-04
-2.128112730066255046e-04
2.365980480065818238e-05
2.545522109020722937e-04
4.772273377482396848e-04
6.891689348357500286e-04
8.880128738329060804e-04
1.071574750840293419e-03
1.237874808840286334e-03
1.385159972834605364e-03
1.511922713155972606e-03
1.616916432353789632e-03
1.699167257779348990e-03
1.757982098193308033e-03
1.792952923957504040e-03
1.803957199104937962e-03
1.791154568148377833e-03
1.754979796296788968e-03
1.696132250043684044e-03
1.615562004281997357e-03
1.514452875026051516e-03
1.394202639635831048e-03
1.256400721538984558e-03
1.102803813519605703e-03
9.353097177768048432e-04
7.559297982044233671e-04
5.667605349291065728e-04
3.699545083153952304e-04
1.676913036893218497e-04
-3.785131928270491679e-05
-2.445254778796480651e-04
-4.502402126165455979e-04
-6.529870625657987343e-04
-8.508638421631994084e-04
-1.042096347589876971e-03
-1.225057703579618060e-03
-1.398285232470672466e-03
-1.560494528765800836e-03
-1.710590648024096954e-03
-1.847676409009652455e-03
-1.971057593213247638e-03
-2.080245211960769780e-03
-2.174954805595652029e-03
-2.255102904882241768e-03
-2.320800710168007333e-03
-2.372345290373813632e-03
-2.410208348432842963e-03
-2.435022953054742124e-03
-2.447568347542817668e-03
-2.448753176385712587e-03
-2.439597477624615585e-03
-2.421213667494435777e-03
-2.394786871076134711e-03
-2.361554922675578819e-03
-2.322788314623599852e-03
-2.279770470415489088e-03
-2.233778502419690119e-03
-2.186064874984141281e-03
-2.137840172062306036e-03
-2.090257086696307564e-03
-2.044395985661122232e-03
-2.001252170828582855e-03
-1.961724958372289274e-03
-1.926608679588597429e-03
-1.896585691938887158e-03
-1.872221413496759704e-03
-1.853961426474036965e-03
-1.842130581691964978e-03
-1.836934093941693536e-03
-1.838460449738152196e-03
-1.846686121067651941e-03
-1.861481845260710933e-03
-1.882620291246792305e-03
-1.909785136227104899e-03
-1.942581155189347783e-03
-1.980545161220649466e-03
-2.023157582135234368e-03
-2.069854507021899603e-03
-2.120039962986550522e-03
-2.173098141027656176e-03
-2.228405477943683037e-03
-2.285342330268101598e-03
-2.343304029776799129e-03
-2.401711211159627494e-03
-2.460019274053403589e-03
-2.517726730692362597e-03
-2.574382450713693423e-03
-2.629591712361551824e-03
-2.683020892374946877e-03
-2.734400863630805437e-03
-2.783529014508229552e-03
-2.830269905381258520e-03
-2.874554677971218747e-03
-2.916379117042188635e-03
-2.955800547476193467e-03
-2.992933603397010447e-03
-3.027945037666052771e-03
-3.061047543499904704e-03
-3.092492883962034717e-03
-3.122564356109871608e-03
-3.151568799898799532e-03
