6.880809597708706198e-04
-1.344492883694498953e-03
-2.219593115643365283e-03
-2.559677498489641712e-03
-3.274636495872732672e-03
-4.645964409450830702e-03
-3.276711793804557970e-03
-1.823146522357344868e-04
2.561073452948934084e-03
3.946619881141837614e-03
4.030563784593938458e-03
3.163865583438183263e-03
3.209074174384190375e-03
4.181581443996068397e-03
7.404167347105603285e-04
-2.703352053685405959e-03
-4.800469025848799580e-03
-5.886091750098385728e-03
-2.940492572765736595e-03
-5.723001754848381197e-04
1.953477949535217285e-03
4.460370244865607785e-03
3.724580482811702849e-03
3.638672806597919608e-05
-2.647130680798844525e-03
-2.652808251923202774e-03
-4.386699258265197078e-04
1.405961681435430278e-03
4.488093921041953500e-04
-3.982065801128204809e-04
-1.425023564265966939e-03
-4.790412002848231602e-04
1.692791260446778858e-03
8.320462785229278341e-04
-1.982609905788651743e-03
-2.015232980335781784e-03
1.236572715086128459e-04
2.596315582168967628e-03
4.473972464072615944e-03
2.991049803195567312e-03
1.634107757104942419e-03
-5.365473345644238652e-04
-2.474716798732233200e-03
-1.907609108591603372e-03
-3.419804911657800279e-03
-3.497510869435460808e-03
-2.582400463544795750e-03
-1.410671706476215263e-03
-2.236649149511441698e-03
-9.025240505689860991e-04
2.475343466108417996e-03
5.637434275144502863e-03
9.364641050438986258e-03
5.573622908351217459e-03
-2.533772067755012320e-04
-3.867873981554964015e-03
-4.540403617606432289e-03
-4.140355021190944909e-03
-3.011240666331618451e-03
-1.339613449961337636e-03
2.984680813605732237e-03
6.283956550534195752e-03
3.367019868776263778e-03
3.478649122796730032e-04
-2.138235291560377452e-03
-6.188224112788134716e-03
-9.461046294349104852e-03
-6.859385680701755340e-03
-1.063614840171526153e-03
2.191161322540037711e-03
4.940501500476890753e-03
5.538379446571412186e-03
7.958522653612220762e-03
1.065192525244773938e-02
1.020925821487794240e-02
1.975704997249190346e-03
-8.801900689725673799e-03
-1.016867281961488824e-02
-5.117630343653968746e-03
-2.423977324984019632e-03
-4.277624564564970998e-03
-7.346967802444624891e-03
-6.440535583902436655e-03
-3.085790432957270985e-04
7.282512770459856170e-03
7.847165449891016498e-03
4.193626583762125222e-03
3.244525286993395902e-03
2.603318783589750676e-03
1.689968796406611691e-03
9.774566931640012689e-04
1.383322554625722933e-03
-9.145253229631615478e-04
-2.876144597657568150e-03
-2.376201447493775203e-03
-1.098309716715041486e-03
-4.073735659115152417e-03
-7.014999261138722686e-03
-5.471871443607145488e-03
-1.853564419503591406e-03
-1.466717851602815804e-03
1.363455313921129938e-03
9.858575377566257403e-03
1.364250754805869902e-02
1.116867739081474006e-02
4.685143163129331344e-03
-5.240045853894460164e-04
-4.981148683642780753e-03
-1.119101960901921176e-02
-1.371308695516731090e-02
-9.224845375749541471e-03
-3.322392395186660381e-04
3.973055765565462229e-03
4.637557323960398055e-03
5.063703966418185189e-03
4.084081410665181371e-03
-1.298893437415131642e-03
-4.475178595366165885e-03
-1.744588209090900668e-03
4.169652065869984200e-03
7.780412691482642418e-03
3.277144983953409699e-03
-2.808358093007624554e-03
-3.043216861084103390e-03
1.908234243842128319e-03
2.221727660060662541e-03
-9.395183024695164193e-04
-4.421814868180330184e-03
-4.449330276254125083e-03
-2.876473129999463502e-03
-1.540076914530617933e-03
1.708127494630088446e-03
4.149968600196056456e-03
1.402410837942446968e-03
-3.583404973651544909e-03
-3.730640954674087524e-03
-4.813261071813102062e-05
3.705901205008070576e-03
5.292431655175932823e-03
3.225632397602622246e-03
1.196126962892803732e-03
8.990034062197489175e-04
-2.085067848963727787e-03
-3.792024333678418839e-03
-1.942818389802739151e-03
-1.739474859502542457e-03
-2.993779259975828965e-04
-1.150128208427067316e-03
-1.564529174409456762e-03
8.777239419212448440e-04
4.169398434116926809e-03
2.485281483591493881e-03
-3.905546463691956225e-04
-1.288032383918248256e-03
3.660678398774361297e-04
1.481389811910250893e-03
1.887045686608941858e-04
-1.106094736745692406e-03
1.839019003711473300e-03
7.613460816844747070e-04
-2.826557415138152961e-03
-3.280994126155208860e-03
-2.728126829875000738e-03
7.479491172655962177e-05
1.803658296950020430e-03
1.584387000237677100e-03
6.849610509447309542e-04
-2.343107766854026224e-04
-9.714215288549771536e-04
-8.702456647884346556e-04
2.610679319271599257e-04
1.639570293078963900e-04
1.146524280897513043e-03
2.147729465552791761e-03
1.788832268558690659e-03
1.425899632086222125e-03
4.214300977079606819e-04
-8.010489202836107697e-04
9.250620632066886223e-04
1.289995102960974326e-03
-2.485807841484055647e-03
-6.460336214011170447e-03
-5.003022578237329744e-03
9.665508131497627413e-04
2.452323204008298278e-03
1.606059057787722700e-03
1.806463570528460752e-03
2.773301110730803584e-03
5.643551979963513021e-04
-3.729808536325800433e-03
-4.445963568690388008e-03
-6.580557612085210758e-04
3.973823814723226842e-03
6.695623527104405635e-03
2.607483816781305200e-03
2.287955055950956370e-04
1.382519127481259837e-04
6.229893659668934080e-04
-1.554553554064159321e-03
-4.896735830906070661e-03
-9.576424099864406722e-03
-5.686163737988410120e-03
1.432026218447437528e-03
5.833204034345397006e-03
6.764840386049674262e-03
3.780755816679039726e-03
1.926478160802234073e-03
-3.166440207263855459e-04
-1.418506006950673044e-03
-2.139785000995723420e-03
-9.525287123300700499e-04
1.098366672972821824e-05
-1.569633969941212057e-04
-9.853029528844811386e-04
-4.704914014145357448e-04
1.567031026207667960e-03
-4.846691204948324456e-04
-2.466009314693135175e-03
-2.807214790621000242e-03
-1.310060575412582209e-03
1.917142720553966905e-03
2.946488379309139365e-03
-7.851654650811930617e-04
-4.087066143998923447e-04
1.791590597719450563e-03
1.073900163031796424e-03
1.987599479617269561e-03
2.962678266419537312e-03
5.843222383934697532e-04
-1.095869434843658660e-03
-1.389303636704029062e-03
-8.292860011122892309e-04
-1.166061703568749839e-03
-2.005291664823101276e-03
-6.516107423749189749e-04
1.180368062139419260e-03
7.247216239432715092e-04
-2.783461577601848390e-03
-2.462923831930358479e-03
3.429113388398901167e-04
4.882609248797542892e-04
-9.077623527332466915e-04
-2.799041239130282033e-04
2.275527607593870894e-03
3.301927367273336383e-03
2.540436207180744865e-03
1.707003495095239885e-03
-5.440787767931012280e-04
-3.126946373163477788e-03
-5.395520757029547559e-04
5.057976451490528826e-04
-3.000318735055968757e-04
-6.758762423263237800e-04
1.315414794730389021e-04
4.335196213192020281e-04
-8.482601328939024931e-05
-3.638722567493840707e-04
-1.326206484493648238e-03
-3.837827534907484119e-04
1.084370894472415922e-03
-1.811571623920911565e-03
-6.945702044838768761e-03
-6.094374123201223153e-03
1.075152911493175624e-04
7.657314946339008159e-03
1.391357867987317795e-02
1.347705840793237200e-02
7.044664807599856741e-03
1.958853212143751659e-04
-7.736400676171610070e-03
-1.160067958498096560e-02
-8.351600736861614083e-03
-8.029679021951081214e-03
-1.377046070304482547e-02
-1.585745000723674802e-02
-3.175646542950528138e-03
1.556483050220526694e-02
2.401955421044724148e-02
1.879345289714559608e-02
7.749934327141776332e-03
-3.424090845828778838e-03
-1.076205495261678760e-02
-9.573143995463162526e-03
-2.828215252681931177e-03
1.747448545375086641e-03
3.126848814457374587e-03
3.022570292737776325e-03
5.545149624046908634e-04
-1.638735317227739624e-03
-3.954128919861770418e-03
-4.325143390545209930e-03
-4.016000843826887309e-03
-9.057314964472192769e-04
3.950489286502901869e-03
3.572810300353881571e-03
1.685401489050171019e-03
1.115455525278323881e-03
-4.841595907630384340e-04
-3.468564950569093426e-03
-6.206587121040116686e-03
-3.713666636766446011e-03
7.448319940584038944e-04
3.581444599635151028e-03
3.932129935734319376e-03
5.024672195486345853e-03
7.004344297042022945e-03
5.102945236179563977e-03
4.756575973324985037e-04
-2.081880619494361987e-03
-4.654200504480544842e-03
-5.058156743625454033e-03
-4.005805792207354707e-03
-1.739923623986953244e-03
2.931578281422132239e-04
2.098580162379473971e-04
-1.257816744423376383e-03
-3.204714689091125741e-03
-5.013158688981647106e-03
-3.305472225861849460e-03
4.693939069346579097e-03
1.367657359999934624e-02
1.390767733000959627e-02
4.041243479245184254e-03
-7.659301174444267495e-03
-1.033806050165693782e-02
-3.513435035451267004e-03
-1.194923616259889552e-03
-5.941305417540060710e-03
-5.961375335814261475e-03
3.521980231905326615e-03
6.535584919423399926e-03
4.041061185690257747e-03
2.028869437312315685e-03
-3.868817900010407111e-04
-4.419629694542831348e-04
3.753911512062591677e-05
1.807504563104929147e-03
3.629983730102552455e-03
2.886370291557100592e-03
-2.282855266769853037e-03
-4.734613902330053921e-03
-5.257065656741931672e-03
-5.395566649222313139e-03
-4.094852749891966619e-03
4.690625642622324953e-04
4.477858509228759346e-03
5.791916974573798650e-03
4.710034483052402861e-03
3.509240389984096074e-03
6.454143828818354736e-04
-1.921990428441850297e-03
-1.169517838522962346e-03
-2.009710811889005300e-03
-2.944908277605084741e-03
-2.931048108458708928e-03
-1.986061358866190139e-03
4.896551329865984859e-04
3.882374931393453750e-03
4.533533294688751013e-03
1.995047095976559826e-03
-3.107781842858651795e-03
-5.872819358470201916e-03
-4.751572442062315486e-03
1.278187944236349230e-04
4.517297046763584303e-03
5.997760385706355293e-03
3.214347113364016736e-03
1.215971211292657568e-03
-2.125077374999367451e-03
-4.057902135882284107e-03
-3.665573644300452062e-03
-4.904790068591503372e-04
1.957248803492548511e-03
3.219478145483484210e-03
9.212361877683108286e-05
-3.151263547162861962e-03
-1.320670606732974543e-03
2.382529683373876567e-03
2.926773641277582820e-03
1.232132903195800201e-03
-2.391158677896737441e-03
-4.886041464560245129e-03
-3.500866001667101400e-03
1.310616612683534240e-03
2.378577902996145514e-03
3.363455450249327842e-03
4.411703798758612530e-03
3.376169306445833164e-03
-5.212609101292255175e-04
-5.467618625025579514e-03
-5.683774325581307518e-03
-1.951252085390540666e-03
2.203754838946207252e-03
2.952442011917970951e-03
8.937431410589214992e-04
5.964288268685924519e-04
1.748858565539351080e-03
8.374127686464582750e-04
-1.681808111034727117e-03
-3.366584063819607307e-03
-3.756043575405273050e-03
-1.777261561161768344e-03
1.507100923926584912e-03
2.287078303831073696e-03
4.532653190279911821e-03
5.802289558109043760e-03
1.820689433015183073e-03
-2.686273151019067350e-03
-4.060249358604433624e-03
-1.691496444073030316e-03
-3.052552121907287368e-04
-1.720197773469213289e-03
-2.711360444246344471e-03
-1.571696988797673545e-03
-9.707475386095804602e-05
3.583117578384121659e-03
6.153089032418640296e-03
2.769834339360165501e-03
-3.479151570347088773e-03
-7.529248281199218094e-03
-6.460880398018360032e-03
-1.638104442864786979e-03
5.103661789422273866e-03
9.777040051587838898e-03
8.682942949527013357e-03
1.005106389245448775e-03
-6.304472605006042861e-03
-3.708942918410573081e-03
-7.481203838011503795e-04
2.654633422770767172e-03
5.365270431518932674e-03
2.146020155234409747e-03
-4.132334992768024566e-03
-1.057380999346156994e-02
-9.372728808469281414e-03
-4.904683583092348670e-03
-1.981479158864328342e-03
2.839372996791385707e-03
1.056466094866088598e-02
1.258456324763560473e-02
7.296495146654574833e-03
-2.037173017336195609e-03
-8.665801575837657825e-03
-4.487692998176561962e-03
2.668089708369544995e-04
-6.851222331990780264e-04
2.416579966970622251e-04
2.413855031403073516e-04
-2.992995715303491924e-04
1.439220684772490183e-03
5.220553473120892463e-03
5.621011991756855869e-03
7.328473491795488943e-04
-1.878539303609087991e-03
-3.173633672953677515e-03
-3.172758363928033024e-03
-5.377155927941294766e-03
-6.544089292470703367e-03
-6.911739245523877348e-03
-5.626270516570724620e-03
1.386826943234458279e-03
1.118978710289329249e-02
1.336460637819634860e-02
7.703960232691058410e-03
3.894659350768382516e-04
-5.167707518794793266e-03
-6.191887403588247976e-03
-2.220456519479862764e-03
1.541478461208436231e-03
1.090495770241779998e-03
-1.641662373277697276e-03
-1.378704967698575262e-03
-1.245642447002965822e-03
2.035645169670348940e-03
3.806542953684493354e-03
1.393352100860554979e-03
-2.074492787244453483e-03
-3.001458706266946219e-03
6.938142913342761021e-04
4.088293258023617018e-03
1.360352293158356317e-03
-4.443173427165071458e-03
-6.747210038620909435e-03
-4.757294784900964989e-03
4.741041633752548525e-05
3.147141205858876821e-03
3.232487028356380646e-03
3.677530437811441975e-04
2.546977455172861823e-03
5.700636378006732931e-03
3.611016804432530883e-03
-2.781104501401172706e-03
-4.460523098187324682e-03
-3.104242299519001727e-03
-5.504335010984249274e-04
5.324306315921239693e-03
7.027671641578484875e-03
1.035088154405006773e-03
-5.188196744959868052e-03
-8.595894431280315037e-03
-8.270322659428633316e-03
-3.591493174718016386e-03
3.166780352802885112e-03
5.001975899982850048e-03
2.842800789086008268e-03
1.271859620685439427e-03
2.113034956275676012e-03
5.039586031920854393e-03
5.285204584112314884e-03
2.801458524953985389e-03
1.041409085315119203e-03
-3.105227665602365659e-03
-7.250888930578568668e-03
-5.945113746289427091e-03
-3.944596425240983785e-03
-2.324780589354286976e-03
-4.631689476932658437e-04
-1.613582425503890167e-04
3.017004078015170167e-04
3.112449886586239958e-03
4.813250670456293602e-03
4.536535062965192482e-03
2.016649299929342345e-03
-5.820748960270878377e-04
-2.023574625416404201e-03
-6.265923581612229364e-04
-1.282404578655868023e-03
-1.567257650917351988e-03
3.255529247577345297e-04
2.078854740659026937e-03
2.594945183762551594e-03
1.540595652557169397e-03
-4.159819498738855266e-03
-6.283920981387128811e-03
-1.331372126565007110e-03
2.763040462127400176e-03
1.888019018227295219e-03
9.427662495533234736e-04
1.628472196040986562e-03
6.155443076041807208e-04
-1.608089130853691210e-03
-4.095759620764561314e-03
-4.070717489493405616e-03
6.303815724375757016e-04
5.451864117360576828e-03
6.136282840224512210e-03
2.385462867425929348e-03
1.217472623002699168e-03
-1.219906009891632230e-04
-2.560756361934864861e-03
-4.129501665635399929e-03
-6.215552003991487752e-03
-4.101000372207944632e-03
6.749772788851211315e-05
-4.335719793603682475e-04
3.692725765905122744e-03
5.870550188317113192e-03
4.401344888214927566e-03
2.920850983079270775e-03
2.007576172852904364e-03
-3.570481690337505933e-04
-2.376331754905571404e-03
-3.774633979810356442e-03
-2.894071265064605044e-03
-2.489626150265570811e-03
-2.097996076257913154e-03
-7.842223530051415032e-04
-1.110883406323375346e-03
-2.580399767993946797e-03
-2.555439683210397606e-03
2.056991143486085194e-03
5.339439405446942156e-03
5.481697877630847988e-03
4.930177965051526535e-03
4.588693113480240421e-03
3.515085081643550685e-03
-1.588829896168082061e-04
-2.507307287384001430e-03
-4.178740330762697845e-03
-5.811332630560465604e-03
-7.264033926703960566e-03
-7.765687691468530288e-03
-3.778281031513221373e-03
2.608198179178540868e-03
8.553525896805070500e-03
7.408909333577446028e-03
2.290406004952820311e-03
-1.861835291172876661e-03
3.311812069417415471e-05
1.291828715406682536e-03
-3.610499593403439862e-04
-2.030466571583850865e-03
-1.906736288425285412e-03
-1.248111589180589615e-03
-1.022227291295220268e-03
1.147754858486347944e-03
4.119323055955758511e-03
3.081347701211782121e-03
1.154925684964675913e-03
8.535058355287221182e-04
1.342067247535464521e-03
1.189779476726201234e-03
-8.612437552948751804e-04
-4.365232460140692182e-03
-5.949003234120291313e-03
-7.856392011549960877e-03
-9.100847201219572705e-03
-6.844833507202953936e-03
-5.289178888523428075e-04
8.727267201836690080e-03
1.384077559291230046e-02
1.350434961395225938e-02
9.127814501204830830e-03
5.141109640661279713e-03
1.215187022287849035e-03
-3.458334922148944418e-03
-1.107275267068616280e-02
-1.619294098891558079e-02
-1.352806823519657822e-02
-4.181458487713862228e-03
8.013961162001799129e-03
1.130658867020606709e-02
6.316829825678832097e-03
1.149768414307823089e-03
-2.189518984880206576e-03
-3.832261196132437549e-03
-1.013255400288238985e-03
2.924616459095297476e-03
3.564713882912212261e-03
1.977619321071411550e-03
-7.715067016703655101e-04
-2.647232816831138658e-04
5.893151780629414310e-04
-3.102163984779349876e-03
-6.160026217325522031e-03
-5.997170998767574306e-03
-1.772634475244398559e-04
5.344406184611542529e-03
5.527060897931299933e-03
3.566950454996346311e-03
2.351392995105864789e-03
1.254485543650674020e-03
-3.521588995963102439e-04
-3.249898998908808297e-03
-4.861067553663123327e-03
-4.129526223835797670e-03
-1.366550212153316846e-03
9.867499492908532628e-04
1.258135749348919356e-03
2.815561547691193892e-03
4.147594211657267341e-03
1.914018622657801157e-03
-6.624637449353147850e-04
-6.627284278047717659e-04
-5.062167681630655794e-04
-1.083922423613281356e-03
-1.758044484433502483e-03
-1.735474384848107897e-03
-1.289491032782699980e-03
-2.677216250843267656e-03
-3.581196212487574009e-03
-1.219065475907669790e-05
3.158254134652059564e-03
3.485476989849050754e-03
2.779798417043142199e-03
3.443020343266034282e-03
5.264790285742808849e-03
4.052382233658044508e-03
4.861538384290245234e-04
-3.230182070217399448e-03
-6.413054556460752974e-03
-3.939810945868747229e-03
-4.320983933075156339e-04
1.346268164452167019e-03
-2.705401417722685616e-04
-3.713639461730098949e-03
-6.165246943598296815e-03
-3.868659385873266052e-03
8.252573685540275778e-05
2.754250123789456738e-03
4.413382622179788141e-03
2.108527346716236681e-03
1.257154895046065819e-03
8.369232899539316836e-04
1.467786564487694005e-03
4.647089755257376685e-03
6.494872491782971609e-03
4.930372086946621484e-03
1.358647325770818244e-03
2.236976314654699706e-04
-3.033356943265682650e-03
-5.939526520766150348e-03
-5.997103985263214053e-03
-7.083082406821688409e-03
-8.609973385257870676e-03
-6.593064978205854902e-03
-6.733389795892760115e-04
3.127863287125096092e-03
3.536610571958595864e-03
2.182706529167517066e-03
3.434764171055701594e-03
1.026994873115330380e-02
1.556944729590020726e-02
9.897791881947393122e-03
-9.474572875793472364e-04
-8.288992156465472758e-03
-8.342495019444791382e-03
-6.784086190443384956e-03
-8.517860692343736523e-03
-7.751396427149367767e-03
-4.625372950998177767e-03
-2.316025345152105015e-03
3.640766569414513945e-03
7.946688990455906890e-03
5.450401800938955467e-03
4.261843660216256199e-03
5.299117516308148902e-03
4.116044992238745287e-03
-2.480036472154012310e-04
-2.518665873679395983e-03
-9.467329770749563587e-04
1.783643331422791675e-03
6.994700603850928641e-04
-3.518122428433739703e-03
-5.746910027074240458e-03
-2.978686385943076029e-03
-1.944668712276962329e-03
-3.550162305812631230e-03
-3.791449775957511908e-03
1.662703445734247873e-03
4.037473057378909540e-03
3.875360790160209401e-03
3.094297237849283431e-03
1.166169333028386872e-03
-5.966040063347281274e-06
1.924393366683527663e-03
3.030850020450196955e-03
-2.004054992478937480e-03
-5.545292294801628698e-03
-2.262929076866847418e-03
2.477292152927806565e-03
1.618686304432419634e-03
-1.071910712400930268e-03
-2.598309247526388310e-03
2.167050351385639995e-03
6.295669078443043125e-03
4.387008078612079920e-03
-7.135042699248644741e-04
-5.692059963303511792e-03
-4.626040112251083962e-03
6.433830721070532685e-04
3.107177702176914733e-03
-1.934661685873890515e-03
-9.856062752080084477e-03
-9.760772989869014038e-03
-2.341354919270152539e-03
5.148332906476167821e-03
9.718231816999751624e-03
1.141333918198730001e-02
1.239224303323949172e-02
4.564832961810855357e-03
-7.365889722206741923e-03
-1.230819042428373325e-02
-4.982177931815104203e-03
3.406260290011653945e-03
1.346617288001673331e-03
-4.202110775960364759e-03
-3.218279222521980114e-03
2.126789924205483434e-03
4.184546411635876352e-03
2.647312266497678715e-03
-1.708051269869168606e-03
-4.427181630629248126e-03
-3.330971515449945158e-03
-1.417438657932382651e-03
3.052917253928034459e-03
3.888076433922954284e-03
-9.855926467492465842e-04
-3.881965994460734488e-03
2.813598354018853240e-04
6.045459860935470907e-03
5.495286992140950393e-03
1.229028930193551156e-03
-1.880783695514144562e-03
-2.330834857256334873e-03
-2.289067064727942288e-03
-1.945409649422080072e-03
-2.713320074999763854e-04
-3.575423483444620265e-04
-2.392773155744177919e-03
3.049260768754829902e-04
3.741326659928310896e-03
1.028227186288861988e-03
-1.747513737095376940e-03
-6.304676452268855990e-04
1.320147427267764169e-03
4.386401062069488497e-04
-2.054639494994043181e-03
-2.342908796757419906e-03
-2.699861769073998619e-04
3.100090171448874853e-03
2.582895452185665196e-03
9.272812311174567302e-04
-1.408408376255100309e-03
-2.594178129091793614e-03
-6.486577363550891746e-04
2.594296855271398250e-03
2.096810486697339715e-03
-1.586182067408583381e-04
8.647350882946779321e-04
2.890309823864875495e-04
-1.418313473511547719e-03
-1.343193527412213416e-03
-4.653525791012036623e-03
-9.189045950253126038e-03
-3.937783775777028809e-03
6.851645451826558764e-03
1.068515164406001056e-02
5.282720686785852444e-03
1.322718294505380657e-03
3.163457438818189304e-04
8.655868843102299719e-04
-1.180529644406977906e-03
-2.802829346255283731e-03
8.527862029753598442e-04
-7.620315270619688669e-04
-6.585952191451012114e-03
-6.081711928601085844e-03
-2.927756884944935690e-04
2.274799617797806494e-03
-1.534044400608996746e-03
-5.408886616091217008e-03
1.689614787263284817e-03
1.095656942289741781e-02
8.690651367808903752e-03
-1.890132706883640261e-03
-6.296396645850022011e-03
-1.350330552460437920e-03
6.647441861158199898e-03
5.736333314273099442e-03
-6.419485900336924103e-04
-2.792558246771418944e-03
-3.834456253331416584e-03
-6.876831024637954787e-03
-5.095857093459273818e-03
-3.471908392576320197e-04
2.480935059288294844e-03
3.096329134650463617e-03
2.596245251470291702e-03
2.598855008183976133e-04
-4.646860678684179059e-05
9.716149972035296968e-04
-1.509127166472905637e-03
-2.700277959438357814e-03
-2.090705210775204576e-03
2.121689596318060314e-04
2.258498003173952696e-03
3.457657251341437511e-03
1.524600476334519008e-03
1.085102447708448311e-04
-1.277406297543083949e-03
1.290968993776784582e-03
3.792268227919538392e-03
1.435556637187741964e-03
-1.263773985906155480e-03
-1.922572009001319217e-03
-1.352587354277755500e-03
-1.114266425091126403e-03
-1.224354497922131024e-03
-2.595406712041095545e-03
-4.289322869892722885e-03
-5.655877528544958795e-03
-2.369883733987152886e-03
2.118431558784771539e-03
5.120882614107212343e-03
3.330332175132138910e-03
1.511345160621708952e-03
3.645075681003813461e-03
5.755209211475154074e-03
4.606067768124934465e-03
3.199486976198063441e-03
7.105634504240213164e-04
-6.371985659008772181e-04
-1.360461939072706624e-03
-5.927259796184198258e-03
-1.145770431086885928e-02
-1.534866628928528536e-02
-7.338579937538291381e-03
5.006540212446077519e-03
9.255260725577864681e-03
5.800464693854215370e-03
3.270380874643005406e-03
2.038611512431921617e-03
3.523690451307961817e-03
6.063905363147475275e-03
3.236906803117367212e-03
-1.032631972883110878e-03
-2.997102894304189049e-03
-4.419740205824731517e-03
-2.648181340707597003e-03
-3.713321191423178528e-04
5.375537033419664282e-03
6.739203630565856508e-03
3.141630239089942037e-04
-9.037233770574134434e-03
-1.321681184271766493e-02
-1.019792130655465361e-02
-9.766434317660024206e-04
7.827712894736518073e-03
8.998657291087969884e-03
1.578031244224831903e-03
-3.651941116999579857e-03
-2.184134520647020190e-03
2.068950862278435242e-03
5.619390120622559832e-03
5.858631792376738437e-03
6.703711144214945759e-03
6.852175562116675535e-03
3.146853901264007672e-03
-2.699421764277714058e-03
-6.990295944160957418e-03
-8.458032671843879885e-03
-8.099592664717198895e-03
-8.252945428965270669e-03
-7.252609607649368462e-03
-3.702907875008465931e-03
4.432458976978050774e-03
1.097198434999334393e-02
1.035647128790679813e-02
4.200383400685660240e-03
-1.005444054559659177e-03
-2.750117694079565363e-03
-6.754335638579248924e-04
3.707098050679142882e-04
1.000121819889676823e-04
-2.665698660981011443e-04
-4.377977447891402154e-04
-4.386389482184212458e-04
3.705109726416803553e-06
1.463629710455171184e-03
3.958892848137200433e-04
-1.095207740298593862e-03
-1.813989296046449300e-03
-2.234014846195091740e-03
-7.168109757484289306e-05
-8.146228903455520398e-04
-2.769181765357051506e-03
-1.182537445310647296e-03
1.072900685028243444e-03
2.040516946810200152e-03
9.805395061388700716e-04
1.570519733419745330e-03
1.831378793836504603e-03
9.917747374529604139e-04
-8.178831331463813333e-04
4.868652943707918023e-04
3.333341498645214611e-03
1.410275777662029070e-03
-2.442711869404616196e-03
-2.333985188663342120e-03
6.142106622638517392e-04
1.474821777467025729e-03
5.228231019593524787e-04
-5.762393552992795638e-04
-3.341875314896581694e-03
-6.527272566820156545e-03
-5.662946700828288930e-03
-3.283557096001820524e-03
1.900553399047300984e-03
6.604465851429867917e-03
6.623899764033466635e-03
5.068832015609738006e-03
3.814186918408633657e-03
7.511928317380580115e-04
-2.940474250502164038e-04
-8.670975273329039831e-05
-2.606183201841623040e-03
-6.802043280165589317e-03
-6.895312699656096743e-03
-5.040434864186365584e-03
7.304858143050472303e-04
6.741910394299168233e-03
7.793615864113398288e-03
3.110276483779405351e-03
-1.218004623471667484e-03
-1.391001854902707870e-03
-1.085582239733802121e-03
-1.841412151723743982e-03
-1.686344094299397712e-03
-1.238907034613259336e-03
-1.982944128739780169e-04
1.739970611808862441e-03
1.831545368113114821e-03
-1.598074917904009854e-03
-4.577503351261422854e-03
-2.068963589650701148e-03
-2.478630281472838355e-05
1.547810384877484425e-03
4.770384481389922625e-03
5.652798535557491261e-03
5.232834772670706507e-03
4.390650463672148701e-03
-4.195299512897602092e-04
-4.651820778204641439e-03
-7.564788085809532464e-03
-5.655180212170857375e-03
-2.267792282449943020e-03
-4.237932887804968241e-03
-5.109016969193039270e-03
-1.922153003037417769e-03
3.556220887509163511e-03
7.267817780763962364e-03
8.500615921754568066e-03
7.746591067289437631e-03
5.172447594582229094e-03
1.616264444102912825e-04
-5.173381508339802010e-03
-6.138544525351394450e-03
-2.623648033848378653e-03
-6.218431452120798441e-04
-6.274934628904225162e-04
-3.735656328615359709e-03
-3.094850457822430692e-03
-6.911968352307516815e-04
2.798609656486268095e-04
5.991400709614253884e-04
3.494683600338535125e-03
5.025461832599578856e-03
3.844258938404202137e-03
3.179579614968476835e-03
2.595373228862581875e-03
-1.773839351752390923e-04
-5.424910714630631382e-03
-1.160235354466461824e-02
-1.212968576010163731e-02
-5.159365792082391822e-03
2.299801803100726301e-03
8.567980751723477950e-03
1.286381663152474063e-02
1.163847152660427500e-02
7.882722274596756784e-03
2.737838901427307181e-03
-1.598079406236788645e-03
-4.759082757499488898e-03
-6.673875551988715273e-03
-9.843505525479502583e-03
-1.048246588431335502e-02
-5.380121677075371325e-03
-1.055519966322064455e-03
4.291608028048880959e-04
1.155432127848210391e-03
4.896440208413347511e-03
6.729186028723325649e-03
3.399041637417480125e-03
2.617788061449455132e-03
1.541473529726770063e-03
2.482809438935070466e-03
9.285680552915990215e-05
-1.737105243555738692e-04
9.341439816226789654e-05
1.422392972522188836e-03
9.745523026661880679e-04
9.460528871973776987e-04
2.931605004543304856e-03
-1.222007257764798870e-03
-1.048781100593045891e-02
-1.480658301199300371e-02
-1.049705375305678284e-02
-4.113233486305870241e-04
1.017838198862159801e-02
1.021339289776367065e-02
4.810763529560973216e-03
3.046379084550932329e-03
4.366738440469426774e-03
1.482912767193494789e-03
-3.610122253670847679e-03
-5.126536830090068844e-03
-3.100619315096536308e-03
1.346860878435161921e-03
4.334492315485054433e-03
3.802832471195688284e-03
4.354957877892320591e-04
-3.402935419208447630e-03
-2.592600545703298981e-03
6.767377642812871926e-04
1.183246991786044561e-03
1.510613626678582134e-03
1.484513620725797553e-04
-7.591800947099709533e-03
-1.111559014901335185e-02
-5.759298329905995252e-03
2.320111071906848232e-03
6.969971892462006359e-03
6.457094301473666371e-03
3.305657586710168336e-03
3.831608709907963380e-03
4.709766399711551831e-03
3.042662781791250458e-03
-8.915688699485791293e-04
-1.498739455018421613e-03
2.360084815718071246e-04
-1.107739913090495954e-03
-4.848872891765374817e-03
-5.722910429786919918e-03
-2.420516340199792109e-03
1.959261638056293900e-03
8.268899283803494071e-04
-3.690359286522134838e-03
-2.428471234029580626e-03
2.957436568751310290e-03
4.261427925201378974e-03
1.523089164316322741e-03
-9.444408046049916324e-04
-2.340700116355912130e-03
4.169030022200222239e-04
2.467043953801228030e-03
3.362454457383741088e-03
3.102143757011854592e-03
1.216614146133086511e-03
-1.856946323262585481e-03
-4.314136761275178845e-03
-3.437958760579997060e-03
-2.085655643931751664e-05
2.644485477026809243e-04
-1.384069811568524764e-03
-1.169242938554000818e-03
1.202146542675662294e-03
3.587493015786209771e-03
3.391948283113668458e-03
2.146185326935512623e-03
1.997339922696454717e-03
-8.515365186729982822e-04
-5.307050140926230543e-03
-8.589676403739081312e-03
-7.455433478038674643e-03
-1.250085713767741698e-03
5.340392833080539678e-03
8.083397601008365449e-03
6.551942239401388306e-03
4.121086351993153742e-03
4.894325935945325083e-04
-1.453968727143376688e-03
-1.425599205922965145e-03
-2.811906237541361448e-03
-3.967527352547677022e-03
-1.873249720201401562e-03
1.306206279112097010e-03
1.734238434934750684e-03
-4.504186404321579990e-04
-2.201372317203680474e-03
-1.684972924826612286e-03
-8.757367637283143200e-04
-6.757623973628774103e-04
-1.375323858757253152e-03
-9.775087756769915842e-04
6.019547550442593507e-03
8.173641450437942740e-03
4.105530619241575148e-03
2.106592069982034395e-04
-1.698347810841377339e-03
-4.235844387545270075e-03
-4.673907151854839181e-03
-4.704815090794922140e-03
-4.183020548804186091e-03
-1.124871442528083999e-03
3.559759263710703461e-03
3.470735876676703420e-03
-7.736102307997506098e-04
-3.676237953268393210e-03
1.626121665331321624e-03
6.271246575904968097e-03
7.338584160847150262e-03
5.562076405365952610e-03
3.960677462898949328e-03
9.776682928770968201e-04
-4.324345338328682183e-03
-1.118825972053188143e-02
-1.166366355103600622e-02
-6.930912139931784920e-03
-3.792559848038907361e-03
-9.454280302408462873e-04
6.349891869654910237e-04
4.092588161414308437e-03
9.660460323584630499e-03
1.236220531816879971e-02
1.009214385621035395e-02
3.612447730436465186e-03
-1.919381496074717280e-03
-2.285485510177048037e-03
-4.727797522289083239e-03
-7.644221268684723430e-03
-5.309658735200384165e-03
-4.500740817956976059e-03
-6.791109937715096578e-03
-5.956172772959512397e-03
1.038684899027979454e-03
7.777650669656653581e-03
8.764808778153986360e-03
7.200553597200287648e-03
2.312605308677494718e-03
3.403923911681222699e-04
1.260475202120519157e-03
2.451471905851857272e-03
5.295314682297679694e-04
-5.442171366764766982e-03
-1.165974104771111408e-02
-1.125344737070332890e-02
-3.441535745182908342e-03
3.722215627527914253e-03
1.272412420906018221e-02
1.415608820740859967e-02
6.548073404757725341e-03
-4.550300774562462090e-03
-1.175941172967618839e-02
-1.395781009115101834e-02
-7.586033033164098910e-03
4.806116908853690257e-03
1.104660900251479110e-02
8.258254933397766659e-03
4.228888600958473180e-03
7.778730864582936470e-04
-1.207743791739076481e-03
-9.196570284647786781e-05
-1.572731525021197696e-03
-4.333675251864552158e-03
-3.853941055563783226e-03
-2.474897934033178700e-03
-3.904182355580939224e-03
-2.685844230776282364e-03
3.287347573620148268e-03
6.974504847770536357e-03
5.765564635158885488e-03
3.921677978239049810e-03
1.741279026967832138e-03
-4.134034626060106507e-03
-7.900881931640060460e-03
-7.410361965878208869e-03
-4.472897092587069072e-03
3.533260017876337436e-03
1.069012924093846670e-02
8.946212713304382835e-03
-8.995203099785993280e-04
-7.063134686216331580e-03
-6.460676222592715359e-03
-4.861621040308163055e-03
6.576845760285224751e-04
6.606430434355467333e-03
6.129593169499854277e-03
1.213824639945148155e-03
-1.585342635470858227e-03
-2.586930550017809381e-03
-1.506186860832192057e-03
8.690352266316785828e-04
8.495738723590635184e-04
1.155226704380872289e-03
1.914395630263439471e-03
2.084501688765845624e-04
-3.975611324692442626e-03
-6.523392995632249641e-03
-4.686170675728715089e-03
9.343979472266138826e-04
4.858244669943857612e-03
4.506058142484146295e-03
2.637853957736514560e-03
7.894787826045502081e-04
1.255083292663350739e-03
2.204316628164421955e-03
-2.011450221941124897e-03
-3.004579729606700854e-03
-1.389904950674466198e-03
8.356624789046804616e-05
-1.024690469632643730e-03
-2.573853079835931347e-03
-3.640663858777350159e-03
-8.588555622334031201e-04
1.355119490762717038e-03
1.938203996771828592e-03
3.483158975969382655e-03
3.844108473775158588e-03
2.239082978070491663e-03
1.660528889656430972e-04
2.015331980135236407e-03
1.340064705144472512e-03
-6.763188303429483418e-04
-4.065544866256757227e-03
-4.882209216408485951e-03
-4.355817020574004848e-03
-4.464147531267730236e-03
1.535377250269989182e-04
4.341459031647558475e-03
3.104756191768707867e-03
-4.604668469121525284e-04
-1.733075595517000666e-03
-2.168741461077313662e-04
4.270738075528265551e-03
6.866398500075629463e-03
5.289534860610558761e-03
1.485436456718094793e-04
-6.124840151916724311e-03
-7.441056057420305202e-03
-3.509578027584749765e-03
1.232174787543911104e-03
2.350932537594623353e-03
6.062173577327027675e-04
-2.932868056762759357e-03
-2.768960443374818194e-03
1.408798700808287438e-03
4.112428222416667119e-03
3.361080960361677999e-03
2.052932354934933375e-03
1.250702311409453583e-03
-5.810040668190343373e-04
-2.844447342711898738e-03
-5.248728528278702281e-03
-1.552253932541850130e-03
2.127821689829500606e-03
1.812088676143627092e-03
1.457489305988655601e-03
1.360730960253882368e-03
5.997958142173030359e-04
-2.050343962688216080e-03
-3.997632997191081540e-03
-5.112730955371171939e-04
3.223760607152219987e-03
1.719485858462533462e-03
-1.049814304050530889e-03
1.123803339396668987e-04
9.435609898730333393e-04
1.149994825661953190e-03
1.050003946760864025e-03
-7.145863275940385036e-04
-1.074757339656437494e-03
-2.605223990247765558e-03
-3.912060281323760484e-03
-1.770318328998293561e-03
1.396997399959871728e-03
1.025653521714614503e-03
4.779089309060737759e-04
2.058868310721662857e-04
4.005478068787779108e-03
3.146130420955607632e-03
-8.931560635236666717e-04
9.842331289912720303e-04
3.218405993515372106e-03
1.619874129109205411e-03
2.423228320384287712e-04
-5.122781214061512085e-04
-5.297550228730328126e-04
-8.930069972268936266e-04
-4.640244222774185349e-03
-7.912532680075235608e-03
-8.346791881644104183e-03
-4.927309952986159113e-03
6.334444910829202481e-04
4.037062988619058261e-03
4.185504084608209809e-03
3.474042067934909536e-03
3.813115125923189144e-03
6.620185643849182087e-03
8.695483693332936581e-03
5.426333161892372102e-03
2.998631188562853565e-03
2.473249503968607036e-04
-4.008021972510033074e-03
-8.814298566860436987e-03
-1.000448804733641492e-02
-9.342907719804029870e-03
-5.973825026258287527e-03
-8.137504594719128213e-05
3.141165023537654047e-03
2.336105703597422291e-03
3.483394544741246802e-03
5.549216745044241623e-03
6.124286922754379470e-03
4.469896371034220821e-03
2.277577123342366082e-03
-1.824675535492935145e-03
-2.657548267145750428e-03
6.795127283676764569e-04
2.371634608496498049e-03
-1.866715269360831944e-03
-8.378490321925119097e-03
-9.070216871092837488e-03
-1.023428320458003721e-03
3.739247109137967123e-03
4.649408873947076005e-03
4.807159833850854769e-03
-4.673482035962425924e-04
-6.395833337097731747e-03
-3.170886057357848002e-03
6.035305468844409833e-03
7.509807823242820556e-03
4.615893911323926298e-03
-1.433107164754145527e-03
-4.248240998714874171e-03
-3.248791961336918062e-03
-2.133397945465611602e-03
-1.705468328226113304e-03
-1.854353986795151225e-03
7.352959372832447915e-04
3.582092257696544921e-03
2.070909798706264873e-03
4.400552426693226933e-04
-1.195654864847564889e-04
1.130851329906641277e-03
2.343309759922893726e-03
-1.067981299986423688e-03
-3.913005806820714187e-03
-4.347624939434769145e-03
-1.126975504584262072e-03
2.899494900481090916e-04
1.318453909663499504e-03
-4.360779732392732898e-04
-1.110976155720499060e-03
-1.118555007365226945e-03
2.479895966032007182e-03
6.511040052543431468e-03
5.960535659334848316e-03
3.281033887790076736e-03
4.593981397834657489e-04
-3.268959940050897035e-03
-4.854970469949215078e-03
-5.366915704331323179e-03
-4.952715512681627082e-03
-7.264674597972469762e-03
-6.949364151362632906e-03
7.349863308403705884e-04
8.315865767462090816e-03
8.764924626038285774e-03
8.004890807595076499e-03
6.291007985637963110e-03
2.789228018664771484e-03
9.210129681561468563e-04
7.414303250235829796e-04
1.085180341741599688e-03
-3.169206303284151198e-03
-1.040797818195218077e-02
-1.456285493864179978e-02
-1.090475368014594097e-02
-2.299714466407003742e-03
3.075532287285217062e-03
6.984197700276909525e-03
8.606832808331360204e-03
7.734901574795210316e-03
5.066525281653602025e-03
2.504797968817138940e-03
1.017844415151790069e-03
1.248551291617017514e-03
-2.587035891458762827e-03
-7.589947010605810167e-03
-7.209491985768041143e-03
-2.988660896632710541e-03
-4.413904435416850431e-04
2.850909350229284371e-03
5.185503840414652961e-03
3.637581777698637234e-03
9.268372344748760554e-04
-7.512461340220364530e-05
-1.989412016526460186e-03
-2.552327760545165108e-03
1.983161416020013681e-04
4.479082733270927925e-04
-1.350161628861578592e-04
-1.800602203404316445e-04
6.222984952736178776e-04
-7.684155922842888283e-04
-2.198580361056893910e-03
-1.052055372606772133e-03
2.547947117104573602e-04
-2.360062918620185518e-04
1.008858708321371889e-03
1.720039135300259524e-03
9.950238311094829289e-04
-5.507913895411959771e-04
1.961762006271850368e-03
3.790324113940190913e-03
2.779158132926855609e-03
-2.164797065317301036e-03
-6.034060768640559132e-03
-6.262971416762324293e-03
-3.030691125815333266e-03
2.876483764389072863e-03
7.929648209762784478e-03
7.230970209110924515e-03
3.125146909288590582e-04
-2.606796133295155929e-03
-3.508239176944324012e-03
-4.823088911943065014e-03
-4.549678680122203056e-03
-5.562451436654773478e-03
-3.560227221632785485e-03
1.790852466024577764e-03
7.768144217118965432e-03
1.072433500135365828e-02
9.593989688991073211e-03
6.045487147978768558e-03
-3.298952040270290535e-03
-1.282090799170711171e-02
-1.232532374982026925e-02
-3.972374793175199002e-03
4.745790497650010341e-03
1.123104153471949848e-02
7.557056094948119175e-03
-1.219904137481791530e-03
-7.895174241451669017e-03
-9.830834859154110802e-03
-8.958351464049101043e-03
-5.679529170837122228e-03
1.890110857268315764e-03
6.774925563140679272e-03
1.220527744145045654e-02
1.406433343739979872e-02
9.888429393321244293e-03
2.836220535738841718e-03
-1.357028693121487863e-03
-7.492760245029280071e-03
-1.182494775616282565e-02
-1.257861674223575629e-02
-1.009496505352233328e-02
-3.776042504359704462e-03
5.167893626355247842e-03
9.441319821448223779e-03
3.590815382472343532e-03
-2.270332454844165709e-03
-1.543668466031430236e-03
3.354471140512689954e-03
6.481296546598872173e-03
5.536886988174658832e-03
4.458799483274609836e-03
4.575643537582549554e-03
1.409182132293381687e-03
-2.652417418139570507e-03
-5.822124655155446089e-03
-8.583926493821813705e-03
-1.093988193994836072e-02
-1.164434747418089180e-02
-7.595083582105483476e-03
2.041140863402501719e-03
1.200476402146008828e-02
1.459479648913634964e-02
9.881899729572932861e-03
3.411599897379898223e-03
1.317061502634326968e-03
-1.125578133090941388e-03
-2.557220393652026146e-03
-5.143858162565482194e-03
-6.483436831535652374e-03
-4.025118116190649388e-03
-8.629573252719832015e-04
-6.974918095249200327e-04
-5.102649954697664790e-04
1.653940716051340194e-03
2.565936246011563983e-03
8.293836903094725047e-04
6.937582113324699097e-04
1.677134621987234116e-03
2.075287508812305535e-03
2.471785954489115564e-03
2.687842468653212340e-03
7.167148335099857723e-04
-1.322254324742291355e-03
-4.352074674845705406e-03
-7.605263185987782594e-03
-7.249170847473827319e-03
-1.421717016895412446e-03
6.256944408793018060e-03
8.054138267595380499e-03
2.191193336640600078e-03
-1.972742982685406557e-03
-5.762886791533702565e-04
1.133649704585040412e-05
-3.319449615543217124e-04
2.454686890430984457e-04
9.908580550127320599e-04
-2.319214930432922871e-04
-2.211542008548198542e-03
-3.134715502046928060e-03
-1.652916287237955794e-03
3.882272136797345567e-03
9.470387797815393860e-03
7.906319494024330319e-03
-7.714579461754179056e-05
-6.415414811057095976e-03
-7.609706320895551386e-03
-9.606664667822463130e-03
-6.740115969491771233e-03
4.144905238821806350e-04
2.746754510004160987e-03
1.983186128275052969e-03
1.066095795759151041e-03
3.229923586258126242e-03
2.686322382546021872e-03
3.234906187601060620e-03
6.054102439371620258e-03
5.277360659218052578e-03
4.477469396467309917e-03
5.230651596741675395e-03
2.702396164497469604e-03
-3.506388029177190217e-03
-1.194102867686354201e-02
-1.806203433120641411e-02
-1.606967632750165229e-02
-7.142554882427058251e-03
2.694066404784394540e-03
1.125622450774271116e-02
1.545834503563184997e-02
1.221533555091935952e-02
3.160887156186435558e-03
-2.309643863938449539e-03
-4.592112739347808427e-03
-4.262491618795798652e-03
-1.618452135834861413e-03
2.254997305400185080e-03
1.827135460664081664e-03
5.539180953178253876e-04
1.422897020240625155e-03
-5.177297493480674051e-04
-1.063246512784547576e-03
-1.952835730334907555e-03
-2.777338159493724073e-03
-3.649603968186323718e-04
-7.031775790501515304e-05
-1.582973173775910434e-03
-1.217188365284409615e-03
1.509264517410096825e-04
-1.547352683800639912e-03
-4.270774603636348123e-03
-2.010471406591939590e-03
4.522393495392742872e-03
7.737819415785271611e-03
6.131767082435503509e-03
3.154779229311348797e-04
-2.865809612368180014e-03
-1.623227562168200752e-03
3.210878213783592192e-04
2.283577469609485589e-03
9.792356374365585731e-04
-1.155818381612780403e-05
-2.046948009088085735e-06
-1.497904316432738941e-03
-3.325215001194058162e-03
-5.356508647961713207e-03
-3.778218605273017325e-03
-1.008769349563402168e-03
1.928723493884202441e-03
1.435151711257802833e-03
2.754611254962562541e-05
2.976085106781639362e-03
3.344412315550872490e-03
7.524333724079696395e-04
-1.521589053889920304e-06
-2.355563271255611151e-04
1.616358463922825100e-03
5.429657640448984921e-04
-1.616529558374824906e-03
-1.664840997148126769e-03
-1.911747088043037369e-03
-1.474981662365470623e-03
5.939370854440540425e-05
2.333661778248357146e-03
2.999808186431287150e-03
9.263152079741040134e-04
1.583617444202361647e-05
1.274153901008912102e-03
1.898600507135006369e-03
4.701397764808305942e-04
-3.042774603168089086e-03
-4.534469601621266867e-03
-5.220585913261403810e-03
-1.872223117398923165e-03
-9.278444374108587970e-05
-8.937919753754577099e-04
1.131165700455006445e-03
4.220288792088331548e-03
5.998944824006543532e-03
3.932168441419566472e-03
-2.543193883582909980e-03
-5.002105058918267580e-03
-1.291437731464800068e-03
2.181003269064847160e-03
2.349014239515936128e-03
7.101577324269543702e-04
-3.341148395162803252e-04
6.934408479620965101e-04
6.872981272952109711e-04
-1.170485277858300576e-03
-2.033010404363818496e-03
-2.251272986700312076e-03
4.273581839510059272e-04
1.706299943612618261e-03
4.919859599487735066e-05
-1.150018942917247177e-04
-1.209564134430036108e-03
-1.219423016266665827e-03
-5.594788486159866982e-04
-2.462444554278393847e-04
-6.806385992735356459e-04
-2.720244107110619987e-03
-2.495881471390954190e-03
2.632798656970601614e-03
5.222878766882885562e-03
3.766421874428536789e-03
1.772862310649004399e-03
1.360024101475281778e-03
-2.537806651484336728e-04
-8.281843133477895941e-04
3.747281914914361324e-05
-5.876249758545436737e-06
2.048458282460113747e-04
-9.057697171773788523e-04
-2.611574945837723434e-03
-4.628147265628139266e-03
-4.975050847832030235e-03
-3.638531849064128004e-03
1.975335435292710303e-05
2.833132973505683543e-03
1.333696742419927502e-03
2.579983275273050984e-03
5.841014750635136789e-03
6.712228347748543274e-03
5.505955908569444383e-03
-3.774795408491866803e-04
-4.240087944283464812e-03
-5.646022539410465620e-03
-3.550404213964816411e-03
-2.703706805898201636e-03
-1.746775372230084319e-03
-6.861026423864493304e-04
-1.962074428418986334e-03
-2.058207213598283424e-03
3.460866896430346562e-03
7.434177657690285192e-03
6.360421557776843593e-03
3.960064325823587305e-04
-4.509507639546359720e-03
-4.547648278264234192e-03
-4.153456939570885319e-03
7.805855025399447518e-04
5.358395689886624562e-03
3.005973613357523951e-03
-3.109715731587036323e-05
-9.704844777334480706e-05
2.960823564847878987e-03
3.047923504428313047e-03
-3.630701889458928452e-03
-9.719102279941892880e-03
-9.528110187485724220e-03
-6.514459701108078066e-03
-4.679225677222971350e-04
7.752131810852157766e-03
1.315784601744064350e-02
1.028846222576780198e-02
2.666212234653139203e-03
-2.851190706724784571e-03
-4.461752729432757504e-03
-2.821767397734611937e-03
-3.024650039573281105e-03
-3.151599323601651705e-03
-8.278976360785017920e-04
1.745993878797758893e-03
3.443689244458739487e-03
2.994931218664853741e-03
-8.597002645863957874e-04
-4.637059335577710384e-03
-5.756432375309436002e-03
-2.234578097793849492e-03
1.972378533725891933e-03
3.680509152438152590e-03
2.611412884781554034e-03
1.847025596672723785e-03
9.606528536488739096e-04
5.928518854206682410e-04
1.617103592453313673e-04
-2.289880569267573399e-03
-2.006647248630789859e-03
2.103826017933405242e-03
3.046885010591542445e-03
6.952027378297904450e-04
-1.414968879285580282e-03
-3.865562420358701311e-03
-5.101029849034593479e-03
-5.091837199354075881e-03
1.071747255303037022e-03
5.323433035065616888e-03
1.875762481169737303e-03
-5.766165417514192886e-04
-8.325013078418623839e-04
3.817078436186354187e-03
6.602881930713667274e-03
3.486929466511598172e-03
3.358713269325417315e-05
1.803170954796464972e-03
4.594454852172164851e-03
-3.585539674279130686e-04
-9.441004714452637045e-03
-1.382217329883781397e-02
-1.242174751595502905e-02
-5.043652158629298964e-03
2.889161921376369631e-03
7.498081911751199036e-03
8.879659584692254498e-03
8.195358107171642897e-03
6.288407416785589746e-03
1.845379206979102550e-03
-4.183076881565943490e-03
-6.294753989269854556e-03
-3.590063738620791808e-03
9.937620277668565531e-04
4.806638609165534218e-03
4.270004892532820208e-03
9.863414686319261875e-04
1.593422517525449299e-03
1.597385654512991325e-03
-3.938738950681320780e-03
-5.587407242251267621e-03
-2.439803207402513070e-03
-4.249069087930201273e-04
-6.969545501357191607e-03
-1.330222807793703804e-02
-9.108964923992754481e-03
4.639136460871460220e-03
1.567397087758588825e-02
1.552482573966006661e-02
9.579534970154335999e-03
3.651027702142386165e-03
6.195199383149965723e-04
-1.852473556124175670e-03
-4.293573183612641765e-03
-6.024196756908813295e-03
-6.977434480020169687e-03
-6.621792069574650337e-03
-5.480122538307569992e-03
-1.463395230438744622e-03
4.332220162784066082e-03
8.997534358969962870e-03
6.892184568469426030e-03
-1.203342355947449940e-03
-5.954733761322552991e-03
-5.193470416165632715e-03
-3.767246583996102481e-03
-1.153451564907039141e-04
5.488485390338171052e-03
8.949644255143312382e-03
7.386326436392274229e-03
8.077533683952486899e-04
-5.290398612605233877e-03
-6.331938491479438373e-03
-2.624131681838576518e-03
-2.702112559979718089e-04
-1.096532657381217926e-03
-2.346676146245397967e-03
-3.243384965989499959e-03
-5.654007561808213839e-04
1.736721753194339461e-03
4.591893270205229388e-03
6.328769561149329842e-03
2.673733813246186725e-03
-1.805659616450005448e-03
4.409370120410451867e-05
1.332608572481209456e-03
-5.606521907064186726e-04
-2.762048639857907998e-03
-4.529637556497025097e-03
-2.977807059982920390e-03
2.194386373186793526e-03
3.973663121448852385e-03
1.154547622242718414e-03
-3.493282476102679314e-03
-6.431889402446550573e-03
-4.274062811966337395e-03
1.088590304966921221e-04
3.990806722555860150e-03
5.091298601905639223e-03
4.317998433232973776e-03
3.628122315308632186e-03
3.892118770278194927e-03
1.081403192670110213e-03
-2.435338969578181197e-03
-1.547603785473608724e-03
8.012770345561095870e-06
3.180006206862644343e-05
-1.216118120566719125e-03
-2.230410840653144697e-03
-2.392722552863569933e-03
-4.564244765217157287e-03
-8.068341134769924095e-03
-1.266283303617430842e-02
-8.019646520609423693e-03
7.343538179468359593e-03
2.147372748584572277e-02
1.858453609285724839e-02
6.208647006204197176e-03
-1.132781632753669145e-03
-2.375624855337624304e-03
-4.261507943340784275e-03
-5.765519840180519107e-03
-4.495526492012754012e-03
-3.549797154146587357e-03
-4.796116134311778287e-03
-3.526814209874285129e-03
-1.579933012944705582e-03
-1.084667676053904795e-03
-1.871420001899730748e-03
2.337101651105647545e-03
6.066526704066759791e-03
7.343352458647716199e-03
5.553818951087109539e-03
1.593778206119399014e-03
-3.004064465473256702e-04
-1.399659876067215446e-03
-1.611515800235285151e-03
-3.289431374821824832e-03
-4.513199779160904056e-03
-2.135376453679401366e-03
4.411565827426195698e-04
3.337235145409618402e-03
4.248543999764994340e-03
5.828520368638497777e-04
-5.504530679874634555e-03
-6.653918154493807489e-03
-3.741200065825990248e-04
2.714491566250477363e-03
8.524425826041607645e-05
-2.547453373803489334e-03
6.793133433058920348e-04
6.616654197437673440e-03
8.135194132314813725e-03
2.667377422601875658e-03
-4.589051533059624460e-03
-6.315986658558608684e-03
-3.906641324789753879e-03
-7.489536370291887410e-04
2.965361812132041863e-03
5.208472356627371312e-03
3.950759229527873138e-03
6.740090798647264221e-04
-3.874501644639545658e-04
-6.348707017171513435e-04
-2.218452266006084445e-03
-7.119064592153357199e-03
-9.670438509917137979e-03
-6.173461377725643177e-03
2.353569217619339883e-03
1.032182149690461827e-02
6.954727111759432395e-03
2.374744669293758575e-04
-4.836909836566945079e-04
1.456580203812844060e-03
3.316091377746229005e-03
1.572043443375325785e-03
-6.001083140788121334e-04
-1.562897191817100772e-03
-1.822748010112879404e-03
-2.194130307803415867e-03
-3.032081659303707821e-03
-1.176662950433424865e-03
-1.736342565235266346e-04
4.082129152452638825e-04
1.467913176167467927e-03
9.929519929198996487e-05
-9.498571667513049533e-04
-6.038099090771814441e-04
5.390227108798276634e-04
3.564285165566904849e-04
6.933705862740900498e-04
1.884115944965494643e-04
3.757219414986386302e-04
-5.719333305763353494e-04
3.963630461543328509e-04
3.428323210026164043e-03
4.549254217760963746e-03
2.225724158756044006e-03
1.152832881970632469e-04
-1.780097564795654055e-03
-3.906351894881871477e-03
-5.476501507742254429e-03
-5.995951401977902585e-03
-8.621213426904398083e-03
-8.262467706237387050e-03
-8.982083945952491115e-04
8.481912202324339012e-03
1.609219298093360340e-02
1.812375328117004844e-02
1.180982564237872956e-02
5.239539503547437627e-06
-8.807121775554567836e-03
-1.072987993938380458e-02
-7.660697751159357104e-03
-6.519048541263556054e-03
-5.963471500890257793e-03
-4.474931071118386922e-03
-2.045677635871398698e-04
1.240184529913512888e-03
2.047326961188024493e-03
4.409536998999259542e-03
2.275270103401875414e-03
8.717607177435130221e-04
7.390900165051357724e-03
1.160711991328187628e-02
5.255895593341450636e-03
-4.077564250117716137e-03
-8.058491350547048945e-03
-5.834497845520098501e-03
-1.280759509993974372e-03
2.117356289864533669e-04
-3.375321302974232645e-03
-5.038350511594988194e-03
-1.720798116131045698e-03
1.565715313131513849e-03
3.182198627806915626e-03
1.042840509518666581e-03
-2.189048862982473213e-04
6.284291431911169328e-05
5.647485017744724575e-04
2.089686668212369872e-03
3.138448093723758200e-03
2.654575194630759589e-03
1.397594806394227484e-03
1.136071984479864355e-04
-6.141560805476866097e-04
-1.886961060428629698e-03
-7.705224749611327810e-05
9.701548686506447769e-04
-1.514691526672427326e-03
-4.949111911313383225e-03
-2.007264779125017898e-03
-7.614161868801373441e-04
-3.931766949250120949e-03
-4.922793892384959291e-03
-1.408722581679631601e-03
6.033679988177445379e-03
8.578369779107808402e-03
5.624315584603160542e-03
2.656003484646624578e-03
1.934897341207341987e-03
6.704431097644545290e-04
-2.779639372221562690e-04
-1.430223312977238958e-03
-4.983759344536312606e-03
-5.804081811322688716e-03
-2.405466528662477711e-03
-3.040481840167033102e-04
-1.945358904115606496e-03
-2.432408356024650352e-03
8.588058142612028717e-04
4.613260444743866838e-03
3.997186081764794383e-03
1.350619564178686359e-03
-1.751753763718709792e-03
-2.826004349862731250e-03
-1.533739400141004424e-03
4.683372356562585438e-04
3.799677066141512842e-03
5.252267135761290798e-03
2.674657503379600579e-03
1.230719280199721408e-03
-6.344657055232348500e-04
-1.576688968444816446e-03
-1.925135992937681640e-03
-4.593350600665064946e-03
-6.836253299115631170e-03
-4.979081214336040888e-03
-1.132260641109273692e-03
1.230406172677210933e-03
2.912522796033380993e-03
5.021951924067106013e-03
4.387424694775693586e-03
3.166864596515498158e-03
2.588296655496646458e-03
8.126879119507993609e-04
-1.724384427467297049e-03
-1.547028532129315643e-03
-2.223077258281896365e-04
-1.456682567595152678e-03
-2.089030049524293921e-03
-2.310330785463239785e-03
-1.693657716169174200e-03
-5.659527550235166809e-04
6.025607913375013091e-04
-6.336153597334564808e-04
-1.220323773022589237e-03
5.273018788806471723e-04
2.022928490527724135e-03
3.425480796404239275e-03
1.228414547817251352e-03
4.655910740675016520e-04
2.153345560261165563e-04
1.230806746099290293e-03
2.127221852824469784e-03
9.103179549015921572e-04
-2.274134129039012686e-03
-4.221986039465530291e-03
-3.856506463107696285e-03
-2.990241301377894248e-03
-1.442565216518812247e-03
5.928553023227041581e-05
9.452147640469727103e-04
2.019103198051614128e-03
3.776364057596215493e-03
2.738407395748244499e-03
1.826307582413176384e-03
3.188353592269900765e-03
3.775792410078800815e-03
2.669298042327841389e-03
-4.258328751917704776e-03
-1.152117576894733098e-02
-9.815508386462655846e-03
-9.717064046119700373e-04
5.555107563057115790e-03
5.195426773946679698e-03
4.365963632649680522e-03
2.461125910281607675e-03
-2.503956503476041130e-03
-4.587535291560350739e-03
-1.976861569650682857e-03
1.180278116640932689e-03
3.473252423329927126e-03
4.856263572669917983e-03
5.124445362074550071e-03
2.238520803604218245e-03
-1.262350630848244060e-03
-5.885245188425048020e-03
-9.990966824035078450e-03
-6.891442676227017318e-03
-1.022397193132832185e-03
5.483972216145683969e-03
6.540725899064950798e-03
1.868603397714775540e-03
-1.082189527970134330e-04
-1.178875963529710924e-04
8.070242280964864045e-04
-4.511327047012623538e-05
7.164740143276629013e-04
2.972116833906723096e-03
3.245042521007558776e-03
-1.940600904820990926e-03
-7.055974267164246035e-03
-6.569623265964777241e-03
-1.966878273462650557e-03
3.131325011701577114e-03
1.439697157843076916e-03
-2.949224425451372881e-04
-2.184279901268541368e-04
1.373535863340710934e-03
2.490659904356483031e-03
5.245039558678893897e-03
7.001609800037507381e-03
4.042813440639108670e-03
-2.170789547885615574e-03
-6.215257721940890823e-03
-6.020928887377196941e-03
-3.629278326277832548e-03
-3.052058705948592406e-03
-3.707481311492948073e-03
-2.556195427337091750e-03
3.913257225937452621e-03
7.016345996734354128e-03
4.026513948472578049e-03
-1.676106266071090197e-03
2.536052742946260788e-06
3.590515908680821412e-03
1.171527643787600818e-03
-2.661504959277394798e-03
-3.623106121425551975e-03
2.821898081967880493e-04
1.436731009695850578e-03
5.647269679012137066e-06
-9.454643816727187388e-04
-6.384925344218344212e-04
-8.884809933039460169e-04
-4.578829356218581947e-03
-4.676635413979553062e-03
1.116719214118681511e-03
4.564913665368455949e-03
6.731171696534435367e-03
8.669516477929161899e-03
6.237561661353969826e-03
-1.351655478475256703e-04
-5.900657993219535387e-03
-9.101176828570371052e-03
-1.021195237816913126e-02
-6.187136622024881454e-03
8.434331685775894828e-04
4.030240656839365922e-03
4.617743867577637877e-03
5.530951526265866919e-03
3.283597639883953628e-03
9.443775682383431401e-04
-4.102733249270510926e-04
-4.762207135854675346e-04
-1.399459119111691897e-03
-1.518315532667482070e-03
-7.016422827107222796e-04
2.095348037730273682e-03
5.629638489420294399e-03
2.558575039491338150e-03
-6.061680591593836265e-03
-1.031642045991956226e-02
-7.605894804290770465e-03
-1.578000600979160943e-03
5.346003024212937424e-03
9.068521098776920197e-03
7.320935924582482393e-03
2.711730702971556703e-03
-2.769039321131008119e-03
-5.309246582668360713e-03
-5.683105992698795489e-03
-2.536339883797613087e-03
3.952972247715461768e-03
8.718901971354151015e-03
5.318985033288372091e-03
-4.908132493009389336e-03
-6.583612171050856610e-03
-1.718242730988125966e-03
1.124407645421641923e-03
3.920348071900143540e-03
3.622917573609926722e-03
-2.800944667666302543e-03
-8.757713402759798038e-03
-5.352652931331982299e-03
-9.235294797434457888e-04
2.911926189794617967e-03
5.605582133524162659e-03
6.148122803298875123e-03
2.454381252271231519e-03
-8.577732233585648675e-04
5.416896451002890616e-05
4.752082024914631802e-04
-6.592193433272774744e-04
-3.050527887851040877e-03
-5.340492306638261293e-03
-3.584003871979434507e-03
5.419883727842543682e-05
3.555790129233861972e-03
5.506406610278730476e-03
2.501513537895909585e-03
-1.697940835566859406e-03
-3.030818524747732473e-03
5.773471636205447120e-04
2.350502889574425380e-03
2.381708521000738387e-03
1.380441593085507835e-03
-2.070418128564963448e-03
-2.050683772449908918e-03
-1.321629615018921587e-03
-1.405742149441699222e-03
-3.806681419584867845e-03
-3.143611241157738025e-03
1.816436796171209847e-04
2.879993362425014441e-03
1.974623101926810745e-03
-1.084437859981764781e-03
-7.307342456783443409e-04
9.646630475612412306e-04
4.207656243782916319e-03
5.832984605139986990e-03
4.644029222863994659e-03
4.982315326165722867e-04
-4.011980399572358767e-03
-7.217887630391671243e-03
-5.319163358926764194e-03
-7.733198001350032437e-04
6.051089794290716263e-04
-1.352516160595181255e-03
-7.121730867357362960e-04
9.806963169120687211e-04
2.633688148636954655e-03
1.927224687741275122e-03
3.400868685350041075e-03
5.026133418749747887e-03
4.617413115982548985e-03
2.124774650769332366e-03
4.023057975742274652e-04
-5.840510301351870253e-04
-4.360914974202664308e-03
-1.061876680009183477e-02
-1.734639325633889964e-02
-1.472927896033248557e-02
4.336382918773081820e-05
1.574998479764659273e-02
1.582264502240528226e-02
8.395544154303609397e-03
6.612433439989595131e-03
4.970864949294740223e-03
-5.361399095170517716e-04
-6.464777751094039071e-03
-8.168916001954400208e-03
-2.994897423781903503e-03
2.709513993373328239e-03
3.522980435115923535e-03
1.672992890330770796e-03
9.393861576499031767e-04
-4.174276713170066606e-03
-9.822290682302996234e-03
-1.029396667425086162e-02
-6.104665376552185704e-03
-4.937419142813978925e-04
4.837435449009744488e-03
9.102885468006919473e-03
8.910164567979501904e-03
6.031688041004002604e-03
4.345383426213984650e-03
1.438636397255963449e-03
-8.628846379833211887e-04
-2.747569378046758447e-03
-2.749365094999059976e-03
-2.470031305343566973e-03
-1.840394967133412388e-03
1.040436313341024620e-03
1.214782430875730249e-03
-1.836339846590972656e-03
-4.036671224611113919e-03
-3.579313358392894120e-03
-5.047083512377700115e-03
-3.546249969788965728e-03
9.451573779994578697e-04
3.112935107529591836e-03
3.133098767023053104e-03
5.139052668503665475e-03
7.603092101645843315e-03
2.722973773847206860e-03
-2.368529734182150265e-03
-1.775098710151493293e-03
4.896224642964202081e-03
1.040649642996352084e-02
6.607855264816220320e-03
-5.628631228155360315e-03
-1.945584397893435763e-02
-2.326484288100287220e-02
-1.441540763705222161e-02
4.118078628930688621e-03
1.458348202482183560e-02
1.282080121917787870e-02
6.723550249203556241e-03
3.104543411892471926e-03
2.346476119607413501e-03
3.584753569575473142e-03
1.959555554953903989e-03
6.198149236545477832e-05
-2.742397528557683015e-03
-4.661432268163043929e-03
-5.131627577639017064e-03
-4.506657424089182892e-03
-3.594733899971045733e-03
-2.282406907658480338e-03
4.662928926751109550e-04
2.946856751252015325e-03
4.221800375287295543e-03
3.813105426857550401e-03
4.141614452464875522e-03
1.523237434136157347e-03
-3.607644770199005396e-03
-3.187630857532800302e-03
9.297858085842504753e-04
9.434309469368344853e-04
-2.397899198168526071e-03
-2.235417815593703644e-03
1.583162208874906891e-03
2.656488094420269598e-03
3.888209103308817014e-04
-4.130817993500041953e-03
-6.604360141938926849e-03
-3.799368004160924225e-03
2.175745144076023010e-03
6.920506857020648772e-03
1.014853356437734125e-02
8.209368373141666744e-03
2.176053752378069410e-03
-3.831065358260260685e-03
-9.964983937363603578e-03
-1.057740700701179266e-02
-5.965135462938619612e-03
7.236367258154397821e-05
4.199102611822212380e-03
4.912918461716053904e-03
3.304476156322662481e-03
1.069634759201463711e-03
-4.093522465137569241e-04
1.307382421107877463e-03
3.155382074589374152e-03
2.517573780692422547e-03
1.255437915857141192e-04
-2.073523728913402586e-03
-2.286333031685305623e-03
-2.379111257229983567e-03
-2.991397991552180446e-03
-2.923252218151138095e-03
-6.599193858489485172e-04
1.355655220763786473e-03
2.520049410726472698e-03
2.694263843479442234e-03
2.506825644866585330e-03
2.131104907575577176e-03
-2.073328380047556943e-03
-4.897381944470847147e-03
-4.033146707274348937e-03
-1.906596297416537347e-03
5.765551958612523181e-04
2.960607444114608019e-03
3.712103020635533664e-03
5.254125172578628586e-03
3.590521199541455571e-03
1.582853095749515038e-03
-2.032548383073611367e-03
-4.858017922195226497e-03
-3.575992532985391124e-03
7.153950826141152733e-04
2.506520340152322470e-03
8.819722912335870154e-04
-3.529594973237979404e-03
-4.893314492785528699e-03
-4.376822673661556057e-03
-9.984748714033878786e-04
1.806210810333840761e-03
3.044594294968454903e-03
1.565938021190026522e-03
3.271131095349509034e-04
-1.089989751479822355e-03
9.941489959128977597e-04
5.657042039111287272e-03
8.747826726675301742e-03
6.705044570109550996e-03
2.971173799751391977e-03
-1.459648194523799000e-03
-6.811397922576923995e-03
-1.115980358204341633e-02
-1.149277278159879442e-02
-7.368017019070137105e-03
-3.659249686906624298e-03
4.263394700322851462e-04
6.458042036173067789e-03
1.005852305424152250e-02
6.845228268685176615e-03
3.408557095647008102e-03
2.047498318618354816e-03
4.620650429552124682e-04
-6.140497069313258376e-06
1.509819162031685296e-03
1.745861061988532390e-03
-1.498050662575938895e-03
-6.908994495981589899e-03
-7.823060501894588126e-03
-3.053542634908223453e-03
3.659333813727056405e-04
1.830948669220521224e-03
2.282405024251630589e-03
2.220114405312575197e-03
1.088559139666205912e-03
-1.506915090954341445e-03
-3.058301337978507842e-03
-2.432231674041192195e-03
-4.850400151931526216e-04
3.900203041142900375e-03
5.265245859758133605e-03
4.086640924381683068e-03
2.655400392672190805e-03
1.416384525251339083e-03
8.026990891017532449e-04
-2.879461128741893274e-03
-6.611716089112012161e-03
-4.320473741750040751e-03
1.572089071915785756e-04
1.010702534245737968e-03
-3.882708308310290506e-04
-6.015377062023216127e-03
-7.768726640957812103e-03
1.674459645788308241e-04
1.124721671543619378e-02
1.449293196507018058e-02
6.393639988036016290e-03
-4.213495627559967795e-03
-6.518294883761509284e-03
-4.824697292849334379e-03
-1.609853761614992492e-03
-1.487718446760325636e-03
-1.440309786631496780e-03
1.860340059072648940e-03
3.508699062337636461e-03
1.321264596836801606e-04
-1.869091823606754653e-03
-1.122832263664221356e-03
-6.481937917197755198e-05
1.469336390883062803e-03
-1.538902750552531562e-03
-1.286959028936556122e-03
7.221139269126422653e-04
2.680757689189456998e-03
1.559911722098045617e-03
-1.246466584186597211e-03
-3.800620687018502739e-04
5.350882684927104835e-05
-1.766315442822244440e-03
-1.713024300473193692e-03
8.265631374800844937e-04
2.494741295152176543e-03
2.677246877823988291e-03
4.523455207763727565e-04
2.378874883630762642e-04
8.066905898558101272e-04
1.544561638196624087e-03
-1.210008608871123055e-03
-7.603278695287056001e-03
-8.772760426025089445e-03
-2.259583938638376130e-03
4.632156501701054085e-03
6.428562132983710493e-03
4.212239344381301688e-03
5.834595116114680733e-04
1.183795378630174595e-03
2.946200410828373438e-03
2.946098434321829662e-03
-6.806590093725307629e-04
-3.088588968194666551e-03
-4.010200494117027899e-03
-5.768735109887465108e-03
-4.730533798154568786e-03
-1.679623730577651207e-03
2.759932823179336858e-03
6.597140603924676362e-03
7.998536198767622687e-03
3.608618604923204479e-03
-1.684823147779610820e-03
-4.057988230502009193e-03
-4.412072774362576187e-03
-3.947226583728995555e-03
-2.636401139517715979e-03
1.087931482526441325e-05
1.589596958794183782e-03
1.068816720557998895e-03
1.616552412374646524e-04
1.948759459494090775e-03
3.704032149449462252e-03
3.912019678326663155e-03
1.351977432585542774e-03
-1.239124264030552498e-03
-3.573283543462695434e-03
-1.705241551622041583e-03
-8.469619992172722081e-04
-1.021731362915866094e-03
-1.334556887658781962e-03
-2.107049625235822912e-03
-1.465597553465846953e-04
3.471911728288509195e-03
4.931342623762026423e-03
1.334530160343644183e-03
-9.036289609957462660e-04
-5.517791632748228784e-04
-9.514565978886331803e-04
-3.608338163816881931e-03
-3.920320718312361556e-03
-2.165272600545392265e-03
6.070481791076099410e-06
1.550465865693834112e-03
2.028389745466829992e-03
1.600309560944446772e-03
4.132310255610063972e-04
2.260841743701533495e-03
4.512258496799973449e-03
2.996124408527946897e-03
7.011784683852703487e-04
-1.526963963185251714e-03
-2.538628051617042476e-03
-1.178990680305526092e-03
-1.164864930116791143e-03
-2.687246446381050518e-03
-4.849045529345894986e-03
-7.804092682842366522e-04
3.287691083019321156e-03
1.754372312789501251e-03
-3.946106149820465502e-03
-6.112213616709495992e-03
-1.919933574873335970e-03
5.350146708333047667e-03
7.679819360582903001e-03
5.430365166784298543e-03
1.082643338380862713e-03
1.371681355104575548e-03
1.875920118360739934e-03
-1.841304630902318006e-03
-5.988121742883808184e-03
-4.948355676221286199e-03
-1.805818845659681871e-03
1.119648822552164399e-03
3.800542515434467312e-03
1.331550226026700316e-03
-2.947201656446616670e-03
-2.180299163258972873e-03
5.747915489742139129e-04
1.196948804814208529e-03
1.671825631789296924e-03
-1.328877086618550992e-04
-5.505534181354266319e-04
8.806191458747833012e-04
9.589760314889169985e-04
-7.724142485436744868e-04
2.628445972201083071e-04
-5.836337816758552699e-05
-1.130632169606370085e-03
3.967900160933676332e-04
3.971910884948987182e-04
2.373253271207032174e-03
2.351562566686130930e-03
-8.932907537426468909e-04
-4.770017512623319321e-03
-5.922174215080931031e-03
-2.517398687504151383e-03
2.699643249911172320e-03
4.541653923449021774e-03
3.311202098039860153e-03
1.747197735029893534e-03
-9.270367659396902592e-04
-1.832134840700899107e-03
-2.300220418443776546e-04
3.654659494412247623e-05
1.838064413772377620e-03
4.538040017811437350e-03
4.606975555811434336e-03
6.616753092390682952e-04
-6.378360768337473091e-03
-9.930935237398789972e-03
-7.515240512418602629e-03
-1.820660687442432826e-03
3.867664405766074211e-03
4.137521368766446106e-03
2.886792613395063913e-03
-5.694863215672439855e-04
9.047583940094366766e-05
3.082993457297317219e-03
2.634264091146547651e-03
2.692006877082069884e-04
6.909154865459794575e-04
2.169099603783413311e-03
9.684167572542197715e-04
-1.322278453331761534e-03
-1.903551022251384183e-03
6.476653098699702458e-04
2.418092608242254464e-03
-3.416541135027190428e-04
-2.513196904648416601e-03
-2.922612264272375030e-03
-3.421425523086922375e-03
-5.223146422371855065e-03
-5.089605652044841382e-03
-3.697608259309762371e-04
5.959501563489073839e-03
7.880694686556156264e-03
2.890034109874076509e-03
1.298928495749973600e-03
2.888967093268509658e-04
-5.281639859131657825e-04
-2.927058243151809194e-03
-2.746470964139462699e-03
-2.096779770313870854e-03
8.628814326564567981e-04
1.395813142391945545e-03
8.525637442876521019e-04
-3.476595489922157281e-04
7.936148692761500799e-04
2.684357888396755529e-03
6.706512170778264987e-04
-2.278550768076404408e-03
-1.670527858637959988e-03
4.396385966292804502e-03
7.456328365464208290e-03
3.787863590707592903e-03
-4.054458944733975445e-03
-9.981654106063355542e-03
-9.707346916317680097e-03
-2.577735010990080643e-03
4.918288829835279095e-04
-1.320923415558996608e-03
-2.262713536702464986e-03
6.775023101847974091e-04
5.011235254655486103e-03
7.012632468861239310e-03
5.829705331358699290e-03
4.241331363652622866e-03
1.177918549605545991e-03
1.148344466444534156e-04
2.515579474507677066e-03
1.277674341392645617e-03
-3.236622647183398215e-03
-6.394897231254970116e-03
-6.151612576300224434e-03
-3.650433388880216894e-03
-3.192202997423614617e-04
1.065105703210472276e-03
8.023088634143059296e-04
-7.844342706804145835e-04
-6.051878640466486605e-04
2.004323967350019227e-03
4.362074698357282232e-03
2.265473647969399110e-03
-1.621412264382410956e-03
-3.265676897036280668e-03
-2.610271115298394909e-03
5.422615040805184739e-04
2.706005371286745098e-04
-9.718991808601539200e-04
1.385270896289121775e-03
5.637378300490201478e-03
9.299293050664901236e-03
7.125546570804590189e-03
7.291027189354888595e-04
-5.683789008107330634e-03
-1.018850304483606001e-02
-1.252457206848788321e-02
-7.682065863076200860e-03
-1.768961653409831768e-03
3.703785647372270610e-03
9.376392655000547610e-03
7.963339070448006637e-03
3.167833969662630679e-03
-2.530873238976734559e-03
-5.745541502915513764e-03
-6.578402768423009589e-04
6.484377322208515447e-03
4.233315907602615974e-03
-8.644733215035380275e-04
-4.865477402604329211e-03
-2.916923420412476618e-03
9.807621859588026500e-04
1.606494581796225974e-03
-6.121596794486367085e-04
2.508646302107714831e-04
-5.522340448198280504e-04
-1.046707708013283871e-03
-1.537185480601721771e-03
-3.351597766371516916e-04
2.578234520126509131e-03
6.680675313822971584e-04
-3.897504658486475836e-03
-4.216893121462657844e-03
-1.322591768928427138e-03
3.903083501263160653e-03
7.978674016643361872e-03
7.720648881891268439e-03
-2.153670148714038044e-04
-8.500596889840218023e-03
-7.524169885300084799e-03
-3.981151655134760995e-05
4.481581577516492200e-03
1.602544567306228270e-03
-4.505096527020305318e-04
2.276418283428637002e-03
2.141718991138233472e-03
-1.932775956050550000e-03
-3.850412477550151872e-03
-1.477887020856625665e-03
-7.649110594158864450e-04
-1.096260624963832364e-03
2.819945430914762882e-04
2.767622856177018136e-03
2.858049483931391146e-03
9.941148809834963486e-05
-3.372753389116924915e-03
-2.987184911952795764e-03
1.396047862171065747e-03
3.807017722674355467e-03
4.526159727962507200e-03
4.134794006349801557e-03
3.131814226201866717e-04
-3.916514917826831310e-03
-4.611681334751878414e-03
-1.941315911106643571e-03
-1.862075498449269201e-03
-3.147291755746171350e-03
-3.033333443134423289e-03
-1.209446082900885057e-04
3.179949300263235773e-03
3.697917413473928057e-03
3.446873860975306712e-03
3.213988533942128880e-03
1.184180699026157659e-03
-1.567522899049699284e-03
-2.753914001157373344e-03
-2.230927241022633446e-03
1.971960411600194932e-03
3.431047837288396605e-03
2.284908875420600151e-03
-1.629163534195940616e-03
-4.194838344226488672e-03
-2.050035010699445635e-03
-8.255455527894946374e-04
-3.395977113875984273e-03
-3.625356940304030103e-03
-1.323889391612246072e-03
1.867639352377129143e-03
5.372156797095004911e-03
5.856855589066934341e-03
2.569898978302678164e-03
-5.257445498544562100e-04
-1.009050579797407185e-03
-1.051661250104386595e-03
-1.311961485114299802e-03
-1.389456372678896491e-03
1.552521750717115491e-03
2.567765060670336441e-03
-2.345905336642527511e-04
-2.633868442250305100e-03
5.183410622638353260e-04
4.925853273068949399e-03
2.191282581342192826e-03
-7.670089280787914347e-03
-1.165256269417251460e-02
-6.955247297868988494e-03
-5.284276356732352286e-04
6.178998662633167736e-03
8.056676241340317984e-03
5.938110639577256523e-03
3.694904167531586417e-03
3.807208532088429166e-03
1.105676803580712270e-03
-3.037328674203626684e-03
-3.146633900983089593e-03
-3.983796377318170150e-03
-6.504915897775275131e-03
-2.821432310769857350e-03
3.813971820613372594e-03
6.028814900723223832e-03
3.471715827056951788e-03
2.203745573944625234e-04
-5.567595760020574523e-04
-2.600801829324251658e-04
-8.890044705541238655e-04
-2.751000773525670573e-03
-2.018828887726625571e-03
-3.820892638829911762e-05
-1.192801066649290531e-03
-3.599047925274758905e-03
-4.450883604921631112e-03
-2.924240463561662839e-03
5.004825365681782670e-03
8.853720831318460938e-03
5.600519714823007193e-03
1.379050165282819595e-04
-5.267664008745286857e-04
5.222970371985096978e-04
1.403771598667574770e-03
-1.760499783446599267e-03
-2.022389145462176897e-03
3.933842002044324999e-04
8.419856598427224092e-04
-2.869558020301456180e-03
-5.137357889480981439e-03
-1.560410066831301266e-03
1.142374133608926260e-03
-3.726326324161976090e-04
-2.719181035428556124e-03
-2.040962749237808412e-03
1.558683392660325639e-03
4.164284961784086268e-03
4.757228830779947938e-03
3.380670129796796257e-03
1.289436241950853157e-03
9.489438529223618050e-04
-9.834033746501063926e-04
-4.501338201428273927e-03
-4.263854079927681742e-03
-1.494753282417880021e-03
-1.659926732962983321e-04
2.006425367371017336e-03
5.323665833238675101e-03
5.053017821487908873e-03
-3.230857653798435702e-03
-7.318374100733282712e-03
-2.626082551121699561e-03
4.789500381372694521e-04
1.855179578252081404e-03
1.819208096716482589e-03
2.279467290705259317e-04
-2.913596145660767803e-03
-3.182407841722001505e-03
1.088568017391038957e-03
3.925755121544164880e-03
5.446791785892384462e-03
3.620915655287414332e-03
-1.456945383241996586e-03
-3.137933292782907162e-03
1.409284032885793495e-03
2.964179452673119421e-03
-5.599613703252776463e-05
-3.116414739014965185e-03
-3.951977353095835303e-03
-4.089369235939492586e-03
-1.673306524166303516e-03
2.887825003995916559e-03
5.088978329116758230e-03
-9.287766709180153438e-04
-7.887814967532810750e-03
-8.350744482724093559e-03
-3.731149689087649365e-03
4.700125893099901635e-03
9.702298874062986744e-03
7.974605555915219302e-03
3.507141636325265995e-03
1.011243686329142357e-04
1.217020656455096526e-03
1.739091985314052255e-03
4.949788838732238280e-04
8.757779081699936354e-04
1.997127403529934744e-03
2.367201449442355387e-04
-6.634854415793439535e-03
-1.090007845844568821e-02
-9.842042996541712496e-03
-5.131989925615987498e-03
2.201671264260538787e-04
3.690531415729331535e-03
4.605042699360199256e-03
4.433498539850610522e-03
3.726486767626983887e-03
2.257857471863028084e-03
2.831507582310345376e-03
3.341727914460570267e-03
1.806620567930900326e-03
-5.790727617921020845e-04
5.598287828178663637e-04
1.035652012325974196e-03
1.597470461192349099e-04
-3.216713446133092659e-03
-5.659454993955314282e-03
-4.637437854289106799e-03
-2.790270117487221417e-03
-1.974481065525098087e-03
1.161970945820803205e-03
2.665840286322055958e-03
2.566888006723459272e-03
1.364250545086622985e-03
-1.305313010213451940e-04
-4.925050566499641945e-04
1.397536712207203373e-03
2.230293336308145774e-03
6.746211635556413925e-04
2.755995693971952077e-04
1.977511128700900137e-03
7.674418507821939356e-04
-2.116662099116116413e-03
-4.067640758268673516e-03
-4.770328694274008838e-03
-1.776239324029745079e-03
1.256119378599414391e-03
-2.521087629765487678e-04
-5.264164878013555791e-05
2.906505948296511828e-03
6.463612034824996709e-03
5.853740690470759199e-03
3.628676837525248323e-03
1.573155318597296241e-03
-2.342175818173842204e-03
-6.326063003920859990e-03
-1.040757776464532741e-02
-8.803482492404155271e-03
-3.192570513039776937e-03
2.012613804448619599e-03
5.002008131652645011e-03
5.341522673466282331e-03
3.051480104202428881e-03
1.500731083070759413e-03
4.809513854934830031e-03
8.540914015770319223e-03
7.484814346338994166e-03
-3.704373926505418455e-04
-8.491372705350332464e-03
-1.094812002080279914e-02
-1.003830314316412134e-02
-9.570194517729840519e-03
-6.013092953129591141e-03
-1.929109333549351366e-03
5.158897466899417528e-03
1.390911501035086220e-02
1.869565671181673897e-02
1.647041271000622767e-02
6.152278885026253412e-03
-5.722963917482250078e-03
-1.399758476479781751e-02
-1.625580603567669882e-02
-1.388333061229666231e-02
-6.568513773307305993e-03
6.978025454975032317e-05
6.686595722346162958e-03
1.166020746221486590e-02
1.093224425424111322e-02
4.561796846436197948e-03
-4.653732731739188173e-03
-1.011459009331171222e-02
-6.914295452929528941e-03
2.208119756167368011e-03
7.172834725215643074e-03
8.870284453480157053e-03
7.261141459545887057e-03
3.821219991557915901e-03
-3.031105407900222364e-03
-1.213064341367520171e-02
-1.452439220511302087e-02
-9.336732230973939992e-03
-8.689282073759278845e-04
7.197704842087490097e-03
8.898958265512143737e-03
6.206576319403212319e-03
4.599247303072327535e-03
3.599919174548711458e-03
2.421621661481588791e-03
-4.879336102900219880e-04
-4.848202683928512155e-03
-4.725997070987833677e-03
-1.805531376122261351e-03
8.718564655368804843e-04
-2.005247054297645739e-03
-6.115906134944185980e-03
-3.611959192843352921e-03
8.565030038811437740e-04
4.326199848277498781e-03
2.461977952335719574e-03
-3.431654400644894992e-03
-3.366111763029013427e-03
1.640918826776918953e-03
7.647564600617208670e-03
9.158056580919903683e-03
5.836270429903985847e-03
9.825692578351204187e-04
-2.122634317369020366e-03
-2.652323764783529741e-03
-4.207373553773177850e-03
-6.720349092841109394e-03
-5.532266893551664177e-03
-3.899367549070787906e-03
-1.088636996610468227e-03
1.823617776698870617e-03
2.406839173167854649e-03
2.212361416749076149e-03
3.105969387128246217e-03
2.684822731349442281e-03
-1.607598869439769325e-03
-2.719890720108221298e-03
2.271449662142198313e-03
3.767950583550582801e-03
5.531900474607386346e-04
1.166808418591306446e-03
1.781154031245538345e-03
-3.681466020326650619e-04
-2.858913983325623437e-03
-2.809170457971096532e-03
-3.740599362330573364e-03
-1.843592995926757096e-03
5.957937449148873214e-04
7.810914123227952709e-05
-4.818089675627658755e-04
-7.600600945664845367e-04
1.093227046061451962e-03
5.094013869884624936e-03
2.707996703202378980e-03
-1.636147319653159966e-03
-1.686245017163129703e-03
4.105376929070052544e-04
4.027483355010658995e-03
2.736543582682484429e-03
-2.771622865975667646e-04
-1.367083591488587116e-03
-3.135570139580678897e-03
-3.597146260707543078e-03
-3.653449813402602671e-03
-1.904940206245975959e-03
-1.823998262025269823e-03
2.963586846196094682e-04
2.368022281844245000e-03
2.453488740537401562e-03
1.354554287046831835e-03
1.386910442084784891e-03
2.561886541319544942e-03
1.821464218326318031e-03
5.147413402653413855e-04
-2.574888552776936573e-05
-1.595903018642971848e-04
-2.558587523722189176e-04
1.142946788418638254e-03
1.547186930300680440e-04
-2.060845199844844183e-03
-1.891256094420940698e-03
-2.862044710779175862e-04
-1.076334687908880655e-03
-4.716011936385219351e-03
-4.164135903462692044e-03
-4.506344024308826129e-04
5.237012322776847225e-04
1.562154422881467750e-03
4.400552001403747193e-03
4.361055921426660632e-03
3.164943293894781264e-03
1.757965682874543158e-03
-4.537402106494460769e-04
-1.177951596559875715e-03
-1.032571521087453058e-03
-3.298527854524999959e-05
1.227164890244980696e-04
-1.043510132252026268e-03
-4.312401098681820089e-03
-2.830483634270737018e-03
-7.245528408784119830e-04
-2.842422541700154724e-04
7.835036450767556395e-04
1.723178778395333122e-03
1.932828397628652160e-03
1.114478842192746658e-03
2.171614532565668311e-03
1.900358065279910812e-03
-3.131290730166779259e-04
-9.660750296535022515e-04
-3.723691778322245848e-04
-2.203189325046226842e-03
-1.583551145515167506e-03
8.709052407553976574e-04
1.038371339488406092e-03
-1.995021773255447987e-03
-2.578612114620760891e-03
5.781007562822924179e-05
1.344880911639504241e-03
1.442802357403378134e-03
8.145724639663711342e-04
2.244742561611667744e-04
1.266465083946720165e-04
2.800810078925762992e-03
3.197118779255664432e-03
-1.755259491090209630e-03
-5.212402617872705785e-03
-2.468723327508614770e-03
4.156990317251672308e-05
-7.588073757026110719e-04
-6.224435461936872601e-04
3.630710166442411603e-03
5.416190439913694428e-03
5.928171614333264906e-04
-3.380645021158419465e-03
4.434538973355303009e-05
4.606769368652953792e-03
2.835436336962346253e-03
-1.894010829539187566e-03
-7.716715710795417175e-03
-7.258653113970085433e-03
-4.269426929294182181e-03
1.786420123242195464e-03
5.501433657546479956e-03
2.843495060963402432e-03
-4.584323314312613328e-04
-1.890708080733379242e-03
-3.296408296828916393e-04
2.580719606670443898e-03
4.256662594654452014e-03
4.530625964231046500e-03
3.210763670202227641e-03
3.135824965165848882e-03
-2.484632900263157931e-03
-7.175770446939289116e-03
-5.991782547551741112e-03
-2.681335295650144092e-03
-5.273644143939617461e-04
-3.601496700828110535e-04
1.733169385467104966e-03
4.643347005609693191e-03
2.238589752468825560e-03
-1.530059857989888184e-03
-2.242655356459412851e-03
7.163328818416748490e-04
2.936474559230363088e-03
2.457318388566920829e-03
-1.758429581579637468e-03
-5.553556840614911304e-03
-4.308028004987054377e-03
-2.401436597656035621e-03
2.500942993562639202e-03
6.322599401397977284e-03
3.608260826757504758e-03
3.389853503300231641e-04
-1.938213717442880107e-03
1.671599630963692493e-03
4.763959461809599144e-03
-5.973845669102032007e-04
-5.414809045482547011e-03
-6.947570897386513324e-03
-3.521634314977636904e-03
1.809587688890797359e-03
4.470025018085548550e-03
4.159055524414043484e-03
2.714807625379358179e-03
1.672471648873010471e-03
2.722152678870314382e-03
-6.831232727613833567e-04
-8.373608615632105456e-03
-1.331080401976360988e-02
-9.066164026944682416e-03
2.393375021806088722e-03
1.115825575476997802e-02
1.188322307021730251e-02
6.987405083220675495e-03
1.616973875717723878e-03
4.419310892429302736e-04
1.404205888984770946e-03
-1.376533008640721915e-03
-6.150718766454402880e-03
-6.582330184063773723e-03
-2.575220867084629384e-03
1.105740936118565498e-03
7.887425076361307677e-04
-1.679421044725468506e-03
-6.107061569898587089e-03
-7.553383246288836866e-03
-2.896301475777860249e-03
5.650016954518304567e-03
1.067920054918112746e-02
8.740164132807388270e-03
5.977165300947317843e-03
4.089095082436415389e-03
9.406271178243980026e-04
-3.177820467787197470e-03
-6.307048907304935170e-03
-8.016616460189689153e-03
-5.431244612519813518e-03
-3.449482479236596830e-03
-3.979215219305698632e-04
3.576728266027649934e-03
6.048276819868380651e-03
3.071225011108237070e-03
-2.124959137216113521e-03
-3.869249844691423097e-03
-2.291692674110887892e-03
3.693149758920622264e-03
6.618580450481247567e-03
3.434432035246036408e-03
-2.814902391637729394e-03
-5.431432670004316711e-03
-3.675532009095963150e-03
-3.232049570845294179e-04
1.692115618435849952e-03
2.485053076246995351e-03
1.709919460105392437e-03
3.931725219059260920e-04
2.003358217074731676e-03
2.687775711180363618e-03
-9.429074812932445064e-04
-3.877381094842540128e-03
-5.823872886937289141e-03
-3.579146112247446644e-03
2.563306977315094742e-03
4.997866257440085856e-03
1.012107726629747195e-03
-2.027568614468198104e-03
-1.784830352458012699e-03
4.170508742284118032e-04
2.033743006276724115e-03
1.433287794169714469e-03
-1.801321004941679269e-03
-4.738181900103625478e-03
-6.405860531052319723e-04
4.246959060916779237e-03
5.499096941633672270e-03
4.934996140804649711e-03
1.769812947406971832e-03
-2.652263888930593821e-03
-5.006838940943058279e-03
-4.410266764533145485e-03
-1.195242366436851354e-03
6.505212978791672295e-04
-1.631465149963698706e-03
-2.093573206967567699e-03
1.099469389235684970e-03
1.396139484046454628e-03
2.166181228710906646e-03
2.965131519593444415e-03
1.820886729609930274e-03
-8.006792737805047732e-04
-1.844116762863663543e-03
-7.001930677109680133e-04
4.889506271342319551e-04
-1.491499676703566960e-03
-1.468274465718976719e-03
-6.807356644495397889e-04
1.154013225196985582e-03
2.179432203300455274e-03
1.604551708789738341e-03
-1.210482491976630579e-03
5.713983090794692464e-04
2.497988178361392527e-03
1.647742967094089923e-03
1.362840037286004290e-03
1.639005852484916878e-03
-1.634911738455412013e-03
-8.588153085207108142e-03
-1.155321311571728612e-02
-6.206664705194706207e-03
1.560212599268482117e-03
7.537193811528212876e-03
9.188055326822954644e-03
5.949078613417081891e-03
3.649109117386498298e-03
2.910452759920668063e-03
9.803599669015875331e-04
-2.315047147342123510e-03
-3.345211349516022305e-03
-3.519469761806535285e-03
-4.093395956187775332e-03
-4.485644315669801499e-03
-2.580038768560801582e-03
6.979963098124483635e-04
1.991193461516046776e-03
1.306777310557325584e-03
3.081740120198616165e-03
3.820155514151964485e-03
-1.276275918530509466e-04
-2.038611919316780756e-03
-1.603309482547376650e-03
-1.722243394598213517e-03
8.015964691441228697e-04
2.903293870760627164e-03
3.038667378272008873e-03
8.803800701097989857e-04
-1.459437601272555894e-03
-8.000427907191060180e-04
9.155889695681847750e-05
-7.829459657865262250e-04
-1.751901096701268239e-03
-1.134458575239128981e-03
-1.512726876397460507e-03
-1.340294893333900030e-03
-2.573692666831412824e-03
-2.588408249126670189e-03
1.849797225385472034e-03
1.457868692968853925e-03
-8.668274523818875383e-05
2.559211209994576887e-03
6.483936123581183521e-03
7.845435850459178337e-03
7.824585347801150947e-03
3.932575141773192798e-03
-6.777884618376940444e-03
-1.549777492853257610e-02
-1.111505342037855983e-02
-1.571916542292267106e-03
1.548429508784046615e-03
4.151481430068616730e-04
-2.482667602070484647e-03
-4.800650250032470479e-03
2.519298786915485575e-03
1.357361034118775497e-02
1.374658142874427350e-02
3.510062186548030920e-03
-2.797930133476833441e-03
-1.079349771324940397e-03
-6.458479573346396065e-05
-2.689549691441640335e-03
-6.545902989740904829e-03
-7.841657536270857723e-03
-5.211107130015374747e-03
1.660641151939884312e-03
5.323163417715319479e-03
3.069729663034049746e-03
-4.898958341072555747e-03
-9.530463450523858973e-03
-5.592935041662577302e-03
4.502306114072574493e-03
9.625207371348238825e-03
8.689456333268055430e-03
8.971118139540426237e-03
8.409600101079646103e-03
5.684188077745290849e-03
1.749962779937927482e-03
-5.642111925996702061e-03
-8.655346853090384318e-03
-8.121691182274980159e-03
-1.093678092829041687e-02
-1.677871749740993818e-02
-1.353044720798226436e-02
-1.743177122410884323e-04
1.151757494890052677e-02
1.466813018763513457e-02
1.246686702865821075e-02
9.152687978091067836e-03
6.035980223835511575e-03
5.775271175893968668e-04
-2.320444563726783635e-03
-3.890747540550321473e-03
-6.001275099983897389e-03
-3.822553934029045315e-03
-1.016238924696044267e-05
-3.476843922363501843e-03
-5.735999790861561441e-03
-4.702193749566686842e-03
-1.638423783544925953e-03
4.946412546522668992e-03
9.377010956531648886e-03
6.590920283023349660e-03
-9.972781974955380324e-04
-5.023108438888785644e-03
-3.226766772288338150e-03
7.002444804868752622e-04
2.304459914176056924e-03
3.086034722459764408e-03
1.803234778516240103e-03
-3.217724213540683169e-05
-1.357019531068394446e-03
-3.385774253187965634e-03
-5.947261532340840373e-03
-5.806161553517719294e-03
-1.089540914708963474e-03
4.285164713119152431e-03
4.573457760647451666e-03
3.948731660693971350e-03
4.749135399002337929e-03
1.829012970627565821e-03
-1.573427195404222823e-03
-2.839025608510244159e-03
-3.323979640780892232e-03
-3.323491611198176737e-03
-1.155444812746435086e-03
1.194195980360276358e-03
-9.769717242914752197e-05
1.418722570701221064e-04
3.264170293517887345e-03
2.526106754875833901e-03
-5.824370870399707108e-04
-9.150612070770753215e-04
2.398556584185877229e-03
1.377687181453714953e-03
-5.433117729647365046e-05
-1.172881544667331386e-03
-3.075446952420786244e-03
-2.880407067275838305e-03
6.292384935237342039e-04
1.818816229971426893e-03
-2.032657102744397405e-03
-2.036387910183836900e-03
2.009524320402714288e-03
1.464104902880823201e-03
-3.918189686458759501e-03
-5.229171779802421760e-03
-5.861418173047867669e-04
5.015871759712305089e-03
8.092196894734841189e-03
5.902549595224448713e-03
-4.984230763271474103e-04
-3.971430071729201323e-03
-2.275987982716327733e-03
1.323625380639709137e-03
2.641352347295838378e-03
5.424122998783322729e-04
-3.050943337501954306e-03
-2.543782057554021085e-03
-1.939271440824176865e-03
-2.628665860813687340e-03
-1.558977288187061256e-03
5.267214788704821819e-04
1.528404724858129816e-03
-1.099150075506984906e-03
-3.789950141776143172e-03
-2.212902279017297212e-03
2.771518192503596555e-03
8.157643937975741361e-03
6.501439549700973458e-03
8.714241512665278242e-04
-2.781340876831488694e-03
-1.877889200127679176e-03
-2.599119224950805266e-04
1.275077652032094661e-03
2.232198356342088557e-03
1.051121005141615128e-03
-9.217185809732163400e-04
-4.616977157800246367e-03
-6.830969266158644707e-03
-6.786175840615723924e-03
-3.844038527909608965e-03
-2.555802174304895092e-04
3.715390896390907954e-03
6.733443585470807666e-03
7.300110414358165246e-03
6.800055368130495000e-03
2.326130857775385481e-03
-1.724544274073543104e-03
-4.634931534059693291e-03
-4.328688219382895337e-03
-2.552963565948547682e-03
-6.002784268269485560e-04
3.596271859537069834e-03
7.533823510196366313e-03
5.365524389140351874e-03
-4.770559961531451419e-03
-1.113445146880637573e-02
-9.286211453655462966e-03
-3.000979549919466707e-03
2.900589719576328503e-03
6.209915056641485652e-03
3.509468656945012241e-03
8.379930241426528949e-05
-1.584422238061151456e-04
1.189101257742455117e-03
2.293450420460004641e-04
6.536836591534277315e-05
-1.562097537103523471e-03
8.349897211771117737e-05
3.306847961049973021e-03
5.628147869450073580e-03
5.159619795581274308e-03
-1.831151461724750927e-03
-6.724603562856272879e-03
-5.479947039504803712e-03
-1.070299131116841593e-03
2.015797104179594366e-03
1.745573623318542010e-03
-1.150418772825614108e-03
-3.024878302265231449e-03
-3.723063572734171267e-03
-1.701995335656924981e-03
2.609360418744253052e-03
4.669711661065272836e-03
2.229584841245759418e-03
-7.057793057049494391e-04
-2.730309355366891504e-03
-1.072742672465202456e-03
2.297914523609646386e-03
3.875861893278429501e-03
3.196473039231079779e-03
2.837942025566805165e-03
1.100000091887350876e-03
-8.204983870381906850e-04
-5.386415718835381276e-03
-6.356518241587154165e-03
-5.566968882037735648e-03
-1.790862453069440308e-03
3.157924241103511609e-03
3.659750873719367498e-03
2.950783528072329145e-03
1.980335704183418342e-03
-1.050574948267026833e-03
-2.757905593579823914e-03
-2.511823162151308707e-03
-3.025078098151699822e-04
2.037815631003550738e-03
5.106908336186505130e-03
8.423755901691908424e-03
5.547964485397982072e-03
1.051682680766494546e-04
-6.262663618381798802e-03
-1.175604105054851162e-02
-1.273548547374273379e-02
-7.381677599064296984e-03
2.167656304857852080e-03
9.356925277295662438e-03
9.464326869438485085e-03
8.752732150579419640e-03
6.156210957581057484e-03
2.129553039458380315e-03
-7.394489890894191718e-04
-3.982223741964905327e-03
-6.835985967462902477e-03
-8.833447073118672055e-03
-8.274368099490884976e-03
-4.819598780313591978e-03
9.637099850913279390e-04
3.629269993140752867e-03
1.999757622856093101e-03
5.262859864725815198e-03
1.038190056339621803e-02
8.500493454556473649e-03
2.641862757563635117e-03
-6.809300026478557312e-04
-3.056050451614487819e-03
-4.399549407713685724e-03
-5.693408062496103407e-03
-3.789507625730913383e-03
-1.626572536207251084e-03
-7.492575280067700601e-04
-2.985193833360026520e-03
-3.884976098040472496e-03
-1.881119762261990831e-03
2.316690870855086116e-03
4.494115800563996954e-03
5.317445683329047497e-03
5.139276500945029295e-03
2.162657477069580142e-03
-5.426177576518844943e-04
-1.144128085314592962e-03
-1.029168057894007306e-03
-3.886488715672573729e-03
-4.716331060592207289e-03
4.080501451574529231e-04
7.936000299231259908e-03
1.081121565186872815e-02
4.885115501970837062e-03
-4.669684707283037160e-03
-1.281549243423541623e-02
-1.449409783814147208e-02
-1.027234456957043865e-02
-4.361815336140722685e-03
3.308877890094866735e-03
1.296478342141425648e-02
1.642940278917909280e-02
1.008553627764298410e-02
-7.059570331976453743e-04
-5.881213958930008902e-03
-5.015625949260292017e-03
-2.284636036097285362e-03
-9.650044588605141390e-04
-7.141981019611217372e-05
4.276966190541011022e-03
6.351049073571108511e-03
-2.653018620638238694e-05
-6.979752746552805344e-03
-1.302141798740618500e-02
-9.317556487482562405e-03
3.237676019387791273e-04
7.995061004732739729e-03
9.924906117156186494e-03
6.472892885706946209e-03
1.514525054764617393e-03
-1.224530355472141022e-03
-2.595833628160766973e-03
-2.383760743361210653e-03
-2.968506044016210477e-03
-3.986517680437731519e-03
-4.315677501616098886e-03
1.279415227051279146e-03
6.275548531473310390e-03
5.663165716193489449e-03
1.284485872168574482e-03
-2.745709153141331037e-03
-4.160458389997820187e-03
-2.692747001246915874e-03
1.756773507408451295e-03
4.849180252369160969e-03
2.845199706016542616e-03
8.482611886945758085e-04
1.669720835840735572e-03
-2.698428584844622929e-04
-5.355215867488586148e-03
-5.109619968395639859e-03
-1.111645573250503571e-03
-5.675437531948110967e-04
-7.461016375325683946e-04
-1.033326844142065269e-03
1.643873094268451457e-03
7.017419561629796056e-03
9.644964110203437316e-03
4.553896474948610808e-03
-6.961632908127453161e-03
-1.535828771497291072e-02
-1.108514434438393446e-02
1.069760308802586261e-03
7.314906413031022937e-03
4.837719857102991752e-03
1.797412947528637551e-03
9.914434192536615738e-04
2.139132251875532770e-03
2.031075299387465581e-03
9.369811348250016740e-04
6.235782811795558336e-04
6.963625787116957096e-04
-1.699662917191875622e-03
-1.801574563820780009e-03
2.709558858682032528e-03
6.988188281540058840e-03
8.342310645473907313e-03
4.107322827887776619e-03
-3.309360873557138424e-03
-1.725492784827012752e-02
-2.683875597702098034e-02
-2.204059425585954551e-02
-4.400088182184981427e-03
1.678345810194908569e-02
2.397470150535810363e-02
1.655965254536870962e-02
6.708635782513760505e-03
2.732152714291284819e-03
2.971726248181157971e-03
2.256916921201207959e-04
-2.985888539420176839e-03
-7.838995312164125789e-03
-1.141163499528269343e-02
-5.908498890156980987e-03
3.802841723206104758e-03
8.746500184837498540e-03
5.458984117818878844e-03
-4.954664823335937088e-04
-1.008483997194308673e-02
-1.341239874375608522e-02
-6.349347099215769258e-03
4.121205804309397043e-03
8.901021406737499864e-03
6.077080013245690464e-03
3.965516703328678810e-03
4.472632957864130718e-03
3.394884720418876387e-03
-2.260092534881300713e-03
-8.934313863319295543e-03
-7.435125666547022331e-03
1.653894002338251491e-03
6.905499745657120089e-03
5.275675234680982616e-03
1.341884651770991130e-03
-7.822915194316142117e-04
-8.017041254352618752e-04
-4.830969929228189248e-03
-6.318559514612856302e-03
-1.456486789439999374e-03
3.953866034730520868e-03
1.520342307094062033e-03
-1.430715005423479312e-03
2.910492360560306638e-04
1.498501893799101961e-03
2.952433544189099132e-03
2.052715046700113490e-03
7.725661973692817550e-04
-9.023033688864177471e-04
-1.157978571652237745e-03
-1.996740076960782685e-03
-2.521844002721427766e-03
-2.751161725050950066e-03
-1.070776942409982173e-04
3.869739227523216491e-03
3.977880299855358036e-03
3.576232738180222938e-04
-7.461844475864658254e-04
-1.937504224076121639e-03
-2.156462683752943636e-03
-1.884193705371210053e-04
9.112949692474109483e-04
2.261754710433693308e-04
1.991871218013174880e-04
8.342940409755134198e-04
6.118765044661302402e-04
1.218925195630585342e-03
-6.906439342700981419e-04
-5.259128877119062778e-04
-1.017701721505601771e-03
-1.384971097626322423e-03
-1.607741797932081291e-03
-7.494689055545175355e-04
1.210707392511193138e-03
2.155842474853066851e-03
7.289405501522340687e-04
1.464765602928777793e-04
-3.472685463205211803e-04
1.653356115364548458e-04
2.291974634466125912e-03
1.295867209937821927e-03
-3.906887373689759747e-04
-1.251808422784922610e-03
-2.059536555553941658e-03
-1.294602942108242279e-03
-6.384104201421107261e-04
6.292924967754612807e-05
3.570792075051258218e-04
1.002684982909509776e-04
-2.387798744991045583e-04
7.247079803784108303e-04
8.646567984469695619e-04
-1.337943411670286043e-03
-1.914186090535715005e-03
-2.592200365327512724e-04
-9.649875441453596801e-04
-8.864404453467329920e-05
3.250035312524985134e-03
3.969682962008379626e-03
3.388410267009928176e-03
2.207708224839319104e-03
2.347964431503141505e-03
6.980822771871871999e-04
-3.096104957446795154e-03
-4.641841126782239070e-03
-6.390777414430975911e-03
-5.733653448945166646e-03
-7.977167199274428190e-04
2.684930926768679463e-03
-8.227813995854433421e-05
-2.743642957212032857e-03
-1.989935261147439578e-03
2.966645898951251830e-04
6.647088089689280090e-03
1.057021171427452097e-02
5.244906545227575462e-03
-3.284811360127686406e-06
-3.048044749145514473e-03
-5.907925547447821085e-03
-4.518535554882461766e-03
-1.086730803273686444e-03
2.323854787673896791e-03
5.629655100526724867e-03
4.781976068556521853e-03
-9.031074889026075242e-04
-2.940926837015663334e-03
-3.054115901239721023e-04
-3.850475369313796029e-03
-1.128385556651860522e-02
-9.304088308923687267e-03
-4.594795520197186693e-04
8.900309336829580198e-03
9.989818823139817727e-03
4.702163946635497076e-03
-2.180298952158348479e-03
-3.296738325767436910e-03
9.127665165984635192e-04
5.562984976904480905e-03
5.749560586887294752e-03
1.739993245427427955e-03
-2.394912267854688859e-03
-4.268267404256639516e-03
-5.154416220219752362e-03
-7.236583421205700084e-03
-4.904967732811483898e-03
1.055132684282894528e-03
6.668355708165002275e-03
7.209944676613610007e-03
2.697427896353592550e-03
-2.568755987636073441e-03
-3.058441184075957019e-03
5.101679144433376306e-04
-3.568096538110022780e-04
-3.925421311123496876e-03
-2.814016308996308488e-03
-4.759470723596372185e-04
5.458649875389160562e-04
5.983882003568641739e-04
9.307483780043361793e-04
2.775247864981608692e-03
3.835573738424815325e-03
4.389695385413452770e-03
3.476508586880078504e-03
1.493186460297168732e-03
-2.088530677989029836e-03
-4.138429072800254432e-03
-4.117324956082609247e-03
-4.071038161682058280e-03
-2.979969440722297913e-03
3.445402321063505287e-04
1.310072643309010245e-03
-8.196582825242919844e-05
-2.138088442123351179e-03
-2.391867509584214447e-03
2.697089032675839201e-03
6.600069682318800493e-03
5.990841591125530691e-03
3.184624556414431939e-03
-1.189894980320946994e-04
-4.971840739809792360e-03
-7.546413860487072300e-03
-3.711770200412788448e-03
2.728115973938913599e-03
5.070547986726407948e-03
2.259217569922826376e-03
-6.582243220789918458e-04
-1.991000453143945258e-03
-3.558347947228783156e-03
-4.129079919113865654e-03
-4.909473164125983122e-04
2.782119041130769362e-03
2.636145655491097493e-03
2.418548335032610561e-03
3.637851099332966871e-03
5.506627553803944593e-03
3.722909674694565782e-03
-2.659977147264048179e-03
-7.872315467984435447e-03
-8.273920726626323927e-03
-3.418953996632499368e-03
1.962183792066268632e-03
3.608544948346489867e-03
1.236498950891559874e-03
5.206121573632745874e-04
1.203460381440903739e-04
3.740947887963801013e-04
-1.586948684321808772e-03
-7.028441227908593979e-04
1.516806877114868900e-03
3.552414604060593478e-03
2.652891547401275453e-03
1.092041396194864218e-03
-6.964669331239813728e-04
-1.064904916339779644e-03
-5.052893381033777805e-04
-5.778655510190979687e-04
-1.771636371420746633e-03
-3.501668348485762697e-03
-4.107244947619742570e-03
-5.458587172549892114e-04
4.282413814613830923e-03
5.501305704044941007e-03
3.886538682928924494e-03
-2.388374449508583208e-04
-2.732876589258568557e-03
-4.180417151032391095e-03
-3.637945595258572969e-03
-2.755021110153835998e-03
-2.114517254056655707e-03
-1.540879865570967538e-03
2.948197152890901819e-03
9.373004499247713367e-03
1.177339321143741277e-02
3.260250822107384899e-03
-6.892801616462507393e-03
-7.131142515709609601e-03
-3.755830579254534462e-03
-1.387254254523628393e-03
-6.149572363844952986e-05
4.162705487233552167e-03
1.200789045476676094e-03
-5.438117934339501726e-03
-6.585692338501098440e-03
3.582012674002777071e-03
1.091074980180682143e-02
4.764287013120762151e-03
-4.888336173502216137e-03
-1.082145232830422979e-02
-7.487609635951627401e-03
1.196931978082116203e-03
6.273105337979228112e-03
5.636491074842272554e-03
2.660112011331699534e-03
2.224516650034911482e-03
2.172063037062616549e-03
6.323627911928002146e-04
-6.177023193499562312e-04
6.461958003704167683e-04
-2.817006821233965751e-03
-6.498491572761903347e-03
-4.815627333038347176e-03
3.471860722797326881e-04
4.066375547306770762e-03
4.179133698490554265e-03
1.284108603951419209e-03
-9.533019382783758247e-04
-5.314387941935488869e-04
1.403712074769183243e-04
-5.714281848306560071e-04
-9.326406919725596439e-04
-6.830636556766234851e-03
-8.585100327608195803e-03
-1.705199427079440080e-03
7.153460611087085821e-03
1.055866795994185939e-02
6.857640523003680211e-03
1.737219230737666194e-04
-8.150022683137602081e-04
1.409815073114044793e-03
1.603576878313342415e-03
-1.216030100622980756e-03
-5.287804200175708590e-03
-7.167960274416062920e-03
-5.996143413682211536e-03
1.392484018429695526e-03
1.085771717948347780e-02
1.294003469451922295e-02
2.932407898885525631e-03
-1.118503969528483744e-02
-1.790149790474849720e-02
-1.514874716084946109e-02
-6.034945710477060757e-03
6.028814442348077833e-03
1.518065380184254604e-02
1.431653564928508926e-02
7.286965828734622876e-03
1.108288152336160855e-03
-9.058495995604901431e-04
9.521687400088284746e-05
-2.733771067830022489e-04
-2.755731485172775632e-03
-2.001982595719569834e-03
1.695061285193518417e-03
2.259775073455877990e-03
-2.084153622673936765e-03
-6.057787300666299390e-03
-7.391193047261275517e-03
-4.226477005148288231e-03
-1.680206556884825207e-03
-5.897876182013626206e-03
-6.515592618705544001e-03
1.202317910825353997e-03
1.039821426699795263e-02
1.221983789525469925e-02
1.137156004942543874e-02
3.216676637036150303e-03
-3.950140182548823702e-03
-5.383461297129940419e-03
-2.020805114179054316e-03
8.958754351395097895e-04
2.524670712009618491e-03
-1.296134778775203723e-04
-2.746676333595965934e-03
-1.922317618222471255e-03
-2.027489273017447566e-03
-3.910665977529806901e-03
-2.757170353888371058e-03
3.215880189441090373e-03
4.825718369251369606e-03
5.387443467260198205e-04
-5.515347136975480742e-03
-5.835715394664982118e-03
-8.461762834684314781e-04
1.099704527504527215e-03
9.555421526814481935e-04
4.857000700117088642e-03
8.858794387637352469e-03
7.629807154300148782e-03
2.082435705862343070e-03
-3.829399160135560885e-03
-6.005131881936101763e-03
-6.600941671590983273e-03
-3.495964317123289710e-03
1.167004535949079519e-03
2.204880127855196256e-03
9.277573871892972810e-05
-1.783160157654791128e-03
-1.247528793543514888e-03
-2.068923891697473962e-03
-9.938511270820502008e-04
2.940955934352587359e-03
3.063360182141902470e-03
4.729563064044807973e-04
-5.399544953006942720e-04
6.370364281602247268e-04
2.158501062107819925e-03
3.994624097784497084e-03
5.492468450635846697e-03
2.328487934641391803e-03
-2.194410911815701005e-03
-4.007093049276537478e-03
-7.881220810422783982e-03
-9.876863162200766322e-03
-4.664023182222025443e-03
3.491181561408907529e-03
6.370002980847863476e-03
5.987721592870999358e-03
3.755094638213087900e-03
-1.967785015955732068e-03
-5.499630494354277276e-03
-2.843978269960016191e-03
2.815067841674448110e-03
5.841224336577888719e-03
3.485646254915960533e-03
-1.518950840541262275e-03
-2.025097522231221383e-03
2.087692513418755360e-03
1.321997663989810069e-03
-3.139958824667203434e-03
-6.299544252526192468e-03
-5.747751097396463886e-03
-1.510833309373885505e-03
4.866045732862820175e-03
9.250850351372342378e-03
8.129052942698701545e-03
3.486929108079057579e-03
-3.901134519678432777e-03
-6.994252500059818488e-03
-9.726256664621034387e-03
-9.610793923183627921e-03
-4.762582052443867404e-03
2.893722239840836909e-03
8.380123982261292875e-03
9.609169404372244760e-03
5.851703076714743698e-03
2.004896851045639278e-03
6.559332020546515844e-04
-1.426442159535130753e-03
-2.454672460647349015e-03
-1.720661202052426071e-03
4.104148903841981790e-04
-1.155614534462762362e-03
-2.045267734062627442e-03
-1.077144291791732635e-03
1.996062712986325523e-04
-1.119226481197910803e-03
-7.475299318533191496e-04
-1.553471762179035008e-03
-4.712531036950878827e-03
-5.287252286172812107e-03
-2.914609822334069626e-03
3.374867493801791268e-03
9.656737961847204621e-03
1.000562522102411110e-02
6.104189264792425282e-03
6.807304203807527194e-04
-3.099087929065067436e-03
-1.932558121193015711e-03
-1.681039751074296564e-03
-2.408794411215397363e-03
-2.648145270943284921e-03
-1.682133003525730208e-03
-4.422983968161236200e-03
-7.829711399748832609e-03
-3.655072904944229890e-03
4.309319127234177878e-03
7.095014512376525938e-03
4.589509891173041041e-03
3.547477908210687914e-03
2.327901995302453578e-03
5.045945967435829611e-04
-2.050209531414212867e-03
-1.045479137406558554e-03
-8.925255234864667639e-04
-9.702785413961954354e-04
-1.574486713683514137e-03
-2.237993090251582870e-03
-3.256095602402073620e-03
-9.566762106345217060e-04
5.493396762666608686e-04
1.725797999131228975e-03
1.353191177333643545e-03
2.020071812090677276e-03
4.476297746341694785e-03
4.581388408273314068e-03
3.834502327109216065e-03
-8.338702691345577765e-05
-6.134441222058356104e-03
-9.157536715883415890e-03
-8.868302797215467034e-03
-4.975270047618583942e-03
3.124389478076122946e-03
9.780980480947103206e-03
7.971633653271780959e-03
1.308001316789362905e-04
-2.309613486407855257e-03
1.395462122625334891e-03
4.662449424257233445e-03
2.584566432689520445e-03
2.287986168825818076e-05
-1.359144113249070125e-03
-5.532598907487671497e-03
-1.050293268439406874e-02
-7.850414619059289945e-03
-2.783030675824602258e-04
4.945458563323198650e-03
5.901568509827787891e-03
5.097992273296344731e-03
3.360713069000656299e-03
1.049681215811164303e-03
-1.639310677563082189e-03
-1.014296442718507288e-03
3.467631589462765915e-04
-6.052065238492588444e-04
-2.353937769211078470e-03
-2.173434021871948826e-03
-1.924970414712098669e-03
-1.189417021956955690e-03
2.276115672810300090e-03
3.689373727113784678e-03
2.230856759652109257e-03
2.571945921768908558e-03
2.213220970175752787e-03
3.384978820627475445e-04
1.481423598731276088e-03
-4.917300038616863713e-04
-6.509049678554017920e-03
-1.030689108215970644e-02
-7.737466951273946035e-03
-2.111816461097853342e-03
3.424530103914065135e-03
7.562905106444668159e-03
5.025108128660226055e-03
1.051557849782036244e-03
2.697587898289953261e-03
5.554387420154523192e-03
2.903013890470811098e-03
-2.461233247039720990e-04
-2.408322980770617999e-03
-3.330337000302333299e-03
-2.915929982878072597e-03
-4.565730612444514531e-04
-5.766815005773816326e-04
-2.090193643840630722e-03
-7.441370757139809501e-04
-8.139250600509628569e-04
-2.896589815728481919e-03
-3.302236044410719953e-03
1.212632151897841907e-03
5.353956036124661415e-03
4.441060933951906410e-03
5.061238943982895129e-04
1.833177626901111388e-03
4.035083360392799877e-03
5.810701658163877929e-04
-8.048171732317570964e-03
-1.008781885689002435e-02
-4.461486215975910517e-03
5.169313509062583786e-03
1.101473029729403350e-02
7.411993861692156398e-03
4.385509664982678731e-04
-2.615164332494974812e-03
-4.687299904892912143e-03
-5.971403395988430542e-03
-2.539913285711443199e-03
2.214412309699716197e-03
4.446804413805536225e-03
1.997814744652760561e-03
-1.028483817969314852e-03
-2.198865447190533236e-03
-3.345077412360693454e-03
-1.866878166364258941e-03
2.705657200489704033e-03
2.912362113145943940e-03
1.824485148800984811e-03
1.599046790981491694e-03
-3.371416757196018577e-04
-3.201309672232395889e-03
-3.008142576426558502e-03
-1.573335837912354443e-03
-5.637276524638072444e-04
1.248037196467860445e-03
2.946870347732146768e-03
3.000220583389890273e-03
1.851860906192418724e-03
7.019235782577409747e-04
-9.327544838986062377e-04
-1.096130679665084694e-03
1.852055368445071890e-04
2.126164545084362461e-03
7.450256315399509397e-04
-3.199234461238022187e-03
-6.493898526133601648e-03
-4.845221950160870372e-03
-1.576941553999900315e-03
2.437905674031521763e-03
3.737650451147386289e-03
2.981228170884544192e-03
1.891833450723414637e-03
2.337508885853461192e-03
1.445596222057000772e-03
-9.218596391589746865e-04
-1.405285491111313984e-03
4.446872771328935986e-04
1.253421447729479148e-03
-1.445329655372764926e-03
-1.882891169671076486e-03
-1.922641231798179716e-03
-2.208146809781089646e-03
-3.309131304239416199e-04
1.675225913611019866e-04
-2.860824869321036364e-04
2.703218141428753545e-03
4.223425414684837086e-03
1.347558330865298486e-03
9.167800549244091652e-04
2.147260973142809184e-03
1.668033755368289808e-03
-2.051306623525457097e-03
-7.019831338511473874e-03
-8.181724052050965562e-03
-3.977830390776505680e-03
1.426143504392826818e-04
2.856848833632853225e-03
4.827021280921742381e-03
5.337528194376264454e-03
3.052783190212288948e-03
-1.719338316061520323e-04
-1.581389099421189048e-03
-7.249952044257281696e-04
2.223083317959556517e-03
4.177959916658254697e-03
1.284236633243310451e-03
-1.618777257600139199e-03
-1.978306884418146779e-03
-4.863910934327501587e-03
-9.841154881100010188e-03
-6.696995119630328938e-03
3.045565107475648250e-03
9.635480512849108753e-03
8.823956803450039993e-03
4.608228631030472471e-03
-5.362794739575432084e-04
-3.978804150054924063e-03
-6.290840293097476645e-03
-6.821701852410036980e-03
-2.784186908323466915e-03
2.808702314883691764e-03
5.413160516351882452e-03
4.291616919920945676e-03
6.782696514382534998e-04
-3.596969554701331950e-03
-4.126678395931616429e-03
-6.406665966411753980e-04
3.757054185084496029e-03
4.573069195506264742e-03
3.556404131075640348e-03
1.988626095951955865e-03
1.147140278299026671e-03
1.758099802841406149e-04
-2.991889585061970839e-03
-3.385477240567624432e-03
6.333810622545539689e-04
-8.636840745197038637e-04
-6.785858707052558510e-03
-9.753304365157646275e-03
-6.170991171282531364e-03
1.628990660126454666e-03
8.583184554577428030e-03
9.938477660629828001e-03
3.683359645747190728e-03
-7.635489028116104792e-04
-1.023611152702519692e-03
6.785584130918693091e-04
-9.614840328096499336e-04
-2.731840497842326961e-03
3.830067768651493842e-04
4.523592378678304750e-03
5.351569811140152039e-03
3.433484186398954208e-04
-5.863729178854239395e-03
-9.094866538328303870e-03
-6.089972289432588060e-03
2.144147476700182693e-03
5.759818115497302576e-03
6.670689700207611990e-03
6.042055812451347686e-03
6.429814520287861247e-03
2.475704331686837296e-03
-6.272211012670302066e-03
-1.642544048833306444e-02
-1.877131117510066199e-02
-9.415015244261472696e-03
3.652225686093714223e-03
1.259750200621354704e-02
1.461731347051293747e-02
9.637633552127475300e-03
4.730546309428721764e-03
2.818436364246164165e-03
1.606110387858283688e-03
-1.379465491134124547e-03
-3.593805431038944384e-03
-6.316007560141034469e-03
-7.620610315447562053e-03
-6.337056507098252911e-03
-3.657249537651194511e-04
2.643562548602141921e-03
-6.705889399863969444e-04
-4.501008532259214052e-03
-1.963624155709123298e-03
2.079541726112889288e-03
5.968092217292720637e-03
6.812972805464626892e-03
5.528252707558249830e-03
3.320366315352182678e-03
1.842213776035828577e-03
1.366234497642054759e-03
-8.879245518507607312e-04
-2.048727958961919175e-03
-4.114302320755318376e-03
-9.521800220914512780e-03
-1.275208807011907718e-02
-7.807071309435676364e-03
-1.489201754837338361e-03
3.222806750749913560e-03
8.232063695021052396e-03
1.298880455587202339e-02
1.173484596951781915e-02
6.467782044130928991e-03
8.358630367091512926e-04
-2.453359666354468574e-03
-4.678688592279613666e-03
-6.977206527007185841e-03
-6.826032420381454580e-03
-4.290616234676224335e-03
-2.171473482416798502e-03
1.027120257098695244e-04
3.119069021344006779e-03
1.986226319783819007e-03
-8.508990508641005963e-04
-1.565424607392310432e-03
1.385760240175730636e-03
3.443917084708682241e-03
3.711385373700617531e-03
3.118893236448801697e-03
2.136420242012621734e-03
-2.938996350943485028e-04
-2.635808397461897063e-03
-1.976956614636075308e-03
-1.503108356778287214e-03
-2.866857231983794586e-03
-5.424036932362484228e-03
-3.182887921249985715e-03
-6.543190825835955824e-05
1.685173418698193183e-03
2.567780977529837000e-03
3.071503429007246995e-03
4.586670395387186690e-03
3.450629656189510043e-03
-1.882118400062016833e-03
-4.125591400892593928e-03
-1.045489523001441341e-03
5.155122178761645940e-03
1.058775238871046201e-02
9.532431396356155426e-03
-2.655747625653037160e-03
-1.687436507812963352e-02
-2.049073882651860148e-02
-1.168148178831131950e-02
2.398525818317704707e-03
1.232609208083397349e-02
1.189605363247860093e-02
4.369356203259747162e-03
1.244897188225827303e-03
3.943349420723485203e-03
4.719430783330465749e-03
-6.742509015974143928e-04
-8.866468502402802265e-03
-1.023879822795266924e-02
-6.013479815736278399e-03
3.039481929593895911e-03
7.752797291318561795e-03
5.362994752192572386e-03
3.172745382061276532e-03
1.461957747093294187e-03
-1.322323044830954735e-03
-3.222620127840203526e-03
-2.124901761824624005e-03
-2.317060267736012740e-03
-2.890229824484009079e-03
-1.552647696141550970e-03
-1.232898128876604008e-04
1.417368653357835729e-03
2.635916664335378676e-03
-1.019243528193947753e-03
-2.351992087617894508e-03
1.251651807411785326e-03
3.548725889517169094e-03
3.475982671354520444e-03
3.623778027406979272e-03
1.234519834728360545e-03
-1.266314072831424640e-03
-2.065060606919371169e-03
-4.137225267313099299e-04
-1.661654948135956288e-03
-3.519783932628469964e-03
-3.078166005977142627e-03
-2.909800565629152170e-03
-3.901263846955494753e-03
-2.968051122218759615e-03
5.310488380321714370e-04
3.719315873659747793e-03
5.536259822587704521e-03
6.274636581880135323e-03
5.136041777599878629e-03
3.282635989941761270e-03
2.619685427939603961e-03
1.987195916851405321e-03
1.288552177465868706e-03
-2.161419635793019722e-03
-8.590775780541549944e-03
-1.377787482578612943e-02
-1.102879309464203754e-02
-1.398190241831380985e-03
6.004034707526659763e-03
8.198463624089963320e-03
6.040093030493729788e-03
1.158433605739317591e-03
2.221145448006999769e-04
2.419834003453305831e-03
2.048809076918107260e-03
-2.944576320393874590e-03
-7.611061083187074111e-03
-7.172622670333928148e-03
-2.288282892706712036e-04
7.732112825582471496e-03
1.013100733355363353e-02
7.233066435468207302e-03
3.862007572760137696e-03
-1.581071371326665462e-03
-6.582082108877728398e-03
-6.489690937599931937e-03
-5.494161711878287231e-03
-5.635139113386237845e-03
-2.067944813449245842e-03
2.136172494534779864e-03
2.244430534158899787e-03
7.090203029749229122e-04
9.063272695972094230e-04
4.080217011737115318e-03
3.844329725573331514e-03
5.217499743554288678e-04
-1.451301488226427495e-03
-8.769005787603939225e-05
4.888387360676285176e-04
8.787438905624107887e-04
9.156350643369724198e-04
-1.785351923212396468e-04
-4.337385762380787106e-04
-2.758616264566333444e-03
-3.341675391944055017e-03
-1.720842081303352493e-03
-9.359213774802389472e-04
-1.578723451322110952e-03
-8.796214721258112379e-04
1.186161319539010732e-03
7.236163370636996238e-03
9.508124953376167685e-03
2.828251956422085135e-03
-7.912559082904327065e-03
-1.126788015458452148e-02
-5.867077748973352144e-03
3.247335122065259441e-03
5.993035826309309026e-03
4.490096523174913826e-03
2.990236306665499701e-03
2.079363708993980150e-03
3.580308324518544235e-04
-9.779224776066846626e-04
-1.032899294211098509e-03
-2.564783258973689448e-03
-4.657605000335521099e-03
-4.550648122784602817e-03
-7.949635660733582302e-05
2.693173778518844971e-03
7.660672496297548512e-04
-2.600687133927090736e-03
-1.552761436089630060e-03
7.562359238462652887e-04
2.840595368166149923e-03
3.962322205915031446e-03
4.127683722726849767e-03
1.796602885600366486e-03
-2.455102676951025423e-03
-1.050886982086346282e-03
1.821855018292501890e-03
5.926193290826578921e-04
-2.073535746080227594e-03
-3.054032906491542022e-04
6.370265253990463816e-04
-1.136152068082594115e-03
-1.851375314727585729e-03
-1.376103155615349648e-03
-1.651658633303225367e-04
5.868808869154503892e-04
-2.734228053801742581e-03
-3.806105657058885330e-03
-2.091164108531718292e-03
-1.164469886311379114e-03
-4.813436260034186062e-04
2.478659044180395697e-03
6.558652070377615946e-03
6.155443491626197243e-03
3.880429126851519649e-03
6.401773584384945091e-04
-1.920511628418710478e-03
-9.566057165086417182e-04
1.174701032619338437e-03
1.041360191119437405e-03
-2.498584768574556303e-03
-3.253804170926364540e-03
-1.730903595155920856e-03
-2.463284005169474379e-04
-2.160244946063878246e-03
-5.772290456464886088e-03
-6.001897129650220208e-03
-1.106535289364092654e-03
3.802236079831429732e-03
6.516425937346250266e-03
4.213675580967332461e-03
1.231439157516747013e-03
5.797603682842603935e-05
-9.607804507433455885e-04
1.837128604581559667e-03
4.307243339139844342e-03
4.724284049273607365e-03
5.818880271250120037e-04
-4.840563719877176083e-03
-7.049221514096057004e-03
-5.822584187866972419e-03
-1.086092689286002715e-03
2.819607791672788105e-03
2.634585987989660188e-03
2.132102838564151146e-03
8.278494162013312879e-04
-6.791986153151531027e-04
-1.622304379936316109e-03
7.638547461729990485e-04
3.308114141510065838e-03
3.615858475781618103e-03
-1.152917030992972776e-03
-6.961193602844066401e-03
-7.322650040685537397e-03
-6.885868250976912713e-03
-1.603174741646055078e-03
3.257574134512939909e-03
7.907208105601734593e-03
9.942034684036578016e-03
8.001918781507948858e-03
3.905499793483840909e-03
6.689772838020913810e-04
-1.760756204283755750e-03
-4.362027971563420085e-03
-6.893338599631287054e-03
-5.901364372810285336e-03
-3.411839013731064740e-03
-2.958266043799204041e-03
-3.782617322207549974e-03
-1.752863670499058089e-03
2.240227551716277715e-03
4.718420413901242352e-03
6.933607872617506516e-03
6.164261413777862540e-03
3.187728648895790315e-03
-1.689457906046539122e-03
-4.206743301421991300e-03
-1.030708972106812987e-03
6.348483845069998388e-04
1.424495249987763903e-04
-2.572188912691360523e-04
-4.468264910728226452e-04
-1.523364027425669299e-03
-2.896102751297316685e-03
-1.369061804752704772e-03
2.298708208215233251e-03
3.393092392518827233e-03
7.207514240540566783e-04
-2.782302196808480056e-03
-6.309334240968133244e-03
-4.930089084918340067e-03
9.446856367609630890e-04
4.490489066981249826e-03
4.518828543712843752e-03
3.489577329133081683e-03
2.778161816454188457e-03
1.606780877679513629e-03
1.470892240697159372e-03
1.412376187856469439e-03
-1.444983490225299643e-04
-3.251043932942581597e-03
-5.512712313144652043e-03
-4.677871614810545468e-03
-1.685759902889131731e-03
4.035585891004810576e-04
-3.865282527033180927e-04
-6.822948826893191897e-05
4.736720511713148128e-04
1.581246927673127679e-03
2.225035621687205395e-03
2.288704878130876953e-03
3.633680083857728296e-03
1.246556515209639067e-03
-3.944899630715583035e-03
-3.698827356499928120e-03
-3.116546291186283080e-04
2.538073299391066691e-03
2.690102761393302344e-03
1.143787790742355524e-04
-4.930700183927164615e-04
-5.416965464764953884e-04
-1.593207900965125769e-03
-4.749014015687956329e-03
-2.713762623293110472e-03
4.794778114980897607e-03
5.553732359827171124e-03
4.896035234354232171e-03
4.654595228415508816e-03
-2.329337755464039317e-03
-1.175793113295759036e-02
-1.092777806304485837e-02
-2.381727696445748443e-03
3.717879080363455796e-03
5.148717862821624615e-03
2.129697672290347364e-03
1.892777541753423373e-03
4.182020523370358171e-03
3.386134130086978795e-03
8.961864268377098047e-04
-5.401818968738030186e-04
-1.394765102015878885e-03
-2.151579375323232814e-03
-5.567208920838790124e-04
-7.699319345782388658e-04
-1.917114116783714137e-03
-1.444519172610791340e-03
-1.220390411173463132e-03
7.056967547428766091e-04
1.252724185240959055e-03
-1.741636437654211882e-03
-3.571461969798410581e-03
-2.124719123546565513e-03
1.809839288770801261e-03
5.914625995779889713e-03
9.241966997120803357e-03
6.721984102044918814e-03
1.677654946053795844e-03
-1.494861524494532981e-03
-5.407822966399176458e-03
-1.067377796551973769e-02
-1.147651948086482639e-02
-7.471531539471857816e-03
-4.308550692065181279e-04
8.498627024298120725e-03
1.070099557117865606e-02
7.325896650595783988e-03
1.499319858198374170e-03
-2.750205350176547839e-03
-4.462692981725738771e-03
-3.307380393479281665e-03
-1.109387560239361503e-03
8.970474132095838373e-04
1.917005400391607293e-03
2.512381951034006917e-03
6.130888893223597653e-03
5.225004094681818916e-03
-7.369021858256160707e-04
-4.195714187315908138e-03
-4.142954562084280069e-03
-2.757386394531534304e-03
-5.949113402128811655e-05
-2.148538786670038322e-03
-7.927518179915269900e-03
-8.648416556996926796e-03
-2.719182265288655736e-03
