-3.269155856265020671e-02
-3.281431356597685339e-02
-3.291561658782726080e-02
-3.299480906194152824e-02
-3.305136266278694418e-02
-3.308488503863351443e-02
-3.309512266340806919e-02
-3.308196081856214915e-02
-3.304542100009541516e-02
-3.298565576088979823e-02
-3.290294119855682875e-02
-3.279766745046589632e-02
-3.267032732889887936e-02
-3.252150352663932958e-02
-3.235185466493482181e-02
-3.216210051239336287e-02
-3.195300677005121631e-02
-3.172536961822400997e-02
-3.148000046632901811e-02
-3.121771119520854940e-02
-3.093930011432438620e-02
-3.064553892708356958e-02
-3.033716099593051010e-02
-3.001485098546313735e-02
-2.967923608853057643e-02
-2.933087889966701917e-02
-2.897027213149816482e-02
-2.859783502719739218e-02
-2.821391155489102326e-02
-2.781877044667627197e-02
-2.741260685871734284e-02
-2.699554555423957364e-02
-2.656764550024099530e-02
-2.612890574168024935e-02
-2.567927227781772667e-02
-2.521864589152914699e-02
-2.474689058119395463e-02
-2.426384241554963711e-02
-2.376931861931265433e-02
-2.326312674595203828e-02
-2.274507358860023906e-02
-2.221497371892524469e-02
-2.167265748386569893e-02
-2.111797825727498856e-02
-2.055081886702818383e-02
-1.997109710524735265e-02
-1.937877016689636134e-02
-1.877383800543241596e-02
-1.815634554111531310e-02
-1.752638378063415062e-02
-1.688408983973220534e-02
-1.622964586255114250e-02
-1.556327700620774301e-02
-1.488524853984463797e-02
-1.419586208568736525e-02
-1.349545129736147257e-02
-1.278437692969846239e-02
-1.206302154724846372e-02
-1.133178400246742136e-02
-1.059107378844086587e-02
-9.841305473148017138e-03
-9.082893278962698297e-03
-8.316246006205169419e-03
-7.541762387595463135e-03
-6.759826945972349094e-03
-5.970806514598050313e-03
-5.175047432454851770e-03
-4.372873504321278526e-03
-3.564584752849188787e-03
-2.750456930302339151e-03
-1.930741866263837496e-03
-1.105668526297422065e-03
-2.754448845814758996e-04
5.597396519729603897e-04
1.399711153068446253e-03
2.244307570947183268e-03
3.093374758952936385e-03
3.946762197025876009e-03
4.804318496137907797e-03
5.665886840296642350e-03
6.531300475091678104e-03
7.400378308445428044e-03
8.272920816324592572e-03
9.148706307189757511e-03
1.002748759428334809e-02
1.090898923717907761e-02
1.179290536648452091e-02
1.267889814198871340e-02
1.356659692186657634e-02
1.445559814589952169e-02
1.534546595902160776e-02
1.623573346521573965e-02
1.712590477042885001e-02
1.801545762789836733e-02
1.890384668956088601e-02
1.979050728125314809e-02
2.067485961612888432e-02
2.155631340953739067e-02
2.243427280000120580e-02
2.330814138663299742e-02
2.417732732829622200e-02
2.504124848467743913e-02
2.589933740314464411e-02
2.675104606593540005e-02
2.759585031485090045e-02
2.843325395558860685e-02
2.926279225705872081e-02
3.008403495879877557e-02
3.089658867821577087e-02
3.170009872506838328e-02
3.249425015512636544e-02
3.327876819513089085e-02
3.405341799582820017e-02
3.481800361251905646e-02
3.557236643817433819e-02
3.631638294339819412e-02
3.704996186539197961e-02
3.777304098192076770e-02
3.848558326832724613e-02
3.918757281978817175e-02
3.987901043213091384e-02
4.055990904241688066e-02
4.123028903576736459e-02
4.189017355103225038e-02
4.253958384079545296e-02
4.317853483510799423e-02
4.380703092281509198e-02
4.442506200199612676e-02
4.503259996502641249e-02
4.562959564015548614e-02
4.621597621969353309e-02
4.679164319696318269e-02
4.735647085898165437e-02
4.791030540283541805e-02
4.845296464180605389e-02
4.898423819304122823e-02
4.950388827181143037e-02
5.001165104213976115e-02
5.050723840200534859e-02
5.099034028976480448e-02
5.146062724163192464e-02
5.191775331203447169e-02
5.236135930501117919e-02
5.279107611923479493e-02
5.320652816553207015e-02
5.360733683667113364e-02
5.399312391586965493e-02
5.436351489842726481e-02
5.471814204191612074e-02
5.505664716244742379e-02
5.537868412059612777e-02
5.568392090262282851e-02
5.597204128117411887e-02
5.624274607579080737e-02
5.649575383655268401e-02
5.673080109245004499e-02
5.694764205310405558e-02
5.714604782364453295e-02
5.732580517979600498e-02
5.748671480845544274e-02
5.762858914981270481e-02
5.775124992724860185e-02
5.785452522862445657e-02
5.793824640952808386e-02
5.800224471972687673e-02
5.804634779713398890e-02
5.807037620646269410e-02
5.807413979183587149e-02
5.805743425085909543e-02
5.802003773443856899e-02
5.796170778677264823e-02
5.788217847369143271e-02
5.778115791419449060e-02
5.765832617626585194e-02
5.751333368535493928e-02
5.734580000872329525e-02
5.715531331806778664e-02
5.694143026816245873e-02
5.670367653857438794e-02
5.644154786233823023e-02
5.615451173834395959e-02
5.584200961695096055e-02
5.550345963852791609e-02
5.513825991187100428e-02
5.474579221009351349e-02
5.432542612502566648e-02
5.387652363361818825e-02
5.339844386582787150e-02
5.289054824198637789e-02
5.235220576641498591e-02
5.178279843343443906e-02
5.118172660946769537e-02
5.054841452222973847e-02
4.988231559146621280e-02
4.918291764709583486e-02
4.844974788106930219e-02
4.768237758651193425e-02
4.688042647818525116e-02
4.604356675119276876e-02
4.517152671013369147e-02
4.426409388581322574e-02
4.332111771901930170e-02
4.234251176552230461e-02
4.132825536172466535e-02
4.027839481130128518e-02
3.919304407864936113e-02
3.807238499860167436e-02
3.691666706242610618e-02
3.572620671932680986e-02
3.450138629986766736e-02
3.324265256100887578e-02
3.195051489358752966e-02
3.062554332389261225e-02
2.926836623172607982e-02
2.787966792747995429e-02
2.646018610478281449e-02
2.501070924976067297e-02
2.353207396388236686e-02
2.202516244575078788e-02
2.049089987233449969e-02
1.893025200874791716e-02
1.734422295068762526e-02
1.573385306755137325e-02
1.410021713174411211e-02
1.244442268068114872e-02
1.076760865198754177e-02
9.070944178976735398e-03
7.355627690708563260e-03
5.622886228531081762e-03
3.873975003002610301e-03
2.110177169217737885e-03
3.328036850327499856e-04
-1.456806616254403570e-03
-3.257286869942709745e-03
-5.067241972626545382e-03
-6.885248358728609380e-03
-8.709853814484455614e-03
-1.053957740554164330e-02
-1.237290940509496069e-02
-1.420831159134302267e-02
-1.604421764353384378e-02
-1.787903382785124493e-02
-1.971114005074560069e-02
-2.153889116769207995e-02
-2.336061880722428707e-02
-2.517463355441458203e-02
-2.697922750816417886e-02
-2.877267736012641131e-02
-3.055324791231939924e-02
-3.231919598931220355e-02
-3.406877490176223044e-02
-3.580023929168190538e-02
-3.751185036652455312e-02
-3.920188150887143896e-02
-4.086862424333898014e-02
-4.251039449428301725e-02
-4.412553906220226252e-02
-4.571244226396892901e-02
-4.726953269643196370e-02
-4.879529007943797514e-02
-5.028825206429162614e-02
-5.174702090005635358e-02
-5.317026995717501897e-02
-5.455675001535523899e-02
-5.590529516937681187e-02
-5.721482839611075760e-02
-5.848436664429517567e-02
-5.971302535812526152e-02
-6.090002249252439437e-02
-6.204468174454291773e-02
-6.314643519677042016e-02
-6.420482517608748496e-02
-6.521950534671795696e-02
-6.619024102594454895e-02
-6.711690864112886123e-02
-6.799949443707717367e-02
-6.883809228360081300e-02
-6.963290070656268094e-02
-7.038421916135736978e-02
-7.109244356898648809e-02
-7.175806109726660942e-02
-7.238164425582165051e-02
-7.296384449883985823e-02
-7.350538516498436592e-02
-7.400705407441433847e-02
-7.446969563277651416e-02
-7.489420269212075654e-02
-7.528150813510514627e-02
-7.563257639988439640e-02
-7.594839489096941176e-02
-7.622996550492228129e-02
-7.647829625450242030e-02
-7.669439307499913150e-02
-7.687925205904871939e-02
-7.703385201477086497e-02
-7.715914753020794437e-02
-7.725606253321072592e-02
-7.732548451178673787e-02
-7.736825938402511205e-02
-7.738518707202592106e-02
-7.737701782501670011e-02
-7.734444930955962361e-02
-7.728812453454465825e-02
-7.720863059972928044e-02
-7.710649822348258908e-02
-7.698220210255182772e-02
-7.683616205655527387e-02
-7.666874494916831040e-02
-7.648026724851994529e-02
-7.627099840544304676e-02
-7.604116479708944443e-02
-7.579095415726599949e-02
-7.552052061034461583e-02
-7.522999006493867602e-02
-7.491946600625314090e-02
-7.458903553910861683e-02
-7.423877561208280795e-02
-7.386875931393584171e-02
-7.347906223818029270e-02
-7.306976868916237322e-02
-7.264097782769779466e-02
-7.219280954858509070e-02
-7.172541003499488532e-02
-7.123895692798881685e-02
-7.073366401652952939e-02
-7.020978548467872449e-02
-6.966761950887599697e-02
-6.910751131908290934e-02
-6.852985555001610274e-02
-6.793509791115850960e-02
-6.732373620291995375e-02
-6.669632058501911986e-02
-6.605345316351204921e-02
-6.539578679262578187e-02
-6.472402324124343354e-02
-6.403891066422415235e-02
-6.334124046317222978e-02
-6.263184349673166229e-02
-6.191158582699787111e-02
-6.118136389872318864e-02
-6.044209923954108749e-02
-5.969473285124585887e-02
-5.894021935690822722e-02
-5.817952079999793441e-02
-5.741360036049580895e-02
-5.664341594627943233e-02
-5.586991376670860654e-02
-5.509402203023948397e-02
-5.431664477614076697e-02
-5.353865591634318633e-02
-5.276089355668181491e-02
-5.198415462162533918e-02
-5.120919001062788217e-02
-5.043670010486111382e-02
-4.966733089725774986e-02
-4.890167059661078286e-02
-4.814024678127475781e-02
-4.738352429327572640e-02
-4.663190369188444789e-02
-4.588572041497216564e-02
-4.514524450841808645e-02
-4.441068104803689437e-02
-4.368217123182262934e-02
-4.295979400516036079e-02
-4.224356830449333550e-02
-4.153345591876253518e-02
-4.082936480645628363e-02
-4.013115288961528748e-02
-3.943863224012266605e-02
-3.875157369461108142e-02
-3.806971169684528200e-02
-3.739274939970401584e-02
-3.672036400462059397e-02
-3.605221216400023021e-02
-3.538793536594486699e-02
-3.472716544104732794e-02
-3.406952990310684742e-02
-3.341465713108349167e-02
-3.276218142868683736e-02
-3.211174777438421946e-02
-3.146301627734943152e-02
-3.081566628491266835e-02
-3.016940016537738092e-02
-2.952394658870535760e-02
-2.887906341305422619e-02
-2.823454011329039337e-02
-2.759019966881334079e-02
-2.694590002130722514e-02
-2.630153504230908768e-02
-2.565703497952608048e-02
-2.501236648171137680e-02
-2.436753215294997638e-02
-2.372256971660170743e-02
-2.307755071315401724e-02
-2.243257887044671633e-02
-2.178778817497119963e-02
-2.114334061204765913e-02
-2.049942369309726634e-02
-1.985624781549166079e-02
-1.921404339197674283e-02
-1.857305796884508101e-02
-1.793355319888190191e-02
-1.729580186671510200e-02
-1.666008499351048083e-02
-1.602668892123839187e-02
-1.539590259692673671e-02
-1.476801494477936877e-02
-1.414331244545038134e-02
-1.352207698309945694e-02
-1.290458383157942063e-02
-1.229109995944970175e-02
-1.168188257293688304e-02
-1.107717792031466357e-02
-1.047722041769055812e-02
-9.882231994054208740e-03
-9.292421702344779919e-03
-8.707985592263768962e-03
-8.129106811540234845e-03
-7.555955959917221715e-03
-6.988691544719275762e-03
-6.427460669530527665e-03
-5.872399779455990572e-03
-5.323635553303149130e-03
-4.781285899948631811e-03
-4.245460899327044638e-03
-3.716263787028697453e-03
-3.193791965431650500e-03
-2.678137840039554116e-03
-2.169389726938361369e-03
-1.667632469176445146e-03
-1.172948051068682315e-03
-6.854160695154599015e-04
-2.051139724359347949e-04
2.678828345174544289e-04
7.335010039834113753e-04
1.191669510157852396e-03
1.642320014585455521e-03
2.085387448582284343e-03
2.520810719592456433e-03
2.948533493738752717e-03
3.368505130776942597e-03
3.780681714697582945e-03
4.185027066502389551e-03
4.581513830248496420e-03
4.970124571271516446e-03
5.350852763095366969e-03
5.723703752662266837e-03
6.088695633060996724e-03
6.445859956239818195e-03
6.795242298185597690e-03
7.136902593163313262e-03
7.470915315562869086e-03
7.797369408578154124e-03
8.116367955933932038e-03
8.428027633854804843e-03
8.732477862343494129e-03
9.029859743966101721e-03
9.320324721906660809e-03
9.604032983491581771e-03
9.881151715897033838e-03
1.015185306127100277e-02
1.041631195160991168e-02
1.067470381717337997e-02
1.092720216171873954e-02
1.117397610361523311e-02
1.141518786478587510e-02
1.165099031627363918e-02
1.188152457213653528e-02
1.210691765693837352e-02
1.232728046459941745e-02
1.254270582759294331e-02
1.275326685763527625e-02
1.295901557716279406e-02
1.315998195945894920e-02
1.335617323770992536e-02
1.354757358729551976e-02
1.373414433082041641e-02
1.391582452483227511e-02
1.409253191868979800e-02
1.426416441910913387e-02
1.443060196930859122e-02
1.459170878042951106e-02
1.474733600603137136e-02
1.489732479379183260e-02
1.504150957752563821e-02
1.517972162809610656e-02
1.531179292835703476e-02
1.543756012000522225e-02
1.555686853998043510e-02
1.566957631164196327e-02
1.577555841813274573e-02
1.587471062883464082e-02
1.596695325172815469e-02
1.605223465238679245e-02
1.613053441267554844e-02
1.620186613325084665e-02
1.626627972219203688e-02
1.632386326920078762e-02
1.637474433031917490e-02
1.641909055718306781e-02
1.645710978680160752e-02
1.648904944459855804e-02
1.651519525423566712e-02
1.653586923270359763e-02
1.655142713747387653e-02
1.656225521756867977e-02
1.656876630932830122e-02
1.657139541291016704e-02
1.657059467854438486e-02
1.656682799115712090e-02
1.656056513419972703e-02
1.655227569379680991e-02
1.654242269180879535e-02
1.653145603875711203e-02
1.651980605197070698e-02
1.650787692970261122e-02
1.649604050915647047e-02
1.648463022868821778e-02
1.647393545726490854e-02
1.646419634174766528e-02
1.645559913245054837e-02
1.644827226864742364e-02
1.644228315669455168e-02
1.643763573939397565e-02
1.643426892150529409e-02
1.643205587437691212e-02
1.643080440374038859e-02
1.643025819873803958e-02
1.643009910729225850e-02
1.642995033563167048e-02
1.642938058706411297e-02
1.642790916484931571e-02
1.642501193329737319e-02
1.642012804606820739e-02
1.641266736360601913e-02
1.640201854360677503e-02
1.638755761169576053e-02
1.636865698702275398e-02
1.634469471698007242e-02
1.631506392663145330e-02
1.627918216685096675e-02
1.623650079266750548e-02
1.618651402619238067e-02
1.612876758032982111e-02
1.606286676149368611e-02
1.598848389347051410e-02
1.590536498181279595e-02
1.581333544610088668e-02
1.571230483067484474e-02
1.560227047019579344e-02
1.548331997045996646e-02
1.535563240482341885e-02
1.521947825344986162e-02
1.507521803919158535e-02
1.492329966812501289e-02
1.476425444411997440e-02
1.459869182062220432e-02
1.442729296227798774e-02
1.425080309501166806e-02
1.407002286959186527e-02
1.388579871232328324e-02
1.369901234044981417e-02
1.351056960718827540e-02
1.332138878311557410e-02
1.313238838753907380e-02
1.294447480954189628e-02
1.275852987275275310e-02
1.257539850117966700e-02
1.239587666037564664e-02
1.222069977592059146e-02
1.205053175221022614e-02
1.188595483150105270e-02
1.172746037610145411e-02
1.157544071644395038e-02
1.143018234431735815e-02
1.129186037933851625e-02
1.116053445721303973e-02
1.103614616458940129e-02
1.091851808522102153e-02
1.080735443643919720e-02
1.070224334203687122e-02
1.060266077762474918e-02
1.050797609421346215e-02
1.041745910917208501e-02
1.033028862031931151e-02
1.024556235557697384e-02
1.016230816517174965e-02
1.007949629311283291e-02
9.996052708664463979e-03
9.910873229270660348e-03
9.822838202477091052e-03
9.730827627791977311e-03
9.633736545713953575e-03
9.530490431108453592e-03
9.420060390500658784e-03
9.301477938943189527e-03
9.173849262989388492e-03
9.036368595363265116e-03
8.888330653815928323e-03
8.729141875657682806e-03
8.558330367673193384e-03
8.375554366417478289e-03
8.180609062638502169e-03
7.973431717190480189e-03
7.754105048818495972e-03
7.522858673791546318e-03
7.280068737804223748e-03
7.026255604353527640e-03
6.762079619269863520e-03
6.488335119097974127e-03
6.205942592314979064e-03
5.915939143292582927e-03
5.619467452136935048e-03
5.317763215803298499e-03
5.012141365487433192e-03
4.703981155268400008e-03
4.394710344736664151e-03
4.085788677195948543e-03
3.778690857046448914e-03
3.474889256524054271e-03
3.175836593049574316e-03
2.882948736247423899e-03
2.597587951521174079e-03
2.321046806828093705e-03
2.054532894144654991e-03
1.799154605819520926e-03
1.555908115278977063e-03
1.325665804748747852e-03
1.109166206121914647e-03
9.070056349859586782e-04
7.196316813541179646e-04
5.473385822343356921e-04
3.902644959654357425e-04
2.483907991239771404e-04
1.215433280518443411e-04
9.395589139418250444e-06
-8.852605187527776772e-05
-1.728353913954306948e-04
-2.442776800574376558e-04
-3.037192818500425830e-04
-3.521358105417189775e-04
-3.905989885885019974e-04
-4.202623620181939823e-04
-4.423461217538614243e-04
-4.581211600976535319e-04
-4.688926178381024523e-04
-4.759831357608134252e-04
-4.807160997256371008e-04
-4.843990035754152409e-04
-4.883072710067589165e-04
-4.936686506187502313e-04
-5.016484081925905603e-04
-5.133355669708890377e-04
-5.297303605625240230e-04
-5.517329801493851393e-04
-5.801339024362903380e-04
-6.156057404092096091e-04
-6.586968640977097908e-04
-7.098268139209250056e-04
-7.692834715400042548e-04
-8.372221712107594249e-04
-9.136665780960139200e-04
-9.985114317509588729e-04
-1.091526985241084678e-03
-1.192365093125809933e-03
-1.300566921409723655e-03
-1.415572062828468047e-03
-1.536728876687870528e-03
-1.663306004987960812e-03
-1.794504768812082074e-03
-1.929472356860436168e-03
-2.067315492274622232e-03
-2.207114464770933149e-03
-2.347937236051414554e-03
-2.488853531262600824e-03
-2.628948566976122177e-03
-2.767336301110294265e-03
-2.903171974230191708e-03
-3.035663813002775421e-03
-3.164083666104671681e-03
-3.287776476035962018e-03
-3.406168424939096714e-03
-3.518773627100094288e-03
-3.625199433464022444e-03
-3.725150090807052405e-03
-3.818428784643604877e-03
-3.904938120117182852e-03
-3.984678979481760634e-03
-4.057747840974970654e-03
-4.124332544523824119e-03
-4.184706728767356200e-03
-4.239222930894628698e-03
-4.288304435275238323e-03
-4.332436154065905272e-03
-4.372154598852315451e-03
-4.408037186364087423e-03
-4.440690966808200080e-03
-4.470741040358194515e-03
-4.498818774023063440e-03
-4.525550120609996528e-03
-4.551544144560966745e-03
-4.577381889418133051e-03
-4.603605941581209900e-03
-4.630710715149194759e-03
-4.659133629864613789e-03
-4.689247338798515838e-03
-4.721353187141156052e-03
-4.755675839062593717e-03
-4.792359319363868192e-03
-4.831464456790945071e-03
-4.872967789175849419e-03
-4.916761859950213864e-03
-4.962657025031692523e-03
-5.010384674777441059e-03
-5.059601738504713488e-03
-5.109896527855755689e-03
-5.160795683057733778e-03
-5.211772211385784677e-03
-5.262254487893368998e-03
-5.311635918086032859e-03
-5.359285247938291516e-03
-5.404557341430118490e-03
-5.446804220479798883e-03
-5.485386171244648751e-03
-5.519682744437197364e-03
-5.549103468004260020e-03
-5.573098117730995379e-03
-5.591166371223776389e-03
-5.602866638408971270e-03
-5.607823999244652795e-03
-5.605737099084781572e-03
-5.596383863719453511e-03
-5.579625931451488371e-03
-5.555411799205766353e-03
-5.523778552942593643e-03
-5.484852238520235811e-03
-5.438846740221409126e-03
-5.386061276811754221e-03
-5.326876583828546625e-03
-5.261749747165026490e-03
-5.191207859784158565e-03
-5.115840507616305731e-03
-5.036291241153956211e-03
-4.953248283881900998e-03
-4.867434401292041607e-03
-4.779596258830325767e-03
-4.690493378114623385e-03
-4.600886878634995701e-03
-4.511528232843099728e-03
-4.423148145873030679e-03
-4.336445681793956765e-03
-4.252077896994731904e-03
-4.170650146640961231e-03
-4.092707207098734978e-03
-4.018725354166201476e-03
-3.949105458691198368e-03
-3.884167288613770037e-03
-3.824145066829361637e-03
-3.769184421176625336e-03
-3.719340664242940832e-03
-3.674578490028643490e-03
-3.634773093583786117e-03
-3.599712778023043697e-03
-3.569102787696248717e-03
-3.542570553192605533e-03
-3.519672107236698853e-03
-3.499899614559790970e-03
-3.482690011090875705e-03
-3.467434337853281517e-03
-3.453487940126915429e-03
-3.440181139229002514e-03
-3.426830438153889106e-03
-3.412749822251073296e-03
-3.397262164299121468e-03
-3.379710492211996167e-03
-3.359469020432681932e-03
-3.335953562679232643e-03
-3.308631489400036367e-03
-3.277030749746771398e-03
-3.240748039993023109e-03
-3.199455851869015353e-03
-3.152908407051784045e-03
-3.100946308740217677e-03
-3.043499870964590237e-03
-2.980591034241926018e-03
-2.912333866280300554e-03
-2.838933636237163730e-03
-2.760684477195602272e-03
-2.677965645433613706e-03
-2.591236472131562812e-03
-2.501030062788258540e-03
-2.407945857344613149e-03
-2.312641006027963114e-03
-2.215820981741934564e-03
-2.118229335693097137e-03
-2.020636864826326137e-03
-1.923830267979085825e-03
-1.828600570874293688e-03
-1.735731317019864692e-03
-1.645986939253336022e-03
-1.560101354552041741e-03
-1.478766837362414498e-03
-1.402623595024050191e-03
-1.332249991713173364e-03
-1.268153676963743254e-03
-1.210763692308868987e-03
-1.160423750310462252e-03
-1.117386652724865637e-03
-1.081810133746152281e-03
-1.053753949398694148e-03
-1.033178483541994036e-03
-1.019944691177355643e-03
-1.013815505603748697e-03
-1.014458736205274244e-03
-1.021451222499577399e-03
-1.034284416767627035e-03
-1.052371122342489950e-03
-1.075053407031628964e-03
-1.101611479947560163e-03
-1.131273556241129677e-03
-1.163226333711486239e-03
-1.196626142393969559e-03
-1.230610481598521516e-03
-1.264309877432988165e-03
-1.296859768197459670e-03
-1.327412338563019453e-03
-1.355148095641701403e-03
-1.379286999030502605e-03
-1.399099039708910641e-03
-1.413914058187565933e-03
-1.423130733452339976e-03
-1.426224556178820038e-03
-1.422754686300738928e-03
-1.412369596671778299e-03
-1.394811434902233941e-03
-1.369919085613469697e-03
-1.337629863789322740e-03
-1.297979739246749855e-03
-1.251102243522443994e-03
-1.197226028183764369e-03
-1.136671017622649122e-03
-1.069843389733470982e-03
-9.972293364812600397e-04
-9.193877404102105983e-04
-8.369419759279984709e-04
-7.505707019143273255e-04
-6.609980645240399631e-04
-5.689833981416787074e-04
-4.753104146221460795e-04
-3.807762673121657714e-04
-2.861805607677488333e-04
-1.923143715236975374e-04
-9.994959218757966857e-05
-9.828666255198104600e-06
7.734505062198929247e-05
1.609162852770039398e-04
2.402859882233458137e-04
3.149185022123070828e-04
3.843476602896497775e-04
4.481817450223638671e-04
5.061072686617494208e-04
5.578915432078094920e-04
6.033838987215880143e-04
6.425156371297598363e-04
6.752987861820976788e-04
7.018234888889286543e-04
7.222543626199277650e-04
7.368256459612577709e-04
7.458353783187959178e-04
7.496386793409618018e-04
7.486401810741296096e-04
7.432858543584535543e-04
7.340543053041566736e-04
7.214477190447959876e-04
7.059826066899391357e-04
6.881804701971421141e-04
6.685586287788481937e-04
6.476212450778008525e-04
6.258508542121857471e-04
6.037004175302350872e-04
5.815861045120159422e-04
5.598808784158348754e-04
5.389090162518853219e-04
5.189416965622297481e-04
5.001936299045486737e-04
4.828209301842301127e-04
4.669201735433246847e-04
4.525286087140583812e-04
4.396256004361163202e-04
4.281352869084982136e-04
4.179303328928328249e-04
4.088367557331821296e-04
4.006397133044283247e-04
3.930901802804252646e-04
3.859123363752599766e-04
3.788116144882565589e-04
3.714831641969945772e-04
3.636206224489560304e-04
3.549250002711316085e-04
3.451135512368537169e-04
3.339284076096122331e-04
3.211448258170101393e-04
3.065788915012677236e-04
2.900945041431556254e-04
2.716095156411589160e-04
2.511008297388854873e-04
2.286084228381861404e-04
2.042381404939742884e-04
1.781631989093944164e-04
1.506242459037463127e-04
1.219281541048600193e-04
9.244530448979732180e-05
6.260549489505285012e-05
3.289250266475178503e-05
3.837338120861792376e-06
-2.398966488787676067e-05
-4.998791522917165936e-05
-7.353653506677495350e-05
-9.400519606337193700e-05
-1.107655481092823543e-04
-1.232031209352319682e-04
-1.307294521669853605e-04
-1.327942104059185076e-04
-1.288971839139869816e-04
-1.185998862946373658e-04
-1.015365533931121490e-04
-7.742426285896148125e-05
-4.607207491135443828e-05
-7.388947393143973544e-06
3.860973808599581409e-05
9.179717456986103742e-05
1.519318476526869259e-04
2.186559887260597650e-04
2.914959119448048953e-04
3.698642172109305789e-04
4.530639312686560714e-04
5.402945916747704585e-04
6.306601704970442269e-04
7.231787523087474098e-04
8.167939532683263747e-04
9.103877994219081431e-04
1.002794963696087118e-03
1.092818218067553989e-03
1.179244860792554505e-03
1.260863736915897966e-03
1.336482794221295232e-03
1.404946766294023694e-03
1.465154738428538347e-03
1.516077376359900933e-03
1.556773419183257344e-03
1.586405287580246659e-03
1.604253435658048845e-03
1.609729220211153196e-03
1.602386126649406155e-03
1.581928990680195454e-03
1.548221249737187109e-03
1.501289830286551153e-03
1.441327687701284216e-03
1.368693970523242537e-03
1.283911664940967949e-03
1.187662751680439817e-03
1.080780903066897889e-03
9.642418386500907924e-04
8.391514233574929454e-04
7.067316708088627148e-04
5.683048496277144819e-04
4.252759717610527803e-04
2.791138212425998532e-04
1.313309160319581367e-04
-1.653740995765625981e-05
-1.629543008332867606e-04
-3.064029450758892358e-04
-4.454078526415201997e-04
-5.785556212111338768e-04
-7.045148349820525187e-04
-8.220547758212634745e-04
-9.300625763906188821e-04
-1.027558591188454992e-03
-1.113709735359080322e-03
-1.187840481429313418e-03
-1.249441418821285168e-03
-1.298175213679970789e-03
-1.333879768205863776e-03
-1.356568633942568198e-03
-1.366428606970007502e-03
-1.363814570625507868e-03
-1.349241642223395063e-03
-1.323374764960051023e-03
-1.287015939799348880e-03
-1.241089285067515291e-03
-1.186624197266593307e-03
-1.124736890067353900e-03
-1.056610709066861361e-03
-9.834754084019330794e-04
-9.065859377959825877e-04
-8.272009749247279109e-04
-7.465616565589601634e-04
-6.658709113143002198e-04
-5.862737013019363392e-04
-5.088384965041820160e-04
-4.345404878950540257e-04
-3.642466433604444904e-04
-2.987029970258690110e-04
-2.385243675971388129e-04
-1.841867215098648490e-04
-1.360222015973644731e-04
-9.421707619156118063e-05
-5.881254972513972278e-05
-2.970843815575826860e-05
-6.669575787977202431e-06
1.066507215081188082e-05
2.277086118875246869e-05
3.022367891122087341e-05
3.368419845063382653e-05
3.388050452337917077e-05
3.158941821423160221e-05
2.761684999910697286e-05
2.277775092001341499e-05
1.787592066444587202e-05
1.368411859138081180e-05
1.092488880952686864e-05
1.025260918846940001e-05
1.223696804593422136e-05
1.734838391304641421e-05
2.594570562023241323e-05
3.826628491496216334e-05
5.441887405135735305e-05
7.437944428456863511e-05
9.798998334115494935e-05
1.249605750652152511e-04
1.548743621802127360e-04
1.871957171701639391e-04
2.212813323240036948e-04
2.563940384048394336e-04
2.917190769407340201e-04
3.263826052046078980e-04
3.594720517815013449e-04
3.900578357822367362e-04
4.172161197436030926e-04
4.400520240522858462e-04
4.577229378702505160e-04
4.694613050232559039e-04
4.745964704420190341e-04
4.725750285311076872e-04
4.629791974911340964e-04
4.455427978501601228e-04
4.201644372752029151e-04
3.869175045659797320e-04
3.460566809657587384e-04
2.980207154796102602e-04
2.434312764332262791e-04
1.830878644916167375e-04
1.179586534780507900e-04
4.916737789456303217e-05
-2.202358075988018467e-05
-9.423371329971901792e-05
-1.659881852372877453e-04
-2.357445731412526903e-04
-3.019220384755724328e-04
-3.629324408932942591e-04
-4.172128577068054574e-04
-4.632588239377062860e-04
-4.996577638088674223e-04
-5.251218504003973744e-04
-5.385196613924609797e-04
-5.389059337535691534e-04
-5.255487595134769900e-04
-4.979536610590291120e-04
-4.558838326068813613e-04
-3.993761083936126681e-04
-3.287522524738030667e-04
-2.446250302982721342e-04
-1.478989057195194976e-04
-3.976504560708622580e-05
7.830933676219633394e-05
2.045974486471033749e-04
3.371349496450911352e-04
4.737473704526228447e-04
6.120825425782765910e-04
7.496476459953967022e-04
8.838503340368081317e-04
1.012043267998983262e-03
1.131571326870757293e-03
1.239820722117070768e-03
1.334269105819915887e-03
1.412535915747078780e-03
1.472431898681330481e-03
1.512006859266921055e-03
1.529594757533202405e-03
1.523855280376994800e-03
1.493810905497374494e-03
1.438878642916398927e-03
1.358895793101484598e-03
1.254139014744639138e-03
1.125336042067564060e-03
9.736698543756791774e-04
8.007747679103294821e-04
6.087243440485884957e-04
4.000110375030864951e-04
1.775178096639721810e-04
-5.551812633643022184e-05
-2.955490133588019514e-04
-5.387671305760263372e-04
-7.811615332852941225e-04
-1.018580133740753331e-03
-1.246796293118536706e-03
-1.461578722500585454e-03
-1.658763636834898348e-03
-1.834328029091632836e-03
-1.984462714142216054e-03
-2.105643947504712201e-03
-2.194702294516453090e-03
-2.248887571516766833e-03
-2.265928487444616741e-03
-2.244085937883180670e-03
-2.182198932704527972e-03
-2.079722107186069043e-03
-1.936753954120161176e-03
-1.754055191417527469e-03
-1.533056602546204210e-03
-1.275856096318401947e-03
-9.852046460169074441e-04
-6.644812913938636517e-04
-3.176572915417198001e-04
5.075016748170339901e-05
4.357342873394902134e-04
8.318640251388322894e-04
1.233357648835090069e-03
1.634163473586997418e-03
2.028046510647556287e-03
2.408679756734645374e-03
2.769738646880711211e-03
3.104997077784884835e-03
3.408423507697744357e-03
3.674275527873625737e-03
3.897191344090863811e-03
4.072276548621578396e-03
4.195184717592372048e-03
4.262190422545809008e-03
4.270253266560178340e-03
4.217071965091214597e-03
4.101127334581794980e-03
3.921713311674824252e-03
3.678955417201080786e-03
3.373816338143533974e-03
3.008088307389163510e-03
2.584372289034816625e-03
2.106044290514911665e-03
1.577209195526558475e-03
1.002642868129872879e-03
3.877233563106059397e-04
-2.616477319838991637e-04
-9.391322961420838032e-04
-1.638049909678517555e-03
-2.351477556121776488e-03
-3.072353266176806180e-03
-3.793581898393471024e-03
-4.508141302976323948e-03
-5.209187091859334047e-03
-5.890154137136900669e-03
-6.544853247550618675e-03
-7.167561211662988596e-03
-7.753102810660696988e-03
-8.296923272073358085e-03
-8.795150076670938538e-03
-9.244642927731845303e-03
-9.643031175755706688e-03
-9.988738071200896351e-03
-1.028099137599837454e-02
-1.051982031775952967e-02
-1.070603896056857365e-02
-1.084121632254798039e-02
-1.092763394099058143e-02
-1.096823158525467648e-02
-1.096654228688403315e-02
-1.092661788302103434e-02
-1.085294643361603591e-02
-1.075036318049588796e-02
-1.062395656583732702e-02
-1.047897123937216110e-02
-1.032070976979661443e-02
-1.015443492956301201e-02
-9.985274360006988342e-03
-9.818129351965357993e-03
-9.657589519822117052e-03
-9.507854728729607519e-03
-9.372665898180568625e-03
-9.255245777706552421e-03
-9.158250815289316685e-03
-9.083734907249976093e-03
-9.033125625592594576e-03
-9.007213182449531202e-03
-9.006152301112697184e-03
-9.029476749742330541e-03
-9.076126143758089099e-03
-9.144484339187915201e-03
-9.232428466844112835e-03
-9.337387580221245126e-03
-9.456409476929971900e-03
-9.586234331421500388e-03
-9.723373494550829541e-03
-9.864191679279874989e-03
-1.000499087491302057e-02
-1.014209403694893603e-02
-1.027192689323794088e-02
-1.039109599883191425e-02
-1.049646136658003576e-02
-1.058520222146468355e-02
-1.065487429133637858e-02
-1.070345756179653766e-02
-1.072939335310560925e-02
-1.073160993809250605e-02
-1.070953619783459980e-02
-1.066310300465017451e-02
-1.059273229342236854e-02
-1.049931407654226302e-02
-1.038417195751860367e-02
-1.024901787989834605e-02
-1.009589713966197420e-02
-9.927124946431165053e-03
-9.745215970772991287e-03
-9.552808495323526425e-03
-9.352584875134411710e-03
-9.147190247397272295e-03
-8.939151388360997222e-03
-8.730797649233103253e-03
-8.524185940029198674e-03
-8.321031515983942639e-03
-8.122646435320211161e-03
-7.929887260247623845e-03
-7.743113414563381272e-03
-7.562157454313876356e-03
-7.386308214590277255e-03
-7.214307422762154809e-03
-7.044360362292956430e-03
-6.874160482004766648e-03
-6.700927904336605352e-03
-6.521461245957239049e-03
-6.332201855394869495e-03
-6.129309307751621382e-03
-5.908746809973024726e-03
-5.666374858992401578e-03
-5.398051117493766517e-03
-5.099734534456407814e-03
-4.767591357669191850e-03
-4.398100780720753077e-03
-3.988157760922051917e-03
-3.535170618670356504e-03
-3.037151031950538222e-03
-2.492794163398511734e-03
-1.901546768108941738e-03
-1.263661424973574901e-03
-5.802351650705396113e-04
1.467688946254705484e-04
9.145180642571926807e-04
1.719325359665314521e-03
2.556683936246686214e-03
3.421320652103976550e-03
4.307268272042515632e-03
5.207955535672823162e-03
6.116313677341111976e-03
7.024897956908658647e-03
7.926022055735934546e-03
8.811903075653135936e-03
9.674814463454816521e-03
1.050724397728790976e-02
1.130205375272507265e-02
1.205263917728351987e-02
1.275308321122769518e-02
1.339830302334587067e-02
1.398418559429324450e-02
1.450770926757925620e-02
1.496704815531593735e-02
1.536165687129755278e-02
1.569233318807156108e-02
1.596125659351979240e-02
1.617200117441793678e-02
1.632952173671067125e-02
1.644011244017134360e-02
1.651133799091785911e-02
1.655193768263895499e-02
1.657170343216252117e-02
1.658133312048415062e-02
1.659226146500960772e-02
1.661647093949205137e-02
1.666628565746949148e-02
1.675415175894590103e-02
1.689240802783828835e-02
1.709305087637470397e-02
1.736749797991979025e-02
1.772635501832146160e-02
1.817919015614869252e-02
1.873432064906270511e-02
1.939861605030947234e-02
2.017732226872029355e-02
2.107391036378377866e-02
2.208995375548448992e-02
2.322503684612948344e-02
2.447669782092924337e-02
2.584040753622061232e-02
2.730958609987453947e-02
2.887565778823953863e-02
3.052814434291644535e-02
3.225479611133744151e-02
3.404175953786209297e-02
3.587377893091744929e-02
3.773442969360490951e-02
3.960637967273239468e-02
4.147167437757223740e-02
4.331204164323204653e-02
4.510921057328955847e-02
4.684523929012114618e-02
4.850284573778083919e-02
5.006573564462081516e-02
5.151892157955364343e-02
5.284902702386372331e-02
5.404456967273922607e-02
5.509621829334633569e-02
5.599701801638693605e-02
5.674257910422353390e-02
5.733122510293155172e-02
5.776409680584064510e-02
5.804520925748118954e-02
5.818145982252633658e-02
5.818258616311870746e-02
5.806107391969563686e-02
5.783201489965208303e-02
5.751291737169252766e-02
5.712347111991310233e-02
5.668527069292050163e-02
5.622150121872108997e-02
5.575659200861226433e-02
5.531584370421308017e-02
5.492503541140682927e-02
5.461001894598263573e-02
5.439630739800182385e-02
5.430866574894795129e-02
5.437071116860081599e-02
5.460453075256518213e-02
5.503032429844113144e-02
5.566607920301550744e-02
5.652728430633671003e-02
5.762668880517091835e-02
5.897411161384954331e-02
6.057630580384340546e-02
6.243688159049127356e-02
6.455629050166310223e-02
6.693187208499279395e-02
6.955796336808046931e-02
7.242607006042711681e-02
7.552509728956884050e-02
7.884163632634538788e-02
8.236030271471879438e-02
8.606412000828592146e-02
8.993494229800226558e-02
9.395390762645895733e-02
9.810191374610223447e-02
1.023601067553255306e-01
1.067103728496098386e-01
1.111358228959571509e-01
1.156212592157276203e-01
1.201536142774593807e-01
1.247223509110371581e-01
1.293198142214257995e-01
1.339415256574119084e-01
1.385864109215921014e-01
1.432569539173070006e-01
1.479592702128768589e-01
1.527030948661749210e-01
1.575016806115948909e-01
1.623716041839715352e-01
1.673324800027349568e-01
1.724065822611987320e-01
1.776183777908391936e-01
1.829939742733521502e-01
1.885604898814540187e-01
1.943453519777261773e-01
2.003755340545277097e-01
2.066767419083537505e-01
2.132725608209396773e-01
2.201835771319083646e-01
2.274264883760412082e-01
2.350132168606136884e-01
2.429500423317305369e-01
2.512367693631487597e-01
2.598659453964361488e-01
2.688221450824266334e-01
2.780813360502844001e-01
2.876103405278507830e-01
2.973664063361498022e-01
3.072968993707660412e-01
3.173391283579405364e-01
3.274203109825833957e-01
3.374576884474059235e-01
3.473587938788764151e-01
3.570218773612023888e-01
3.663364884081813377e-01
3.751842142434789751e-01
3.834395698599554758e-01
3.909710334145306554e-01
3.976422183493610318e-01
4.033131712267172819e-01
4.078417818235678394e-01
4.110852907206934970e-01
4.129018770519740089e-01
4.131523079992385217e-01
4.117016297852129636e-01
4.084208792797399123e-01
4.031887939826115375e-01
3.958934982279356807e-01
3.864341425599479019e-01
3.747224740298001344e-01
3.606843149971680207e-01
3.442609292976377966e-01
3.254102554366853362e-01
3.041079877868648751e-01
2.803484888521734497e-01
2.541455170813495257e-01
2.255327573797283602e-01
1.945641435652297746e-01
1.613139647978551194e-01
1.258767505873972792e-01
8.836693186820433754e-02
4.891827863967447565e-02
7.683117500156287638e-03
-3.516866477693488674e-02
-7.945082245033387169e-02
-1.249621450237508175e-01
-1.714880299719978018e-01
-2.188022172289038059e-01
-2.666686663974167093e-01
-3.148435555751564197e-01
-3.630773792456519211e-01
-4.111171211448253482e-01
-4.587084771011539219e-01
-5.055981020076802945e-01
-5.515358546662874062e-01
-5.962770145024509638e-01
-6.395844443516540689e-01
-6.812306740889089163e-01
-7.209998811284593634e-01
-7.586897450491285610e-01
-7.941131552957247930e-01
-8.270997528648754704e-01
-8.574972890703971284e-01
-8.851727867767655855e-01
-9.100134924115412804e-01
-9.319276093305108866e-01
-9.508448062880333618e-01
-9.667164976698290335e-01
-9.795158948191137194e-01
-9.892378308983316160e-01
-9.958983646176169380e-01
-9.995341706697065121e-01
-1.000201727613811098e+00
-9.979763160618826401e-01
-9.929508425123063642e-01
-9.852345060045123448e-01
-9.749513266206839557e-01
-9.622385560745053690e-01
-9.472449920002069534e-01
-9.301292183065654751e-01
-9.110577944400586325e-01
-8.902034165522246800e-01
-8.677430734211353247e-01
-8.438562197417234234e-01
-8.187229882898829914e-01
-7.925224617911464930e-01
-7.654310236311523408e-01
-7.376208054304143058e-01
-7.092582473815648436e-01
-6.805027855108435331e-01
-6.515056778259491477e-01
-6.224089792752086625e-01
-5.933446728259381686e-01
-5.644339619131097940e-01
-5.357867269935682186e-01
-5.075011466959634676e-01
-4.796634817020015151e-01
-4.523480174428604617e-01
-4.256171593433463740e-01
-3.995216727143538482e-01
-3.741010575735279065e-01
-3.493840470193798620e-01
-3.253892165186799690e-01
-3.021256903699178764e-01
-2.795939307433670251e-01
-2.577865941163211549e-01
-2.366894391977250878e-01
-2.162822709687504674e-01
-1.965399049767867223e-01
-1.774331366128635845e-01
-1.589297007148015584e-01
-1.409952075178965980e-01
-1.235940420323858729e-01
-1.066902148157015812e-01
-9.024815384098086590e-02
-7.423342803853720528e-02
-5.861339487962649586e-02
-4.335776584072664752e-02
-2.843908523034922864e-02
-1.383311933984477694e-02
4.808454284825253752e-04
1.451979526921591372e-02
2.829687087753696498e-02
4.182133553753869526e-02
5.509862496103805352e-02
6.813047340823995268e-02
8.091510953440905762e-02
9.344751454102977195e-02
1.057197345047076881e-01
1.177212380584408968e-01
1.294393104875853351e-01
1.408594748509814365e-01
1.519659308377083462e-01
1.627420020247554167e-01
1.731705826827989181e-01
1.832345756125645098e-01
1.929173129518975960e-01
2.022029527103597069e-01
2.110768444526579801e-01
2.195258584404556346e-01
2.275386735389197945e-01
2.351060200360295671e-01
2.422208746265022139e-01
2.488786058520277011e-01
2.550770691219909625e-01
2.608166516250795541e-01
2.661002681523843005e-01
2.709333100571431063e-01
2.753235500494953247e-01
2.792810064194031217e-01
2.828177708039978366e-01
2.859478043366980304e-01
2.886867072889061081e-01
2.910514675570574084e-01
2.930601937151613989e-01
2.947318382304872086e-01
2.960859166600134373e-01
2.971422283691128041e-01
2.979205838543405593e-01
2.984405439670089200e-01
2.987211753179154217e-01
2.987808260906036351e-01
2.986369257120253251e-01
2.983058114240439429e-01
2.978025838666658598e-01
2.971409935150531312e-01
2.963333588634081694e-01
2.953905166381632919e-01
2.943218038660879166e-01
2.931350706678619855e-01
2.918367224193315623e-01
2.904317892471731666e-01
2.889240202197864149e-01
2.873159995131165378e-01
2.856092811348048266e-01
2.838045388149799120e-01
2.819017273107140564e-01
2.799002513976787676e-01
2.777991385473668196e-01
2.755972117649498898e-01
2.732932587804738911e-01
2.708861941017526309e-01
2.683752108760700805e-01
2.657599194822765076e-01
2.630404704601884691e-01
2.602176594622775396e-01
2.572930127083323804e-01
2.542688515089937540e-01
2.511483351551954679e-01
2.479354817069364947e-01
2.446351670294522884e-01
2.412531023373135630e-01
2.377957914936703609e-01
2.342704692865223426e-01
2.306850224429778939e-01
2.270478954328106203e-01
2.233679833028994755e-01
2.196545141346583352e-01
2.159169236865033648e-01
2.121647250183686939e-01
2.084073758942599774e-01
2.046541466829382705e-01
2.009139915361752293e-01
1.971954253208563768e-01
1.935064088496383228e-01
1.898542444668122331e-01
1.862454839444855348e-01
1.826858504647188575e-01
1.791801759138968164e-01
1.757323545311687829e-01
1.723453135243260548e-01
1.690210011719790462e-01
1.657603921185049067e-01
1.625635096644241495e-01
1.594294643159183678e-01
1.563565076346422333e-01
1.533421001759275593e-01
1.503829918286783696e-01
1.474753129084215297e-01
1.446146742799230001e-01
1.417962742312473545e-01
1.390150100561734214e-01
1.362655923077684128e-01
1.335426594437754411e-01
1.308408905965588731e-01
1.281551146722573198e-01
1.254804137137507936e-01
1.228122186709637714e-01
1.201463960595122449e-01
1.174793240949006112e-01
1.148079571140755845e-01
1.121298773105851854e-01
1.094433331101302281e-01
1.067472639558534608e-01
1.040413111185751610e-01
1.013258148271121983e-01
9.860179803897821393e-02
9.587093746546171413e-02
9.313552275980828410e-02
9.039840489908136656e-02
8.766293485167719890e-02
8.493289420410660151e-02
8.221241894737875422e-02
7.950591815025714881e-02
7.681798920544599674e-02
7.415333127740157682e-02
7.151665858399479381e-02
6.891261520170252619e-02
6.634569281675864461e-02
6.382015317285250067e-02
6.133995624458682405e-02
5.890869553100330086e-02
5.652954134693194410e-02
5.420519318524055774e-02
5.193784164123851216e-02
4.972914037529274633e-02
4.758018853578167146e-02
4.549152351101407726e-02
4.346312408704786079e-02
4.149442354069867583e-02
3.958433225211784728e-02
3.773126908524499640e-02
3.593320089290737845e-02
3.418768905324074542e-02
3.249194210591434956e-02
3.084287328337030620e-02
2.923716181976344225e-02
2.767131670951504530e-02
2.614174177900085647e-02
2.464480087485022494e-02
2.317688178625806547e-02
2.173445796001909069e-02
2.031414680147928045e-02
1.891276369485793418e-02
1.752737076157199689e-02
1.615531974767810824e-02
1.479428835614175070e-02
1.344230948723474164e-02
1.209779318758867975e-02
1.075954098844240751e-02
9.426752674995571638e-03
8.099025636498165953e-03
6.776346899910680628e-03
5.459078356925200354e-03
4.147935554488596695e-03
2.843960667288395524e-03
1.548490417675646479e-03
2.631195345364138564e-04
-1.010339319042900027e-03
-2.269898354273270670e-03
-3.513439309325225302e-03
-4.738759032554323326e-03
-5.943615213701379692e-03
-7.125771333645964517e-03
-8.283040139586242065e-03
-9.413324716967328212e-03
-1.051465667206880755e-02
-1.158523066394316972e-02
-1.262343482974574022e-02
-1.362787672685057856e-02
-1.459740442109710469e-02
-1.553112244102486904e-02
-1.642840259280270790e-02
-1.728888946278398647e-02
-1.811250083770046468e-02
-1.889942313601095103e-02
-1.965010203817387294e-02
-2.036522872586710511e-02
-2.104572215997405071e-02
-2.169270781400347084e-02
-2.230749329333464245e-02
-2.289154155124603282e-02
-2.344644222852539442e-02
-2.397388153814701897e-02
-2.447561156991842277e-02
-2.495341939918161236e-02
-2.540909657065812399e-02
-2.584440955236193618e-02
-2.626107171447920885e-02
-2.666071717842109431e-02
-2.704487695790830717e-02
-2.741495777263609074e-02
-2.777222380907379620e-02
-2.811778163391940449e-02
-2.845256837594183422e-02
-2.877734336934881579e-02
-2.909268317268505835e-02
-2.939897990889935725e-02
-2.969644293630421122e-02
-2.998510359165719105e-02
-3.026482284588630223e-02
-3.053530153353923443e-02
-3.079609307495732862e-02
-3.104661816657371121e-02
-3.128618113271858237e-02
-3.151398763363394417e-02
-3.172916344300704544e-02
-3.193077373750444203e-02
-3.211784262948995383e-02
-3.228937262769475403e-02
-3.244436372650491562e-02
-3.258183169030990506e-02
-3.270082532431930339e-02
-3.280044246286360765e-02
-3.287984462025184823e-02
-3.293826990546230848e-02
-3.297504415469909578e-02
-3.298959019247271751e-02
-3.298143512962176116e-02
-3.295021579661705502e-02
-3.289568219380194225e-02
-3.281769903017659612e-02
-3.271624545557968999e-02
-3.259141309037653228e-02
-3.244340245726244631e-02
-3.227251799160184981e-02
-3.207916182846948239e-02
-3.186382648504856863e-02
-3.162708653138571191e-02
-3.136958967071592358e-02
-3.109204723631225215e-02
-3.079522431915019537e-02
-3.047992964987155176e-02
-3.014700560367113494e-02
-2.979731823681083108e-02
-2.943174759849151792e-02
-2.905117844705337737e-02
-2.865649141445494180e-02
-2.824855478739517894e-02
-2.782821689473216620e-02
-2.739629915620120718e-02
-2.695358990888348932e-02
-2.650083896303975090e-02
-2.603875284736968318e-02
-2.556799079999718879e-02
-2.508916144936300385e-02
-2.460282018345988364e-02
-2.410946711672266526e-02
-2.360954569809680867e-02
-2.310344179575600856e-02
-2.259148334819741435e-02
