CH11
-0.48067093
-0.4807498
-0.48082843
-0.48090684
-0.48098502
-0.48106298
-0.48114067
-0.48121816
-0.48129544
-0.48137245
-0.48144925
-0.4815258
-0.48160216
-0.48167828
-0.48175415
-0.4818298
-0.4819052
-0.48198038
-0.48205534
-0.48213008
-0.48220456
-0.48227882
-0.48235285
-0.48242667
-0.48250026
-0.4825736
-0.4826467
-0.4827196
-0.48279223
-0.48286468
-0.48293686
-0.48300883
-0.48308057
-0.48315206
-0.48322332
-0.48329437
-0.48336518
-0.48343578
-0.4835061
-0.48357624
-0.48364612
-0.4837158
-0.4837852
-0.4838544
-0.4839234
-0.48399213
-0.48406065
-0.48412892
-0.484197
-0.4842648
-0.48433238
-0.48439977
-0.48446688
-0.4845338
-0.48460045
-0.48466688
-0.4847331
-0.4847991
-0.48486483
-0.48493034
-0.48499563
-0.4850607
-0.4851255
-0.48519012
-0.4852545
-0.48531863
-0.48538253
-0.4854462
-0.48550966
-0.48557287
-0.48563588
-0.4856986
-0.48576114
-0.48582345
-0.4858855
-0.48594734
-0.48600894
-0.48607033
-0.48613146
-0.48619238
-0.48625308
-0.48631352
-0.48637375
-0.48643374
-0.4864935
-0.48655304
-0.48661235
-0.48667142
-0.48673028
-0.48678887
-0.48684725
-0.48690543
-0.48696333
-0.48702103
-0.4870785
-0.48713574
-0.48719272
-0.4872495
-0.48730606
-0.48736235
-0.48741844
-0.4874743
-0.4875299
-0.4875853
-0.48764047
-0.4876954
-0.4877501
-0.48780456
-0.4878588
-0.48791283
-0.4879666
-0.48802015
-0.48807347
-0.48812658
-0.48817942
-0.48823205
-0.48828444
-0.48833662
-0.48838857
-0.48844028
-0.48849174
-0.488543
-0.48859403
-0.4886448
-0.48869535
-0.4887457
-0.4887958
-0.48884565
-0.4888953
-0.4889447
-0.48899388
-0.48904282
-0.48909155
-0.48914003
-0.48918828
-0.4892363
-0.4892841
-0.48933166
-0.489379
-0.4894261
-0.489473
-0.48951963
-0.48956603
-0.48961222
-0.48965818
-0.4897039
-0.4897494
-0.48979467
-0.4898397
-0.4898845
-0.48992908
-0.48997343
-0.49001753
-0.4900614
-0.49010506
-0.49014848
-0.4901917
-0.49023464
-0.49027738
-0.49031988
-0.49036217
-0.4904042
-0.490446
-0.49048758
-0.49052894
-0.49057007
-0.49061096
-0.4906516
-0.49069205
-0.49073225
-0.49077222
-0.49081194
-0.49085146
-0.49089074
-0.49092978
-0.4909686
-0.4910072
-0.49104556
-0.49108368
-0.4911216
-0.49115926
-0.4911967
-0.49123392
-0.49127087
-0.49130765
-0.49134415
-0.49138042
-0.49141648
-0.49145234
-0.49148792
-0.4915233
-0.49155843
-0.49159333
-0.491628
-0.49166244
-0.49169666
-0.49173066
-0.4917644
-0.49179792
-0.49183124
-0.4918643
-0.49189714
-0.49192974
-0.4919621
-0.49199426
-0.49202618
-0.49205786
-0.4920893
-0.49212053
-0.49215153
-0.49218228
-0.49221283
-0.49224314
-0.4922732
-0.49230304
-0.49233267
-0.49236205
-0.4923912
-0.4924201
-0.4924488
-0.49247727
-0.4925055
-0.4925335
-0.49256128
-0.49258882
-0.49261612
-0.4926432
-0.49267006
-0.49269667
-0.49272308
-0.49274924
-0.49277517
-0.49280086
-0.49282634
-0.49285156
-0.4928766
-0.49290136
-0.4929259
-0.49295023
-0.4929743
-0.49299818
-0.49302182
-0.4930452
-0.49306837
-0.49309132
-0.49311402
-0.4931365
-0.49315873
-0.49318075
-0.49320254
-0.4932241
-0.49324542
-0.49326652
-0.49328738
-0.49330804
-0.49332842
-0.4933486
-0.49336857
-0.49338827
-0.49340776
-0.493427
-0.49344605
-0.49346483
-0.4934834
-0.49350172
-0.49351984
-0.49353772
-0.49355537
-0.49357277
-0.49358997
-0.4936069
-0.49362364
-0.49364012
-0.4936564
-0.49367243
-0.49368823
-0.4937038
-0.49371913
-0.49373424
-0.49374914
-0.49376377
-0.4937782
-0.4937924
-0.49380636
-0.4938201
-0.4938336
-0.49384686
-0.49385992
-0.49387273
-0.4938853
-0.49389765
-0.49390978
-0.49392167
-0.49393332
-0.49394476
-0.49395594
-0.4939669
-0.49397767
-0.49398816
-0.49399844
-0.49400848
-0.49401832
-0.4940279
-0.49403727
-0.4940464
-0.4940553
-0.49406394
-0.49407238
-0.4940806
-0.4940886
-0.4940963
-0.49410385
-0.49411112
-0.49411818
-0.494125
-0.4941316
-0.49413797
-0.4941441
-0.49415
-0.49415568
-0.49416113
-0.49416634
-0.49417132
-0.4941761
-0.49418062
-0.4941849
-0.49418896
-0.4941928
-0.49419641
-0.49419978
-0.49420294
-0.49420583
-0.4942085
-0.494211
-0.4942132
-0.4942152
-0.49421695
-0.4942185
-0.4942198
-0.49422085
-0.49422172
-0.4942223
-0.4942227
-0.49422285
-0.4942228
-0.49422246
-0.49422193
-0.49422115
-0.49422017
-0.49421895
-0.4942175
-0.4942158
-0.49421385
-0.4942117
-0.49420932
-0.49420673
-0.4942039
-0.49420083
-0.49419752
-0.49419397
-0.49419022
-0.49418622
-0.494182
-0.49417755
-0.49417287
-0.49416795
-0.49416283
-0.49415743
-0.49415183
-0.49414602
-0.49413994
-0.49413365
-0.49412712
-0.4941204
-0.4941134
-0.49410617
-0.49409872
-0.49409106
-0.49408317
-0.49407503
-0.49406666
-0.49405807
-0.49404925
-0.4940402
-0.4940309
-0.4940214
-0.49401164
-0.49400166
-0.49399146
-0.49398103
-0.49397036
-0.49395946
-0.49394834
-0.493937
-0.4939254
-0.49391356
-0.49390152
-0.49388924
-0.49387676
-0.493864
-0.49385104
-0.49383783
-0.49382442
-0.49381074
-0.49379686
-0.49378273
-0.4937684
-0.49375382
-0.493739
-0.49372396
-0.4937087
-0.4936932
-0.49367747
-0.49366152
-0.4936453
-0.4936289
-0.49361226
-0.49359536
-0.49357826
-0.4935609
-0.49354336
-0.49352553
-0.4935075
-0.49348924
-0.49347076
-0.49345204
-0.4934331
-0.4934139
-0.4933945
-0.49337485
-0.49335498
-0.49333486
-0.49331453
-0.49329397
-0.49327317
-0.49325216
-0.4932309
-0.49320942
-0.4931877
-0.49316576
-0.4931436
-0.49312118
-0.49309856
-0.49307567
-0.4930526
-0.49302927
-0.4930057
-0.4929819
-0.49295792
-0.49293366
-0.4929092
-0.4928845
-0.49285954
-0.4928344
-0.49280897
-0.49278334
-0.4927575
-0.4927314
-0.49270508
-0.49267855
-0.49265176
-0.49262476
-0.49259752
-0.49257004
-0.49254236
-0.49251443
-0.49248627
-0.49245787
-0.49242926
-0.4924004
-0.49237132
-0.49234203
-0.4923125
-0.49228272
-0.4922527
-0.4922225
-0.49219203
-0.49216133
-0.4921304
-0.49209926
-0.49206787
-0.49203625
-0.49200442
-0.49197236
-0.49194005
-0.4919075
-0.49187475
-0.49184176
-0.49180853
-0.4917751
-0.49174142
-0.4917075
-0.49167335
-0.491639
-0.49160436
-0.49156955
-0.49153447
-0.4914992
-0.49146366
-0.4914279
-0.49139193
-0.49135572
-0.49131927
-0.49128258
-0.4912457
-0.49120855
-0.49117118
-0.49113357
-0.49109575
-0.4910577
-0.49101943
-0.4909809
-0.49094215
-0.49090317
-0.49086398
-0.49082452
-0.49078485
-0.49074498
-0.49070483
-0.49066448
-0.4906239
-0.4905831
-0.49054202
-0.49050075
-0.49045923
-0.4904175
-0.49037555
-0.49033335
-0.4902909
-0.49024826
-0.49020535
-0.49016225
-0.4901189
-0.49007532
-0.4900315
-0.48998746
-0.48994318
-0.48989868
-0.48985395
-0.489809
-0.4897638
-0.48971838
-0.48967272
-0.48962685
-0.48958075
-0.4895344
-0.48948783
-0.48944104
-0.48939398
-0.48934674
-0.48929924
-0.48925152
-0.48920357
-0.48915538
-0.48910695
-0.48905832
-0.48900944
-0.48896036
-0.488911
-0.48886144
-0.48881164
-0.48876163
-0.4887114
-0.4886609
-0.48861018
-0.48855922
-0.48850805
-0.48845664
-0.48840502
-0.48835313
-0.48830104
-0.48824874
-0.48819616
-0.48814338
-0.48809037
-0.4880371
-0.48798364
-0.48792994
-0.487876
-0.48782182
-0.48776743
-0.4877128
-0.48765793
-0.48760286
-0.48754755
-0.487492
-0.4874362
-0.4873802
-0.48732397
-0.4872675
-0.4872108
-0.48715386
-0.4870967
-0.48703933
-0.4869817
-0.48692384
-0.48686576
-0.48680747
-0.4867489
-0.48669013
-0.48663116
-0.4865719
-0.48651245
-0.48645276
-0.48639283
-0.48633268
-0.4862723
-0.48621184
-0.48615146
-0.48609117
-0.48603097
-0.48597085
-0.48591086
-0.48585093
-0.4857911
-0.48573133
-0.48567167
-0.4856121
-0.4855526
-0.4854932
-0.48543394
-0.48537472
-0.4853156
-0.48525655
-0.4851976
-0.48513874
-0.48508
-0.48502132
-0.48496273
-0.48490423
-0.48484582
-0.48478752
-0.4847293
-0.48467115
-0.4846131
-0.48455516
-0.48449728
-0.4844395
-0.4843818
-0.48432422
-0.4842667
-0.48420927
-0.48415193
-0.4840947
-0.48403755
-0.48398048
-0.48392352
-0.48386663
-0.48380983
-0.48375314
-0.48369652
-0.48364
-0.48358357
-0.4835272
-0.48347095
-0.4834148
-0.4833587
-0.4833027
-0.48324683
-0.483191
-0.4831353
-0.48307967
-0.48302412
-0.4829687
-0.48291332
-0.48285806
-0.48280287
-0.48274776
-0.48269278
-0.48263785
-0.48258305
-0.4825283
-0.48247367
-0.4824191
-0.48236465
-0.48231027
-0.482256
-0.48220178
-0.4821477
-0.48209366
-0.48203975
-0.4819859
-0.48193216
-0.4818785
-0.48182493
-0.48177144
-0.48171806
-0.48166475
-0.48161155
-0.48155844
-0.4815054
-0.48145247
-0.4813996
-0.48134685
-0.48129416
-0.48124158
-0.4811891
-0.48113668
-0.48108438
-0.48103216
-0.48098
-0.48092797
-0.480876
-0.48082414
-0.48077238
-0.48072067
-0.48066908
-0.48061758
-0.48056614
-0.48051482
-0.4804636
-0.48041245
-0.48036137
-0.4803104
-0.48025954
-0.48020872
-0.48015803
-0.48010743
-0.4800569
-0.48000646
-0.47995612
-0.47990587
-0.47985572
-0.47980562
-0.47975564
-0.47970575
-0.47965595
-0.47960624
-0.4795566
-0.47950706
-0.47945762
-0.47940826
-0.479359
-0.47930983
-0.4792607
-0.47921172
-0.4791628
-0.479114
-0.47906527
-0.47901663
-0.47896808
-0.4789196
-0.47887123
-0.47882295
-0.47877476
-0.47872666
-0.47867864
-0.47863072
-0.4785829
-0.47853515
-0.4784875
-0.47843993
-0.47839245
-0.47834504
-0.47829774
-0.47825053
-0.47820342
-0.4781564
-0.47810945
-0.4780626
-0.47801584
-0.47796917
-0.4779226
-0.4778761
-0.4778297
-0.47778338
-0.47773716
-0.47769102
-0.47764498
-0.47759905
-0.4775532
-0.4775074
-0.47746173
-0.47741613
-0.47737062
-0.4773252
-0.47727987
-0.47723463
-0.47718948
-0.47714442
-0.47709948
-0.4770546
-0.4770098
-0.4769651
-0.4769205
-0.47687596
-0.47683153
-0.47678718
-0.47674295
-0.4766988
-0.4766547
-0.47661072
-0.47656682
-0.47652304
-0.47647932
-0.4764357
-0.47639215
-0.4763487
-0.47630537
-0.4762621
-0.4762189
-0.4761758
-0.47613284
-0.47608992
-0.4760471
-0.47600436
-0.47596174
-0.4759192
-0.47587672
-0.47583437
-0.47579208
-0.47574988
-0.47570777
-0.47566578
-0.47562385
-0.475582
-0.47554028
-0.47549862
-0.47545704
-0.4754156
-0.4753742
-0.47533292
-0.4752917
-0.47525057
-0.47520956
-0.47516862
-0.47512776
-0.47508702
-0.47504634
-0.47500578
-0.47496527
-0.4749249
-0.47488457
-0.47484434
-0.47480422
-0.47476417
-0.47472423
-0.47468436
-0.4746446
-0.4746049
-0.47456533
-0.4745258
-0.4744864
-0.47444707
-0.47440785
-0.4743687
-0.47432965
-0.47429067
-0.4742518
-0.474213
-0.47417432
-0.4741357
-0.4740972
-0.47405875
-0.47402042
-0.4739822
-0.473944
-0.47390595
-0.47386795
-0.47383007
-0.47379225
-0.47375455
-0.47371694
-0.4736794
-0.47364196
-0.47360462
-0.47356734
-0.47353017
-0.4734931
-0.47345608
-0.4734192
-0.47338235
-0.47334564
-0.473309
-0.47327247
-0.473236
-0.47319964
-0.47316337
-0.47312716
-0.47309107
-0.47305506
-0.47301912
-0.4729833
-0.47294757
-0.47291192
-0.47287634
-0.47284088
-0.4728055
-0.4727702
-0.47273502
-0.47269988
-0.47266486
-0.47262993
-0.4725951
-0.47256035
-0.47252566
-0.4724911
-0.4724566
-0.4724222
-0.4723879
-0.47235367
-0.47231954
-0.4722855
-0.47225156
-0.4722177
-0.47218394
-0.47215027
-0.47211668
-0.47208315
-0.47204974
-0.47201642
-0.4719832
-0.47195005
-0.471917
-0.47188404
-0.47185117
-0.4718184
-0.4717857
-0.4717531
-0.47172058
-0.47168815
-0.47165582
-0.47162357
-0.4715914
-0.47155935
-0.47152737
-0.47149548
-0.47146368
-0.47143197
-0.47140035
-0.47136882
-0.47133738
-0.47130603
-0.47127476
-0.4712436
-0.4712125
-0.4711815
-0.4711506
-0.4711198
-0.47108907
-0.47105843
-0.47102788
-0.47099742
-0.47096705
-0.4709368
-0.47090662
-0.47087651
-0.4708465
-0.47081658
-0.47078675
-0.470757
-0.47072735
-0.47069782
-0.47066835
-0.47063896
-0.47060966
-0.47058046
-0.47055134
-0.47052234
-0.4704934
-0.47046456
-0.4704358
-0.47040716
-0.47037858
-0.4703501
-0.47032169
-0.47029337
-0.47026518
-0.47023705
-0.470209
-0.47018105
-0.4701532
-0.47012544
-0.47009775
-0.47007018
-0.47004268
-0.47001526
-0.46998796
-0.46996072
-0.46993357
-0.4699065
-0.46987957
-0.4698527
-0.4698259
-0.46979922
-0.4697726
-0.4697461
-0.46971968
-0.46969333
-0.4696671
-0.46964094
-0.46961486
-0.4695889
-0.469563
-0.46953723
-0.4695115
-0.4694859
-0.46946037
-0.46943492
-0.46940958
-0.4693843
-0.46935916
-0.46933407
-0.4693091
-0.46928418
-0.46925938
-0.46923465
-0.46921003
-0.46918547
-0.46916103
-0.46913666
-0.46911243
-0.46908838
-0.4690645
-0.46904084
-0.46901736
-0.46899405
-0.46897092
-0.46894798
-0.46892524
-0.46890268
-0.4688803
-0.4688581
-0.4688361
-0.46881428
-0.46879265
-0.4687712
-0.46874994
-0.46872884
-0.46870795
-0.46868724
-0.46866673
-0.46864638
-0.46862623
-0.46860626
-0.46858647
-0.4685669
-0.4685475
-0.46852827
-0.46850923
-0.46849036
-0.4684717
-0.46845323
-0.46843493
-0.4684168
-0.46839887
-0.46838114
-0.46836358
-0.4683462
-0.46832904
-0.46831203
-0.46829522
-0.4682786
-0.46826217
-0.4682459
-0.46822983
-0.46821395
-0.46819824
-0.46818274
-0.4681674
-0.46815225
-0.4681373
-0.46812254
-0.46810794
-0.46809354
-0.46807933
-0.4680653
-0.46805146
-0.46803778
-0.4680243
-0.46801102
-0.46799794
-0.467985
-0.46797228
-0.46795973
-0.46794736
-0.4679352
-0.46792322
-0.46791142
-0.4678998
-0.46788836
-0.46787712
-0.46786606
-0.4678552
-0.4678445
-0.46783397
-0.46782365
-0.46781352
-0.46780357
-0.46779382
-0.46778423
-0.46777484
-0.46776563
-0.4677566
-0.46774778
-0.46773914
-0.46773067
-0.4677224
-0.46771428
-0.46770638
-0.46769866
-0.46769112
-0.46768376
-0.4676766
-0.46766964
-0.46766284
-0.46765622
-0.4676498
-0.46764356
-0.4676375
-0.46763164
-0.46762595
-0.46762046
-0.46761516
-0.46761003
-0.46760508
-0.46760032
-0.46759576
-0.46759138
-0.46758717
-0.46758315
-0.46757933
-0.4675757
-0.46757224
-0.46756896
-0.4675659
-0.46756297
-0.46756026
-0.46755773
-0.4675554
-0.46755323
-0.46755126
-0.46754947
-0.4675479
-0.46754646
-0.46754524
-0.4675442
-0.46754333
-0.46754265
-0.46754217
-0.46754187
-0.46754175
-0.4675418
-0.46754208
-0.46754253
-0.46754315
-0.46754396
-0.46754494
-0.46754614
-0.4675475
-0.46754906
-0.46755078
-0.46755272
-0.4675548
-0.4675571
-0.4675596
-0.46756226
-0.46756512
-0.46756816
-0.46757138
-0.46757478
-0.46757838
-0.46758217
-0.46758613
-0.46759027
-0.4675946
-0.46759912
-0.46760383
-0.46760872
-0.4676138
-0.46761906
-0.46762452
-0.46763015
-0.46763596
-0.46764198
-0.46764815
-0.46765453
-0.46766108
-0.46766785
-0.46767476
-0.46768188
-0.4676892
-0.4676967
-0.46770436
-0.46771222
-0.46772027
-0.4677285
-0.46773693
-0.4677455
-0.4677543
-0.46776327
-0.46777242
-0.46778178
-0.46779132
-0.46780103
-0.46781093
-0.467821
-0.46783128
-0.46784174
-0.46785238
-0.4678632
-0.46787423
-0.46788543
-0.46789682
-0.46790838
-0.46792012
-0.46793208
-0.4679442
-0.4679565
-0.467969
-0.4679817
-0.46799457
-0.46800762
-0.46802086
-0.4680343
-0.4680479
-0.4680617
-0.46807566
-0.46808985
-0.46810418
-0.46811873
-0.46813345
-0.46814838
-0.46816346
-0.46817875
-0.46819422
-0.46820986
-0.4682257
-0.46824172
-0.46825793
-0.46827433
-0.4682909
-0.46830767
-0.4683246
-0.46834174
-0.46835908
-0.46837658
-0.46839428
-0.46841213
-0.46843022
-0.46844846
-0.46846688
-0.4684855
-0.4685043
-0.4685233
-0.4685425
-0.46856186
-0.46858138
-0.46860114
-0.46862105
-0.46864113
-0.46866143
-0.4686819
-0.46870258
-0.46872342
-0.46874446
-0.46876568
-0.46878707
-0.46880865
-0.46883044
-0.46885237
-0.46887454
-0.46889687
-0.46891937
-0.46894208
-0.46896496
-0.46898803
-0.46901128
-0.46903473
-0.46905836
-0.46908218
-0.46910617
-0.46913037
-0.46915472
-0.46917927
-0.46920404
-0.46922895
-0.46925408
-0.46927938
-0.46930486
-0.46933052
-0.46935636
-0.4693824
-0.46940863
-0.46943504
-0.46946165
-0.4694884
-0.46951538
-0.46954253
-0.4695699
-0.4695974
-0.46962512
-0.469653
-0.46968108
-0.46970937
-0.4697378
-0.46976644
-0.46979526
-0.46982428
-0.46985346
-0.46988285
-0.4699124
-0.46994215
-0.4699721
-0.47000223
-0.47003254
-0.47006303
-0.4700937
-0.47012457
-0.4701556
-0.47018686
-0.47021827
-0.47024986
-0.47028166
-0.47031364
-0.4703458
-0.47037816
-0.47041067
-0.4704434
-0.4704763
-0.47050938
-0.47054267
-0.47057614
-0.47060978
-0.4706436
-0.4706776
-0.47071183
-0.47074622
-0.4707808
-0.47081554
-0.4708505
-0.4708856
-0.47092092
-0.47095644
-0.47099212
-0.471028
-0.47106406
-0.4711003
-0.47113672
-0.47117335
-0.47121012
-0.4712471
-0.4712843
-0.47132164
-0.4713592
-0.47139692
-0.47143483
-0.47147292
-0.47151121
-0.47154966
-0.4715883
-0.47162718
-0.4716662
-0.4717054
-0.4717448
-0.47178438
-0.47182414
-0.4718641
-0.47190425
-0.47194457
-0.47198507
-0.47202578
-0.47206664
-0.4721077
-0.47214895
-0.4721904
-0.47223204
-0.47227383
-0.47231582
-0.47235802
-0.47240037
-0.47244292
-0.47248566
-0.47252858
-0.4725717
-0.47261497
-0.47265846
-0.47270212
-0.47274598
-0.47279
-0.47283423
-0.47287863
-0.47292322
-0.47296798
-0.47301295
-0.4730581
-0.47310343
-0.47314894
-0.47319466
-0.47324055
-0.47328663
-0.47333288
-0.47337934
-0.47342595
-0.47347277
-0.47351977
-0.47356698
-0.47361434
-0.4736619
-0.47370964
-0.47375757
-0.4738057
-0.473854
-0.4739025
-0.47395116
-0.474
-0.47404906
-0.47409827
-0.4741477
-0.4741973
-0.47424707
-0.47429705
-0.4743472
-0.47439754
-0.47444808
-0.47449866
-0.47454914
-0.47459948
-0.4746497
-0.4746998
-0.47474977
-0.47479963
-0.47484937
-0.474899
-0.4749485
-0.47499785
-0.4750471
-0.47509623
-0.47514525
-0.47519413
-0.47524288
-0.47529152
-0.47534004
-0.47538844
-0.4754367
-0.47548485
-0.4755329
-0.47558078
-0.47562855
-0.47567624
-0.47572377
-0.4757712
-0.47581849
-0.47586566
-0.4759127
-0.47595963
-0.47600645
-0.47605312
-0.47609967
-0.47614613
-0.47619244
-0.47623864
-0.4762847
-0.47633067
-0.4763765
-0.4764222
-0.4764678
-0.47651324
-0.4765586
-0.4766038
-0.4766489
-0.47669387
-0.47673872
-0.47678345
-0.47682807
-0.47687256
-0.4769169
-0.47696117
-0.47700527
-0.4770493
-0.47709316
-0.4771369
-0.47718054
-0.47722405
-0.47726744
-0.47731072
-0.47735384
-0.47739688
-0.47743976
-0.47748256
-0.4775252
-0.47756773
-0.47761014
-0.47765243
-0.4776946
-0.47773665
-0.47777858
-0.47782037
-0.47786206
-0.4779036
-0.47794503
-0.47798637
-0.47802755
-0.47806862
-0.47810957
-0.47815037
-0.47819108
-0.47823167
-0.4782721
-0.47831246
-0.47835267
-0.47839275
-0.47843271
-0.4784726
-0.4785123
-0.4785519
-0.47859138
-0.47863075
-0.47866997
-0.4787091
-0.47874808
-0.47878695
-0.47882572
-0.47886434
-0.47890285
-0.4789412
-0.47897947
-0.47901762
-0.47905564
-0.47909352
-0.47913128
-0.47916895
-0.47920647
-0.47924387
-0.47928116
-0.47931832
-0.47935537
-0.47939226
-0.47942907
-0.47946575
-0.4795023
-0.4795387
-0.47957504
-0.47961122
-0.47964728
-0.47968322
-0.47971904
-0.47975472
-0.4797903
-0.47982574
-0.47986108
-0.47989628
-0.47993138
-0.47996634
-0.48000118
-0.4800359
-0.4800705
-0.48010495
-0.48013932
-0.48017356
-0.48020765
-0.48024166
-0.4802755
-0.48030925
-0.48034286
-0.48037636
-0.48040974
-0.480443
-0.48047614
-0.48050913
-0.48054203
-0.4805748
-0.48060745
-0.48063996
-0.48067236
-0.48070464
-0.4807368
-0.48076883
-0.48080072
-0.48083252
-0.4808642
-0.48089573
-0.48092714
-0.48095846
-0.48098963
-0.4810207
-0.48105162
-0.48108244
-0.48111314
-0.48114368
-0.48117414
-0.48120445
-0.48123467
-0.48126474
-0.4812947
-0.48132452
-0.48135424
-0.48138383
-0.4814133
-0.48144266
-0.48147187
-0.48150098
-0.48152995
-0.48155883
-0.48158756
-0.48161617
-0.48164466
-0.48167303
-0.48170128
-0.48172942
-0.4817574
-0.4817853
-0.48181304
-0.4818407
-0.4818682
-0.4818956
-0.48192286
-0.48195
-0.48197705
-0.48200396
-0.48203072
-0.4820574
-0.48208392
-0.48211035
-0.48213664
-0.4821628
-0.48218885
-0.48221478
-0.4822406
-0.48226628
-0.48229185
-0.48231727
-0.4823426
-0.48236778
-0.48239288
-0.48241782
-0.48244265
-0.48246735
-0.48249194
-0.4825164
-0.48254076
-0.48256496
-0.48258907
-0.48261303
-0.4826369
-0.48266062
-0.48268422
-0.4827077
-0.48273107
-0.48275432
-0.48277745
-0.48280042
-0.4828233
-0.48284605
-0.4828687
-0.4828912
-0.48291358
-0.48293585
-0.482958
-0.48298
-0.48300192
-0.4830237
-0.48304534
-0.4830669
-0.48308828
-0.4831096
-0.48313075
-0.4831518
-0.4831727
-0.48319352
-0.4832142
-0.48323473
-0.48325518
-0.4832755
-0.48329568
-0.48331574
-0.4833357
-0.48335552
-0.48337522
-0.4833948
-0.48341426
-0.48343357
-0.4834528
-0.4834719
-0.48349085
-0.48350972
-0.48352844
-0.48354703
-0.4835655
-0.48358387
-0.4836021
-0.48362023
-0.48363823
-0.48365608
-0.48367384
-0.48369145
-0.48370895
-0.48372635
-0.4837436
-0.48376074
-0.48377776
-0.48379466
-0.4838114
-0.48382807
-0.48384458
-0.483861
-0.48387727
-0.48389342
-0.4839095
-0.4839254
-0.4839412
-0.48395687
-0.4839724
-0.48398784
-0.48400316
-0.48401833
-0.48403338
-0.48404834
-0.48406315
-0.48407784
-0.4840924
-0.48410687
-0.4841212
-0.4841354
-0.4841495
-0.48416343
-0.4841773
-0.484191
-0.4842046
-0.4842181
-0.48423144
-0.48424464
-0.48425776
-0.48427075
-0.48428363
-0.48429635
-0.484309
-0.48432148
-0.48433384
-0.4843461
-0.48435822
-0.48437023
-0.48438212
-0.4843939
-0.48440555
-0.48441705
-0.48442847
-0.48443973
-0.48445088
-0.48446193
-0.48447284
-0.48448363
-0.4844943
-0.48450482
-0.48451525
-0.48452556
-0.48453572
-0.4845458
-0.48455572
-0.48456553
-0.4845752
-0.48458478
-0.48459423
-0.48460355
-0.48461276
-0.48462182
-0.4846308
-0.4846396
-0.48464835
-0.48465693
-0.4846654
-0.48467374
-0.48468196
-0.48469007
-0.48469806
-0.4847059
-0.48471364
-0.48472124
-0.48472875
-0.4847361
-0.48474336
-0.48475048
-0.48475748
-0.48476437
-0.48477113
-0.48477778
-0.48478428
-0.48479068
-0.48479694
-0.48480308
-0.48480913
-0.48481503
-0.4848208
-0.48482648
-0.48483202
-0.4848374
-0.48484272
-0.48484787
-0.48485294
-0.48485786
-0.48486266
-0.48486736
-0.48487192
-0.48487636
-0.48488066
-0.48488486
-0.48488894
-0.48489287
-0.48489672
-0.48490041
-0.48490402
-0.48490748
-0.48491082
-0.48491403
-0.48491713
-0.4849201
-0.48492295
-0.4849257
-0.48492828
-0.48493078
-0.48493314
-0.48493537
-0.4849375
-0.4849395
-0.48494136
-0.48494312
-0.48494476
-0.48494625
-0.48494765
-0.484949
-0.48495048
-0.48495206
-0.4849538
-0.4849556
-0.48495758
-0.48495966
-0.48496184
-0.48496416
-0.4849666
-0.48496917
-0.48497185
-0.48497462
-0.48497754
-0.48498058
-0.48498374
-0.48498702
-0.48499045
-0.48499396
-0.4849976
-0.48500136
-0.48500523
-0.48500925
-0.48501337
-0.4850176
-0.48502198
-0.48502645
-0.48503107
-0.48503578
-0.48504063
-0.4850456
-0.48505068
-0.4850559
-0.48506123
-0.48506668
-0.48507226
-0.48507792
-0.48508373
-0.48508966
-0.4850957
-0.48510188
-0.4851082
-0.4851146
-0.48512113
-0.48512778
-0.48513454
-0.48514146
-0.48514846
-0.4851556
-0.48516285
-0.48517022
-0.48517773
-0.48518535
-0.48519307
-0.48520094
-0.48520893
-0.485217
-0.48522523
-0.48523358
-0.48524204
-0.48525062
-0.48525932
-0.48526815
-0.4852771
-0.48528615
-0.48529533
-0.48530462
-0.48531404
-0.48532358
-0.48533326
-0.48534304
-0.48535293
-0.48536298
-0.4853731
-0.4853834
-0.48539376
-0.48540428
-0.4854149
-0.48542565
-0.48543653
-0.4854475
-0.4854586
-0.48546985
-0.4854812
-0.48549268
-0.48550427
-0.48551598
-0.4855278
-0.48553976
-0.48555183
-0.48556402
-0.48557633
-0.4855888
-0.48560134
-0.485614
-0.48562682
-0.48563972
-0.48565274
-0.48566592
-0.48567918
-0.4856926
-0.48570612
-0.48571974
-0.4857335
-0.4857474
-0.4857614
-0.4857755
-0.48578975
-0.4858041
-0.4858186
-0.4858332
-0.48584792
-0.48586276
-0.48587772
-0.48589283
-0.48590803
-0.48592335
-0.4859388
-0.48595437
-0.48597005
-0.48598585
-0.4860018
-0.48601782
-0.486034
-0.48605028
-0.4860667
-0.48608324
-0.48609987
-0.48611665
-0.48613355
-0.48615056
-0.4861677
-0.48618495
-0.48620233
-0.48621982
-0.48623744
-0.48625517
-0.48627302
-0.486291
-0.48630908
-0.4863273
-0.48634565
-0.4863641
-0.48638266
-0.48640138
-0.48642018
-0.48643914
-0.48645818
-0.48647738
-0.4864967
-0.4865161
-0.48653564
-0.4865553
-0.48657507
-0.48659497
-0.486615
-0.48663515
-0.4866554
-0.4866758
-0.4866963
-0.48671693
-0.48673767
-0.48675853
-0.48677954
-0.48680064
-0.48682186
-0.48684323
-0.4868647
-0.48688626
-0.486908
-0.4869298
-0.48695177
-0.48697382
-0.48699602
-0.48701835
-0.48704076
-0.48706332
-0.487086
-0.4871088
-0.4871317
-0.48715475
-0.4871779
-0.48720118
-0.48722458
-0.4872481
-0.48727173
-0.48729548
-0.48731935
-0.48734337
-0.48736748
-0.4873917
-0.4874161
-0.48744056
-0.48746514
-0.48748988
-0.48751473
-0.48753968
-0.48756477
-0.48758996
-0.4876153
-0.48764074
-0.4876663
-0.487692
-0.48771778
-0.4877437
-0.48776975
-0.48779592
-0.4878222
-0.4878486
-0.48787516
-0.4879018
-0.48792857
-0.48795545
-0.48798248
-0.4880096
-0.48803684
-0.48806423
-0.4880917
-0.48811933
-0.48814705
-0.48817492
-0.48820287
-0.48823097
-0.4882592
-0.48828754
-0.48831597
-0.48834455
-0.48837325
-0.48840207
-0.488431
-0.48846006
-0.48848924
-0.48851854
-0.48854795
-0.4885775
-0.48860717
-0.48863694
-0.48866683
-0.48869687
-0.488727
-0.48875728
-0.48878765
-0.48881814
-0.48884878
-0.48887953
-0.48891038
-0.48894137
-0.48897249
-0.4890037
-0.48903504
-0.4890665
-0.4890981
-0.4891298
-0.48916164
-0.4891936
-0.48922566
-0.48925784
-0.48929015
-0.48932257
-0.48935515
-0.4893878
-0.4894206
-0.48945352
-0.48948655
-0.4895197
-0.48955297
-0.48958635
-0.48961988
-0.48965353
-0.48968726
-0.48972115
-0.48975515
-0.48978925
-0.4898235
-0.48985785
-0.48989233
-0.48992693
-0.48996165
-0.4899965
-0.49003145
-0.49006653
-0.49010172
-0.49013704
-0.4901725
-0.49020806
-0.49024373
-0.49027956
-0.49031547
-0.4903515
-0.49038768
-0.49042395
-0.49046037
-0.4904969
-0.49053353
-0.4905703
-0.4906072
-0.4906442
-0.49068132
-0.49071857
-0.49075595
-0.49079344
-0.49083105
-0.49086878
-0.49090663
-0.4909446
-0.49098268
-0.4910209
-0.49105924
-0.4910977
-0.49113625
-0.49117497
-0.49121377
-0.4912527
-0.49129176
-0.49133092
-0.49137023
-0.49140966
-0.49144918
-0.49148884
-0.49152863
-0.49156854
-0.49160853
-0.49164867
-0.49168894
-0.49172932
-0.49176982
-0.49181044
-0.49185118
-0.49189204
-0.49193302
-0.49197415
-0.49201536
-0.4920567
-0.49209815
-0.49213976
-0.49218145
-0.4922233
-0.49226522
-0.4923073
-0.49234948
-0.4923918
-0.4924342
-0.49247676
-0.49251944
-0.49256223
-0.49260515
-0.49264815
-0.4926913
-0.49273458
-0.49277797
-0.49282148
-0.49286512
-0.49290887
-0.49295276
-0.49299675
-0.49304086
-0.4930851
-0.49312946
-0.49317393
-0.4932185
-0.49326324
-0.49330807
-0.49335304
-0.4933981
-0.4934433
-0.49348864
-0.49353406
-0.49357963
-0.4936253
-0.49367112
-0.49371704
-0.4937631
-0.49380925
-0.49385554
-0.49390194
-0.49394846
-0.4939951
-0.49404186
-0.49408874
-0.49413574
-0.49418288
-0.49423012
-0.49427748
-0.49432498
-0.49437258
-0.49442032
-0.49446815
-0.49451613
-0.4945642
-0.49461243
-0.49466076
-0.49470922
-0.49475777
-0.49480647
-0.49485528
-0.49490422
-0.49495327
-0.49500245
-0.49505174
-0.49510115
-0.4951507
-0.49520034
-0.49525014
-0.49530002
-0.49534985
-0.4953993
-0.49544832
-0.49549696
-0.4955452
-0.49559304
-0.4956405
-0.4956875
-0.49573413
-0.49578035
-0.49582618
-0.4958716
-0.49591663
-0.49596125
-0.49600548
-0.49604928
-0.4960927
-0.4961357
-0.49617833
-0.49622053
-0.49626234
-0.49630377
-0.49634477
-0.49638537
-0.49642557
-0.49646536
-0.49650475
-0.49654377
-0.49658236
-0.49662054
-0.49665833
-0.49669573
-0.4967327
-0.4967693
-0.4968055
-0.49684128
-0.49687666
-0.49691162
-0.49694622
-0.49698037
-0.49701416
-0.4970475
-0.4970805
-0.49711308
-0.49714524
-0.497177
-0.49720836
-0.49723932
-0.4972699
-0.49730003
-0.4973298
-0.49735916
-0.4973881
-0.49741665
-0.4974448
-0.49747255
-0.4974999
-0.49752685
-0.49755338
-0.49757954
-0.49760526
-0.4976306
-0.49765554
-0.49768007
-0.4977042
-0.49772793
-0.49775127
-0.49777418
-0.4977967
-0.49781886
-0.49784058
-0.4978619
-0.4978828
-0.49790332
-0.49792343
-0.49794316
-0.49796247
-0.49798137
-0.49799988
-0.498018
-0.4980357
-0.498053
-0.4980699
-0.4980864
-0.4981025
-0.4981182
-0.49813348
-0.49814838
-0.49816287
-0.49817696
-0.49819064
-0.49820393
-0.4982168
-0.4982293
-0.4982414
-0.49825308
-0.49826434
-0.49827522
-0.49828568
-0.49829575
-0.49830544
-0.4983147
-0.49832356
-0.49833202
-0.4983401
-0.49834776
-0.49835503
-0.4983619
-0.49836832
-0.4983744
-0.49838004
-0.49838528
-0.49839014
-0.49839458
-0.49839863
-0.49840227
-0.49840552
-0.49840838
-0.4984108
-0.49841285
-0.4984145
-0.4984157
-0.49841654
-0.49841696
-0.498417
-0.49841663
-0.49841586
-0.4984147
-0.49841312
-0.49841112
-0.49840873
-0.49840596
-0.49840277
-0.4983992
-0.4983952
-0.49839082
-0.49838603
-0.4983808
-0.49837524
-0.49836922
-0.49836284
-0.49835604
-0.49834883
-0.49834123
-0.49833322
-0.4983248
-0.49831602
-0.49830678
-0.49829718
-0.49828717
-0.49827674
-0.49826592
-0.49825472
-0.4982431
-0.49823108
-0.49821866
-0.4982058
-0.49819258
-0.49817896
-0.49816492
-0.4981505
-0.49813566
-0.49812043
-0.49810478
-0.49808875
-0.4980723
-0.49805546
-0.49803823
-0.49802056
-0.49800253
-0.49798408
-0.49796522
-0.49794596
-0.49792632
-0.49790627
-0.4978858
-0.49786493
-0.49784368
-0.49782202
-0.49779993
-0.49777746
-0.4977546
-0.49773133
-0.49770766
-0.49768358
-0.49765912
-0.49763423
-0.49760896
-0.49758327
-0.4975572
-0.4975307
-0.49750382
-0.49747652
-0.49744883
-0.49742076
-0.49739227
-0.49736336
-0.49733406
-0.49730435
-0.49727425
-0.49724376
-0.49721286
-0.49718156
-0.49714985
-0.49711773
-0.4970852
-0.4970523
-0.497019
-0.4969853
-0.49695116
-0.49691665
-0.49688172
-0.4968464
-0.49681067
-0.49677455
-0.49673802
-0.4967011
-0.49666375
-0.49662602
-0.4965879
-0.49654937
-0.49651042
-0.49647108
-0.49643135
-0.4963912
-0.49635065
-0.4963097
-0.49626836
-0.4962266
-0.49618444
-0.49614188
-0.49609894
-0.49605557
-0.49601182
-0.49596766
-0.4959231
-0.49587813
-0.49583277
-0.495787
-0.49574083
-0.49569425
-0.49564728
-0.49559993
-0.49555215
-0.49550396
-0.49545538
-0.4954064
-0.495357
-0.49530724
-0.49525705
-0.49520645
-0.49515545
-0.49510407
-0.49505228
-0.4950001
-0.4949475
-0.4948945
-0.4948411
-0.49478728
-0.4947331
-0.49467847
-0.49462348
-0.49456805
-0.49451226
-0.49445605
-0.49439943
-0.49434242
-0.494285
-0.49422717
-0.49416894
-0.49411032
-0.4940513
-0.49399188
-0.49393204
-0.4938718
-0.4938112
-0.49375015
-0.49368873
-0.4936269
-0.49356464
-0.493502
-0.49343896
-0.4933755
-0.49331167
-0.49324742
-0.49318278
-0.49311772
-0.49305227
-0.4929864
-0.49292016
-0.49285352
-0.49278644
-0.492719
-0.49265113
-0.49258286
-0.4925142
-0.49244514
-0.49237567
-0.4923058
-0.4922355
-0.49216485
-0.49209377
-0.49202228
-0.4919504
-0.49187812
-0.49180543
-0.49173236
-0.49165887
-0.491585
-0.4915107
-0.491436
-0.4913609
-0.4912854
-0.4912095
-0.4911332
-0.4910565
-0.4909794
-0.49090192
-0.490824
-0.4907457
-0.490667
-0.4905879
-0.49050838
-0.49042845
-0.49034813
-0.49026743
-0.4901863
-0.49010476
-0.49002284
-0.48994052
-0.4898578
-0.48977467
-0.48969114
-0.48960721
-0.48952287
-0.48943815
-0.489353
-0.48926747
-0.48918152
-0.48909518
-0.48900846
-0.48892128
-0.48883376
-0.4887458
-0.48865744
-0.4885687
-0.48847955
-0.48839
-0.48830003
-0.48820966
-0.48811892
-0.48802775
-0.4879362
-0.48784423
-0.48775184
-0.48765907
-0.4875659
-0.48747233
-0.48737836
-0.48728397
-0.4871892
-0.487094
-0.48699844
-0.48690248
-0.48680606
-0.4867093
-0.4866121
-0.4865145
-0.48641652
-0.48631814
-0.48621935
-0.48612013
-0.48602054
-0.48592055
-0.48582014
-0.48571932
-0.4856181
-0.48551652
-0.4854145
-0.4853121
-0.4852093
-0.48510608
-0.48500246
-0.48489845
-0.48479402
-0.4846892
-0.48458397
-0.48447835
-0.48437232
-0.4842659
-0.48415905
-0.48405182
-0.4839442
-0.48383617
-0.48372772
-0.4836189
-0.48350966
-0.48340002
-0.48328996
-0.4831795
-0.48306867
-0.48295742
-0.48284578
-0.48273373
-0.4826215
-0.48250955
-0.48239794
-0.48228663
-0.48217562
-0.4820649
-0.48195451
-0.48184443
-0.48173466
-0.48162517
-0.481516
-0.48140717
-0.4812986
-0.48119035
-0.48108244
-0.4809748
-0.48086748
-0.48076048
-0.48065376
-0.48054737
-0.48044127
-0.4803355
-0.48023003
-0.48012486
-0.48002
-0.47991544
-0.4798112
-0.47970727
-0.47960365
-0.47950032
-0.4793973
-0.4792946
-0.4791922
-0.4790901
-0.47898832
-0.47888684
-0.47878566
-0.4786848
-0.47858426
-0.478484
-0.47838405
-0.47828442
-0.47818512
-0.47808608
-0.47798738
-0.47788897
-0.4777909
-0.47769308
-0.4775956
-0.47749844
-0.47740158
-0.47730502
-0.47720876
-0.47711283
-0.4770172
-0.47692186
-0.47682685
-0.47673213
-0.47663772
-0.47654364
-0.47644982
-0.47635636
-0.47626317
-0.4761703
-0.47607774
-0.4759855
-0.47589356
-0.47580191
-0.47571057
-0.47561955
-0.47552884
-0.47543842
-0.47534832
-0.47525853
-0.47516906
-0.47507986
-0.474991
-0.47490245
-0.47481418
-0.47472623
-0.47463858
-0.47455126
-0.47446424
-0.4743775
-0.47429112
-0.474205
-0.47411922
-0.4740337
-0.47394854
-0.47386366
-0.47377908
-0.47369483
-0.47361088
-0.47352725
-0.4734439
-0.47336087
-0.47327816
-0.47319573
-0.47311363
-0.47303185
-0.47295034
-0.47286916
-0.47278827
-0.47270772
-0.47262746
-0.4725475
-0.47246784
-0.4723885
-0.47230947
-0.47223076
-0.47215235
-0.47207424
-0.47199643
-0.47191894
-0.47184175
-0.47176486
-0.4716883
-0.47161204
-0.47153607
-0.47146043
-0.4713851
-0.47131005
-0.47123533
-0.4711609
-0.4710868
-0.47101298
-0.4709395
-0.4708663
-0.47079343
-0.47072086
-0.4706486
-0.4705766
-0.47050497
-0.47043362
-0.47036257
-0.47029185
-0.47022143
-0.4701513
-0.4700815
-0.470012
-0.4699428
-0.46987393
-0.46980536
-0.46973708
-0.46966913
-0.46960145
-0.46953413
-0.46946707
-0.46940035
-0.46933392
-0.46926782
-0.46920198
-0.46913648
-0.4690713
-0.46900642
-0.46894184
-0.46887755
-0.4688136
-0.46874994
-0.46868658
-0.46862355
-0.4685608
-0.46849838
-0.46843624
-0.46837443
-0.46831295
-0.46825173
-0.46819085
-0.46813026
-0.46807
-0.46801
-0.46795037
-0.467891
-0.46783197
-0.46777323
-0.4677148
-0.46765667
-0.46759886
-0.46754134
-0.46748415
-0.46742725
-0.46737066
-0.4673144
-0.46725842
-0.46720275
-0.4671474
-0.46709234
-0.46703762
-0.46698317
-0.46692905
-0.46687523
-0.46682173
-0.4667685
-0.4667156
-0.46666303
-0.46661076
-0.46655878
-0.4665071
-0.46645576
-0.4664047
-0.46635395
-0.46630353
-0.4662534
-0.46620357
-0.46615404
-0.46610484
-0.46605596
-0.46600735
-0.46595907
-0.4659111
-0.46586344
-0.46581605
-0.46576902
-0.46572226
-0.46567583
-0.4656297
-0.46558386
-0.46553835
-0.46549314
-0.46544823
-0.46540365
-0.46535936
-0.46531537
-0.4652717
-0.46522835
-0.46518528
-0.46514255
-0.4651001
-0.46505797
-0.46501613
-0.4649746
-0.4649334
-0.4648925
-0.46485192
-0.46481162
-0.46477163
-0.46473196
-0.4646926
-0.46465352
-0.46461478
-0.46457633
-0.4645382
-0.46450037
-0.46446285
-0.46442562
-0.46438873
-0.46435213
-0.46431583
-0.46427983
-0.46424416
-0.46420878
-0.46417373
-0.46413898
-0.46410453
-0.46407038
-0.46403655
-0.46400303
-0.46396983
-0.4639369
-0.4639043
-0.46387202
-0.46384
-0.46380833
-0.46377698
-0.4637459
-0.46371514
-0.46368468
-0.46365455
-0.46362472
-0.46359518
-0.46356598
-0.46353704
-0.46350846
-0.46348014
-0.46345216
-0.46342447
-0.4633971
-0.46337003
-0.46334326
-0.46331683
-0.46329066
-0.46326482
-0.4632393
-0.46321407
-0.46318915
-0.46316457
-0.46314025
-0.46311626
-0.46309257
-0.4630692
-0.46304613
-0.46302336
-0.4630009
-0.46297875
-0.4629569
-0.4629354
-0.46291417
-0.46289325
-0.46287262
-0.46285233
-0.46283233
-0.46281263
-0.46279326
-0.4627742
-0.4627554
-0.46273696
-0.4627188
-0.46270096
-0.46268344
-0.46266618
-0.4626493
-0.46263266
-0.46261635
-0.46260035
-0.46258467
-0.46256927
-0.46255422
-0.46253943
-0.46252498
-0.46251082
-0.46249697
-0.46248344
-0.4624702
-0.46245727
-0.46244466
-0.46243235
-0.46242034
-0.46240866
-0.46239728
-0.4623862
-0.4623754
-0.46236494
-0.4623548
-0.46234494
-0.4623354
-0.46232617
-0.46231723
-0.46230862
-0.4623003
-0.4622923
-0.4622846
-0.46227723
-0.46227014
-0.46226338
-0.4622569
-0.46225074
-0.4622449
-0.46223933
-0.4622341
-0.46222916
-0.46222454
-0.46222022
-0.46221623
-0.46221253
-0.46220914
-0.46220604
-0.46220326
-0.4622008
-0.46219864
-0.4621968
-0.46219525
-0.462194
-0.46219307
-0.46219245
-0.46219212
-0.46219212
-0.46219242
-0.462193
-0.46219394
-0.46219516
-0.46219668
-0.4621985
-0.46220064
-0.4622031
-0.46220586
-0.46220893
-0.4622123
-0.46221596
-0.46221995
-0.46222425
-0.46222886
-0.46223375
-0.46223897
-0.4622445
-0.46225032
-0.46225646
-0.46226293
-0.46226966
-0.46227673
-0.46228412
-0.46229178
-0.46229976
-0.46230805
-0.46231666
-0.46232557
-0.46233478
-0.4623443
-0.46235412
-0.46236426
-0.46237472
-0.46238548
-0.46239653
-0.4624079
-0.46241957
-0.4624315
-0.46244353
-0.46245572
-0.46246803
-0.46248046
-0.462493
-0.46250567
-0.46251845
-0.46253136
-0.4625444
-0.46255755
-0.46257085
-0.46258426
-0.4625978
-0.46261144
-0.46262524
-0.46263912
-0.46265316
-0.4626673
-0.46268156
-0.46269596
-0.46271047
-0.4627251
-0.46273988
-0.46275476
-0.46276978
-0.4627849
-0.46280015
-0.46281552
-0.46283102
-0.46284667
-0.4628624
-0.46287826
-0.46289426
-0.46291038
-0.46292663
-0.462943
-0.46295947
-0.46297607
-0.46299282
-0.46300966
-0.46302664
-0.46304375
-0.46306095
-0.46307832
-0.46309578
-0.46311337
-0.46313107
-0.46314892
-0.4631669
-0.46318498
-0.4632032
-0.46322152
-0.46323997
-0.46325853
-0.46327725
-0.46329606
-0.463315
-0.46333408
-0.46335328
-0.4633726
-0.46339202
-0.4634116
-0.46343127
-0.4634511
-0.46347103
-0.46349108
-0.46351126
-0.46353155
-0.46355197
-0.46357253
-0.46359318
-0.463614
-0.4636349
-0.46365595
-0.4636771
-0.4636984
-0.4637198
-0.46374133
-0.46376297
-0.46378475
-0.46380666
-0.46382868
-0.46385083
-0.4638731
-0.4638955
-0.463918
-0.46394065
-0.46396342
-0.4639863
-0.4640093
-0.46403244
-0.4640557
-0.46407908
-0.46410257
-0.4641262
-0.46414995
-0.46417382
-0.4641978
-0.46422192
-0.46424615
-0.46427053
-0.464295
-0.46431962
-0.46434435
-0.4643692
-0.46439418
-0.46441928
-0.46444452
-0.46446985
-0.46449533
-0.46452093
-0.46454665
-0.4645725
-0.46459845
-0.46462452
-0.46465072
-0.46467707
-0.46470353
-0.46473008
-0.4647568
-0.4647836
-0.46481058
-0.46483764
-0.46486482
-0.46489215
-0.4649196
-0.46494716
-0.46497485
-0.46500266
-0.46503058
-0.46505862
-0.46508682
-0.4651151
-0.46514353
-0.46517208
-0.46520075
-0.46522954
-0.46525845
-0.4652875
-0.46531665
-0.46534595
-0.46537536
-0.4654049
-0.46543455
-0.46546432
-0.46549422
-0.46552426
-0.4655544
-0.46558467
-0.46561506
-0.46564558
-0.46567622
-0.46570697
-0.46573788
-0.46576887
-0.46580002
-0.46583125
-0.46586263
-0.46589413
-0.46592578
-0.46595752
-0.46598938
-0.4660214
-0.4660535
-0.46608573
-0.4661181
-0.46615058
-0.4661832
-0.46621594
-0.46624878
-0.46628177
-0.46631485
-0.46634808
-0.46638143
-0.4664149
-0.4664485
-0.46648222
-0.46651605
-0.46655002
-0.46658412
-0.4666183
-0.46665263
-0.4666871
-0.46672168
-0.46675637
-0.4667912
-0.46682614
-0.46686122
-0.4668964
-0.46693173
-0.46696717
-0.46700275
-0.46703842
-0.46707425
-0.46711016
-0.46714622
-0.4671824
-0.4672187
-0.46725512
-0.46729168
-0.46732834
-0.46736515
-0.46740204
-0.4674391
-0.46747625
-0.46751353
-0.46755096
-0.46758848
-0.46762615
-0.4676639
-0.46770182
-0.46773985
-0.467778
-0.46781626
-0.46785465
-0.46789318
-0.4679318
-0.46797058
-0.46800947
-0.46804848
-0.4680876
-0.46812686
-0.46816623
-0.46820575
-0.46824536
-0.4682851
-0.468325
-0.46836498
-0.4684051
-0.46844533
-0.4684857
-0.46852618
-0.4685668
-0.46860752
-0.46864837
-0.46868935
-0.46873045
-0.4687717
-0.46881303
-0.46885452
-0.4688961
-0.4689378
-0.46897966
-0.46902162
-0.4690637
-0.46910593
-0.46914825
-0.46919072
-0.46923327
-0.46927598
-0.4693188
-0.46936175
-0.46940485
-0.46944803
-0.46949133
-0.46953478
-0.46957836
-0.46962205
-0.46966586
-0.46970978
-0.46975383
-0.469798
-0.4698423
-0.46988675
-0.46993127
-0.46997595
-0.47002074
-0.47006568
-0.4701107
-0.47015586
-0.47020116
-0.47024658
-0.4702921
-0.47033775
-0.47038352
-0.47042945
-0.47047547
-0.4705216
-0.47056788
-0.47061428
-0.4706608
-0.47070745
-0.4707542
-0.4708011
-0.47084808
-0.47089523
-0.4709425
-0.47098985
-0.47103736
-0.47108498
-0.47113273
-0.47118062
-0.4712286
-0.47127673
-0.47132495
-0.47137332
-0.4714218
-0.47147042
-0.47151917
-0.47156802
-0.47161698
-0.4716661
-0.47171533
-0.47176465
-0.47181413
-0.47186375
-0.47191346
-0.4719633
-0.47201326
-0.47206333
-0.47211355
-0.4721639
-0.47221434
-0.47226492
-0.4723156
-0.47236645
-0.47241738
-0.47246847
-0.47251967
-0.472571
-0.47262242
-0.47267398
-0.47272566
-0.4727775
-0.47282943
-0.47288147
-0.47293365
-0.47298595
-0.47303838
-0.47309092
-0.4731436
-0.4731964
-0.47324932
-0.47330236
-0.47335553
-0.47340882
-0.47346222
-0.47351575
-0.4735694
-0.4736232
-0.4736771
-0.4737311
-0.47378525
-0.47383952
-0.47389394
-0.47394845
-0.47400308
-0.47405785
-0.47411275
-0.47416773
-0.47422287
-0.47427812
-0.47433352
-0.47438902
-0.47444466
-0.4745004
-0.47455627
-0.47461227
-0.47466838
-0.47472462
-0.47478098
-0.47483748
-0.47489408
-0.47495082
-0.47500768
-0.47506464
-0.47512177
-0.475179
-0.47523633
-0.4752938
-0.4753514
-0.47540912
-0.47546697
-0.4755249
-0.47558302
-0.47564122
-0.47569954
-0.47575802
-0.47581658
-0.4758753
-0.47593412
-0.47599307
-0.47605214
-0.47611132
-0.47617066
-0.47623008
-0.47628966
-0.47634935
-0.47640914
-0.47646907
-0.47652915
-0.47658932
-0.4766496
-0.47671005
-0.4767706
-0.47683126
-0.47689205
-0.47695297
-0.47701403
-0.4770752
-0.47713646
-0.4771979
-0.47725943
-0.47732103
-0.47738263
-0.4774442
-0.47750574
-0.47756726
-0.47762874
-0.4776902
-0.4777516
-0.47781304
-0.4778744
-0.47793576
-0.47799706
-0.47805837
-0.47811964
-0.4781809
-0.4782421
-0.47830328
-0.47836447
-0.4784256
-0.4784867
-0.47854778
-0.47860882
-0.47866985
-0.47873086
-0.47879183
-0.47885278
-0.4789137
-0.47897458
-0.47903544
-0.4790963
-0.4791571
-0.4792179
-0.47927865
-0.47933936
-0.47940007
-0.47946075
-0.4795214
-0.479582
-0.47964263
-0.4797032
-0.47976372
-0.47982424
-0.4798847
-0.47994518
-0.48000562
-0.48006603
-0.4801264
-0.48018676
-0.48024708
-0.48030737
-0.48036766
-0.4804279
-0.48048812
-0.48054832
-0.48060846
-0.4806686
-0.48072872
-0.4807888
-0.48084885
-0.48090887
-0.4809689
-0.48102885
-0.48108882
-0.48114872
-0.48120862
-0.4812685
-0.48132834
-0.48138815
-0.48144794
-0.4815077
-0.4815674
-0.48162714
-0.4816868
-0.48174646
-0.48180607
-0.48186567
-0.48192525
-0.4819848
-0.4820443
-0.4821038
-0.48216325
-0.48222268
-0.4822821
-0.48234147
-0.48240083
-0.48246017
-0.48251945
-0.48257872
-0.48263797
-0.4826972
-0.48275638
-0.48281556
-0.4828747
-0.48293382
-0.4829929
-0.48305196
-0.48311096
-0.48316997
-0.48322895
-0.4832879
-0.48334682
-0.48340574
-0.4834646
-0.48352343
-0.48358226
-0.48364103
-0.4836998
-0.48375854
-0.48381725
-0.48387593
-0.48393458
-0.4839932
-0.4840518
-0.48411036
-0.48416892
-0.48422742
-0.48428592
-0.4843444
-0.48440284
-0.48446125
-0.48451963
-0.48457798
-0.4846363
-0.4846946
-0.48475286
-0.48481113
-0.48486936
-0.48492754
-0.4849857
-0.48504385
-0.48510197
-0.48516005
-0.4852181
-0.48527613
-0.48533416
-0.48539212
-0.4854501
-0.485508
-0.4855659
-0.48562378
-0.48568162
-0.48573944
-0.48579723
-0.48585498
-0.4859127
-0.48597044
-0.4860281
-0.48608577
-0.48614338
-0.486201
-0.48625857
-0.4863161
-0.48637363
-0.48643112
-0.48648858
-0.486546
-0.48660344
-0.4866608
-0.48671818
-0.48677552
-0.48683283
-0.48689008
-0.48694733
-0.48700455
-0.48706177
-0.48711893
-0.48717606
-0.4872332
-0.48729026
-0.48734733
-0.48740438
-0.4874614
-0.48751837
-0.48757532
-0.48763224
-0.48768914
-0.487746
-0.48780286
-0.48785967
-0.48791647
-0.4879732
-0.48802996
-0.48808667
-0.48814335
-0.4882
-0.48825663
-0.48831326
-0.48836982
-0.48842636
-0.4884829
-0.4885394
-0.48859584
-0.4886523
-0.4887087
-0.4887651
-0.48882145
-0.48887777
-0.4889341
-0.48899037
-0.48904663
-0.48910284
-0.48915905
-0.48921522
-0.48927137
-0.4893275
-0.48938358
-0.48943964
-0.48949566
-0.48955166
-0.48960766
-0.4896636
-0.48971954
-0.48977545
-0.4898313
-0.48988715
-0.48994297
-0.4899988
-0.49005455
-0.49011028
-0.49016598
-0.49022168
-0.49027732
-0.49033296
-0.49038857
-0.49044415
-0.4904997
-0.49055523
-0.49061072
-0.49066618
-0.49072164
-0.49077705
-0.49083242
-0.4908878
-0.49094313
-0.49099845
-0.49105373
-0.49110898
-0.4911642
-0.4912194
-0.49127457
-0.4913297
-0.49138483
-0.49143994
-0.49149498
-0.49155003
-0.49160504
-0.49166003
-0.49171498
-0.4917699
-0.4918248
-0.4918797
-0.49193454
-0.49198934
-0.49204415
-0.49209893
-0.49215367
-0.49220836
-0.49226305
-0.49231774
-0.49237236
-0.49242696
-0.49248153
-0.4925361
-0.4925906
-0.4926451
-0.4926996
-0.49275404
-0.49280846
-0.49286285
-0.4929172
-0.49297154
-0.49302584
-0.49308014
-0.49313438
-0.49318862
-0.49324283
-0.49329698
-0.49335113
-0.49340525
-0.49345934
-0.4935134
-0.49356747
-0.49362147
-0.49367547
-0.4937294
-0.49378335
-0.49383724
-0.49389112
-0.49394497
-0.4939988
-0.4940526
-0.49410638
-0.49416012
-0.49421382
-0.49426752
-0.49432117
-0.4943748
-0.49442843
-0.494482
-0.49453557
-0.4945891
-0.4946426
-0.49469605
-0.49474952
-0.49480292
-0.49485633
-0.49490967
-0.49496302
-0.49501634
-0.49506962
-0.49512288
-0.4951761
-0.4952293
-0.49528247
-0.49533564
-0.49538875
-0.49544185
-0.4954949
-0.49554795
-0.49560097
-0.49565396
-0.49570692
-0.49575984
-0.49581274
-0.49586564
-0.49591848
-0.49597132
-0.4960241
-0.49607688
-0.49612963
-0.49618235
-0.49623504
-0.4962877
-0.49634033
-0.49639294
-0.49644554
-0.49649808
-0.49655062
-0.49660313
-0.49665558
-0.49670804
-0.49676046
-0.49681285
-0.4968652
-0.49691758
-0.49696988
-0.49702215
-0.49707443
-0.49712664
-0.49717885
-0.49723104
-0.4972832
-0.4973353
-0.4973874
-0.49743947
-0.4974915
-0.49754354
-0.49759552
-0.4976475
-0.4976994
-0.49775133
-0.4978032
-0.49785507
-0.4979069
-0.4979587
-0.49801046
-0.49806222
-0.49811393
-0.49816564
-0.49821728
-0.49826893
-0.49832055
-0.49837214
-0.4984237
-0.49847522
-0.49852672
-0.4985782
-0.49862963
-0.49868107
-0.49873245
-0.49878383
-0.49883518
-0.4988865
-0.4989378
-0.49898905
-0.49904028
-0.49909148
-0.49914265
-0.49919382
-0.49924493
-0.49929604
-0.49934712
-0.49939814
-0.49944916
-0.49950016
-0.49955112
-0.49960205
-0.49965298
-0.49970385
-0.4997547
-0.49980554
-0.49985635
-0.4999071
-0.49995786
-0.50000846
-0.5000587
-0.50010854
-0.50015795
-0.50020695
-0.5002556
-0.50030375
-0.50035155
-0.50039893
-0.5004459
-0.50049245
-0.5005386
-0.5005843
-0.50062966
-0.50067455
-0.5007191
-0.5007632
-0.50080687
-0.5008502
-0.50089306
-0.50093555
-0.5009776
-0.50101924
-0.5010605
-0.5011013
-0.5011418
-0.5011818
-0.5012214
-0.50126064
-0.50129944
-0.5013378
-0.5013758
-0.50141335
-0.50145054
-0.50148726
-0.5015236
-0.50155956
-0.5015951
-0.5016302
-0.50166494
-0.5016992
-0.5017331
-0.5017666
-0.5017997
-0.50183237
-0.5018646
-0.5018965
-0.5019279
-0.50195897
-0.5019896
-0.5020198
-0.5020496
-0.502079
-0.50210804
-0.50213665
-0.5021648
-0.50219256
-0.5022199
-0.5022469
-0.50227344
-0.50229955
-0.5023253
-0.5023506
-0.50237554
-0.50240004
-0.5024241
-0.50244784
-0.5024711
-0.502494
-0.50251645
-0.5025385
-0.50256014
-0.50258136
-0.5026022
-0.5026226
-0.50264263
-0.50266224
-0.50268143
-0.5027002
-0.50271857
-0.50273657
-0.5027541
-0.50277126
-0.502788
-0.50280434
-0.5028203
-0.5028358
-0.5028509
-0.5028656
-0.5028799
-0.5028938
-0.5029073
-0.5029203
-0.502933
-0.50294524
-0.5029571
-0.50296855
-0.5029796
-0.5029902
-0.5030004
-0.5030102
-0.5030196
-0.5030286
-0.50303715
-0.5030453
-0.50305307
-0.50306046
-0.5030674
-0.50307393
-0.50308
-0.50308573
-0.50309104
-0.503096
-0.50310045
-0.50310457
-0.5031082
-0.5031115
-0.50311434
-0.5031168
-0.5031189
-0.5031205
-0.5031217
-0.5031225
-0.5031229
-0.5031229
-0.5031225
-0.50312173
-0.5031205
-0.5031189
-0.5031168
-0.50311434
-0.5031115
-0.50310826
-0.50310457
-0.50310045
-0.503096
-0.5030911
-0.5030858
-0.50308007
-0.50307393
-0.50306743
-0.50306046
-0.5030531
-0.5030454
-0.5030372
-0.50302863
-0.50301963
-0.5030102
-0.50300044
-0.50299025
-0.50297964
-0.5029686
-0.50295717
-0.5029453
-0.5029331
-0.5029204
-0.50290734
-0.50289387
-0.50288
-0.5028657
-0.502851
-0.50283587
-0.5028204
-0.50280446
-0.50278807
-0.5027714
-0.5027542
-0.5027366
-0.5027187
-0.50270027
-0.5026815
-0.5026623
-0.5026427
-0.5026227
-0.5026023
-0.5025815
-0.50256026
-0.50253856
-0.5025165
-0.5024941
-0.5024712
-0.5024479
-0.50242424
-0.50240016
-0.50237566
-0.50235075
-0.5023254
-0.50229967
-0.50227356
-0.50224704
-0.50222003
-0.5021927
-0.50216496
-0.50213677
-0.50210816
-0.5020792
-0.50204974
-0.50201994
-0.5019897
-0.5019591
-0.5019281
-0.5018966
-0.5018648
-0.50183254
-0.5017998
-0.50176674
-0.5017333
-0.5016994
-0.5016651
-0.50163037
-0.50159526
-0.50155973
-0.5015238
-0.50148743
-0.5014507
-0.5014135
-0.501376
-0.501338
-0.5012996
-0.5012608
-0.5012216
-0.50118196
-0.50114197
-0.50110155
-0.5010607
-0.5010195
-0.5009778
-0.50093573
-0.50089324
-0.5008504
-0.5008071
-0.5007634
-0.5007193
-0.5006748
-0.50062984
-0.50058454
-0.50053877
-0.50049263
-0.5004461
-0.5003991
-0.5003518
-0.500304
-0.50025576
-0.5002072
-0.5001582
-0.5001088
-0.50005895
-0.5000087
-0.4999581
-0.49990705
-0.49985558
-0.49980372
-0.49975145
-0.49969876
-0.49964568
-0.49959219
-0.49953827
-0.49948397
-0.49942926
-0.49937412
-0.49931857
-0.49926263
-0.49920627
-0.4991495
-0.49909234
-0.49903476
-0.49897677
-0.49891835
-0.49885955
-0.49880034
-0.49874073
-0.49868068
-0.49862024
-0.49855942
-0.49849814
-0.49843648
-0.4983744
-0.49831194
-0.49824902
-0.49818572
-0.49812204
-0.4980579
-0.49799338
-0.49792847
-0.4978631
-0.49779737
-0.4977312
-0.49766466
-0.49759766
-0.49753028
-0.4974625
-0.4973943
-0.4973257
-0.49725667
-0.49718726
-0.49711743
-0.4970472
-0.49697652
-0.49690548
-0.496834
-0.49676213
-0.49668986
-0.49661717
-0.49654406
-0.49647054
-0.49639663
-0.4963223
-0.4962476
-0.49617243
-0.49609688
-0.49602094
-0.49594456
-0.4958678
-0.4957906
-0.49571303
-0.495635
-0.4955566
-0.4954778
-0.49539855
-0.49531892
-0.4952389
-0.49515843
-0.49507758
-0.4949963
-0.49491465
-0.49483255
-0.49475005
-0.49466717
-0.49458385
-0.49450013
-0.494416
-0.49433148
-0.49424654
-0.4941612
-0.49407542
-0.49398926
-0.49390268
-0.4938157
-0.4937283
-0.4936405
-0.4935523
-0.49346367
-0.49337465
-0.4932852
-0.49319535
-0.4931051
-0.49301445
-0.49292338
-0.49283192
-0.49274004
-0.49264774
-0.49255502
-0.49246192
-0.4923684
-0.49227446
-0.49218014
-0.4920854
-0.49199024
-0.4918947
-0.49179873
-0.49170235
-0.49160555
-0.49150836
-0.49141076
-0.49131274
-0.49121433
-0.4911155
-0.49101627
-0.4909166
-0.49081656
-0.4907161
-0.49061522
-0.49051395
-0.49041227
-0.49031016
-0.49020767
-0.49010476
-0.49000144
-0.4898977
-0.48979357
-0.48968902
-0.4895841
-0.4894787
-0.48937294
-0.48926675
-0.48916018
-0.4890532
-0.48894578
-0.48883796
-0.48872975
-0.48862112
-0.4885121
-0.48840263
-0.48829278
-0.48818251
-0.48807186
-0.4879608
-0.4878493
-0.4877374
-0.4876251
-0.48751238
-0.48739925
-0.48728573
-0.4871718
-0.4870576
-0.4869437
-0.48683006
-0.48671675
-0.4866037
-0.486491
-0.48637855
-0.48626643
-0.4861546
-0.48604307
-0.4859318
-0.4858209
-0.48571023
-0.4855999
-0.48548985
-0.4853801
-0.48527065
-0.4851615
-0.48505265
-0.4849441
-0.48483586
-0.4847279
-0.48462024
-0.48451287
-0.48440582
-0.48429903
-0.48419258
-0.4840864
-0.48398054
-0.48387498
-0.48376969
-0.48366472
-0.48356003
-0.48345566
-0.48335156
-0.4832478
-0.4831443
-0.4830411
-0.48293823
-0.48283562
-0.48273334
-0.48263136
-0.48252964
-0.48242825
-0.48232713
-0.48222634
-0.48212585
-0.48202562
-0.48192573
-0.4818261
-0.4817268
-0.4816278
-0.48152906
-0.48143065
-0.4813325
-0.4812347
-0.4811372
-0.48103994
-0.48094302
-0.4808464
-0.48075005
-0.48065403
-0.4805583
-0.48046285
-0.48036772
-0.48027286
-0.48017833
-0.4800841
-0.47999012
-0.4798965
-0.47980314
-0.47971007
-0.47961733
-0.47952488
-0.4794327
-0.47934085
-0.4792493
-0.479158
-0.47906706
-0.4789764
-0.47888604
-0.47879595
-0.47870618
-0.4786167
-0.47852752
-0.47843865
-0.47835007
-0.47826177
-0.4781738
-0.4780861
-0.47799873
-0.47791162
-0.47782484
-0.47773835
-0.47765213
-0.47756624
-0.47748065
-0.47739536
-0.47731033
-0.47722563
-0.47714123
-0.47705713
-0.4769733
-0.4768898
-0.47680658
-0.47672367
-0.47664103
-0.47655872
-0.4764767
-0.47639498
-0.47631353
-0.4762324
-0.4761516
-0.47607106
-0.4759908
-0.47591087
-0.47583124
-0.4757519
-0.47567287
-0.4755941
-0.47551566
-0.47543752
-0.47535968
-0.47528213
-0.47520486
-0.4751279
-0.47505125
-0.4749749
-0.47489884
-0.47482306
-0.4747476
-0.47467244
-0.47459757
-0.474523
-0.4744487
-0.47437474
-0.47430107
-0.4742277
-0.47415462
-0.47408184
-0.47400934
-0.47393715
-0.47386527
-0.4737937
-0.4737224
-0.4736514
-0.4735807
-0.4735103
-0.4734402
-0.4733704
-0.4733009
-0.4732317
-0.4731628
-0.4730942
-0.47302586
-0.47295785
-0.47289014
-0.47282273
-0.4727556
-0.4726888
-0.47262228
-0.47255605
-0.4724901
-0.47242448
-0.47235915
-0.47229412
-0.4722294
-0.47216496
-0.47210082
-0.472037
-0.47197345
-0.4719102
-0.47184724
-0.4717846
-0.47172225
-0.4716602
-0.47159845
-0.471537
-0.47147584
-0.47141498
-0.47135442
-0.47129416
-0.4712342
-0.47117454
-0.47111517
-0.4710561
-0.47099733
-0.47093886
-0.47088066
-0.47082278
-0.4707652
-0.47070792
-0.47065094
-0.47059426
-0.47053787
-0.47048178
-0.470426
-0.4703705
-0.4703153
-0.4702604
-0.4702058
-0.4701515
-0.4700975
-0.4700438
-0.4699904
-0.4699373
-0.46988449
-0.46983197
-0.46977976
-0.46972784
-0.46967623
-0.4696249
-0.4695739
-0.46952316
-0.46947274
-0.4694226
-0.46937278
-0.46932325
-0.469274
-0.46922508
-0.46917644
-0.4691281
-0.46908006
-0.46903232
-0.46898487
-0.46893775
-0.4688909
-0.46884435
-0.4687981
-0.46875215
-0.4687065
-0.46866113
-0.46861607
-0.4685713
-0.46852684
-0.46848267
-0.4684388
-0.46839523
-0.46835196
-0.468309
-0.46826634
-0.46822396
-0.46818188
-0.4681401
-0.4680986
-0.46805742
-0.46801654
-0.46797594
-0.46793565
-0.46789566
-0.46785596
-0.4678166
-0.4677775
-0.4677387
-0.46770018
-0.46766198
-0.46762407
-0.46758646
-0.46754915
-0.46751216
-0.46747544
-0.46743903
-0.4674029
-0.46736708
-0.46733156
-0.46729633
-0.46726143
-0.4672268
-0.46719247
-0.46715844
-0.4671247
-0.46709126
-0.46705812
-0.4670253
-0.46699277
-0.46696052
-0.46692857
-0.46689692
-0.4668656
-0.46683455
-0.4668038
-0.46677333
-0.46674317
-0.4667133
-0.46668378
-0.4666545
-0.46662554
-0.46659687
-0.4665685
-0.46654046
-0.46651268
-0.4664852
-0.46645802
-0.46643114
-0.4664046
-0.4663783
-0.4663523
-0.46632662
-0.46630126
-0.46627617
-0.46625137
-0.46622688
-0.46620268
-0.4661788
-0.4661552
-0.4661319
-0.4661089
-0.4660862
-0.4660638
-0.46604168
-0.46601987
-0.46599838
-0.46597716
-0.46595624
-0.46593565
-0.46591532
-0.4658953
-0.46587557
-0.46585616
-0.46583703
-0.4658182
-0.46579966
-0.46578145
-0.4657635
-0.46574587
-0.46572855
-0.4657115
-0.46569476
-0.4656783
-0.46566218
-0.46564633
-0.46563077
-0.46561554
-0.46560058
-0.46558592
-0.46557158
-0.46555752
-0.46554375
-0.4655303
-0.46551713
-0.46550426
-0.4654917
-0.46547943
-0.46546745
-0.4654558
-0.46544442
-0.46543333
-0.46542257
-0.46541208
-0.4654019
-0.46539202
-0.46538243
-0.46537313
-0.46536416
-0.46535546
-0.46534708
-0.46533898
-0.46533117
-0.4653237
-0.46531647
-0.46530956
-0.46530297
-0.46529666
-0.46529067
-0.46528494
-0.46527952
-0.46527442
-0.4652696
-0.4652651
-0.46526086
-0.46525693
-0.46525332
-0.46525
-0.46524698
-0.46524423
-0.4652418
-0.46523967
-0.46523783
-0.4652363
-0.46523505
-0.4652341
-0.46523347
-0.46523312
-0.4652331
-0.46523333
-0.4652339
-0.46523473
-0.4652359
-0.46523732
-0.46523905
-0.4652411
-0.46524343
-0.46524608
-0.465249
-0.46525225
-0.46525577
-0.4652596
-0.46526372
-0.46526816
-0.46527287
-0.4652779
-0.46528322
-0.46528885
-0.46529475
-0.46530092
-0.46530712
-0.46531337
-0.46531963
-0.46532595
-0.46533233
-0.4653387
-0.46534514
-0.4653516
-0.4653581
-0.46536463
-0.46537122
-0.46537784
-0.46538448
-0.46539116
-0.4653979
-0.46540466
-0.46541142
-0.46541828
-0.46542513
-0.46543205
-0.465439
-0.46544597
-0.46545297
-0.46546
-0.4654671
-0.46547422
-0.46548137
-0.46548858
-0.4654958
-0.46550307
-0.46551037
-0.46551773
-0.4655251
-0.4655325
-0.46553996
-0.46554744
-0.46555495
-0.46556252
-0.46557012
-0.46557775
-0.4655854
-0.46559313
-0.46560088
-0.46560866
-0.46561646
-0.4656243
-0.4656322
-0.46564013
-0.46564808
-0.46565607
-0.46566412
-0.4656722
-0.4656803
-0.46568844
-0.4656966
-0.46570483
-0.46571308
-0.46572137
-0.46572968
-0.46573806
-0.46574646
-0.4657549
-0.46576336
-0.46577185
-0.4657804
-0.465789
-0.4657976
-0.46580625
-0.46581495
-0.46582368
-0.46583244
-0.46584123
-0.46585006
-0.46585894
-0.46586785
-0.4658768
-0.46588576
-0.4658948
-0.46590385
-0.46591294
-0.46592206
-0.4659312
-0.46594042
-0.46594965
-0.46595892
-0.46596825
-0.46597758
-0.46598697
-0.46599638
-0.46600583
-0.46601534
-0.46602485
-0.4660344
-0.46604404
-0.46605366
-0.46606335
-0.46607304
-0.46608278
-0.4660926
-0.4661024
-0.46611226
-0.46612215
-0.46613207
-0.46614203
-0.46615204
-0.4661621
-0.46617216
-0.46618226
-0.46619242
-0.4662026
-0.4662128
-0.46622306
-0.46623337
-0.46624368
-0.46625406
-0.46626446
-0.46627492
-0.46628538
-0.4662959
-0.46630645
-0.46631703
-0.46632764
-0.4663383
-0.466349
-0.46635973
-0.4663705
-0.4663813
-0.46639216
-0.466403
-0.46641394
-0.46642488
-0.46643588
-0.4664469
-0.46645796
-0.46646905
-0.46648017
-0.46649134
-0.46650255
-0.46651378
-0.46652508
-0.46653637
-0.46654773
-0.4665591
-0.46657056
-0.466582
-0.4665935
-0.46660504
-0.4666166
-0.46662822
-0.46663985
-0.46665153
-0.46666324
-0.466675
-0.4666868
-0.46669862
-0.46671048
-0.46672237
-0.46673432
-0.46674627
-0.46675828
-0.46677032
-0.46678242
-0.46679452
-0.46680668
-0.46681887
-0.4668311
-0.46684337
-0.46685565
-0.46686798
-0.46688035
-0.46689278
-0.4669052
-0.4669177
-0.4669302
-0.46694276
-0.46695536
-0.46696797
-0.46698064
-0.46699336
-0.4670061
-0.46701884
-0.46703166
-0.4670445
-0.4670574
-0.4670703
-0.46708328
-0.46709627
-0.4671093
-0.46712235
-0.46713546
-0.4671486
-0.46716177
-0.46717498
-0.4671882
-0.4672015
-0.46721482
-0.46722817
-0.46724156
-0.467255
-0.46726847
-0.46728197
-0.4672955
-0.4673091
-0.46732268
-0.46733633
-0.46735004
-0.46736374
-0.4673775
-0.46739128
-0.4674051
-0.467419
-0.4674329
-0.46744683
-0.4674608
-0.46747482
-0.46748886
-0.46750295
-0.46751708
-0.46753123
-0.46754542
-0.46755967
-0.46757394
-0.46758822
-0.46760258
-0.46761695
-0.46763137
-0.46764582
-0.4676603
-0.46767482
-0.46768937
-0.46770397
-0.4677186
-0.46773326
-0.467748
-0.4677627
-0.4677775
-0.4677923
-0.46780717
-0.46782205
-0.46783698
-0.46785194
-0.46786693
-0.46788198
-0.46789703
-0.46791214
-0.46792728
-0.46794245
-0.46795768
-0.46797293
-0.46798822
-0.46800354
-0.4680189
-0.4680343
-0.46804973
-0.4680652
-0.4680807
-0.46809626
-0.46811184
-0.46812746
-0.4681431
-0.46815878
-0.46817452
-0.46819028
-0.46820608
-0.4682219
-0.4682378
-0.4682537
-0.46826965
-0.46828562
-0.46830162
-0.4683177
-0.46833378
-0.4683499
-0.4683661
-0.46838227
-0.4683985
-0.46841478
-0.4684311
-0.46844745
-0.4684638
-0.46848023
-0.46849668
-0.4685132
-0.4685297
-0.46854627
-0.46856287
-0.4685795
-0.4685962
-0.4686129
-0.46862963
-0.46864644
-0.46866325
-0.4686801
-0.46869698
-0.4687139
-0.4687309
-0.46874788
-0.46876493
-0.468782
-0.4687991
-0.46881625
-0.46883345
-0.46885067
-0.46886793
-0.4688852
-0.46890256
-0.4689199
-0.4689373
-0.46895474
-0.46897224
-0.46898973
-0.46900728
-0.46902487
-0.4690425
-0.46906015
-0.46907786
-0.4690956
-0.46911335
-0.46913114
-0.469149
-0.46916687
-0.4691848
-0.46920273
-0.46922073
-0.46923873
-0.4692568
-0.4692749
-0.46929303
-0.4693112
-0.4693294
-0.46934766
-0.46936592
-0.46938422
-0.46940258
-0.46942097
-0.4694394
-0.46945786
-0.46947634
-0.46949488
-0.46951345
-0.46953207
-0.4695507
-0.46956939
-0.4695881
-0.46960685
-0.46962565
-0.46964446
-0.46966332
-0.46968222
-0.46970114
-0.46972013
-0.46973914
-0.46975818
-0.46977726
-0.46979636
-0.46981552
-0.46983472
-0.46985394
-0.4698732
-0.4698925
-0.46991184
-0.46993122
-0.46995062
-0.46997005
-0.46998954
-0.47000906
-0.4700286
-0.4700482
-0.47006783
-0.4700875
-0.4701072
-0.47012693
-0.47014672
-0.4701665
-0.47018635
-0.47020623
-0.47022617
-0.4702461
-0.4702661
-0.47028613
-0.4703062
-0.4703263
-0.47034642
-0.4703666
-0.4703868
-0.47040707
-0.47042733
-0.47044766
-0.470468
-0.47048843
-0.47050884
-0.47052932
-0.47054982
-0.47057036
-0.47059092
-0.47061154
-0.4706322
-0.47065288
-0.4706736
-0.47069433
-0.47071514
-0.47073597
-0.47075683
-0.47077775
-0.47079876
-0.4708199
-0.47084114
-0.47086248
-0.47088394
-0.47090548
-0.47092718
-0.47094893
-0.47097084
-0.47099283
-0.47101492
-0.47103715
-0.47105947
-0.47108188
-0.47110444
-0.47112706
-0.47114983
-0.4711727
-0.47119567
-0.47121873
-0.47124192
-0.47126523
-0.47128862
-0.47131214
-0.47133577
-0.4713595
-0.47138333
-0.4714073
-0.47143134
-0.4714555
-0.47147977
-0.47150415
-0.47152865
-0.47155324
-0.47157794
-0.47160277
-0.47162768
-0.47165272
-0.47167784
-0.47170308
-0.47172844
-0.47175393
-0.4717795
-0.47180516
-0.47183096
-0.47185686
-0.47188285
-0.471909
-0.4719352
-0.47196153
-0.47198796
-0.47201452
-0.4720412
-0.47206795
-0.4720948
-0.4721218
-0.4721489
-0.47217607
-0.4722034
-0.4722308
-0.47225833
-0.47228596
-0.4723137
-0.47234154
-0.47236952
-0.47239757
-0.47242576
-0.47245404
-0.4724824
-0.47251093
-0.4725395
-0.47256824
-0.47259706
-0.472626
-0.47265503
-0.4726842
-0.47271344
-0.47274283
-0.4727723
-0.47280186
-0.47283158
-0.47286138
-0.47289127
-0.47292128
-0.4729514
-0.47298166
-0.473012
-0.47304243
-0.473073
-0.47310367
-0.47313446
-0.47316533
-0.47319633
-0.4732274
-0.47325864
-0.47328994
-0.47332138
-0.4733529
-0.47338456
-0.4734163
-0.47344816
-0.47348014
-0.4735122
-0.4735444
-0.4735767
-0.4736091
-0.4736416
-0.4736742
-0.47370693
-0.47373977
-0.4737727
-0.47380576
-0.47383893
-0.47387218
-0.47390556
-0.47393906
-0.47397265
-0.47400635
-0.47404018
-0.4740741
-0.4741081
-0.47414225
-0.4741765
-0.47421086
-0.4742453
-0.47427988
-0.47431454
-0.47434935
-0.47438425
-0.47441924
-0.47445434
-0.47448957
-0.4745249
-0.47456032
-0.47459587
-0.47463155
-0.47466728
-0.47470316
-0.47473913
-0.47477522
-0.47481143
-0.47484773
-0.47488415
-0.47492066
-0.4749573
-0.47499403
-0.47503087
-0.47506782
-0.4751049
-0.47514206
-0.47517934
-0.47521672
-0.47525424
-0.47529182
-0.47532955
-0.47536737
-0.4754053
-0.47544333
-0.47548148
-0.47551975
-0.4755581
-0.47559658
-0.47563514
-0.47567382
-0.47571263
-0.47575155
-0.47579056
-0.47582966
-0.4758689
-0.47590825
-0.47594768
-0.47598726
-0.47602692
-0.47606668
-0.47610655
-0.47614655
-0.47618666
-0.47622687
-0.47626716
-0.4763076
-0.47634813
-0.47638875
-0.47642952
-0.47647038
-0.47651133
-0.4765524
-0.47659358
-0.4766349
-0.4766763
-0.47671777
-0.4767594
-0.47680113
-0.47684294
-0.4768849
-0.47692695
-0.4769691
-0.47701135
-0.47705373
-0.47709623
-0.47713882
-0.47718152
-0.47722432
-0.47726724
-0.47731027
-0.4773534
-0.47739664
-0.47743997
-0.47748345
-0.477527
-0.47757068
-0.47761446
-0.47765836
-0.47770235
-0.47774646
-0.47779068
-0.477835
-0.47787943
-0.477924
-0.47796863
-0.4780134
-0.47805825
-0.47810322
-0.4781483
-0.47819352
-0.47823882
-0.4782842
-0.47832975
-0.47837538
-0.4784211
-0.47846693
-0.47851288
-0.47855896
-0.47860512
-0.4786514
-0.47869778
-0.47874427
-0.47879088
-0.47883758
-0.4788844
-0.47893134
-0.47897837
-0.4790255
-0.47907275
-0.4791201
-0.47916758
-0.47921517
-0.47926286
-0.47931063
-0.47935855
-0.47940657
-0.47945467
-0.4795029
-0.47955123
-0.47959968
-0.47964823
-0.4796969
-0.47974566
-0.47979453
-0.47984353
-0.4798926
-0.47994182
-0.47999114
-0.48004055
-0.48009008
-0.48013973
-0.48018947
-0.4802393
-0.48028928
-0.48033935
-0.48038954
-0.4804398
-0.4804902
-0.48054072
-0.48059133
-0.48064205
-0.48069286
-0.4807438
-0.48079485
-0.48084602
-0.48089728
-0.48094866
-0.48100013
-0.4810517
-0.48110342
-0.48115522
-0.48120713
-0.48125914
-0.48131126
-0.4813635
-0.48141587
-0.48146832
-0.48152086
-0.48157355
-0.48162633
-0.4816792
-0.48173222
-0.48178533
-0.48183852
-0.48189184
-0.48194528
-0.48199883
-0.48205248
-0.48210624
-0.4821601
-0.48221406
-0.48226815
-0.48232234
-0.48237664
-0.48243102
-0.48248556
-0.48254016
-0.4825949
-0.48264974
-0.4827047
-0.48275974
-0.4828149
-0.4828702
-0.48292556
-0.48298106
-0.48303667
-0.48309237
-0.4831482
-0.4832041
-0.48326012
-0.48331627
-0.4833725
-0.48342887
-0.48348534
-0.4835419
-0.4835986
-0.4836554
-0.4837123
-0.4837693
-0.4838264
-0.48388362
-0.48394096
-0.48399842
-0.48405597
-0.4841136
-0.4841714
-0.48422927
-0.48428723
-0.48434532
-0.48440352
-0.48446184
-0.48452026
-0.4845788
-0.4846374
-0.48469615
-0.484755
-0.48481396
-0.48487303
-0.4849322
-0.4849915
-0.4850509
-0.48511037
-0.48516998
-0.4852297
-0.48528954
-0.48534948
-0.4854095
-0.48546967
-0.48552993
-0.48559028
-0.48565075
-0.48571134
-0.48577204
-0.48583284
-0.48589376
-0.48595476
-0.4860159
-0.48607713
-0.48613846
-0.48619992
-0.4862615
-0.48632315
-0.48638493
-0.48644683
-0.48650882
-0.48657092
-0.48663312
-0.48669544
-0.48675787
-0.4868204
-0.48688304
-0.4869458
-0.48700866
-0.48707163
-0.4871347
-0.4871979
-0.48726118
-0.4873246
-0.4873881
-0.48745173
-0.48751545
-0.4875793
-0.48764324
-0.4877073
-0.48777145
-0.4878357
-0.48790008
-0.48796457
-0.48802918
-0.48809385
-0.48815843
-0.48822293
-0.4882873
-0.48835158
-0.48841578
-0.48847988
-0.48854387
-0.48860776
-0.48867157
-0.4887353
-0.4887989
-0.4888624
-0.48892578
-0.4889891
-0.48905233
-0.48911542
-0.48917845
-0.48924136
-0.48930416
-0.4893669
-0.4894295
-0.48949203
-0.48955446
-0.48961678
-0.489679
-0.48974112
-0.48980317
-0.4898651
-0.48992693
-0.48998865
-0.4900503
-0.49011183
-0.49017328
-0.4902346
-0.49029586
-0.490357
-0.49041805
-0.490479
-0.49053985
-0.49060062
-0.49066126
-0.49072182
-0.49078226
-0.4908426
-0.49090287
-0.49096304
-0.49102312
-0.4910831
-0.49114293
-0.4912027
-0.49126238
-0.49132195
-0.49138144
-0.4914408
-0.49150008
-0.49155927
-0.49161834
-0.4916773
-0.4917362
-0.49179497
-0.49185368
-0.49191228
-0.49197075
-0.49202913
-0.49208742
-0.49214563
-0.49220374
-0.49226174
-0.4923196
-0.49237743
-0.49243513
-0.49249274
-0.49255025
-0.49260765
-0.49266496
-0.49272218
-0.49277928
-0.4928363
-0.49289322
-0.49295005
-0.49300677
-0.4930634
-0.4931199
-0.49317634
-0.49323267
-0.49328887
-0.49334502
-0.49340105
-0.493457
-0.4935128
-0.49356857
-0.4936242
-0.49367973
-0.49373516
-0.4937905
-0.49384576
-0.49390092
-0.49395597
-0.49401093
-0.49406576
-0.4941205
-0.49417517
-0.49422973
-0.49428418
-0.49433854
-0.4943928
-0.494447
-0.49450105
-0.494555
-0.49460888
-0.49466264
-0.49471632
-0.4947699
-0.49482337
-0.49487674
-0.49493003
-0.4949832
-0.4950363
-0.49508926
-0.49514216
-0.49519494
-0.49524763
-0.49530023
-0.49535272
-0.4954051
-0.4954574
-0.4955096
-0.49556172
-0.4956137
-0.4956656
-0.4957174
-0.4957691
-0.49582073
-0.49587223
-0.49592364
-0.49597496
-0.49602616
-0.4960773
-0.49612832
-0.49617922
-0.49623004
-0.49628076
-0.4963314
-0.4963819
-0.49643233
-0.49648267
-0.49653292
-0.49658304
-0.49663308
-0.496683
-0.49673286
-0.49678257
-0.49683222
-0.49688178
-0.49693123
-0.49698055
-0.4970298
-0.49707896
-0.497128
-0.49717695
-0.49722582
-0.49727458
-0.49732322
-0.4973718
-0.49742025
-0.49746862
-0.49751687
-0.49756503
-0.4976131
-0.49766108
-0.49770895
-0.49775672
-0.4978044
-0.49785197
-0.49789944
-0.49794683
-0.49799412
-0.4980413
-0.4980884
-0.49813536
-0.49818227
-0.49822903
-0.49827573
-0.49832234
-0.49836883
-0.4984152
-0.4984615
-0.4985077
-0.4985538
-0.49859983
-0.49864572
-0.49869153
-0.49873725
-0.49878284
-0.49882835
-0.49887377
-0.4989191
-0.4989643
-0.49900943
-0.49905443
-0.49909937
-0.4991442
-0.4991889
-0.49923354
-0.49927807
-0.4993225
-0.49936682
-0.49941105
-0.49945518
-0.49949923
-0.49954316
-0.499587
-0.49963075
-0.49967438
-0.49971792
-0.49976137
-0.49980474
-0.49984798
-0.49989113
-0.4999342
-0.49997714
-0.50001997
-0.50006276
-0.50010544
-0.500148
-0.50019044
-0.5002328
-0.5002751
-0.5003172
-0.5003593
-0.50040126
-0.50044316
-0.50048494
-0.5005266
-0.50056815
-0.50060964
-0.50065106
-0.5006923
-0.5007335
-0.5007746
-0.5008156
-0.50085646
-0.5008973
-0.50093794
-0.5009785
-0.50101906
-0.5010595
-0.50109977
-0.50113994
-0.50118005
-0.50122005
-0.50126
-0.5012998
-0.5013395
-0.5013791
-0.5014186
-0.50145805
-0.5014973
-0.50153655
-0.5015757
-0.5016147
-0.5016536
-0.5016925
-0.50173116
-0.5017698
-0.50180835
-0.5018468
-0.5018851
-0.5019233
-0.50196147
-0.5019995
-0.50203747
-0.5020753
-0.50211304
-0.50215065
-0.5021882
-0.5022257
-0.502263
-0.50230026
-0.50233746
-0.5023745
-0.5024114
-0.5024483
-0.50248504
-0.50252175
-0.5025583
-0.50259477
-0.5026311
-0.50266737
-0.50270355
-0.5027396
-0.5027756
-0.5028115
-0.50284725
-0.50288296
-0.50291854
-0.502954
-0.5029894
-0.5030247
-0.50305986
-0.503095
-0.50312996
-0.5031648
-0.50319964
-0.5032343
-0.5032689
-0.5033034
-0.5033378
-0.50337213
-0.50340635
-0.50344044
-0.5034744
-0.5035083
-0.5035421
-0.50357586
-0.5036095
-0.503643
-0.5036764
-0.50370973
-0.50374293
-0.5037761
-0.5038091
-0.503842
-0.50387484
-0.50390756
-0.5039402
-0.50397277
-0.5040052
-0.5040375
-0.50406975
-0.5041019
-0.50413394
-0.5041659
-0.5041977
-0.5042295
-0.50426114
-0.50429267
-0.5043241
-0.50435543
-0.5043867
-0.5044179
-0.50444895
-0.5044799
-0.50451076
-0.5045415
-0.50457215
-0.50460273
-0.5046332
-0.5046636
-0.50469387
-0.504724
-0.50475407
-0.50478405
-0.50481397
-0.5048437
-0.5048734
-0.504903
-0.50493246
-0.50496185
-0.5049912
-0.5050203
-0.5050494
-0.50507843
-0.50510734
-0.50513613
-0.5051648
-0.5051934
-0.5052219
-0.50525033
-0.5052786
-0.50530684
-0.5053349
-0.5053629
-0.5053908
-0.50541866
-0.5054464
-0.505474
-0.5055015
-0.5055289
-0.5055562
-0.50558347
-0.5056106
-0.50563765
-0.5056645
-0.5056914
-0.5057181
-0.50574476
-0.5057713
-0.50579774
-0.505824
-0.5058503
-0.5058764
-0.50590247
-0.5059284
-0.50595427
-0.50598
-0.50600564
-0.5060312
-0.50605667
-0.506082
-0.5061073
-0.5061324
-0.5061575
-0.50618243
-0.5062069
-0.506231
-0.5062547
-0.50627786
-0.5063007
-0.50632304
-0.506345
-0.5063665
-0.5063876
-0.5064082
-0.5064284
-0.50644827
-0.5064676
-0.50648654
-0.5065051
-0.50652313
-0.5065408
-0.506558
-0.5065748
-0.50659114
-0.50660706
-0.50662255
-0.50663763
-0.5066523
-0.50666654
-0.5066803
-0.50669366
-0.5067066
-0.5067191
-0.50673115
-0.5067428
-0.50675404
-0.5067648
-0.50677514
-0.5067851
-0.5067946
-0.50680363
-0.5068123
-0.5068205
-0.5068283
-0.50683564
-0.50684255
-0.50684905
-0.50685513
-0.50686073
-0.506866
-0.50687075
-0.5068751
-0.50687903
-0.5068825
-0.5068856
-0.5068882
-0.5068904
-0.5068922
-0.5068935
-0.50689447
-0.50689495
-0.506895
-0.50689465
-0.5068938
-0.5068926
-0.50689095
-0.50688887
-0.50688636
-0.5068834
-0.50688004
-0.50687623
-0.506872
-0.50686735
-0.5068622
-0.50685674
-0.5068508
-0.5068444
-0.5068376
-0.5068304
-0.5068227
-0.5068146
-0.5068061
-0.50679713
-0.5067878
-0.50677794
-0.50676775
-0.5067571
-0.506746
-0.50673443
-0.5067225
-0.5067101
-0.5066973
-0.50668406
-0.5066704
-0.5066563
-0.50664175
-0.50662684
-0.5066114
-0.5065956
-0.5065794
-0.5065627
-0.5065456
-0.5065281
-0.50651014
-0.5064917
-0.50647295
-0.5064537
-0.506434
-0.5064139
-0.5063934
-0.5063724
-0.506351
-0.5063292
-0.50630695
-0.5062843
-0.50626117
-0.5062376
-0.50621367
-0.5061893
-0.50616443
-0.5061392
-0.5061135
-0.5060874
-0.5060609
-0.5060339
-0.50600654
-0.5059787
-0.50595045
-0.5059217
-0.50589263
-0.5058631
-0.50583315
-0.50580275
-0.5057719
-0.50574064
-0.50570893
-0.50567687
-0.5056443
-0.5056113
-0.5055779
-0.50554407
-0.50550985
-0.50547516
-0.50544006
-0.5054045
-0.50536853
-0.5053321
-0.5052953
-0.505258
-0.5052203
-0.5051822
-0.50514364
-0.50510466
-0.50506526
-0.50502545
-0.50498515
-0.50494444
-0.5049033
-0.5048618
-0.5048198
-0.5047774
-0.5047346
-0.5046913
-0.5046476
-0.50460345
-0.5045589
-0.5045139
-0.5044685
-0.50442266
-0.5043764
-0.5043297
-0.5042826
-0.504235
-0.50418705
-0.5041386
-0.5040898
-0.5040405
-0.50399077
-0.50394064
-0.5038901
-0.5038391
-0.5037877
-0.50373584
-0.50368357
-0.5036308
-0.5035777
-0.5035241
-0.5034701
-0.5034157
-0.50336087
-0.5033056
-0.5032499
-0.50319374
-0.5031372
-0.5030802
-0.5030228
-0.5029649
-0.5029066
-0.5028479
-0.5027888
-0.5027292
-0.5026692
-0.5026088
-0.5025479
-0.50248665
-0.5024249
-0.5023628
-0.5023002
-0.5022372
-0.5021738
-0.5021099
-0.50204563
-0.5019809
-0.50191575
-0.5018502
-0.50178415
-0.50171775
-0.50165087
-0.5015836
-0.50151587
-0.50144774
-0.50137913
-0.5013101
-0.5012407
-0.5011708
-0.50110054
-0.5010298
-0.5009586
-0.5008871
-0.50081503
-0.5007426
-0.5006697
-0.50059646
-0.50052273
-0.5004486
-0.50037396
-0.500299
-0.5002235
-0.50014764
-0.50007135
-0.49999464
-0.49991748
-0.49983987
-0.49976185
-0.4996834
-0.49960455
-0.49952525
-0.4994455
-0.49936533
-0.49928474
-0.49920374
-0.4991223
-0.4990404
-0.4989581
-0.49887535
-0.4987922
-0.4987086
-0.4986246
-0.49854013
-0.49845526
-0.49836993
-0.4982842
-0.49819803
-0.49811143
-0.4980244
-0.49793696
-0.49784908
-0.49776077
-0.49767202
-0.49758285
-0.49749324
-0.4974032
-0.49731275
-0.4972219
-0.49713057
-0.4970388
-0.49694663
-0.49685404
-0.496761
-0.49666753
-0.49657366
-0.49647933
-0.4963846
-0.4962894
-0.4961938
-0.49609777
-0.4960013
-0.49590442
-0.4958071
-0.49570936
-0.49561116
-0.49551257
-0.4954135
-0.49531406
-0.49521416
-0.49511385
-0.4950131
-0.4949119
-0.49481028
-0.49470824
-0.49460578
-0.49450287
-0.49439955
-0.4942958
-0.49419162
-0.494087
-0.49398196
-0.4938765
-0.49377057
-0.49366426
-0.49355748
-0.4934503
-0.4933427
-0.49323463
-0.49312615
-0.49301726
-0.49290794
-0.49279818
-0.49268797
-0.49257734
-0.4924663
-0.49235484
-0.49224293
-0.49213058
-0.4920178
-0.49190462
-0.491791
-0.49167696
-0.49156246
-0.49144757
-0.49133223
-0.49121645
-0.49110025
-0.49098364
-0.49086657
-0.4907491
-0.49063116
-0.49051285
-0.49039406
-0.49027488
-0.49015525
-0.49003518
-0.4899147
-0.48979378
-0.48967242
-0.48955065
-0.48942846
-0.48930582
-0.48918277
-0.48905927
-0.48893535
-0.48881102
-0.48868623
-0.48856103
-0.4884354
-0.48830932
-0.48818284
-0.4880559
-0.48792857
-0.48780078
-0.48767257
-0.48754394
-0.48741487
-0.48728538
-0.48715544
-0.48702508
-0.4868943
-0.4867631
-0.48663145
-0.48649937
-0.4863669
-0.48623395
-0.4861006
-0.4859668
-0.4858326
-0.48569795
-0.4855629
-0.48542738
-0.48529145
-0.4851551
-0.4850183
-0.48488107
-0.48474345
-0.48460537
-0.48446685
-0.4843279
-0.48418856
-0.48404878
-0.48390856
-0.4837679
-0.4836268
-0.4834853
-0.4833434
-0.48320103
-0.4830582
-0.48291498
-0.48277134
-0.48262727
-0.48248276
-0.4823378
-0.48219246
-0.48204663
-0.48190042
-0.48175377
-0.4816067
-0.48145917
-0.48131123
-0.48116297
-0.4810149
-0.48086718
-0.48071975
-0.48057264
-0.48042583
-0.48027933
-0.48013315
-0.47998726
-0.4798417
-0.47969642
-0.4795515
-0.47940683
-0.4792625
-0.47911847
-0.47897476
-0.47883135
-0.47868824
-0.47854543
-0.47840294
-0.4782608
-0.4781189
-0.47797734
-0.4778361
-0.47769514
-0.47755453
-0.4774142
-0.47727418
-0.47713447
-0.47699505
-0.47685596
-0.47671717
-0.4765787
-0.47644055
-0.47630268
-0.47616515
-0.4760279
-0.47589096
-0.47575435
-0.47561803
-0.47548202
-0.47534633
-0.47521093
-0.47507587
-0.47494107
-0.47480664
-0.47467247
-0.47453862
-0.47440508
-0.47427186
-0.47413895
-0.47400633
-0.47387403
-0.47374204
-0.47361034
-0.47347897
-0.4733479
-0.47321713
-0.47308668
-0.47295654
-0.47282672
-0.47269717
-0.47256798
-0.47243905
-0.47231045
-0.47218215
-0.47205418
-0.4719265
-0.47179914
-0.4716721
-0.47154534
-0.4714189
-0.47129276
-0.47116694
-0.4710414
-0.4709162
-0.4707913
-0.47066674
-0.47054246
-0.47041848
-0.4702948
-0.47017145
-0.47004843
-0.46992567
-0.46980324
-0.46968114
-0.4695593
-0.4694378
-0.46931663
-0.46919572
-0.46907517
-0.4689549
-0.46883494
-0.46871528
-0.46859592
-0.4684769
-0.4683582
-0.46823975
-0.46812165
-0.46800384
-0.46788636
-0.46776918
-0.4676523
-0.46753573
-0.46741948
-0.46730354
-0.46718788
-0.46707255
-0.46695754
-0.46684283
-0.46672842
-0.4666143
-0.46650052
-0.46638706
-0.46627387
-0.466161
-0.46604845
-0.4659362
-0.46582428
-0.46571264
-0.46560133
-0.4654903
-0.46537963
-0.4652692
-0.46515915
-0.46504936
-0.4649399
-0.46483073
-0.4647219
-0.46461335
-0.4645051
-0.4643972
-0.46428955
-0.46418226
-0.46407524
-0.46396858
-0.46386218
-0.4637561
-0.46365035
-0.46354488
-0.46343973
-0.4633349
-0.46323037
-0.46312615
-0.46302223
-0.4629186
-0.4628153
-0.46271235
-0.46260965
-0.46250728
-0.46240523
-0.46230346
-0.462202
-0.4621009
-0.46200004
-0.46189955
-0.46179932
-0.46169943
-0.46159983
-0.46150056
-0.46140155
-0.4613029
-0.46120453
-0.46110648
-0.46100876
-0.4609113
-0.46081418
-0.46071738
-0.46062085
-0.46052465
-0.46042877
-0.4603332
-0.46023792
-0.46014294
-0.4600483
-0.45995393
-0.4598599
-0.45976618
-0.45967275
-0.45957965
-0.45948684
-0.45939434
-0.45930216
-0.45921028
-0.4591187
-0.45902744
-0.45893648
-0.45884582
-0.4587555
-0.45866546
-0.45857576
-0.45848635
-0.45839724
-0.45830843
-0.45821995
-0.4581318
-0.4580439
-0.45795634
-0.4578691
-0.45778215
-0.4576955
-0.4576092
-0.45752317
-0.4574375
-0.45735207
-0.457267
-0.4571822
-0.45709774
-0.45701355
-0.4569297
-0.45684615
-0.4567629
-0.45668
-0.45659736
-0.45651504
-0.45643306
-0.45635134
-0.45626995
-0.4561889
-0.45610812
-0.45602766
-0.4559475
-0.45586765
-0.4557881
-0.4557089
-0.45562997
-0.45555136
-0.45547304
-0.45539504
-0.45531738
-0.45523998
-0.4551629
-0.45508617
-0.45500973
-0.45493358
-0.45485774
-0.45478222
-0.454707
-0.4546321
-0.45455748
-0.4544832
-0.4544092
-0.45433554
-0.45426217
-0.45418912
-0.45411637
-0.45404392
-0.4539718
-0.45389998
-0.45382848
-0.45375726
-0.45368636
-0.45361578
-0.4535455
-0.45347553
-0.45340586
-0.4533365
-0.45326746
-0.45319873
-0.4531303
-0.45306218
-0.45299438
-0.45292687
-0.45285967
-0.4527928
-0.45272622
-0.45265993
-0.45259398
-0.45252833
-0.452463
-0.45239797
-0.45233324
-0.4522688
-0.4522047
-0.45214093
-0.45207742
-0.45201424
-0.45195135
-0.4518888
-0.45182654
-0.4517646
-0.45170295
-0.45164162
-0.4515806
-0.4515199
-0.4514595
-0.4513994
-0.4513396
-0.45128012
-0.45122096
-0.4511621
-0.45110354
-0.4510453
-0.45098737
-0.45092973
-0.45087242
-0.4508154
-0.4507587
-0.4507023
-0.45064622
-0.45059043
-0.45053497
-0.4504798
-0.45042497
-0.45037043
-0.4503162
-0.45026228
-0.45020866
-0.45015535
-0.45010236
-0.45004967
-0.44999728
-0.4499452
-0.44989344
-0.44984198
-0.44979084
-0.44974
-0.44968945
-0.44963923
-0.4495893
-0.44953972
-0.44949043
-0.44944143
-0.44939277
-0.4493444
-0.44929633
-0.44924858
-0.44920114
-0.449154
-0.44910717
-0.44906065
-0.44901443
-0.44896853
-0.44892293
-0.44887766
-0.4488327
-0.44878802
-0.44874364
-0.4486996
-0.44865587
-0.44861242
-0.4485693
-0.4485265
-0.44848397
-0.44844177
-0.4483999
-0.4483583
-0.44831702
-0.44827607
-0.44823542
-0.44819507
-0.44815502
-0.4481153
-0.4480759
-0.44803676
-0.44799796
-0.44795945
-0.44792128
-0.4478834
-0.44784582
-0.44780856
-0.4477716
-0.44773498
-0.44769862
-0.4476626
-0.4476269
-0.44759148
-0.44755638
-0.44752157
-0.4474871
-0.44745293
-0.44741905
-0.4473855
-0.44735223
-0.4473193
-0.44728667
-0.44725433
-0.44722232
-0.4471906
-0.44715923
-0.44712812
-0.44709736
-0.44706687
-0.4470367
-0.44700685
-0.44697732
-0.44694808
-0.44691914
-0.44689053
-0.44686222
-0.4468342
-0.44680652
-0.44677913
-0.44675204
-0.44672528
-0.4466988
-0.44667265
-0.4466468
-0.44662127
-0.44659606
-0.44657114
-0.44654652
-0.4465222
-0.44649822
-0.4464745
-0.4464507
-0.44642687
-0.44640294
-0.44637892
-0.4463548
-0.4463306
-0.44630635
-0.44628197
-0.44625753
-0.446233
-0.4462084
-0.4461837
-0.44615892
-0.44613406
-0.44610912
-0.44608408
-0.44605896
-0.44603375
-0.44600847
-0.4459831
-0.44595763
-0.4459321
-0.4459065
-0.44588077
-0.445855
-0.4458291
-0.44580314
-0.4457771
-0.44575095
-0.44572476
-0.44569844
-0.44567207
-0.4456456
-0.44561905
-0.4455924
-0.4455657
-0.44553888
-0.445512
-0.44548503
-0.44545797
-0.44543085
-0.4454036
-0.4453763
-0.4453489
-0.4453214
-0.44529387
-0.44526622
-0.44523847
-0.44521067
-0.44518277
-0.4451548
-0.4451267
-0.44509855
-0.44507033
-0.44504198
-0.44501358
-0.4449851
-0.4449565
-0.44492787
-0.4448991
-0.4448703
-0.44484138
-0.4448124
-0.4447833
-0.44475415
-0.4447249
-0.44469556
-0.44466615
-0.44463664
-0.44460705
-0.44457737
-0.44454762
-0.4445178
-0.44448787
-0.44445786
-0.44442776
-0.44439757
-0.44436732
-0.44433698
-0.44430655
-0.44427603
-0.44424543
-0.44421473
-0.44418398
-0.44415313
-0.4441222
-0.44409117
-0.44406006
-0.44402888
-0.4439976
-0.44396624
-0.4439348
-0.44390327
-0.44387168
-0.44383997
-0.4438082
-0.44377634
-0.4437444
-0.44371235
-0.44368023
-0.44364804
-0.44361573
-0.44358337
-0.4435509
-0.4435184
-0.44348577
-0.44345304
-0.44342026
-0.4433874
-0.44335443
-0.44332138
-0.44328827
-0.44325504
-0.44322175
-0.44318837
-0.4431549
-0.44312134
-0.44308773
-0.443054
-0.4430202
-0.4429863
-0.44295233
-0.44291827
-0.44288415
-0.4428499
-0.4428156
-0.4427812
-0.44274673
-0.4427122
-0.44267753
-0.4426428
-0.44260797
-0.44257307
-0.4425381
-0.44250304
-0.44246787
-0.44243264
-0.44239733
-0.44236192
-0.44232643
-0.44229084
-0.4422552
-0.44221947
-0.44218364
-0.44214773
-0.44211173
-0.44207564
-0.4420395
-0.44200322
-0.4419669
-0.44193047
-0.441894
-0.4418574
-0.4418207
-0.44178396
-0.44174713
-0.4417102
-0.4416732
-0.44163612
-0.44159892
-0.44156167
-0.44152433
-0.4414869
-0.4414494
-0.4414118
-0.44137412
-0.44133633
-0.44129848
-0.44126055
-0.44122255
-0.44118443
-0.44114625
-0.441108
-0.44106963
-0.4410312
-0.44099265
-0.44095406
-0.44091535
-0.44087657
-0.4408377
-0.44079876
-0.44075975
-0.44072062
-0.44068143
-0.44064215
-0.44060278
-0.44056332
-0.44052377
-0.44048417
-0.44044444
-0.44040465
-0.44036478
-0.44032484
-0.4402848
-0.44024467
-0.44020444
-0.44016415
-0.44012377
-0.4400833
-0.44004276
-0.4400021
-0.4399614
-0.4399206
-0.43987972
-0.43983877
-0.4397977
-0.43975657
-0.43971533
-0.43967402
-0.43963262
-0.43959117
-0.4395496
-0.43950796
-0.43946624
-0.43942443
-0.43938252
-0.43934053
-0.43929848
-0.4392563
-0.43921408
-0.43917176
-0.43912935
-0.43908685
-0.4390443
-0.43900165
-0.4389589
-0.4389161
-0.43887317
-0.43883017
-0.4387871
-0.43874392
-0.43870068
-0.43865734
-0.43861392
-0.43857044
-0.43852684
-0.43848318
-0.43843943
-0.4383956
-0.43835166
-0.43830767
-0.43826357
-0.4382194
-0.43817514
-0.4381308
-0.43808636
-0.43804187
-0.43799725
-0.43795258
-0.43790781
-0.43786296
-0.43781805
-0.43777302
-0.43772793
-0.43768272
-0.43763745
-0.43759212
-0.43754667
-0.43750113
-0.43745553
-0.43740985
-0.43736407
-0.4373182
-0.43727225
-0.43722624
-0.4371801
-0.4371339
-0.43708763
-0.43704128
-0.43699482
-0.43694827
-0.43690166
-0.43685496
-0.43680817
-0.4367613
-0.43671435
-0.4366673
-0.43662018
-0.43657297
-0.43652567
-0.4364783
-0.4364308
-0.43638328
-0.43633565
-0.43628794
-0.43624014
-0.43619224
-0.43614426
-0.43609622
-0.4360481
-0.43599987
-0.43595156
-0.43590316
-0.4358547
-0.43580613
-0.4357575
-0.43570876
-0.43565995
-0.43561104
-0.43556207
-0.43551302
-0.43546385
-0.4354146
-0.43536532
-0.4353159
-0.4352664
-0.43521684
-0.4351672
-0.43511745
-0.43506762
-0.4350177
-0.43496773
-0.43491766
-0.4348675
-0.43481725
-0.43476692
-0.4347165
-0.434666
-0.4346154
-0.43456474
-0.434514
-0.43446317
-0.43441224
-0.43436125
-0.43431014
-0.43425897
-0.4342077
-0.4341564
-0.43410495
-0.43405345
-0.43400183
-0.43395016
-0.4338984
-0.43384656
-0.43379462
-0.4337426
-0.43369052
-0.43363833
-0.43358606
-0.4335337
-0.43348125
-0.43342873
-0.43337613
-0.43332344
-0.43327066
-0.4332178
-0.43316486
-0.43311185
-0.4330587
-0.4330055
-0.43295226
-0.43289888
-0.4328454
-0.4327919
-0.43273827
-0.43268457
-0.43263078
-0.43257692
-0.43252295
-0.43246892
-0.4324148
-0.4323606
-0.4323063
-0.4322519
-0.43219745
-0.4321429
-0.4320883
-0.43203357
-0.43197876
-0.43192387
-0.4318689
-0.43181387
-0.43175873
-0.4317035
-0.4316482
-0.43159282
-0.43153733
-0.43148178
-0.43142614
-0.4313704
-0.4313146
-0.4312587
-0.4312027
-0.43114665
-0.4310905
-0.43103427
-0.43097797
-0.43092155
-0.43086508
-0.4308085
-0.43075186
-0.43069512
-0.43063828
-0.4305814
-0.43052438
-0.4304673
-0.43041015
-0.43035293
-0.4302956
-0.43023816
-0.43018067
-0.4301231
-0.43006542
-0.43000773
-0.42995033
-0.42989326
-0.42983657
-0.42978024
-0.42972425
-0.42966864
-0.42961335
-0.42955846
-0.4295039
-0.42944968
-0.42939585
-0.42934236
-0.42928922
-0.42923644
-0.42918402
-0.42913195
-0.42908025
-0.4290289
-0.4289779
-0.42892727
-0.428877
-0.42882708
-0.42877752
-0.42872828
-0.42867944
-0.42863095
-0.4285828
-0.428535
-0.42848757
-0.4284405
-0.42839378
-0.42834744
-0.42830142
-0.42825577
-0.42821047
-0.42816556
-0.42812097
-0.42807674
-0.42803288
-0.42798936
-0.4279462
-0.4279034
-0.42786098
-0.4278189
-0.42777714
-0.42773578
-0.42769477
-0.42765412
-0.4276138
-0.42757386
-0.42753425
-0.42749503
-0.42745614
-0.42741764
-0.42737946
-0.42734164
-0.4273042
-0.4272671
-0.42723036
-0.42719397
-0.42715794
-0.42712227
-0.42708695
-0.427052
-0.4270174
-0.42698315
-0.42694926
-0.42691574
-0.42688257
-0.42684972
-0.42681727
-0.42678517
-0.4267534
-0.42672202
-0.42669097
-0.4266603
-0.42662996
-0.42659998
-0.4265704
-0.42654112
-0.4265122
-0.42648366
-0.42645547
-0.42642766
-0.42640018
-0.42637306
-0.4263463
-0.42631987
-0.42629382
-0.42626813
-0.4262428
-0.42621782
-0.42619318
-0.42616892
-0.42614502
-0.42612144
-0.42609826
-0.4260754
-0.42605293
-0.42603078
-0.426009
-0.4259876
-0.42596653
-0.42594582
-0.42592546
-0.42590547
-0.42588586
-0.42586657
-0.42584765
-0.42582908
-0.42581084
-0.425793
-0.4257755
-0.42575836
-0.42574158
-0.42572513
-0.42570907
-0.42569336
-0.42567798
-0.425663
-0.42564833
-0.42563403
-0.4256201
-0.42560652
-0.4255933
-0.42558044
-0.42556792
-0.42555577
-0.42554396
-0.42553252
-0.42552143
-0.4255107
-0.42550033
-0.42549032
-0.42548066
-0.42547137
-0.42546242
-0.4254538
-0.4254456
-0.42543772
-0.42543018
-0.42542303
-0.4254162
-0.42540976
-0.42540365
-0.42539793
-0.42539254
-0.4253875
-0.42538282
-0.42537853
-0.42537457
-0.42537096
-0.4253677
-0.42536482
-0.4253623
-0.4253601
-0.4253583
-0.42535684
-0.4253557
-0.42535496
-0.42535457
-0.4253545
-0.42535484
-0.42535552
-0.42535654
-0.42535794
-0.42535967
-0.42536178
-0.42536423
-0.42536703
-0.42537022
-0.42537373
-0.4253776
-0.42538184
-0.42538643
-0.42539138
-0.42539668
-0.42540234
-0.42540836
-0.42541474
-0.42542148
-0.42542857
-0.425436
-0.4254438
-0.42545196
-0.42546046
-0.42546934
-0.42547855
-0.42548814
-0.42549807
-0.42550838
-0.42551902
-0.42553002
-0.4255414
-0.4255531
-0.42556518
-0.4255776
-0.4255904
-0.42560354
-0.42561704
-0.4256309
-0.4256451
-0.4256597
-0.42567462
-0.4256899
-0.42570552
-0.42572153
-0.4257379
-0.42575458
-0.42577165
-0.4257891
-0.42580685
-0.42582497
-0.42584348
-0.4258623
-0.4258815
-0.4259011
-0.425921
-0.42594126
-0.42596188
-0.42598286
-0.4260042
-0.4260259
-0.42604795
-0.42607036
-0.42609313
-0.42611626
-0.42613974
-0.42616355
-0.42618775
-0.4262123
-0.4262372
-0.42626247
-0.42628807
-0.42631406
-0.42634037
-0.42636707
-0.4263941
-0.4264215
-0.42644924
-0.42647737
-0.42650583
-0.42653465
-0.42656383
-0.42659336
-0.42662326
-0.4266535
-0.4266841
-0.42671508
-0.4267464
-0.42677805
-0.4268101
-0.42684248
-0.4268752
-0.4269083
-0.42694175
-0.42697558
-0.42700973
-0.42704427
-0.42707914
-0.4271144
-0.42714998
-0.42718592
-0.42722222
-0.42725888
-0.42729592
-0.4273333
-0.42737103
-0.4274091
-0.42744756
-0.42748633
-0.4275255
-0.427565
-0.42760488
-0.42764512
-0.42768568
-0.42772663
-0.4277679
-0.42780957
-0.42785156
-0.42789394
-0.42793664
-0.42797974
-0.42802316
-0.42806694
-0.42811108
-0.4281556
-0.42820045
-0.42824566
-0.42829123
-0.42833716
-0.42838344
-0.42843008
-0.42847708
-0.42852443
-0.42857212
-0.4286202
-0.42866862
-0.42871737
-0.42876652
-0.42881602
-0.42886585
-0.42891607
-0.4289666
-0.4290175
-0.4290688
-0.42912042
-0.4291724
-0.42922476
-0.42927745
-0.4293305
-0.4293839
-0.42943767
-0.4294918
-0.42954627
-0.4296011
-0.4296563
-0.42971185
-0.42976773
-0.429824
-0.42988062
-0.42993757
-0.4299949
-0.4300526
-0.43011063
-0.43016905
-0.4302278
-0.43028688
-0.43034637
-0.43040618
-0.43046635
-0.4305269
-0.4305878
-0.43064904
-0.43071064
-0.4307726
-0.43083492
-0.4308976
-0.43096063
-0.43102401
-0.43108773
-0.43115184
-0.4312163
-0.43128112
-0.43134627
-0.4314118
-0.43147767
-0.43154392
-0.4316105
-0.43167746
-0.43174475
-0.43181244
-0.43188044
-0.4319488
-0.43201753
-0.43208662
-0.4321561
-0.43222588
-0.43229604
-0.43236655
-0.43243742
-0.43250862
-0.4325802
-0.43265215
-0.43272445
-0.4327971
-0.4328701
-0.43294346
-0.4330172
-0.43309125
-0.4331657
-0.43324047
-0.4333156
-0.43339112
-0.43346697
-0.43354318
-0.43361977
-0.4336967
-0.43377396
-0.4338516
-0.4339296
-0.43400794
-0.43408665
-0.43416572
-0.43424514
-0.43432492
-0.43440506
-0.43448552
-0.43456638
-0.4346476
-0.43472913
-0.43481106
-0.4348933
-0.43497595
-0.43505892
-0.43514228
-0.43522596
-0.43531
-0.43539444
-0.4354792
-0.4355643
-0.43564978
-0.4357356
-0.43582177
-0.43590787
-0.43599385
-0.4360797
-0.43616545
-0.43625104
-0.43633655
-0.43642193
-0.4365072
-0.4365923
-0.43667734
-0.43676224
-0.436847
-0.43693167
-0.4370162
-0.43710062
-0.4371849
-0.43726906
-0.43735313
-0.43743706
-0.43752086
-0.43760458
-0.43768814
-0.4377716
-0.43785492
-0.43793812
-0.4380212
-0.43810418
-0.43818703
-0.43826976
-0.43835238
-0.43843487
-0.4385172
-0.43859947
-0.4386816
-0.43876362
-0.4388455
-0.43892726
-0.4390089
-0.43909043
-0.43917182
-0.43925312
-0.43933427
-0.43941534
-0.43949625
-0.43957704
-0.43965772
-0.4397383
-0.43981874
-0.43989906
-0.43997926
-0.44005933
-0.4401393
-0.44021913
-0.44029886
-0.44037846
-0.44045794
-0.4405373
-0.44061655
-0.44069564
-0.44077465
-0.44085354
-0.44093227
-0.44101092
-0.44108945
-0.44116783
-0.44124612
-0.44132426
-0.4414023
-0.44148022
-0.441558
-0.44163567
-0.44171324
-0.44179067
-0.44186798
-0.44194517
-0.44202223
-0.44209918
-0.442176
-0.44225273
-0.44232932
-0.4424058
-0.44248214
-0.44255838
-0.4426345
-0.4427105
-0.44278634
-0.4428621
-0.44293773
-0.44301322
-0.44308862
-0.44316387
-0.44323903
-0.44331405
-0.44338897
-0.44346374
-0.4435384
-0.44361296
-0.44368738
-0.44376168
-0.44383585
-0.44390994
-0.44398388
-0.4440577
-0.4441314
-0.444205
-0.44427845
-0.4443518
-0.444425
-0.4444981
-0.44457108
-0.44464394
-0.4447167
-0.4447893
-0.4448618
-0.4449342
-0.44500643
-0.44507858
-0.44515058
-0.4452225
-0.44529426
-0.4453659
-0.44543746
-0.44550887
-0.44558015
-0.44565135
-0.4457224
-0.44579333
-0.44586414
-0.44593483
-0.4460054
-0.44607586
-0.4461462
-0.4462164
-0.4462865
-0.44635648
-0.4464263
-0.44649604
-0.44656566
-0.44663516
-0.4467045
-0.44677377
-0.4468429
-0.4469119
-0.4469808
-0.44704956
-0.4471182
-0.44718674
-0.44725513
-0.4473234
-0.4473916
-0.44745964
-0.44752756
-0.44759536
-0.44766304
-0.4477306
-0.44779807
-0.4478654
-0.44793257
-0.44799966
-0.44806662
-0.44813347
-0.4482002
-0.4482668
-0.44833326
-0.44839963
-0.44846588
-0.448532
-0.448598
-0.4486639
-0.44872963
-0.44879526
-0.4488608
-0.44892618
-0.44899148
-0.44905663
-0.44912165
-0.44918656
-0.44925138
-0.44931605
-0.4493806
-0.44944504
-0.44950935
-0.44957355
-0.44963762
-0.44970158
-0.4497654
-0.44982913
-0.4498927
-0.44995618
-0.45001954
-0.45008278
-0.45014587
-0.45020887
-0.45027176
-0.4503345
-0.45039713
-0.45045963
-0.450522
-0.4505843
-0.45064643
-0.45070848
-0.45077038
-0.45083216
-0.45089382
-0.45095536
-0.45101678
-0.45107812
-0.4511393
-0.45120037
-0.4512613
-0.45132214
-0.45138282
-0.4514434
-0.45150387
-0.45156422
-0.45162445
-0.45168453
-0.45174453
-0.4518044
-0.45186412
-0.45192376
-0.45198324
-0.45204264
-0.4521019
-0.452161
-0.45222005
-0.45227894
-0.4523377
-0.4523964
-0.45245492
-0.45251334
-0.45257163
-0.4526298
-0.45268786
-0.4527458
-0.4528036
-0.4528613
-0.4529189
-0.45297635
-0.4530337
-0.45309088
-0.45314798
-0.45320496
-0.45326182
-0.45331854
-0.45337516
-0.45343164
-0.45348802
-0.45354426
-0.4536004
-0.4536564
-0.4537123
-0.45376807
-0.45382372
-0.45387924
-0.45393467
-0.45398995
-0.45404512
-0.45410016
-0.4541551
-0.4542099
-0.45426458
-0.45431915
-0.4543736
-0.45442793
-0.4544821
-0.4545362
-0.45459017
-0.45464402
-0.45469773
-0.45475134
-0.45480484
-0.45485818
-0.45491144
-0.45496455
-0.45501757
-0.45507044
-0.4551232
-0.45517585
-0.45522836
-0.45528075
-0.45533302
-0.45538518
-0.45543724
-0.45548916
-0.45554096
-0.45559263
-0.4556442
-0.45569563
-0.45574695
-0.45579812
-0.4558492
-0.45590016
-0.455951
-0.4560017
-0.4560523
-0.4561028
-0.45615312
-0.45620337
-0.45625347
-0.45630348
-0.45635334
-0.4564031
-0.45645273
-0.45650223
-0.45655164
-0.4566009
-0.45665005
-0.45669907
-0.45674798
-0.4567968
-0.45684546
-0.456894
-0.45694244
-0.45699075
-0.4570389
-0.45708698
-0.45713493
-0.45718277
-0.45723048
-0.45727804
-0.45732552
-0.45737287
-0.45742008
-0.4574672
-0.45751417
-0.45756105
-0.45760778
-0.45765442
-0.4577009
-0.45774728
-0.45779356
-0.4578397
-0.4578857
-0.4579316
-0.45797738
-0.45802304
-0.45806858
-0.45811403
-0.4581593
-0.45820448
-0.45824954
-0.45829448
-0.4583393
-0.458384
-0.4584286
-0.45847303
-0.45851737
-0.4585616
-0.45860568
-0.45864967
-0.4586935
-0.45873725
-0.45878085
-0.45882437
-0.45886773
-0.45891097
-0.45895413
-0.45899713
-0.45904002
-0.45908278
-0.45912543
-0.45916796
-0.45921037
-0.4592527
-0.45929483
-0.45933688
-0.4593788
-0.45942062
-0.4594623
-0.4595039
-0.45954534
-0.45958665
-0.45962787
-0.45966896
-0.4597099
-0.45975077
-0.45979148
-0.4598321
-0.45987257
-0.45991296
-0.4599532
-0.4599933
-0.46003333
-0.4600732
-0.46011296
-0.4601526
-0.4601921
-0.4602315
-0.46027082
-0.46030998
-0.46034902
-0.46038792
-0.46042672
-0.4604654
-0.46050397
-0.4605424
-0.46058074
-0.4606189
-0.460657
-0.46069497
-0.4607328
-0.46077052
-0.46080807
-0.46084526
-0.46088198
-0.46091825
-0.46095407
-0.46098945
-0.46102434
-0.46105883
-0.46109283
-0.4611264
-0.4611595
-0.46119216
-0.46122438
-0.46125615
-0.46128744
-0.46131828
-0.46134868
-0.46137863
-0.46140814
-0.4614372
-0.46146578
-0.46149394
-0.46152163
-0.46154886
-0.46157566
-0.461602
-0.46162787
-0.46165332
-0.4616783
-0.46170282
-0.4617269
-0.46175054
-0.46177372
-0.46179646
-0.46181872
-0.46184054
-0.4618619
-0.46188283
-0.4619033
-0.46192333
-0.46194288
-0.461962
-0.46198067
-0.46199888
-0.46201664
-0.46203396
-0.4620508
-0.46206722
-0.46208316
-0.46209866
-0.4621137
-0.4621283
-0.46214247
-0.46215615
-0.4621694
-0.4621822
-0.46219453
-0.46220642
-0.46221787
-0.46222883
-0.46223938
-0.46224946
-0.46225908
-0.46226826
-0.462277
-0.46228528
-0.46229312
-0.46230048
-0.4623074
-0.46231386
-0.46231988
-0.46232545
-0.46233058
-0.46233523
-0.46233946
-0.46234322
-0.46234652
-0.46234939
-0.4623518
-0.46235374
-0.46235526
-0.4623563
-0.4623569
-0.46235704
-0.46235675
-0.462356
-0.4623548
-0.46235314
-0.46235102
-0.46234846
-0.46234545
-0.462342
-0.4623381
-0.4623337
-0.4623289
-0.46232364
-0.4623179
-0.46231174
-0.46230513
-0.46229804
-0.46229053
-0.46228254
-0.4622741
-0.46226522
-0.4622559
-0.46224612
-0.4622359
-0.4622252
-0.46221405
-0.46220246
-0.46219042
-0.46217793
-0.462165
-0.4621516
-0.46213776
-0.46212345
-0.4621087
-0.4620935
-0.46207786
-0.46206173
-0.4620452
-0.46202818
-0.4620107
-0.4619928
-0.46197444
-0.46195564
-0.46193635
-0.46191666
-0.46189648
-0.46187586
-0.4618548
-0.46183327
-0.46181127
-0.46178886
-0.46176597
-0.46174264
-0.46171886
-0.46169463
-0.46166995
-0.46164483
-0.46161923
-0.46159318
-0.4615667
-0.46153975
-0.46151236
-0.46148452
-0.4614562
-0.46142748
-0.46139827
-0.46136862
-0.46133852
-0.46130797
-0.46127698
-0.4612455
-0.4612136
-0.46118122
-0.46114844
-0.46111515
-0.46108145
-0.4610473
-0.46101266
-0.46097758
-0.4609421
-0.4609061
-0.46086967
-0.4608328
-0.4607955
-0.4607577
-0.46071947
-0.46068078
-0.46064165
-0.46060207
-0.46056202
-0.46052155
-0.4604806
-0.4604392
-0.46039736
-0.46035507
-0.46031234
-0.46026915
-0.4602255
-0.4601814
-0.46013683
-0.46009183
-0.46004638
-0.4600005
-0.4599541
-0.45990732
-0.45986006
-0.45981234
-0.45976418
-0.45971557
-0.4596665
-0.459617
-0.459567
-0.45951658
-0.4594657
-0.4594144
-0.45936263
-0.45931038
-0.45925772
-0.45920458
-0.459151
-0.45909697
-0.4590425
-0.45898753
-0.45893216
-0.4588763
-0.45882002
-0.45876327
-0.45870608
-0.45864844
-0.45859036
-0.4585318
-0.4584728
-0.45841333
-0.45835343
-0.45829308
-0.45823228
-0.45817104
-0.45810932
-0.45804715
-0.45798454
-0.45792148
-0.45785797
-0.457794
-0.45772958
-0.4576647
-0.4575994
-0.45753363
-0.45746738
-0.4574007
-0.4573336
-0.457266
-0.45719796
-0.4571295
-0.45706058
-0.45699117
-0.45692134
-0.45685107
-0.4567803
-0.45670912
-0.45663747
-0.45656538
-0.45649284
-0.45641986
-0.4563464
-0.45627248
-0.45619813
-0.45612335
-0.45604807
-0.45597237
-0.45589623
-0.4558196
-0.45574254
-0.45566502
-0.45558706
-0.45550865
-0.4554298
-0.45535046
-0.4552707
-0.45519048
-0.4551098
-0.45502868
-0.4549471
-0.45486507
-0.4547826
-0.45469967
-0.45461628
-0.45453244
-0.45444816
-0.45436344
-0.45427823
-0.4541926
-0.4541065
-0.45401996
-0.45393297
-0.45384553
-0.4537576
-0.45366928
-0.45358047
-0.4534912
-0.4534015
-0.45331135
-0.45322075
-0.4531297
-0.4530382
-0.45294622
-0.45285383
-0.45276096
-0.45266762
-0.45257387
-0.45247966
-0.45238498
-0.45228985
-0.45219427
-0.45209825
-0.45200178
-0.45190486
-0.45180747
-0.45170963
-0.45161137
-0.45151263
-0.45141345
-0.4513138
-0.45121372
-0.45111316
-0.4510122
-0.45091075
-0.45080885
-0.45070648
-0.4506037
-0.45050046
-0.45039675
-0.4502926
-0.45018798
-0.45008293
-0.44997743
-0.44987148
-0.44976506
-0.4496582
-0.4495509
-0.44944313
-0.4493349
-0.44922623
-0.44911712
-0.44900754
-0.4488975
-0.44878706
-0.44867614
-0.44856474
-0.44845292
-0.44834062
-0.4482279
-0.44811472
-0.4480011
-0.447887
-0.44777247
-0.44765747
-0.44754204
-0.44742614
-0.4473098
-0.447193
-0.44707575
-0.44695807
-0.4468399
-0.44672132
-0.44660226
-0.44648275
-0.4463628
-0.4462424
-0.44612154
-0.44600022
-0.44587845
-0.44575626
-0.4456336
-0.44551045
-0.4453869
-0.44526288
-0.4451384
-0.4450135
-0.44488811
-0.4447623
-0.44463602
-0.44450927
-0.4443821
-0.44425446
-0.44412637
-0.44399783
-0.44386885
-0.4437394
-0.44360954
-0.44347918
-0.4433484
-0.44321716
-0.44308546
-0.44295332
-0.4428207
-0.44268766
-0.44255415
-0.4424202
-0.4422858
-0.44215095
-0.44201565
-0.44187987
-0.44174367
-0.441607
-0.44146988
-0.4413323
-0.4411943
-0.44105583
-0.44091693
-0.44077754
-0.44063774
-0.44049746
-0.44035673
-0.44021556
-0.4400739
-0.43993184
-0.4397893
-0.43964633
-0.4395029
-0.439359
-0.43921465
-0.43906993
-0.43892527
-0.43878084
-0.43863663
-0.43849266
-0.4383489
-0.43820533
-0.438062
-0.4379189
-0.43777603
-0.43763337
-0.4374909
-0.4373487
-0.4372067
-0.43706492
-0.43692335
-0.43678203
-0.43664092
-0.4365
-0.43635935
-0.4362189
-0.43607864
-0.43593863
-0.43579885
-0.4356593
-0.43551993
-0.43538082
-0.4352419
-0.4351032
-0.43496475
-0.4348265
-0.43468848
-0.43455067
-0.4344131
-0.43427575
-0.4341386
-0.43400168
-0.43386498
-0.43372852
-0.43359226
-0.4334562
-0.4333204
-0.4331848
-0.43304944
-0.4329143
-0.43277934
-0.43264464
-0.43251014
-0.43237588
-0.43224183
-0.432108
-0.4319744
-0.43184102
-0.43170786
-0.4315749
-0.4314422
-0.4313097
-0.4311774
-0.43104535
-0.4309135
-0.4307819
-0.4306505
-0.43051934
-0.4303884
-0.43025765
-0.43012714
-0.42999685
-0.42986676
-0.4297369
-0.4296073
-0.42947787
-0.4293487
-0.42921972
-0.42909098
-0.42896247
-0.42883417
-0.42870608
-0.42857823
-0.42845058
-0.42832315
-0.42819595
-0.42806897
-0.42794222
-0.42781568
-0.42768937
-0.42756328
-0.4274374
-0.42731175
-0.4271863
-0.4270611
-0.42693612
-0.42681137
-0.4266868
-0.4265625
-0.42643836
-0.42631447
-0.42619082
-0.42606738
-0.42594415
-0.42582116
-0.42569837
-0.42557582
-0.42545348
-0.42533135
-0.42520946
-0.42508778
-0.42496634
-0.4248451
-0.42472407
-0.42460328
-0.42448273
-0.42436236
-0.42424223
-0.42412233
-0.42400265
-0.42388317
-0.42376393
-0.4236449
-0.4235261
-0.42340752
-0.42328915
-0.423171
-0.4230531
-0.4229354
-0.42281792
-0.42270067
-0.42258364
-0.4224668
-0.42235023
-0.42223385
-0.42211768
-0.42200175
-0.42188606
-0.42177054
-0.4216553
-0.42154023
-0.4214254
-0.4213108
-0.4211964
-0.42108226
-0.4209683
-0.42085457
-0.42074108
-0.4206278
-0.42051473
-0.4204019
-0.42028928
-0.4201769
-0.42006472
-0.41995275
-0.41984102
-0.4197295
-0.41961822
-0.41950715
-0.41939628
-0.41928566
-0.41917524
-0.41906506
-0.4189551
-0.41884536
-0.4187358
-0.41862652
-0.41851744
-0.41840857
-0.4182999
-0.4181915
-0.4180833
-0.4179753
-0.41786757
-0.41776
-0.4176527
-0.41754562
-0.41743875
-0.41733208
-0.41722566
-0.41711944
-0.41701344
-0.41690767
-0.41680214
-0.4166968
-0.4165917
-0.4164868
-0.41638213
-0.4162777
-0.41617346
-0.41606948
-0.41596568
-0.4158621
-0.4157588
-0.41565567
-0.41555277
-0.4154501
-0.41534764
-0.41524538
-0.41514337
-0.4150416
-0.41494
-0.41483867
-0.41473752
-0.4146366
-0.41453594
-0.41443545
-0.41433522
-0.41423517
-0.41413537
-0.4140358
-0.41393644
-0.41383728
-0.41373837
-0.41363966
-0.41354117
-0.4134429
-0.4133449
-0.41324708
-0.41314948
-0.41305208
-0.41295493
-0.412858
-0.4127613
-0.4126648
-0.41256854
-0.4124725
-0.41237664
-0.41228104
-0.41218564
-0.41209048
-0.41199553
-0.41190082
-0.41180632
-0.41171202
-0.41161796
-0.41152412
-0.4114305
-0.4113371
-0.41124392
-0.41115096
-0.41105822
-0.4109657
-0.4108734
-0.41078135
-0.4106895
-0.41059786
-0.41050646
-0.41041526
-0.4103243
-0.41023353
-0.41014302
-0.41005272
-0.40996262
-0.40987277
-0.40978312
-0.4096937
-0.4096045
-0.4095155
-0.40942675
-0.4093382
-0.4092499
-0.40916178
-0.40907392
-0.40898627
-0.40889883
-0.4088116
-0.4087246
-0.40863785
-0.4085513
-0.40846497
-0.40837884
-0.40829295
-0.4082073
-0.40812185
-0.40803662
-0.40795162
-0.40786684
-0.40778226
-0.40769792
-0.4076138
-0.40752992
-0.40744624
-0.40736276
-0.40727952
-0.40719652
-0.40711373
-0.40703115
-0.4069488
-0.40686667
-0.40678474
-0.40670305
-0.40662158
-0.40654033
-0.4064593
-0.4063785
-0.40629792
-0.40621755
-0.4061374
-0.40605748
-0.4059778
-0.4058983
-0.40581903
-0.40574
-0.40566117
-0.40558258
-0.4055042
-0.40542603
-0.4053481
-0.4052704
-0.40519288
-0.4051156
-0.40503857
-0.40496174
-0.4048851
-0.40480873
-0.40473256
-0.40465662
-0.4045809
-0.40450537
-0.4044301
-0.40435505
-0.4042802
-0.40420556
-0.40413117
-0.404057
-0.40398303
-0.4039093
-0.40383577
-0.4037625
-0.4036894
-0.40361655
-0.40354392
-0.4034715
-0.40339932
-0.40332735
-0.40325558
-0.40318406
-0.40311274
-0.40304166
-0.4029708
-0.40290016
-0.40282974
-0.40275952
-0.40268955
-0.40261978
-0.40255022
-0.4024809
-0.40241182
-0.40234295
-0.40227428
-0.40220585
-0.40213764
-0.40206963
-0.40200186
-0.4019343
-0.40186697
-0.40179986
-0.40173298
-0.4016663
-0.40159985
-0.40153363
-0.40146762
-0.40140182
-0.40133625
-0.40127093
-0.4012058
-0.4011409
-0.40107623
-0.40101177
-0.4009475
-0.4008835
-0.4008197
-0.40075612
-0.40069276
-0.40062964
-0.40056673
-0.40050402
-0.40044156
-0.4003793
-0.40031728
-0.40025547
-0.40019387
-0.4001325
-0.40007135
-0.40001044
-0.39994973
-0.39988923
-0.39982897
-0.39976895
-0.3997091
-0.39964953
-0.39959013
-0.39953098
-0.39947203
-0.39941332
-0.39935482
-0.39929655
-0.3992385
-0.39918068
-0.39912304
-0.39906567
-0.39900848
-0.39895153
-0.39889482
-0.3988383
-0.398782
-0.39872596
-0.3986701
-0.3986145
-0.39855915
-0.39850414
-0.39844942
-0.39839503
-0.3983409
-0.39828712
-0.39823365
-0.39818045
-0.3981276
-0.39807504
-0.39802277
-0.39797083
-0.3979192
-0.39786786
-0.39781684
-0.3977661
-0.39771572
-0.39766562
-0.39761582
-0.39756635
-0.39751717
-0.3974683
-0.39741972
-0.39737147
-0.39732352
-0.3972759
-0.39722854
-0.39718154
-0.3971348
-0.3970884
-0.3970423
-0.3969965
-0.39695102
-0.39690584
-0.39686096
-0.3968164
-0.39677215
-0.3967282
-0.39668456
-0.39664122
-0.3965982
-0.39655548
-0.39651307
-0.39647096
-0.39642915
-0.39638767
-0.39634648
-0.39630562
-0.39626506
-0.3962248
-0.39618483
-0.3961452
-0.39610586
-0.39606684
-0.39602813
-0.39598972
-0.3959516
-0.3959138
-0.39587632
-0.39583912
-0.39580226
-0.3957657
-0.39572942
-0.39569348
-0.39565784
-0.3956225
-0.39558747
-0.39555275
-0.39551833
-0.3954842
-0.3954504
-0.39541695
-0.39538375
-0.39535087
-0.3953183
-0.39528605
-0.39525408
-0.39522246
-0.3951911
-0.39516008
-0.39512935
-0.39509892
-0.39506882
-0.39503902
-0.39500952
-0.39498034
-0.39495146
-0.3949229
-0.39489463
-0.39486668
-0.39483902
-0.3948117
-0.39478466
-0.39475793
-0.39473152
-0.3947054
-0.3946796
-0.39465412
-0.3946289
-0.39460406
-0.39457947
-0.3945552
-0.39453125
-0.39450762
-0.39448425
-0.3944612
-0.3944385
-0.3944161
-0.39439398
-0.39437217
-0.39435068
-0.3943295
-0.3943086
-0.39428803
-0.39426777
-0.3942478
-0.39422816
-0.39420882
-0.39418977
-0.39417106
-0.39415264
-0.39413452
-0.3941167
-0.3940992
-0.394082
-0.39406514
-0.39404857
-0.3940323
-0.39401633
-0.39400068
-0.39398533
-0.3939703
-0.3939556
-0.39394116
-0.39392704
-0.39391324
-0.39389974
-0.39388654
-0.39387366
-0.3938611
-0.3938488
-0.39383686
-0.3938252
-0.39381385
-0.39380282
-0.3937921
-0.39378166
-0.39377156
-0.39376172
-0.39375225
-0.39374304
-0.39373416
-0.39372557
-0.39371732
-0.39370936
-0.3937017
-0.39369434
-0.3936873
-0.39368057
-0.39367417
-0.39366803
-0.3936622
-0.39365673
-0.39365152
-0.39364663
-0.39364207
-0.39363778
-0.3936338
-0.39363018
-0.3936268
-0.39362377
-0.39362106
-0.3936186
-0.3936165
-0.39361468
-0.3936132
-0.393612
-0.3936111
-0.3936105
-0.39361024
-0.39361027
-0.39361063
-0.39361128
-0.39361224
-0.3936135
-0.39361507
-0.39361694
-0.39361915
-0.39362162
-0.39362442
-0.39362755
-0.39363095
-0.39363468
-0.39363873
-0.39364305
-0.3936477
-0.39365268
-0.39365792
-0.3936635
-0.39366937
-0.39367557
-0.39368206
-0.39368886
-0.39369598
-0.39370337
-0.39371112
-0.39371914
-0.39372748
-0.39373612
-0.39374506
-0.39375433
-0.3937639
-0.3937738
-0.39378396
-0.39379445
-0.39380527
-0.39381638
-0.3938278
-0.3938395
-0.39385155
-0.3938639
-0.39387652
-0.39388946
-0.39390272
-0.3939163
-0.39393017
-0.39394435
-0.39395884
-0.39397365
-0.39398876
-0.39400417
-0.39401987
-0.3940359
-0.39405224
-0.3940689
-0.39408585
-0.3941031
-0.39412066
-0.39413854
-0.39415672
-0.3941752
-0.394194
-0.3942131
-0.39423254
-0.39425224
-0.39427227
-0.39429262
-0.39431325
-0.3943342
-0.39435545
-0.39437702
-0.3943989
-0.39442107
-0.39444357
-0.39446637
-0.39448947
-0.39451286
-0.39453658
-0.3945606
-0.39458495
-0.3946096
-0.39463454
-0.3946598
-0.39468536
-0.39471123
-0.3947374
-0.3947639
-0.39479068
-0.3948178
-0.3948452
-0.3948729
-0.39490095
-0.39492926
-0.3949579
-0.39498687
-0.3950161
-0.39504567
-0.39507553
-0.39510572
-0.3951362
-0.395167
-0.3951981
-0.3952295
-0.39526123
-0.39529324
-0.39532557
-0.3953582
-0.39539114
-0.3954244
-0.39545795
-0.39549184
-0.39552602
-0.3955605
-0.39559528
-0.3956304
-0.3956658
-0.3957015
-0.39573753
-0.39577386
-0.39581048
-0.39584744
-0.3958847
-0.39592224
-0.3959601
-0.39599827
-0.39603677
-0.39607555
-0.39611465
-0.39615405
-0.39619377
-0.3962338
-0.39627412
-0.39631474
-0.3963557
-0.39639693
-0.3964385
-0.39648035
-0.39652252
-0.39656502
-0.3966078
-0.39665088
-0.3966943
-0.39673802
-0.39678204
-0.39682636
-0.39687097
-0.3969159
-0.39696118
-0.39700672
-0.3970526
-0.39709878
-0.39714524
-0.39719203
-0.39723912
-0.39728653
-0.39733425
-0.39738226
-0.39743057
-0.3974792
-0.39752814
-0.3975774
-0.39762694
-0.3976768
-0.39772698
-0.39777747
-0.39782825
-0.39787933
-0.39793074
-0.39798245
-0.39803445
-0.3980868
-0.39813942
-0.39819235
-0.3982456
-0.39829916
-0.398353
-0.39840716
-0.39846164
-0.39851645
-0.39857152
-0.39862692
-0.39868262
-0.39873865
-0.39879495
-0.3988516
-0.39890853
-0.39896578
-0.39902332
-0.39908117
-0.39913934
-0.39919782
-0.39925662
-0.39931569
-0.39937508
-0.3994348
-0.3994948
-0.39955512
-0.39961576
-0.39967668
-0.39973792
-0.3997995
-0.39986134
-0.3999235
-0.39998597
-0.40004876
-0.40011185
-0.40017524
-0.40023893
-0.40030295
-0.40036726
-0.4004319
-0.40049684
-0.40056208
-0.4006276
-0.40069348
-0.40075964
-0.40082613
-0.40089288
-0.40095997
-0.40102738
-0.40109506
-0.40116307
-0.4012314
-0.4013
-0.4013687
-0.4014374
-0.40150616
-0.4015749
-0.40164366
-0.40171245
-0.40178126
-0.40185007
-0.40191892
-0.4019878
-0.40205666
-0.40212557
-0.40219447
-0.4022634
-0.40233237
-0.40240133
-0.40247032
-0.4025393
-0.40260834
-0.4026774
-0.40274644
-0.40281552
-0.40288463
-0.40295374
-0.4030229
-0.40309203
-0.4031612
-0.4032304
-0.4032996
-0.40336883
-0.40343806
-0.40350732
-0.4035766
-0.4036459
-0.40371522
-0.40378457
-0.40385392
-0.4039233
-0.40399268
-0.4040621
-0.40413153
-0.40420097
-0.40427044
-0.4043399
-0.4044094
-0.40447894
-0.40454847
-0.40461802
-0.4046876
-0.4047572
-0.4048268
-0.40489644
-0.4049661
-0.40503573
-0.40510544
-0.40517512
-0.40524486
-0.4053146
-0.40538436
-0.40545413
-0.40552393
-0.40559372
-0.40566355
-0.4057334
-0.40580326
-0.40587315
-0.40594307
-0.40601298
-0.40608293
-0.40615287
-0.40622285
-0.40629286
-0.40636286
-0.4064329
-0.40650296
-0.40657303
-0.4066431
-0.40671322
-0.40678334
-0.40685347
-0.40692362
-0.4069938
-0.40706402
-0.40713423
-0.40720445
-0.40727472
-0.40734497
-0.40741527
-0.40748557
-0.4075559
-0.40762624
-0.4076966
-0.40776697
-0.4078374
-0.40790778
-0.40797824
-0.4080487
-0.40811914
-0.40818965
-0.40826017
-0.40833068
-0.40840122
-0.4084718
-0.40854236
-0.40861297
-0.40868357
-0.40875423
-0.40882486
-0.40889555
-0.40896624
-0.40903693
-0.40910769
-0.4091784
-0.4092492
-0.40931997
-0.40939078
-0.4094616
-0.40953243
-0.40960327
-0.40967414
-0.40974504
-0.40981597
-0.4098869
-0.40995783
-0.4100288
-0.41009977
-0.4101708
-0.4102418
-0.41031283
-0.4103839
-0.41045496
-0.41052607
-0.41059718
-0.4106683
-0.41073945
-0.41081062
-0.41088182
-0.41095302
-0.41102424
-0.41109547
-0.41116673
-0.411238
-0.4113093
-0.41138062
-0.41145194
-0.4115233
-0.41159466
-0.41166607
-0.41173747
-0.41180888
-0.4118803
-0.41195178
-0.41202325
-0.41209477
-0.41216627
-0.4122378
-0.41230935
-0.41238093
-0.41245252
-0.41252413
-0.41259575
-0.4126674
-0.41273904
-0.41281074
-0.41288242
-0.41295415
-0.4130259
-0.41309762
-0.4131694
-0.41324118
-0.413313
-0.41338482
-0.41345668
-0.41352853
-0.41360041
-0.4136723
-0.41374424
-0.41381615
-0.41388813
-0.4139601
-0.41403207
-0.4141041
-0.4141761
-0.41424817
-0.41432023
-0.41439232
-0.4144644
-0.41453654
-0.41460866
-0.4146808
-0.414753
-0.4148252
-0.4148974
-0.41496962
-0.41504186
-0.41511413
-0.41518643
-0.41525874
-0.41533104
-0.4154034
-0.41547573
-0.41554812
-0.4156205
-0.41569293
-0.41576535
-0.4158378
-0.41591027
-0.41598275
-0.41605526
-0.41612777
-0.4162003
-0.41627288
-0.41634545
-0.41641805
-0.41649064
-0.4165633
-0.41663593
-0.41670862
-0.4167813
-0.416854
-0.4169267
-0.41699946
-0.41707224
-0.417145
-0.4172178
-0.4172906
-0.41736344
-0.4174363
-0.41750917
-0.41758206
-0.41765496
-0.4177279
-0.4178008
-0.4178738
-0.41794676
-0.41801977
-0.4180928
-0.4181658
-0.41823888
-0.41831195
-0.41838503
-0.41845813
-0.41853127
-0.4186044
-0.41867757
-0.41875076
-0.41882396
-0.41889715
-0.4189704
-0.41904366
-0.4191169
-0.41919023
-0.41926354
-0.41933686
-0.4194102
-0.41948357
-0.41955695
-0.41963035
-0.41970375
-0.4197772
-0.41985065
-0.41992414
-0.41999763
-0.42007113
-0.42014468
-0.4202182
-0.42029178
-0.42036536
-0.42043898
-0.4205126
-0.42058623
-0.42065987
-0.42073354
-0.42080724
-0.42088094
-0.42095467
-0.42102844
-0.4211022
-0.421176
-0.42124978
-0.4213236
-0.42139745
-0.4214713
-0.42154518
-0.4216191
-0.421693
-0.42176694
-0.42184088
-0.42191485
-0.42198884
-0.42206284
-0.42213684
-0.4222109
-0.42228496
-0.42235905
-0.42243314
-0.42250726
-0.42258137
-0.42265552
-0.4227297
-0.42280388
-0.4228781
-0.42295232
-0.42302656
-0.42310083
-0.4231751
-0.4232494
-0.42332372
-0.42339805
-0.4234724
-0.42354676
-0.42362115
-0.42369556
-0.42376998
-0.42384443
-0.4239189
-0.42399338
-0.42406788
-0.4241424
-0.42421693
-0.4242915
-0.42436606
-0.42444065
-0.42451525
-0.4245899
-0.42466453
-0.42473918
-0.42481387
-0.42488858
-0.4249633
-0.42503804
-0.42511278
-0.42518756
-0.42526236
-0.42533717
-0.425412
-0.42548683
-0.4255617
-0.4256366
-0.42571148
-0.4257864
-0.42586136
-0.4259363
-0.4260113
-0.42608628
-0.4261613
-0.42623633
-0.42631137
-0.42638645
-0.42646152
-0.42653662
-0.42661175
-0.42668688
-0.42676204
-0.4268372
-0.4269124
-0.42698762
-0.42706287
-0.4271381
-0.42721337
-0.42728865
-0.42736396
-0.42743927
-0.42751464
-0.42758998
-0.42766535
-0.42774075
-0.42781618
-0.4278916
-0.42796707
-0.42804253
-0.42811802
-0.4281935
-0.42826906
-0.42834458
-0.42842016
-0.42849573
-0.4285713
-0.42864695
-0.4287226
-0.42879823
-0.4288739
-0.4289496
-0.4290253
-0.42910102
-0.42917678
-0.42925254
-0.42932832
-0.4294041
-0.42947993
-0.42955577
-0.42963162
-0.4297075
-0.42978337
-0.42985928
-0.42993522
-0.43001115
-0.43008712
-0.43016312
-0.4302391
-0.43031514
-0.43039116
-0.43046722
-0.43054327
-0.43061912
-0.43069464
-0.43076983
-0.43084472
-0.43091932
-0.4309936
-0.43106753
-0.43114117
-0.4312145
-0.43128753
-0.43136024
-0.43143263
-0.4315047
-0.4315765
-0.43164793
-0.43171906
-0.4317899
-0.43186042
-0.43193063
-0.43200052
-0.4320701
-0.43213937
-0.43220833
-0.432277
-0.4323453
-0.43241334
-0.43248105
-0.43254843
-0.43261552
-0.43268228
-0.43274873
-0.4328149
-0.43288073
-0.43294623
-0.43301144
-0.43307635
-0.43314093
-0.4332052
-0.43326914
-0.4333328
-0.43339613
-0.43345913
-0.43352184
-0.43358424
-0.43364632
-0.4337081
-0.43376955
-0.4338307
-0.43389153
-0.43395206
-0.43401226
-0.43407214
-0.43413174
-0.43419102
-0.43424997
-0.43430862
-0.43436694
-0.43442497
-0.43448266
-0.43454006
-0.43459713
-0.4346539
-0.43471038
-0.4347665
-0.43482235
-0.43487787
-0.43493307
-0.43498796
-0.43504256
-0.43509683
-0.43515077
-0.43520442
-0.43525776
-0.43531078
-0.4353635
-0.4354159
-0.43546796
-0.43551973
-0.4355712
-0.43562233
-0.43567318
-0.4357237
-0.4357739
-0.4358238
-0.4358734
-0.43592265
-0.43597162
-0.43602026
-0.4360686
-0.4361166
-0.43616432
-0.4362117
-0.4362588
-0.43630555
-0.436352
-0.43639818
-0.43644398
-0.43648952
-0.43653473
-0.4365796
-0.4366242
-0.4366685
-0.43671244
-0.43675607
-0.4367994
-0.43684244
-0.43688515
-0.43692753
-0.43696964
-0.4370114
-0.43705285
-0.437094
-0.43713483
-0.43717536
-0.43721557
-0.43725547
-0.43729505
-0.4373343
-0.43737328
-0.4374119
-0.43745026
-0.43748826
-0.437526
-0.4375634
-0.43760046
-0.43763724
-0.4376737
-0.43770984
-0.43774566
-0.43778118
-0.4378164
-0.4378513
-0.43788588
-0.43792015
-0.4379541
-0.43798774
-0.4380211
-0.4380541
-0.43808684
-0.43811923
-0.4381513
-0.43818307
-0.43821454
-0.43824568
-0.43827653
-0.43830705
-0.43833724
-0.43836713
-0.43839672
-0.438426
-0.43845496
-0.4384836
-0.43851194
-0.43853995
-0.43856767
-0.43859506
-0.43862215
-0.4386489
-0.43867537
-0.43870154
-0.43872738
-0.4387529
-0.4387781
-0.438803
-0.43882757
-0.43885186
-0.4388758
-0.43889946
-0.4389228
-0.4389458
-0.4389685
-0.43899092
-0.439013
-0.4390348
-0.43905625
-0.43907738
-0.4390982
-0.43911874
-0.43913895
-0.43915886
-0.43917844
-0.43919772
-0.43921667
-0.4392353
-0.43925366
-0.43927166
-0.4392894
-0.43930677
-0.43932387
-0.43934062
-0.4393571
-0.43937325
-0.43938908
-0.4394046
-0.4394198
-0.4394347
-0.43944928
-0.43946356
-0.43947753
-0.43949118
-0.4395045
-0.43951753
-0.43953025
-0.43954265
-0.43955472
-0.4395665
-0.43957797
-0.4395891
-0.43959993
-0.43961045
-0.43962067
-0.43963057
-0.43964016
-0.43964943
-0.4396584
-0.43966705
-0.4396754
-0.4396834
-0.4396911
-0.43969852
-0.43970558
-0.43971238
-0.4397188
-0.43972498
-0.43973082
-0.43973634
-0.43974155
-0.43974644
-0.43975103
-0.4397553
-0.43975925
-0.43976292
-0.43976626
-0.43976927
-0.43977198
-0.4397744
-0.43977648
-0.43977824
-0.4397797
-0.43978086
-0.4397817
-0.4397822
-0.4397824
-0.43978232
-0.4397819
-0.4397812
-0.43978015
-0.43977877
-0.43977714
-0.43977514
-0.43977287
-0.43977025
-0.43976733
-0.4397641
-0.43976057
-0.43975672
-0.43975258
-0.43974808
-0.4397433
-0.4397382
-0.4397328
-0.43972707
-0.43972102
-0.43971467
-0.439708
-0.43970102
-0.43969375
-0.43968615
-0.43967822
-0.43967
-0.43966147
-0.43965262
-0.43964344
-0.43963397
-0.4396242
-0.4396141
-0.4396037
-0.43959296
-0.4395819
-0.43957055
-0.4395589
-0.4395469
-0.43953463
-0.43952203
-0.43950912
-0.4394959
-0.43948236
-0.4394685
-0.43945435
-0.43943986
-0.43942508
-0.43940997
-0.43939456
-0.43937883
-0.4393628
-0.43934646
-0.43932977
-0.43931282
-0.43929553
-0.43927792
-0.43926
-0.4392418
-0.43922326
-0.4392044
-0.43918523
-0.43916577
-0.43914598
-0.43912587
-0.43910545
-0.43908474
-0.4390637
-0.43904236
-0.4390207
-0.4389987
-0.43897644
-0.43895382
-0.4389309
-0.43890768
-0.43888414
-0.4388603
-0.43883613
-0.43881166
-0.43878686
-0.43876177
-0.43873635
-0.43871063
-0.4386846
-0.43865824
-0.4386316
-0.43860462
-0.43857732
-0.43854973
-0.4385218
-0.43849358
-0.43846506
-0.4384362
-0.43840703
-0.43837756
-0.4383478
-0.4383177
-0.43828726
-0.43825653
-0.4382255
-0.43819416
-0.4381625
-0.43813053
-0.43809822
-0.43806565
-0.43803272
-0.4379995
-0.43796596
-0.4379321
-0.43789795
-0.43786347
-0.4378287
-0.43779358
-0.43775818
-0.43772244
-0.4376864
-0.43765008
-0.4376134
-0.43757644
-0.43753916
-0.43750155
-0.43746364
-0.4374254
-0.43738687
-0.43734804
-0.43730888
-0.4372694
-0.4372296
-0.43718952
-0.4371491
-0.43710837
-0.43706733
-0.437026
-0.43698433
-0.43694237
-0.43690008
-0.43685746
-0.43681455
-0.43677133
-0.4367278
-0.43668395
-0.4366398
-0.43659532
-0.43655053
-0.43650544
-0.43646002
-0.4364143
-0.43636826
-0.4363219
-0.43627524
-0.43622828
-0.43618098
-0.43613338
-0.4360855
-0.43603727
-0.43598872
-0.43593988
-0.4358907
-0.43584123
-0.43579146
-0.43574136
-0.43569112
-0.43564078
-0.43559036
-0.43553984
-0.43548924
-0.43543854
-0.43538776
-0.43533686
-0.4352859
-0.4352348
-0.43518367
-0.4351324
-0.4350811
-0.43502966
-0.43497813
-0.4349265
-0.43487483
-0.43482304
-0.43477115
-0.43471918
-0.43466708
-0.43461493
-0.43456268
-0.43451035
-0.4344579
-0.4344054
-0.43435276
-0.43430007
-0.43424726
-0.43419436
-0.4341414
-0.43408832
-0.43403515
-0.4339819
-0.43392855
-0.4338751
-0.4338216
-0.43376797
-0.43371424
-0.43366045
-0.43360656
-0.43355256
-0.4334985
-0.43344432
-0.43339005
-0.43333572
-0.43328127
-0.43322673
-0.4331721
-0.4331174
-0.43306258
-0.4330077
-0.4329527
-0.43289763
-0.43284246
-0.43278718
-0.43273184
-0.43267637
-0.43262085
-0.4325652
-0.4325095
-0.4324537
-0.43239778
-0.43234178
-0.4322857
-0.43222955
-0.43217328
-0.4321169
-0.43206045
-0.43200392
-0.4319473
-0.43189055
-0.43183374
-0.43177685
-0.43171984
-0.43166277
-0.43160558
-0.4315483
-0.43149093
-0.4314335
-0.43137595
-0.4313183
-0.4312606
-0.43120277
-0.43114483
-0.43108684
-0.43102875
-0.43097058
-0.4309123
-0.43085393
-0.43079546
-0.43073693
-0.43067828
-0.43061954
-0.4305607
-0.43050182
-0.4304428
-0.4303837
-0.43032452
-0.43026525
-0.43020588
-0.4301464
-0.43008685
-0.43002722
-0.42996746
-0.42990765
-0.42984772
-0.42978773
-0.4297276
-0.4296674
-0.42960715
-0.42954677
-0.4294863
-0.42942575
-0.4293651
-0.42930436
-0.42924353
-0.4291826
-0.42912158
-0.4290605
-0.42899927
-0.428938
-0.4288766
-0.42881516
-0.42875358
-0.42869192
-0.4286302
-0.42856836
-0.42850643
-0.42844442
-0.4283823
-0.4283201
-0.4282578
-0.42819542
-0.42813295
-0.4280704
-0.42800772
-0.427945
-0.42788213
-0.42781922
-0.4277562
-0.42769307
-0.42762986
-0.4275666
-0.4275032
-0.42743972
-0.42737615
-0.4273125
-0.42724872
-0.42718488
-0.42712095
-0.4270569
-0.4269928
-0.4269286
-0.4268643
-0.4267999
-0.42673543
-0.42667085
-0.42660618
-0.42654142
-0.42647657
-0.42641166
-0.4263466
-0.42628148
-0.42621627
-0.42615098
-0.4260856
-0.4260201
-0.42595452
-0.42588884
-0.4258231
-0.42575723
-0.4256913
-0.42562526
-0.42555913
-0.4254929
-0.4254266
-0.4253602
-0.4252937
-0.42522714
-0.42516047
-0.4250937
-0.42502683
-0.4249599
-0.42489287
-0.42482573
-0.42475852
-0.4246912
-0.4246238
-0.42455631
-0.42448872
-0.42442104
-0.42435327
-0.4242854
-0.42421746
-0.42414942
-0.4240813
-0.42401305
-0.42394474
-0.42387635
-0.42380783
-0.42373925
-0.42367056
-0.4236018
-0.42353293
-0.42346397
-0.42339492
-0.4233258
-0.42325658
-0.42318726
-0.42311785
-0.42304832
-0.42297873
-0.42290905
-0.42283928
-0.4227694
-0.42269945
-0.4226294
-0.42255926
-0.42248902
-0.4224187
-0.4223483
-0.42227778
-0.42220718
-0.4221365
-0.4220657
-0.42199484
-0.42192388
-0.42185283
-0.4217817
-0.42171043
-0.4216391
-0.42156768
-0.42149618
-0.42142457
-0.4213529
-0.4212811
-0.42120922
-0.42113724
-0.4210652
-0.42099306
-0.42092082
-0.4208485
-0.42077604
-0.42070353
-0.42063093
-0.42055824
-0.42048544
-0.42041257
-0.42033958
-0.42026654
-0.42019337
-0.42012012
-0.4200468
-0.41997337
-0.41989985
-0.41982624
-0.41975254
-0.41967875
-0.41960487
-0.4195309
-0.4194568
-0.41938266
-0.41930842
-0.41923407
-0.41915965
-0.41908512
-0.41901052
-0.4189358
-0.418861
-0.4187861
-0.41871113
-0.41863605
-0.4185609
-0.41848564
-0.4184103
-0.41833487
-0.41825935
-0.4181837
-0.41810802
-0.41803223
-0.41795632
-0.41788036
-0.41780427
-0.4177281
-0.41765183
-0.4175755
-0.41749907
-0.41742253
-0.4173459
-0.4172692
-0.4171924
-0.41711548
-0.4170385
-0.41696143
-0.41688424
-0.416807
-0.41672963
-0.4166522
-0.41657466
-0.41649702
-0.41641933
-0.4163415
-0.4162636
-0.41618562
-0.41610754
-0.41602936
-0.4159511
-0.41587275
-0.41579428
-0.41571575
-0.41563714
-0.4155584
-0.4154796
-0.41540068
-0.41532168
-0.4152426
-0.41516343
-0.41508415
-0.4150048
-0.41492534
-0.4148458
-0.41476616
-0.41468644
-0.41460663
-0.4145267
-0.4144467
-0.41436663
-0.41428643
-0.41420618
-0.4141258
-0.41404533
-0.4139648
-0.41388416
-0.41380343
-0.4137226
-0.4136417
-0.4135607
-0.4134796
-0.4133984
-0.41331714
-0.41323575
-0.4131543
-0.41307276
-0.4129911
-0.4129094
-0.41282755
-0.41274565
-0.41266364
-0.41258153
-0.41249934
-0.41241705
-0.41233468
-0.41225222
-0.41216967
-0.41208702
-0.4120043
-0.41192147
-0.41183853
-0.41175553
-0.4116724
-0.41158924
-0.41150594
-0.41142255
-0.4113391
-0.41125554
-0.41117188
-0.41108814
-0.4110043
-0.41092038
-0.41083637
-0.41075227
-0.41066808
-0.41058376
-0.4104994
-0.41041493
-0.41033036
-0.41024572
-0.41016096
-0.4100761
-0.4099912
-0.40990618
-0.40982106
-0.40973586
-0.40965056
-0.40956518
-0.4094797
-0.40939415
-0.4093085
-0.40922272
-0.4091369
