-3.358829426465766849e-02
-3.301649573427663242e-02
-3.243030680486363310e-02
-3.182875372174722578e-02
-3.121103314943833931e-02
-3.057652549683181203e-02
-2.992480592421804808e-02
-2.925565275878158622e-02
-2.856905347921592786e-02
-2.786520810912369514e-02
-2.714453003283981425e-02
-2.640764421109327922e-02
-2.565538294583867909e-02
-2.488877920027111890e-02
-2.410905759555366165e-02
-2.331762323891352698e-02
-2.251604842776776597e-02
-2.170605758633368035e-02
-2.088951044643256108e-02
-2.006838380386453263e-02
-1.924475194754633398e-02
-1.842076605109328746e-02
-1.759863278375931039e-02
-1.678059235749825365e-02
-1.596889622174522266e-02
-1.516578463541293220e-02
-1.437346442231399700e-02
-1.359408710141893697e-02
-1.282972766812475254e-02
-1.208236408688590988e-02
-1.135385791710526865e-02
-1.064593616504263575e-02
-9.960174543446456696e-03
-9.297982310539108092e-03
-8.660588863867649603e-03
-8.049032274830504943e-03
-7.464149787949658429e-03
-6.906570438643338562e-03
-6.376709846348180277e-03
-5.874767254556774454e-03
-5.400724877351621017e-03
-4.954349516586450085e-03
-4.535196508342171327e-03
-4.142615870941611898e-03
-3.775760720020611676e-03
-3.433597757838180269e-03
-3.114919798920293918e-03
-2.818360247344398224e-03
-2.542409312169609855e-03
-2.285431871787066676e-03
-2.045686754860860136e-03
-1.821347271098292973e-03
-1.610522785622266325e-03
-1.411281056966000183e-03
-1.221671190218484972e-03
-1.039746844052923721e-03
-8.635896022995813047e-04
-6.913320601325057598e-04
-5.211804582667001889e-04
-3.514366409310583361e-04
-1.805189706322682538e-04
-6.982057514571276576e-06
1.704650262502635885e-04
3.529422566137094719e-04
5.413840782678516241e-04
7.365269912262895676e-04
9.388994286409049804e-04
1.148814111416869392e-03
1.366363003166656386e-03
1.591414997651654194e-03
1.823616316885243865e-03
2.062393726983905405e-03
2.306960689712310962e-03
2.556326117880684638e-03
2.809305958212725534e-03
3.064537338716790283e-03
3.320495236046939504e-03
3.575511375562660365e-03
3.827795328150456616e-03
4.075457430596540406e-03
4.316533313861759501e-03
4.549009784089551658e-03
4.770851708654179173e-03
4.980029613365035378e-03
5.174547578902966190e-03
5.352471127092233577e-03
5.511954766003249011e-03
5.651268700954813380e-03
5.768824549460124622e-03
5.863199591088795459e-03
5.933159195489069726e-03
5.977677164304569767e-03
5.995953634266901200e-03
5.987430368923645288e-03
5.951803076069377661e-03
5.889030593662586931e-03
5.799340907587202491e-03
5.683233646196599910e-03
5.541479183197990828e-03
5.375114181738216770e-03
5.185433653570869876e-03
4.973979608700668763e-03
4.742526369029266727e-03
4.493062748476463024e-03
4.227771269077708859e-03
3.949004625292696843e-03
3.659259766965569389e-03
3.361149881940699198e-03
3.057374613949611058e-03
2.750688888756791951e-03
2.443870858867274072e-03
2.139689233078738775e-03
1.840870541606182088e-03
1.550066706787956838e-03
1.269823341330559522e-03
1.002549326891023513e-03
7.504879519148454367e-04
5.156900850708279497e-04
2.999896962888310803e-04
1.049821172060971824e-04
-6.799468553153315117e-05
-2.178755657474402659e-04
-3.438801093371088866e-04
-4.455209540652663278e-04
-5.226082438167986002e-04
-5.752502569171424234e-04
-6.038501502511105581e-04
-6.090989111819778258e-04
-5.919645767784491655e-04
-5.536778442890448503e-04
-4.957143229342680490e-04
-4.197736328637743193e-04
-3.277556741588528153e-04
-2.217344030782318046e-04
-1.039293840943671386e-04
2.332437990469270162e-05
1.576078919776652157e-04
2.964505508778233610e-04
4.373629219250469422e-04
5.778696004914600027e-04
7.155415570740816193e-04
8.480275595855115041e-04
9.730842682457596258e-04
1.088604606983472126e-03
1.192644053759605574e-03
1.283444363919448951e-03
1.359454598247387134e-03
1.419349016897274249e-03
1.462041795581772415e-03
1.486698268543650264e-03
1.492742559972660282e-03
1.479861661762633040e-03
1.448005868895428736e-03
1.397385537081274540e-03
1.328464380993417274e-03
1.241949377773587156e-03
1.138777525849628052e-03
1.020099570843788260e-03
8.872611012224415356e-04
7.417813127382437812e-04
5.853296780441489232e-04
4.197009630768258723e-04
2.467890051648868269e-04
6.855962085319566900e-05
-1.129769979212364871e-04
-2.957939343376618513e-04
-4.778748222879361323e-04
-6.572404082412425848e-04
-8.319739814116030923e-04
-1.000245363876217436e-03
-1.160333109258459205e-03
-1.310644676274438057e-03
-1.449734145153228461e-03
-1.576317466850680549e-03
-1.689284992474680662e-03
-1.787711158035084139e-03
-1.870861258668441839e-03
-1.938195262188566192e-03
-1.989368637784976780e-03
-2.024230334855606044e-03
-2.042818024084567304e-03
-2.045350591133044023e-03
-2.032218252233132950e-03
-2.003970437108364578e-03
-1.961301621808063302e-03
-1.905035496616583812e-03
-1.836107668908131376e-03
-1.755547382801560079e-03
-1.664458296948641194e-03
-1.563998884599867786e-03
-1.455362678103405000e-03
-1.339758758396024721e-03
-1.218392694651153655e-03
-1.092448404034325948e-03
-9.630709851969075684e-04
-8.313509567261752938e-04
-6.983100600272168675e-04
-5.648887915049073411e-04
-4.319358902498999391e-04
-3.001999050777310403e-04
-1.703228294805602880e-04
-4.283598366580590596e-05
8.184196276085955177e-05
2.034047470254658383e-04
3.216561130500190783e-04
4.365054476320644541e-04
5.479615326461507313e-04
6.561246051954932289e-04
7.611767920129306267e-04
8.633712160274094327e-04
9.630199874249539393e-04
1.060481387082015366e-03
1.156146310612355321e-03
1.250424443209188080e-03
1.343730327621086955e-03
1.436469564022329389e-03
1.529025420498138959e-03
1.621746035192087607e-03
1.714932574450347708e-03
1.808828329413924262e-03
1.903609147947985794e-03
1.999375233912795667e-03
2.096144430695044605e-03
2.193847258502785221e-03
2.292323525631579251e-03
2.391320754901336051e-03
2.490494363886586876e-03
2.589409527709684525e-03
2.687544798671674413e-03
2.784297301303268173e-03
2.878989451475345157e-03
2.970877074088189383e-03
3.059158768764800272e-03
3.142986323373326771e-03
3.221476028889702289e-03
3.293720676160056312e-03
3.358802138657321877e-03
3.415804180068056101e-03
3.463825352903009136e-03
3.501991780293073949e-03
3.529469662659244240e-03
3.545477250602116753e-03
3.549296177351293335e-03
3.540281892139929363e-03
3.517873082653342424e-03
3.481600016414652683e-03
3.431091642334410316e-03
3.366081363130588033e-03
3.286411383832419340e-03
3.192035667931245220e-03
3.083021357920747319e-03
2.959548835910978670e-03
2.821910261801983694e-03
2.670506822231800449e-03
2.505844599930758844e-03
2.328529187335277254e-03
2.139259201953760264e-03
1.938818763661669196e-03
1.728069047457090170e-03
1.507939103927230778e-03
1.279416024070051524e-03
1.043534651524921295e-03
8.013669028480018431e-04
5.540109590520106214e-04
3.025804274225492784e-04
4.819352142815957221e-05
-2.080374851103579717e-04
-4.650164438301703233e-04
-7.216730449488589121e-04
-9.769719651895715853e-04
-1.229921338217999536e-03
-1.479580533404116537e-03
-1.725067091325041329e-03
-1.965562856238414931e-03
-2.200319142460729471e-03
-2.428661067593130239e-03
-2.649990910793064737e-03
-2.863790575309317285e-03
-3.069623163614375143e-03
-3.267133653683982567e-03
-3.456048764899328964e-03
-3.636175983033212728e-03
-3.807401857864661007e-03
-3.969689604009748671e-03
-4.123076062864679432e-03
-4.267668085929190482e-03
-4.403638371973431741e-03
-4.531220892141579228e-03
-4.650705918483358584e-03
-4.762434704466184457e-03
-4.866793883497319909e-03
-4.964209704479525739e-03
-5.055142038558455356e-03
-5.140078302755340944e-03
-5.219527295365753404e-03
-5.294013016572800615e-03
-5.364068497167057137e-03
-5.430229650385687973e-03
-5.493029189966701191e-03
-5.552990674937813807e-03
-5.610622761386201487e-03
-5.666413588120945526e-03
-5.720825254526871496e-03
-5.774288592158247600e-03
-5.827198152729522185e-03
-5.879907514635939088e-03
-5.932724840863917888e-03
-5.985908852962166030e-03
-6.039665127726986590e-03
-6.094142833780455577e-03
-6.149431917743300099e-03
-6.205560793547555513e-03
-6.262494565072116229e-03
-6.320133776126081286e-03
-6.378313861877802672e-03
-6.436805216376319076e-03
-6.495313979153374655e-03
-6.553483580717610855e-03
-6.610896958120796897e-03
-6.667079658692213855e-03
-6.721503681437284404e-03
-6.773592141585463126e-03
-6.822724733366119197e-03
-6.868243951533454031e-03
-6.909462190621963422e-03
-6.945669433400017932e-03
-6.976141673478330335e-03
-7.000149972358369818e-03
-7.016969987459822748e-03
-7.025891995844253668e-03
-7.026231238272266470e-03
-7.017338434027881044e-03
-6.998610454252474772e-03
-6.969500872573050274e-03
-6.929530378587325269e-03
-6.878296777053044195e-03
-6.815484486900593754e-03
-6.740873378233818054e-03
-6.654346804523788086e-03
-6.555898598717789863e-03
-6.445638955917359220e-03
-6.323799033066256070e-03
-6.190734156236894770e-03
-6.046925465242158904e-03
-5.892979946798812541e-03
-5.729628747153083825e-03
-5.557723774614256075e-03
-5.378232497712212741e-03
-5.192230931588280411e-03
-5.000894912269359532e-03
-4.805489613623112853e-03
-4.607357422753356919e-03
-4.407904321002539469e-03
-4.208584855850672907e-03
-4.010885870379534562e-03
-3.816309207530946355e-03
-3.626353644308951806e-03
-3.442496194472339892e-03
-3.266173083141034675e-03
-3.098760701244365843e-03
-2.941556763129176723e-03
-2.795761925527247629e-03
-2.662462238876604683e-03
-2.542612686502657322e-03
-2.437022074425848357e-03
-2.346339582178574249e-03
-2.271043127820254314e-03
-2.211429897470182804e-03
-2.167609153359889920e-03
-2.139497599726525572e-03
-2.126817266590943362e-03
-2.129096164770367082e-03
-2.145671736291707328e-03
-2.175697102986658138e-03
-2.218150113556000003e-03
-2.271845090584840611e-03
-2.335447181366074980e-03
-2.407489147917112222e-03
-2.486390389816374707e-03
-2.570477973461578539e-03
-2.658009363270995556e-03
-2.747196521161955098e-03
-2.836231076808300427e-03
-2.923310215712113247e-03
-3.006662793732215160e-03
-3.084575340840900633e-03
-3.155417524631669475e-03
-3.217666695211199041e-03
-3.269931059079789898e-03
-3.310971087527144179e-03
-3.339718826894608542e-03
-3.355294666179271888e-03
-3.357021358126037903e-03
-3.344434970746827402e-03
-3.317292513534120506e-03
-3.275576054960588693e-03
-3.219493225494283756e-03
-3.149474031574885698e-03
-3.066163941585820386e-03
-2.970413328126203165e-03
-2.863263301415772989e-03
-2.745928146747426187e-03
-2.619774690838219591e-03
-2.486298685899446248e-03
-2.347098654108438140e-03
-2.203847555842529653e-03
-2.058262797477952537e-03
-1.912074924163534697e-03
-1.766995560327813599e-03
-1.624685055828608508e-03
-1.486720508207047377e-03
-1.354564548587433234e-03
-1.229535517988013509e-03
-1.112779508773782157e-03
-1.005244809365487364e-03
-9.076592382139528001e-04
-8.205107817076576866e-04
-7.440318583092492277e-04
-6.781877152848195646e-04
-6.226690800774731466e-04
-5.768893571267280640e-04
-5.399864944097650847e-04
-5.108296005537439665e-04
-4.880302771738141481e-04
-4.699586310546334370e-04
-4.547637322590643749e-04
-4.403983681437857408e-04
-4.246477021607113580e-04
-4.051614804979946022e-04
-3.794894280380693968e-04
-3.451192534775720079e-04
-2.995167016063737440e-04
-2.401670748051763012e-04
-1.646176632602030392e-04
-7.052032506623213341e-05
4.432633391909348891e-05
1.819359884137693010e-04
3.440953030671833196e-04
5.323271873777221446e-04
7.478570074452894944e-04
9.915824501773797157e-04
1.264047474404401310e-03
1.565420889737828211e-03
1.895479929031929339e-03
2.253599123267141079e-03
2.638744863966381669e-03
3.049475590675152295e-03
3.483947823724996892e-03
3.939928048612627472e-03
4.414810354852648916e-03
4.905639502588278987e-03
5.409139318181752955e-03
5.921745959521820465e-03
6.439645648570612065e-03
6.958816444684900494e-03
7.475073354069213666e-03
7.984116220029927741e-03
8.481579715006966336e-03
8.963084776553087094e-03
9.424290753480800420e-03
9.860947480351413275e-03
1.026894652872039140e-02
1.064437098369118255e-02
1.098354302534507512e-02
1.128306853787674861e-02
1.153987822720009548e-02
1.175126462485232177e-02
1.191491450959754859e-02
1.202893621971420565e-02
1.209188151892397027e-02
1.210276171681703809e-02
1.206105789110871462e-02
1.196672503826583418e-02
1.182019018090914309e-02
1.162234443832443204e-02
1.137452925114837941e-02
1.107851693563099288e-02
1.073648599944288656e-02
1.035099150724244806e-02
9.924931016693075425e-03
9.461506573512828977e-03
8.964183260267861650e-03
8.436645074490562585e-03
7.882748680505931305e-03
7.306475703657683111e-03
6.711884268094036113e-03
6.103060392036617141e-03
5.484069913626400498e-03
4.858911689525749478e-03
4.231472629571701206e-03
3.605485087662243203e-03
2.984487086348317029e-03
2.371786040149947462e-03
1.770426230646128573e-03
1.183160411318045536e-03
6.124258694145814442e-04
6.032508447227099115e-05
-4.713888129086892496e-04
-9.813217641022210086e-04
-1.468443675638428716e-03
-1.932088665846391686e-03
-2.371950578332328915e-03
-2.788074157710478118e-03
-3.180842084997177830e-03
-3.550958149774007758e-03
-3.899426976325382193e-03
-4.227530586512760410e-03
-4.536802299362459670e-03
-4.828998371974893740e-03
-5.106067764560456336e-03
-5.370120513302199285e-03
-5.623395204483057873e-03
-5.868225844266701172e-03
-6.107008693511180482e-03
-6.342169332352820543e-03
-6.576130378661674408e-03
-6.811280176348399711e-03
-7.049942820069582568e-03
-7.294349622683937717e-03
-7.546612388384984181e-03
-7.808698639611404840e-03
-8.082408903972545383e-03
-8.369356303480632656e-03
-8.670948352846102533e-03
-8.988371103092992684e-03
-9.322575614646527731e-03
-9.674266822851837824e-03
-1.004389470458091731e-02
-1.043164767127197252e-02
-1.083744824695557878e-02
-1.126095088900905782e-02
-1.170154187267935519e-02
-1.215834117092473576e-02
-1.263020627130111845e-02
-1.311573785750656113e-02
-1.361328731529793529e-02
-1.412096604757621075e-02
-1.463665644995544059e-02
-1.515802458042413148e-02
-1.568253451440290713e-02
-1.620746429911803371e-02
-1.672992357301825161e-02
-1.724687280126793038e-02
-1.775514408266503849e-02
-1.825146356227763667e-02
-1.873247538685170882e-02
-1.919476716255214335e-02
-1.963489688642211864e-02
-2.004942119340100137e-02
-2.043492492360150792e-02
-2.078805175306758929e-02
-2.110553581888733113e-02
-2.138423408667860723e-02
-2.162115928090800610e-02
-2.181351302161141370e-02
-2.195871897383747107e-02
-2.205445547258774730e-02
-2.209868751139546297e-02
-2.208969752989548008e-02
-2.202611461896447284e-02
-2.190694170236638302e-02
-2.173158021604600434e-02
-2.149985191633637174e-02
-2.121201727561951994e-02
-2.086879002083227852e-02
-2.047134749982972360e-02
-2.002133644098568616e-02
-1.952087373560045316e-02
-1.897254196225303668e-02
-1.837937942914082828e-02
-1.774486456898272807e-02
-1.707289469392531470e-02
-1.636775888912817348e-02
-1.563410529808146460e-02
-1.487690292862525743e-02
-1.410139822325675273e-02
-1.331306676685618459e-02
-1.251756050903251628e-02
-1.172065119771529933e-02
-1.092817046758266450e-02
-1.014594744391518130e-02
-9.379744544666208592e-03
-8.635192306861858708e-03
-7.917724204292321891e-03
-7.232512304847271527e-03
-6.584404670061295810e-03
-5.977865603153502579e-03
-5.416919417615296585e-03
-4.905098958342585941e-03
-4.445399505286792494e-03
-4.040238940637210299e-03
-3.691424940376308948e-03
-3.400129770264856671e-03
-3.166873262668113993e-03
-2.991514440245612340e-03
-2.873251993379836132e-03
-2.810633823377508850e-03
-2.801575630948721380e-03
-2.843388456310627817e-03
-2.932814823021604594e-03
-3.066073139550493879e-03
-3.238909679112849174e-03
-3.446657564667096173e-03
-3.684301738075184372e-03
-3.946549073853528912e-03
-4.227902562040337410e-03
-4.522738421969100392e-03
-4.825384834478871690e-03
-5.130201162324514105e-03
-5.431656236464879779e-03
-5.724404514900766766e-03
-6.003358802457039491e-03
-6.263758309577469909e-03
-6.501230897102133234e-03
-6.711848386178651850e-03
-6.892174060682963038e-03
-7.039301400823192757e-03
-7.150883499624957097e-03
-7.225152528808256175e-03
-7.260928962335280734e-03
-7.257620351278580226e-03
-7.215209679316464397e-03
-7.134233572148093901e-03
-7.015750683103482051e-03
-6.861300867508434743e-03
-6.672855957399211231e-03
-6.452763065772887385e-03
-6.203681430950472309e-03
-5.928514150446878225e-03
-5.630335992273681825e-03
-5.312318822398346373e-03
-4.977656091373039784e-03
-4.629487821064407274e-03
-4.270827715251949291e-03
-3.904493845107194494e-03
-3.533044351226330079e-03
-3.158719463220687872e-03
-2.783391193755559417e-03
-2.408521693697665556e-03
-2.035131326461703943e-03
-1.663777133475486704e-03
-1.294542260052969265e-03
-9.270367290108063717e-04
-5.604096687813111405e-04
-1.933728840236115883e-04
1.757646579030978787e-04
5.490518853549095557e-04
9.288410856529430914e-04
1.317724834402105721e-03
1.718465579652291193e-03
2.133919196947871386e-03
2.566954197914835326e-03
3.020368176700069778e-03
3.496803268982242446e-03
3.998662415269523679e-03
4.528028325995549913e-03
5.086586937837718654e-03
5.675557194660067924e-03
6.295628759733271247e-03
6.946909283941802606e-03
7.628882655079275571e-03
8.340379410069207952e-03
9.079560366181080658e-03
9.843914154151089946e-03
1.063026920679125374e-02
1.143482042033786006e-02
1.225317040371398832e-02
1.308038490849160011e-02
1.391106177087298411e-02
1.473941242798876977e-02
1.555935471426195434e-02
1.636461550308718899e-02
1.714884137742836434e-02
1.790571530744392362e-02
1.862907739382501857e-02
1.931304720514081391e-02
1.995214542463319071e-02
2.054141233500013375e-02
2.107652079952928095e-02
2.155388116093722231e-02
2.197073588430625835e-02
2.232524173029397374e-02
2.261653742737701131e-02
2.284479512685769556e-02
2.301125404324021878e-02
2.311823522444874518e-02
2.316913650080050166e-02
2.316840707326549634e-02
2.312150169138741176e-02
2.303481463665069812e-02
2.291559418006715310e-02
2.277183860951733849e-02
2.261217527049466658e-02
2.244572443609117382e-02
2.228195018760203636e-02
2.213050079995512384e-02
2.200104143523876413e-02
2.190308203189550093e-02
2.184580377265571069e-02
2.183788725281357590e-02
2.188734585118253320e-02
2.200136769439898360e-02
2.218616949163183111e-02
2.244686557386181211e-02
2.278735506691243265e-02
2.321023008992072201e-02
2.371670743402759865e-02
2.430658584763458613e-02
2.497823071822115673e-02
2.572858738705623149e-02
2.655322395963614565e-02
2.744640381964937384e-02
2.840118768595758722e-02
2.940956425407671368e-02
3.046260830570711106e-02
3.155066420659274201e-02
3.266355243018376903e-02
3.379079624304829471e-02
3.492186511304690155e-02
3.604643116956054993e-02
3.715463446114848634e-02
3.823735263610621854e-02
3.928647042889295282e-02
4.029514398172814177e-02
4.125805532856504504e-02
4.217165195714198817e-02
4.303436673693399744e-02
4.384681358140062740e-02
4.461195448285708992e-02
4.533523395271434747e-02
4.602467704833021478e-02
4.669094799386480643e-02
4.734736669678636656e-02
4.800988128044354764e-02
4.869699521645398654e-02
4.942964828403405286e-02
5.023105149858642787e-02
5.112647684351990379e-02
5.214300310563367569e-02
5.330922025607638670e-02
5.465489510993109395e-02
5.621060189853287203e-02
5.800732201093027757e-02
6.007601770324002416e-02
6.244718498243022331e-02
6.515039141589612504e-02
6.821380501878598901e-02
7.166372044956542675e-02
7.552408919255262920e-02
7.981606006385032204e-02
8.455753681811110922e-02
8.976275926294932650e-02
9.544191397908503849e-02
1.016007807035662625e-01
1.082404197538777424e-01
1.153569055294101225e-01
1.229411104562030954e-01
1.309785431783806742e-01
1.394492441080447676e-01
1.483277405987079300e-01
1.575830631441536012e-01
1.671788235018374924e-01
1.770733544166032958e-01
1.872199100773506431e-01
1.975669254089769677e-01
2.080583317462986470e-01
2.186339254280971200e-01
2.292297853548717068e-01
2.397787347110329204e-01
2.502108416515184119e-01
2.604539532074782171e-01
2.704342562001560979e-01
2.800768587464457782e-01
2.893063854851147809e-01
2.980475799400258419e-01
3.062259070696140006e-01
3.137681492594201482e-01
3.206029892297793116e-01
3.266615735622959149e-01
3.318780508639113669e-01
3.361900791899966046e-01
3.395392977848474270e-01
3.418717586013972354e-01
3.431383140596000469e-01
3.432949579822757724e-01
3.423031171749985613e-01
3.401298922485681553e-01
3.367482466597894741e-01
3.321371439804862158e-01
3.262816337065388983e-01
3.191728869902852317e-01
3.108081841416275304e-01
3.011908563140111572e-01
2.903301843147056971e-01
2.782412580466075425e-01
2.649448001998012669e-01
2.504669584662515547e-01
2.348390705049790972e-01
2.180974060456923880e-01
2.002828906691213884e-01
1.814408157290253731e-01
1.616205386048244763e-01
1.408751775355291114e-01
1.192613047751850536e-01
9.683864162075275783e-02
7.366975856619488450e-02
4.981978298468695693e-02
2.535611674737802204e-02
3.481654852110139978e-04
-2.513291927975210699e-02
-5.101448453039327674e-02
-7.722260647278356149e-02
-1.036823078839043261e-01
-1.303177627526777849e-01
-1.570524895771367446e-01
-1.838095348498569592e-01
-2.105116485271588955e-01
-2.370814536591083765e-01
-2.634416125406295328e-01
-2.895149918601677697e-01
-3.152248291608824582e-01
-3.404949032691060307e-01
-3.652497109445749235e-01
-3.894146518431120807e-01
-4.129162238955634279e-01
-4.356822304945402458e-01
-4.576420008554449304e-01
-4.787266243406777533e-01
-4.988691990285024636e-01
-5.180050944780009159e-01
-5.360722279710891103e-01
-5.530113530336017158e-01
-5.687663585816725709e-01
-5.832845764433151059e-01
-5.965170945380587897e-01
-6.084190725793557908e-01
-6.189500567569359291e-01
-6.280742894525228603e-01
-6.357610097598019872e-01
-6.419847404090773813e-01
-6.467255565195620948e-01
-6.499693315872204780e-01
-6.517079559935619049e-01
-6.519395237016789579e-01
-6.506684826560810153e-01
-6.479057449552624304e-01
-6.436687531684819330e-01
-6.379814995425324708e-01
-6.308744954471826594e-01
-6.223846888696366042e-01
-6.125553285983622587e-01
-6.014357741701965576e-01
-5.890812516615714367e-01
-5.755525558140267561e-01
-5.609157000916278335e-01
-5.452415166945359104e-01
-5.286052095098628945e-01
-5.110858636718008663e-01
-4.927659159145331702e-01
-4.737305906954463741e-01
-4.540673075884650856e-01
-4.338650658043205488e-01
-4.132138123579376932e-01
-3.922038004974842118e-01
-3.709249453570827026e-01
-3.494661838861820580e-01
-3.279148460332685922e-01
-3.063560442984438192e-01
-2.848720885083700916e-01
-2.635419322985695367e-01
-2.424406574181745544e-01
-2.216390016685998443e-01
-2.012029355538668962e-01
-1.811932921751339687e-01
-1.616654541238520815e-01
-1.426691006426346608e-01
-1.242480170189690231e-01
-1.064399679765272722e-01
-8.927663539550824423e-02
-7.278362020996921589e-02
-5.698050741506068689e-02
-4.188099208899629528e-02
-2.749306391729288909e-02
-1.381924652871663328e-02
-8.568875408165547037e-04
1.140150544946446146e-02
2.296788831631425484e-02
3.385826911818209939e-02
4.409226829538291648e-02
5.369265682293711955e-02
6.268487887978660411e-02
7.109656588335301619e-02
7.895704856826599172e-02
8.629687367280440558e-02
9.314733160491807384e-02
9.954000116816637267e-02
1.055063169872544337e-01
1.110771648034423187e-01
1.162825093256353026e-01
1.211510585958427560e-01
1.257099682961991538e-01
1.299845885864276962e-01
1.339982556230879807e-01
1.377721287276147399e-01
1.413250738498714465e-01
1.446735930092015732e-01
1.478317987601154848e-01
1.508114320055676527e-01
1.536219210275956426e-01
1.562704786874978824e-01
1.587622345506089494e-01
1.611003980309690109e-01
1.632864483791798826e-01
1.653203469892228772e-01
1.672007672395801614e-01
1.689253371021910699e-01
1.704908895007945790e-01
1.718937156237589636e-01
1.731298163773056231e-01
1.741951473259822358e-01
1.750858528999548192e-01
1.757984858616887802e-01
1.763302084225143451e-01
1.766789718717717561e-01
1.768436720286812314e-01
1.768242784085668484e-01
1.766219353844276641e-01
1.762390344099995509e-01
1.756792567942707384e-01
1.749475869371053538e-01
1.740502967800780509e-01
1.729949025246720895e-01
1.717900951378923680e-01
1.704456467184083668e-01
1.689722950524464307e-01
1.673816092615299789e-01
1.656858393892877979e-01
1.638977532498266387e-01
1.620304639414271441e-01
1.600972515172412458e-01
1.581113822383857781e-01
1.560859289811387107e-01
1.540335960486756417e-01
1.519665517061731252e-01
1.498962713354934639e-01
1.478333939958902388e-01
1.457875947027461039e-01
1.437674746189730735e-01
1.417804707596587444e-01
1.398327865551029225e-01
1.379293441769216533e-01
1.360737590043857581e-01
1.342683363538338948e-01
1.325140901279977246e-01
1.308107826014360264e-01
1.291569842286416914e-01
1.275501520167537928e-01
1.259867246924420980e-01
1.244622326619264086e-01
1.229714205040924185e-01
1.215083795411200790e-01
1.200666879432443629e-01
1.186395556772915777e-01
1.172199716891386551e-01
1.158008506547980598e-01
1.143751767240956257e-01
1.129361418203676387e-01
1.114772760512894451e-01
1.099925682457151416e-01
1.084765746835085337e-01
1.069245144487786653e-01
1.053323499203427244e-01
1.036968514615836806e-01
1.020156454965952808e-01
1.002872456509500132e-01
9.851106679206420025e-02
9.668742213809999875e-02
9.481750402076828677e-02
9.290334904600289212e-02
9.094778871828468336e-02
8.895438687757431517e-02
8.692736532300268659e-02
8.487151937396297807e-02
8.279212516892454909e-02
8.069484069332953646e-02
7.858560234252505439e-02
7.647051914564194364e-02
7.435576662385534608e-02
7.224748226621030556e-02
7.015166437866071636e-02
6.807407613664949453e-02
6.602015647964355749e-02
6.399493918395524061e-02
6.200298139934330710e-02
6.004830277077571887e-02
5.813433586817345899e-02
5.626388849756179533e-02
5.443911828235841605e-02
5.266151962437665146e-02
5.093192293167009971e-02
4.925050576883812509e-02
4.761681529362937759e-02
4.602980134469177032e-02
4.448785928417322427e-02
4.298888137754409283e-02
4.153031558363252246e-02
4.010923051327754119e-02
3.872238512659976345e-02
3.736630177497526212e-02
3.603734113180007137e-02
3.473177751933224228e-02
3.344587338243069918e-02
3.217595148831665225e-02
3.091846362060967496e-02
2.967005463068889820e-02
2.842762080729766341e-02
2.718836175241355277e-02
2.594982499257037639e-02
2.470994275160178291e-02
2.346706054875100089e-02
2.221995733023788416e-02
2.096785705727476426e-02
1.971043192578895639e-02
1.844779742507508466e-02
1.718049967236337863e-02
1.590949549785069736e-02
1.463612595456390171e-02
1.336208402226308350e-02
1.208937730650068952e-02
1.082028666324779190e-02
9.557321671807979604e-03
8.303173939805320869e-03
7.060669155815151900e-03
5.832718880779194127e-03
4.622272994565441474e-03
3.432273626142438253e-03
2.265611401449774305e-03
1.125084714329798374e-03
1.336261844881790240e-05
-1.067048125220433977e-03
-2.113831359703367829e-03
-3.124885022762589112e-03
-4.098339512658985030e-03
-5.032570888760599936e-03
-5.926209024822332548e-03
-6.778140745359988346e-03
-7.587508262700447086e-03
-8.353703145714010819e-03
-9.076356337577036471e-03
-9.755324618024092953e-03
-1.039067407742929466e-02
-1.098266113889835409e-02
-1.153171172637131037e-02
-1.203839919841913873e-02
-1.250342161528144626e-02
-1.292757898504469545e-02
-1.331175093566142054e-02
-1.365687543210438760e-02
-1.396392888035213366e-02
-1.423390816578972394e-02
-1.446781482995097498e-02
-1.466664167706996889e-02
-1.483136201635254330e-02
-1.496292159623042149e-02
-1.506223332501384349e-02
-1.513017460950649359e-02
-1.516758727106842439e-02
-1.517527983264769370e-02
-1.515403189379249324e-02
-1.510460020717019521e-02
-1.502772624552265075e-02
-1.492414478260040318e-02
-1.479459311050630721e-02
-1.463982041329000075e-02
-1.446059690335354218e-02
-1.425772231789011572e-02
-1.403203336816248419e-02
-1.378440975470421673e-02
-1.351577845900525827e-02
-1.322711602484970619e-02
-1.291944864000061852e-02
-1.259384987626452172e-02
-1.225143585979739970e-02
-1.189335803906133894e-02
-1.152079356034107008e-02
-1.113493328129589073e-02
-1.073696771279140580e-02
-1.032807105478190587e-02
-9.909383686847314174e-03
-9.481993519601486162e-03
-9.046916575462225080e-03
-8.605077211392891945e-03
-8.157288409636890766e-03
-7.704232766560322257e-03
-7.246444546444880119e-03
-6.784293285275961108e-03
-6.317969464605568963e-03
-5.847472596126570242e-03
-5.372602214664620908e-03
-4.892952047291227249e-03
-4.407907664362368909e-03
-3.916647762459982834e-03
-3.418149380116975757e-03
-2.911197068734329776e-03
-2.394395907118221801e-03
-1.866188451709411590e-03
-1.324875305230759168e-03
-7.686391844482668790e-04
-1.955720808481470558e-04
3.962948140720918525e-04
1.008958872044345926e-03
1.644411961523318567e-03
2.304605168660737655e-03
2.991412768699944127e-03
3.706596232139627335e-03
4.451768787791141394e-03
5.228361098304958737e-03
6.037588830775048564e-03
6.880422684348659092e-03
7.757561298181793116e-03
8.669407737986656662e-03
9.616049978121415237e-03
1.059724577256186510e-02
1.161241225670714590e-02
1.266062061112754010e-02
1.374059580886519139e-02
1.485072165045477066e-02
1.598905108502581690e-02
1.715332169968757439e-02
1.834097615109711241e-02
1.954918734759114943e-02
2.077488801453282810e-02
2.201480413240238312e-02
2.326549181939278899e-02
2.452337707094159880e-02
2.578479769613071029e-02
2.704604680336332098e-02
2.830341727126543111e-02
2.955324627224062070e-02
3.079195929633393031e-02
3.201611287949771706e-02
3.322243539142143848e-02
3.440786516628429464e-02
3.556958544806362171e-02
3.670505544977051282e-02
3.781203719557754001e-02
3.888861752663556187e-02
3.993322509508333978e-02
4.094464193461838653e-02
4.192200951227965239e-02
4.286482922634852338e-02
4.377295721043721749e-02
4.464659372754038735e-02
4.548626722099915337e-02
4.629281344342705412e-02
4.706734989032584915e-02
4.781124620248108220e-02
4.852609076919041364e-02
4.921365436516234038e-02
4.987585137569656296e-02
5.051469921410014358e-02
5.113227673353748504e-02
5.173068223894685541e-02
5.231199198079469759e-02
5.287821962960358169e-02
5.343127753742864250e-02
5.397294041830255629e-02
5.450481209065542038e-02
5.502829571669082265e-02
5.554456806740049740e-02
5.605455826198177394e-02
5.655893131323108669e-02
5.705807671571163503e-02
5.755210214851826794e-02
5.804083247730145584e-02
5.852381393379076785e-02
5.900032340980858325e-02
5.946938259269816257e-02
5.992977668205794195e-02
6.038007738832373156e-02
6.081866962269424914e-02
6.124378152450753177e-02
6.165351715386722248e-02
6.204589123458807698e-02
6.241886539989276173e-02
6.277038523424793848e-02
6.309841734665262714e-02
6.340098596788674989e-02
6.367620823345576664e-02
6.392232773955287828e-02
6.413774555793208543e-02
6.432104832371136893e-02
6.447103276514615233e-02
6.458672630516056057e-02
6.466740344099748683e-02
6.471259755582427220e-02
6.472210793880019131e-02
6.469600193829165569e-02
6.463461223787429766e-02
6.453852928465192429e-02
6.440858900597992709e-02
6.424585611531312412e-02
6.405160319221922527e-02
6.382728609841134548e-02
6.357451596731168719e-02
6.329502841184973805e-02
6.299065048828358937e-02
6.266326599718084756e-02
6.231477965845536038e-02
6.194708093934117588e-02
6.156200804190040815e-02
6.116131277653757276e-02
6.074662693157655696e-02
6.031943069914409705e-02
5.988102376910193342e-02
5.943249949225330730e-02
5.897472274398068981e-02
5.850831162634687749e-02
5.803362358160937817e-02
5.755074603279496104e-02
5.705949174357977105e-02
5.655939900629392697e-02
5.604973656694235695e-02
5.552951331519929978e-02
5.499749255414518312e-02
5.445221053118431964e-02
5.389199906631496340e-02
5.331501176014354082e-02
5.271925339822523121e-02
5.210261210438426466e-02
5.146289359782876827e-02
5.079785704194667018e-02
5.010525199399274571e-02
4.938285562171491200e-02
4.862850973962162815e-02
4.784015707371413323e-02
4.701587603438537460e-02
4.615391350784001090e-02
4.525271521159029975e-02
4.431095297476383976e-02
4.332754866887610773e-02
4.230169434752376056e-02
4.123286826409418987e-02
4.012084660064901831e-02
3.896571074049699074e-02
3.776784996832792396e-02
3.652795962135906710e-02
3.524703476500334887e-02
3.392635954767099504e-02
3.256749244450007907e-02
3.117224761429064975e-02
2.974267288069035869e-02
2.828102455882722938e-02
2.678973966658515851e-02
2.527140601878940379e-02
2.372873068589016407e-02
2.216450735704346073e-02
2.058158318813817569e-02
1.898282567209795893e-02
1.737109010939659817e-02
1.574918816492581683e-02
1.411985800414234868e-02
1.248573650314110245e-02
1.084933396866946155e-02
9.213011774500857662e-03
7.578963143281890018e-03
5.949197403095558487e-03
4.325527868928018965e-03
2.709563515780314628e-03
1.102704539455172080e-03
-4.938582853324018172e-04
-2.079140485263371307e-03
-3.652357149106664255e-03
-5.212912782646609081e-03
-6.760388004577809473e-03
-8.294523424999193650e-03
-9.815201049674130221e-03
-1.132242358024571592e-02
-1.281629212853433418e-02
-1.429698276052314594e-02
-1.576472231951783418e-02
-1.721976397747421866e-02
-1.866236309180306294e-02
-2.009275375131971964e-02
-2.151112649223760678e-02
-2.291760757574401453e-02
-2.431224024858903709e-02
-2.569496830997861081e-02
-2.706562228594764155e-02
-2.842390841156840903e-02
-2.976940069940129177e-02
-3.110153613213431992e-02
-3.241961309649662309e-02
-3.372279304297094715e-02
-3.501010530758795480e-02
-3.628045501912487841e-02
-3.753263387568255005e-02
-3.876533358635735060e-02
-3.997716168052141417e-02
-4.116665943098077318e-02
-4.233232143196909159e-02
-4.347261650774631586e-02
-4.458600957809191745e-02
-4.567098395719947773e-02
-4.672606374348658997e-02
-4.774983583822622890e-02
-4.874097116521593220e-02
-4.969824468394790778e-02
-5.062055379681348194e-02
-5.150693488031889838e-02
-5.235657750422203355e-02
-5.316883617493550068e-02
-5.394323934056800829e-02
-5.467949553550350422e-02
-5.537749636034602213e-02
-5.603731656884157475e-02
-5.665921094253425355e-02
-5.724360814471309705e-02
-5.779110171656458295e-02
-5.830243825269785379e-02
-5.877850311394926947e-02
-5.922030382631049417e-02
-5.962895152116746977e-02
-6.000564079172887588e-02
-6.035162821711344272e-02
-6.066821006570854991e-02
-6.095669954392855111e-02
-6.121840396499619863e-02
-6.145460230745730668e-02
-6.166652355278810782e-02
-6.185532624481035469e-02
-6.202207954691216912e-02
-6.216774620126700596e-02
-6.229316763800003820e-02
-6.239905158697824084e-02
-6.248596241016048103e-02
-6.255431424180847577e-02
-6.260436708127554983e-02
-6.263622599022795889e-02
-6.264984325278159794e-02
-6.264502367096939917e-02
-6.262143273338396932e-02
-6.257860746771656824e-02
-6.251596988649275877e-02
-6.243284277677532690e-02
-6.232846749823645754e-02
-6.220202345873275529e-02
-6.205264892452549974e-02
-6.187946280306132196e-02
-6.168158707238889649e-02
-6.145816923759681027e-02
-6.120840457148053054e-02
-6.093155773714092893e-02
-6.062698335052483373e-02
-6.029414514622011972e-02
-5.993263331030698748e-02
-5.954217975916288597e-02
-5.912267104692697089e-02
-5.867415866951296993e-02
-5.819686661736091227e-02
-5.769119598831086437e-02
-5.715772651942006843e-02
-5.659721513312708507e-02
-5.601059138166238072e-02
-5.539895002447866451e-02
-5.476354064224076001e-02
-5.410575463621467018e-02
-5.342710979346940864e-02
-5.272923268092439414e-02
-5.201383910030658170e-02
-5.128271303769428580e-02
-5.053768441575379189e-02
-4.978060604282198015e-02
-4.901333017220059485e-02
-4.823768495398889078e-02
-4.745545138516906597e-02
-4.666834100487304848e-02
-4.587797476202431363e-02
-4.508586342667070257e-02
-4.429338983501109051e-02
-4.350179329431815012e-02
-4.271215643094240094e-02
-4.192539468789192869e-02
-4.114224861588595961e-02
-4.036327913253090482e-02
-3.958886590371828856e-02
-3.881920863706535968e-02
-3.805433149868547860e-02
-3.729409044028792614e-02
-3.653818344382463862e-02
-3.578616334699242368e-02
-3.503745314599661376e-02
-3.429136350839736419e-02
-3.354711218670619610e-02
-3.280384494573798659e-02
-3.206065779766669593e-02
-3.131662002008683138e-02
-3.057079769977837438e-02
-2.982227736850346159e-02
-2.907018935567262305e-02
-2.831373042081686969e-02
-2.755218541092473855e-02
-2.678494747685957605e-02
-2.601153659161193482e-02
-2.523161603606976361e-02
-2.444500659480721566e-02
-2.365169831927461594e-02
-2.285185949033138528e-02
-2.204584281032225673e-02
-2.123418865962405089e-02
-2.041762540824684780e-02
-1.959706674110931954e-02
-1.877360599827790008e-02
-1.794850769230045551e-02
-1.712319639500481383e-02
-1.629924299646864916e-02
-1.547834861798964672e-02
-1.466232652203444502e-02
-1.385308216602064955e-02
-1.305259172297967320e-02
-1.226287942659923073e-02
-1.148599411700829999e-02
-1.072398518425745836e-02
-9.978878380283166122e-03
-9.252651831485207701e-03
-8.547212539785504701e-03
-7.864373754937209124e-03
-7.205833493903527481e-03
-6.573154472108069975e-03
-5.967745732862773066e-03
-5.390846264785388413e-03
-4.843510705063464733e-03
-4.326597423162278390e-03
-3.840759007413505587e-03
-3.386435311304922084e-03
-2.963849137552340349e-03
-2.573004504750700701e-03
-2.213687500205393371e-03
-1.885469775114972718e-03
-1.587714471396485267e-03
-1.319584519826153424e-03
-1.080053160645558360e-03
-8.679164608375976179e-04
-6.818077389322146648e-04
-5.202135276514527513e-04
-3.814910021806560162e-04
-2.638865145034873004e-04
-1.655550266811150909e-04
-8.458019805785742056e-05
-1.899480978852035283e-05
3.319866236320414367e-05
7.400762903001717257e-05
1.054293041432175518e-04
1.294312730203024393e-04
1.479328216256683591e-04
1.627873227409279888e-04
1.757657481636185233e-04
1.885415384921400620e-04
2.026769607456746351e-04
2.196110392975179123e-04
2.406491208973443336e-04
2.669542487645715158e-04
2.995401977758319480e-04
3.392663450493958624e-04
3.868343464326353624e-04
4.427865710116579050e-04
5.075062367242317045e-04
5.812191856365148471e-04
6.639972318744946948e-04
7.557630424280584701e-04
8.562964210494086520e-04
9.652418075554202500e-04
1.082116962242824203e-03
1.206322748796778612e-03
1.337153748821016692e-03
1.473809600331908720e-03
1.615407102907541774e-03
1.760992692484348796e-03
1.909555379651301345e-03
2.060039863807867737e-03
2.211359786403277981e-03
2.362410971596238911e-03
2.512084473202516165e-03
2.659279491221502780e-03
2.802915842156868120e-03
2.941946008853738026e-03
3.075366644357993562e-03
3.202229473947199208e-03
3.321651438387322221e-03
3.432824083025885764e-03
3.535022042331215000e-03
3.627610699208376824e-03
3.710052832427540234e-03
3.781914245793157030e-03
3.842868331399958842e-03
3.892699563335758148e-03
3.931305863625514374e-03
3.958699845580139313e-03
3.975008916646649570e-03
3.980474205116266324e-03
3.975448372224014114e-03
3.960392254343523752e-03
3.935870452825231472e-03
3.902545755956892022e-03
3.861172570518990946e-03
3.812589356948496710e-03
3.757710077830287397e-03
3.697514842008363042e-03
3.633039762084453936e-03
3.565366043777046592e-03
3.495608517988332657e-03
3.424903611204104664e-03
3.354396988639069422e-03
3.285230903124009266e-03
3.218531422026864579e-03
3.155395664580537378e-03
3.096879149258816109e-03
3.043983457076793620e-03
2.997644274356664387e-03
2.958720022019516172e-03
2.927981190128137266e-03
2.906100555950898601e-03
2.893644323542672158e-03
2.891064418694149710e-03
2.898691963082238639e-03
2.916732051458581325e-03
2.945259941095563876e-03
2.984218780452479840e-03
3.033418796354120633e-03
3.092538083952751145e-03
3.161124979948218890e-03
3.238602027288567387e-03
3.324271475239430444e-03
3.417322317295857104e-03
3.516838780637250583e-03
3.621810246967856802e-03
3.731142323755592440e-03
3.843669113131296510e-03
3.958166459523735844e-03
4.073366005984965267e-03
4.187969899753866618e-03
4.300665993837149252e-03
4.410143290645892819e-03
4.515107487697329544e-03
4.614296360479882425e-03
4.706494797105889409e-03
4.790549236462177812e-03
4.865381442655069937e-03
4.930001265094623164e-03
4.983518300882224666e-03
5.025152282508259585e-03
5.054241988560872166e-03
5.070252591060519023e-03
5.072781350831853317e-03
5.061561555753657515e-03
5.036464577770585760e-03
4.997500139070673586e-03
4.944814718678863449e-03
4.878688158831174723e-03
4.799528418177082326e-03
4.707864676844287187e-03
4.604338823847572981e-03
4.489695481440929802e-03
4.364770699397254976e-03
4.230479480857019664e-03
4.087802386734095024e-03
3.937771338646041397e-03
3.781454869569582204e-03
3.619943058100457203e-03
3.454332378906378991e-03
3.285710638671502683e-03
3.115142270889026052e-03
2.943654188659246621e-03
2.772222437046251153e-03
2.601759804097137762e-03
2.433104569109295016e-03
2.267010544756528807e-03
2.104138604770770110e-03
1.945049725047742241e-03
1.790199695589875326e-03
1.639935570679664032e-03
1.494493777211773188e-03
1.354000061862531325e-03
1.218471093484550447e-03
1.087817795184575992e-03
9.618502127935180373e-04
8.402839352731535658e-04
7.227478612531817656e-04
6.087931997139775031e-04
4.979034985315406543e-04
3.895056021368204445e-04
2.829812682359383099e-04
1.776792631305864430e-04
7.292781393890667286e-05
-3.195290934843890359e-05
-1.376384435358869317e-04
-2.447879943362448515e-04
-3.540328992612721106e-04
-4.659657914214083768e-04
-5.811306156648927794e-04
-7.000136135930621912e-04
-8.230355012290827173e-04
-9.505448144049850716e-04
-1.082812572064466164e-03
-1.220028265137069372e-03
-1.362297293831439158e-03
-1.509639764810406532e-03
-1.661990687716461161e-03
-1.819201479054916937e-03
-1.981042763808914687e-03
-2.147208369129203608e-03
-2.317320348747836916e-03
-2.490934969817733702e-03
-2.667549544560211556e-03
-2.846609918867068316e-03
-3.027518450795779921e-03
-3.209642357064687677e-03
-3.392322285494924275e-03
-3.574880864998532335e-03
-3.756631193534605735e-03
-3.936885025257957395e-03
-4.114960547509542016e-03
-4.290189603779645013e-03
-4.461924327486258522e-03
-4.629543029687968950e-03
-4.792455278868930704e-03
-4.950106133007346580e-03
-5.101979478972016972e-03
-5.247600456248682765e-03
-5.386536989383776224e-03
-5.518400514678237223e-03
-5.642845825247111598e-03
-5.759570202667866311e-03
-5.868311905949136209e-03
-5.968848054074886618e-03
-6.060992060115268955e-03
-6.144590731612403593e-03
-6.219521097204114973e-03
-6.285687203422223382e-03
-6.343016815846080729e-03
-6.391458323709598224e-03
-6.430977922170653255e-03
-6.461557060750272585e-03
-6.483190385981853904e-03
-6.495884250626325629e-03
-6.499655721224489001e-03
-6.494532271020887933e-03
-6.480552155191152998e-03
-6.457765452808785986e-03
-6.426235717728655782e-03
-6.386042308446899726e-03
-6.337283325910780113e-03
-6.280079006337857365e-03
-6.214575588457982823e-03
-6.140949452014422133e-03
-6.059411488978277797e-03
-5.970211556852960885e-03
-5.873642898847844344e-03
-5.770046332266676875e-03
-5.659814151436373848e-03
-5.543393475702587322e-03
-5.421289022927567106e-03
-5.294065136094162558e-03
-5.162346944732203007e-03
-5.026820545064316151e-03
-4.888232080372895139e-03
-4.747385720040433327e-03
-4.605140413924533292e-03
-4.462405427968717773e-03
-4.320134612674033682e-03
-4.179319542541655615e-03
-4.040981448630445207e-03
-3.906162012246929514e-03
-3.775913196976796084e-03
-3.651286150574714704e-03
-3.533319446225623769e-03
-3.423026664113453920e-03
-3.321383628659434206e-03
-3.229315398248720857e-03
-3.147683264719163335e-03
-3.077271986208733948e-03
-3.018777441792834353e-03
-2.972794840667228929e-03
-2.939807934941736020e-03
-2.920179229379545483e-03
-2.914141463400257270e-03
-2.921790578663480478e-03
-2.943080250048560245e-03
-2.977818221105972205e-03
-3.025664461480456237e-03
-3.086131312288875952e-03
-3.158585592886616316e-03
-3.242252781829704864e-03
-3.336223253697248679e-03
-3.439460468754949006e-03
-3.550811035344708134e-03
-3.669016654181165606e-03
-3.792727703623127722e-03
-3.920518324289121170e-03
-4.050902784392330057e-03
-4.182352972959043486e-03
-4.313316703494670702e-03
-4.442236600554992469e-03
-4.567569327318913783e-03
-4.687804745139027146e-03
-4.801484928111246671e-03
-4.907222504027777127e-03
-5.003718251706526163e-03
-5.089777564617844856e-03
-5.164325526624085477e-03
-5.226420387108059867e-03
-5.275265237801564366e-03
-5.310217655910981667e-03
-5.330797156393835348e-03
-5.336690349022583241e-03
-5.327753719599905881e-03
-5.304013966694482059e-03
-5.265665819090328652e-03
-5.213067475511351696e-03
-5.146733641931677643e-03
-5.067326290321873782e-03
-4.975643252900529591e-03
-4.872604862976574747e-03
-4.759238864898997744e-03
-4.636663732544633529e-03
-4.506070799185251871e-03
-4.368705351742029237e-03
-4.225847030900505702e-03
-4.078789841065392878e-03
-3.928822147707461063e-03
-3.777206912594300876e-03
-3.625162472768277567e-03
-3.473844240903059023e-03
-3.324327548067527744e-03
-3.177591980509908084e-03
-3.034507390130188661e-03
-2.895821797093129160e-03
-2.762151397463778486e-03
-2.633972970665805595e-03
-2.511618542282075331e-03
-2.395272611666077103e-03
-2.284971870455434519e-03
-2.180607444698995281e-03
-2.081929615467605424e-03
-1.988554936399363447e-03
-1.899975595659834969e-03
-1.815570970391685050e-03
-1.734620992792568510e-03
-1.656321290548944374e-03
-1.579799718897067530e-03
-1.504134030389223759e-03
-1.428370449410483424e-03
-1.351542718441683163e-03
-1.272691429188941388e-03
-1.190883155900634201e-03
-1.105229243948811129e-03
-1.014903771233787930e-03
-9.191605293198311594e-04
-8.173485607091772985e-04
-7.089261030458968160e-04
-5.934727270934145012e-04
-4.706992940041908801e-04
-3.404557358451163179e-04
-2.027364398578400840e-04
-5.768319061843689102e-05
9.441452795571895931e-05
2.531217112798853910e-04
4.178625677565140761e-04
5.879276891054531712e-04
7.624835792429241312e-04
9.405844212285692290e-04
1.121185828095029634e-03
1.303160343389007589e-03
1.485314489958454616e-03
1.666407069761903243e-03
1.845168386820693644e-03
2.020320162225833389e-03
2.190595654814161703e-03
2.354759832634139259e-03
2.511629141321428116e-03
2.660090532462785172e-03
2.799119484678167478e-03
2.927796631574365160e-03
3.045322805997680970e-03
3.151032197019816485e-03
3.244403385444210707e-03
3.325068018666896622e-03
3.392817077683080683e-03
3.447604494622672194e-03
3.489548156846876501e-03
3.518928140852329526e-03
3.536182304105634465e-03
3.541899227893649527e-03
3.536808676383386158e-03
3.521769647408249521e-03
3.497756173997502039e-03
3.465841184375508238e-03
3.427178645456119017e-03
3.382984278868938263e-03
3.334515120303736726e-03
3.283048342835902678e-03
3.229859632615805082e-03
3.176201461389545518e-03
3.123281694231925740e-03
3.072242792516020025e-03
3.024142084431255453e-03
2.979933342781474793e-03
2.940450034812222817e-03
2.906390496370670276e-03
2.878305454723412843e-03
2.856587899891429878e-03
2.841465677435222985e-03
2.832996902856143098e-03
2.831068241565864486e-03
2.835396191192522328e-03
2.845531390400858444e-03
2.860865843315437643e-03
2.880642980498812882e-03
2.903970586506426400e-03
2.929836159633544129e-03
2.957124612663443626e-03
2.984638074998869923e-03
3.011117407026650018e-03
3.035265135973117413e-03
3.055769496256482802e-03
3.071329107069199239e-03
3.080677937838892464e-03
3.082610069196033403e-03
3.076003965094372371e-03
3.059845735404913020e-03
3.033251039230117248e-03
2.995485229281269739e-03
2.945981367631068243e-03
2.884355731003892306e-03
2.810420646359996447e-03
2.724194295371733243e-03
2.625907212917659005e-03
2.516005445179613203e-03
2.395150195857090498e-03
2.264213855569680803e-03
2.124272497093490034e-03
1.976594811589279643e-03
1.822627611990022302e-03
1.663978120395495858e-03
1.502393198171970024e-03
1.339735792270337327e-03
1.177958990038458116e-03
1.019077914419100729e-03
8.651399667963481773e-04
7.181938257190006612e-04
5.802575997932020143e-04
4.532867158106537080e-04
3.391419258750706742e-04
2.395579975267664806e-04
1.561135708554221109e-04
9.020259863943540116e-05
4.300794699232753549e-05
1.547752132889732628e-05
8.303299919316097451e-06
2.190371433257651257e-05
5.640961615391960155e-05
1.116541677721078369e-04
1.871668716236765044e-04
2.821718382933090697e-04
3.955904390135687966e-04
5.260482820903196249e-04
6.718866126989483370e-04
8.311779497463417940e-04
1.001745814746100730e-03
1.181188329759078450e-03
1.366905316130042573e-03
1.556128649570337127e-03
1.745955443287810745e-03
1.933383583452220455e-03
2.115349201624526845e-03
2.288765541209694578e-03
2.450562642414368109e-03
2.597727332496058660e-03
2.727342920613810232e-03
2.836628100762928276e-03
2.922974459478978795e-03
2.983982090154952121e-03
3.017492705194755546e-03
3.021619941480082391e-03
2.994776256536148436e-03
2.935696129232679037e-03
2.843455165676112093e-03
2.717484887254032009e-03
2.557582962718732075e-03
2.363918740407918145e-03
2.137033956602599205e-03
1.877838697721856149e-03
1.587602557506987864e-03
1.267941256623768970e-03
9.207987887693400066e-04
5.484253738957061254e-04
1.533515980421212529e-04
-2.616409507826450475e-04
-6.935521480499657904e-04
-1.139198422367957353e-03
-1.595249977413473698e-03
-2.058269667604441504e-03
-2.524752932040686716e-03
-2.991168319966921660e-03
-3.453998057930090636e-03
-3.909778122453430246e-03
-4.355137216222952114e-03
-4.786834293424318924e-03
-5.201794068198470344e-03
-5.597140135293851224e-03
-5.970225305728396603e-03
-6.318658856295287715e-03
-6.640330349625491596e-03
-6.933429845124461366e-03
-7.196464270811043368e-03
-7.428270002050133339e-03
-7.628021355921362281e-03
-7.795235262788521163e-03
-7.929772067262317106e-03
-8.031832482575794463e-03
-8.101951052146170659e-03
-8.140986177248659555e-03
-8.150107033960575856e-03
-8.130777628145440666e-03
-8.084738335521568162e-03
-8.013985261559053441e-03
-7.920747752044860965e-03
-7.807464346711551033e-03
-7.676757639998975889e-03
-7.531408287232707090e-03
-7.374328569514531327e-03
-7.208535744007920666e-03
-7.037125516617112782e-03
-6.863245886413034576e-03
-6.690071612483376208e-03
-6.520779506354760190e-03
-6.358524575232487458e-03
-6.206417281168593279e-03
-6.067501969159039797e-03
-5.944736476134810342e-03
-5.840972994605688438e-03
-5.758940033049374588e-03
-5.701225584832870369e-03
-5.670261409533430830e-03
-5.668308312935386312e-03
-5.697442331303362827e-03
-5.759541717802831896e-03
-5.856274694165060357e-03
-5.989087776597177767e-03
-6.159194684337889955e-03
-6.367565674905172057e-03
-6.614917373168243374e-03
-6.901703009555679516e-03
-7.228103082733260826e-03
-7.594016502725271442e-03
-7.999052245110483544e-03
-8.442521751612816830e-03
-8.923432177510546431e-03
-9.440480569362079410e-03
-9.992049277153825307e-03
-1.057620280758534738e-02
-1.119068639450620378e-02
-1.183292659843916163e-02
-1.250003413127000196e-02
-1.318880926546756732e-02
-1.389575000512436286e-02
-1.461706343794816863e-02
-1.534868042042071556e-02
-1.608627379213886308e-02
-1.682528026396627741e-02
-1.756092619710310221e-02
-1.828825726488642750e-02
-1.900217198337328037e-02
-1.969745906501491409e-02
-2.036883846361368239e-02
-2.101100591779804169e-02
-2.161868058631244427e-02
-2.218665544879522972e-02
-2.270984999195604231e-02
-2.318336467670402759e-02
-2.360253660247435201e-02
-2.396299558286918777e-02
-2.426071997329356383e-02
-2.449209150033469437e-02
-2.465394823571487662e-02
-2.474363487508762782e-02
-2.475904944129991153e-02
-2.469868568554848404e-02
-2.456167026368477613e-02
-2.434779390296607643e-02
-2.405753588872152834e-02
-2.369208117002321104e-02
-2.325332948268475641e-02
-2.274389595507168502e-02
-2.216710291367732233e-02
-2.152696265825421867e-02
-2.082815088898003208e-02
-2.007597097894410140e-02
-1.927630916963429461e-02
-1.843558098120795866e-02
-1.756066927445714548e-02
-1.665885464975562849e-02
-1.573773878048831745e-02
-1.480516167471093540e-02
-1.386911375563596935e-02
-1.293764396224661092e-02
-1.201876501994846198e-02
-1.112035718272664717e-02
-1.025007183009058950e-02
-9.415236207169493804e-03
-8.622760834192270962e-03
-7.879050921066076130e-03
-7.189923136674291650e-03
-6.560529188301108053e-03
-5.995287352673754101e-03
-5.497823062710962064e-03
-5.070919766839995270e-03
-4.716480831041975144e-03
-4.435503162265019492e-03
-4.228063283116753786e-03
-4.093316138673972100e-03
-4.029506818127047418e-03
-4.033995152004516901e-03
-4.103293026982741606e-03
-4.233113916687345976e-03
-4.418434012657525799e-03
-4.653564105037843665e-03
-4.932231152458702375e-03
-5.247668440745343471e-03
-5.592712906193806309e-03
-5.959908172747598216e-03
-6.341611649278244486e-03
-6.730104127045099908e-03
-7.117700006980275107e-03
-7.496856493444978981e-03
-7.860279996089472587e-03
-8.201027948294876274e-03
-8.512604476755286295e-03
-8.789048335217829883e-03
-9.025011577430453596e-03
-9.215827787667909415e-03
-9.357568720711677973e-03
-9.447088392938668769e-03
-9.482053972339343426e-03
-9.460962907399029023e-03
-9.383146179055697547e-03
-9.248757558572615056e-03
-9.058749184936241289e-03
-8.814833945436653662e-03
-8.519435369770875927e-03
-8.175626034967660785e-03
-7.787055632104664810e-03
-7.357870018158801581e-03
-6.892622823676057206e-03
-6.396181280998876860e-03
-5.873627999087098830e-03
-5.330160597976447458e-03
-4.770990982589469985e-03
-4.201246289816446509e-03
-3.625873265703684258e-03
-3.049547959928451506e-03
-2.476592375209341577e-03
-1.910899719159951183e-03
-1.355869567330814270e-03
-8.143542139671051993e-04
-2.886172295003429562e-04
2.196950279985959579e-04
7.095685572785632956e-04
1.180623047731500829e-03
1.633099623593958208e-03
2.067835258789544554e-03
2.486224356758453494e-03
2.890168482661851709e-03
3.282015241273314368e-03
3.664487549765057389e-03
4.040604978757773337e-03
4.413598840215143468e-03
4.786822656135491030e-03
5.163660165273323277e-03
5.547432785759402567e-03
5.941308576226092195e-03
6.348214702656241812e-03
6.770755479770751602e-03
7.211137734230251527e-03
7.671105275709673085e-03
8.151884051939495973e-03
8.654139319786617254e-03
9.177946008405341721e-03
9.722773012300641934e-03
1.028748211880464551e-02
1.087034172094519108e-02
1.146905533282460699e-02
1.208080448555938664e-02
1.270230531925935907e-02
1.332987793237782291e-02
1.395952710747246431e-02
1.458703296260576224e-02
1.520804963156468202e-02
1.581820998614562671e-02
1.641323421365917593e-02
1.698903989612016510e-02
1.754185123651883990e-02
1.806830492019050396e-02
1.856555020346100857e-02
1.903134084032556336e-02
1.946411656936122142e-02
1.986307207186444393e-02
2.022821153728355387e-02
2.056038707797969850e-02
2.086131971265604498e-02
2.113360197707253238e-02
2.138068135240145384e-02
2.160682437208454043e-02
2.181706143838974682e-02
2.201711285818407082e-02
2.221329704691868759e-02
2.241242231531239207e-02
2.262166387665078687e-02
2.284842810881427405e-02
2.310020662220318988e-02
2.338442272307951139e-02
2.370827328544829887e-02
2.407856909234580914e-02
2.450157706955266926e-02
2.498286761971795292e-02
2.552717055083581280e-02
2.613824292238391134e-02
2.681875202413796025e-02
2.757017642129795318e-02
2.839272799342820383e-02
2.928529733350155456e-02
3.024542473219215058e-02
3.126929839862187949e-02
3.235178110683509245e-02
3.348646603283526174e-02
3.466576201782438360e-02
3.588100783001913624e-02
3.712261463369097292e-02
3.838023507161859166e-02
3.964295701180424458e-02
4.089951937377463848e-02
4.213854693549826808e-02
4.334880065579138630e-02
4.451943950331093552e-02
4.564028953780286529e-02
4.670211557581201156e-02
4.769689075547187129e-02
4.861805895150366624e-02
4.946078501231170044e-02
5.022218794368047551e-02
5.090155213386469979e-02
5.150051194701103091e-02
5.202320533905865907e-02
5.247639255505336803e-02
5.286953630360830686e-02
5.321484044878230235e-02
5.352724488112179518e-02
5.382437462497135366e-02
5.412644223444940811e-02
5.445610311433508183e-02
5.483826423217021129e-02
5.529984724495843468e-02
5.586950814866053355e-02
5.657731599488345642e-02
5.745439417970060747e-02
5.853252840571206150e-02
5.984374593226169520e-02
6.141987147056567065e-02
6.329206549934571213e-02
6.549035120637745899e-02
6.804313651206969626e-02
7.097673796768520782e-02
7.431491327157484228e-02
7.807840938367845152e-02
8.228453288703421742e-02
8.694674926568098094e-02
9.207431720696135358e-02
9.767196385889462262e-02
1.037396062859748669e-01
1.102721239573381529e-01
1.172591862479644143e-01
1.246851381533808367e-01
1.325289469337252724e-01
1.407642110756857357e-01
1.493592325658444631e-01
1.582771521633100087e-01
1.674761466628269246e-01
1.769096862676142468e-01
1.865268492025600189e-01
1.962726899150842585e-01
2.060886565304781981e-01
2.159130523352963404e-01
2.256815356694345798e-01
2.353276518600552203e-01
2.447833904139388728e-01
2.539797606218779369e-01
2.628473780601123799e-01
2.713170547348811024e-01
2.793203854281309240e-01
2.867903229824973477e-01
2.936617355042538402e-01
2.998719387105579504e-01
3.053611973505278021e-01
3.100731898681035603e-01
3.139554312474174824e-01
3.169596496588422130e-01
3.190421134256686275e-01
3.201639054130232531e-01
3.202911429344069694e-01
3.193951421183409689e-01
3.174525265307259758e-01
3.144452807818489681e-01
3.103607506066359267e-01
3.051915917080229024e-01
2.989356705242170453e-01
2.915959206258910141e-01
2.831801589895121540e-01
2.737008672494631867e-01
2.631749430319021976e-01
2.516234270529036365e-01
2.390712118007154441e-01
2.255467376853594608e-01
2.110816825318066470e-01
1.957106502452760910e-01
1.794708641753521849e-01
1.624018703626129434e-01
1.445452554270339751e-01
1.259443833449773176e-01
1.066441547731725725e-01
8.669079187972958400e-02
6.613165104081412948e-02
4.501506490241389408e-02
2.339021445917986719e-02
1.307031276685227845e-03
-2.118387095842126297e-02
-4.403123723196152028e-02
-6.718318646507871750e-02
-9.058720422695298868e-02
-1.141901164518671491e-01
-1.379380481161286975e-01
-1.617763714890221860e-01
-1.856496486385190159e-01
-2.095015733228480226e-01
-2.332749174831705852e-01
-2.569114874602462240e-01
-2.803520950340805395e-01
-3.035365482895345801e-01
-3.264036667997490260e-01
-3.488913252570879364e-01
-3.709365292713994733e-01
-3.924755263777207626e-01
-4.134439545575774311e-01
-4.337770298883543707e-01
-4.534097741439065965e-01
-4.722772823797253272e-01
-4.903150295797366609e-01
-5.074592145718002101e-01
-5.236471386681091911e-01
-5.388176156024444552e-01
-5.529114085508092247e-01
-5.658716892623499861e-01
-5.776445137824960385e-01
-5.881793086065466580e-01
-5.974293605050879918e-01
-6.053523030635007407e-01
-6.119105927534163047e-01
-6.170719670254634082e-01
-6.208098770299931290e-01
-6.231038876839085638e-01
-6.239400379827720888e-01
-6.233111549274618080e-01
-6.212171147825202855e-01
-6.176650460253667596e-01
-6.126694692403102938e-01
-6.062523696430691666e-01
-5.984431991525800409e-01
-5.892788056067902458e-01
-5.788032879755360405e-01
-5.670677771544579970e-01
-5.541301432903780189e-01
-5.400546314546799120e-01
-5.249114285484954845e-01
-5.087761654530892352e-01
-4.917293593635658766e-01
-4.738558019219303863e-01
-4.552439000252760382e-01
-4.359849765042850822e-01
-4.161725387657532749e-01
-3.959015239535446651e-01
-3.752675294264734562e-01
-3.543660378610611894e-01
-3.332916460696905281e-01
-3.121373070613362444e-01
-2.909935942729524050e-01
-2.699479968778273897e-01
-2.490842546203923535e-01
-2.284817400907225293e-01
-2.082148955331353801e-01
-1.883527307204136414e-01
-1.689583875611652963e-01
-1.500887759856594228e-01
-1.317942847656755345e-01
-1.141185699988306324e-01
-9.709842267625178047e-02
-8.076371570079141082e-02
-6.513742981374180674e-02
-5.023575649813925847e-02
-3.606827520952864824e-02
-2.263820100070483912e-02
-9.942697782684568539e-03
2.026748202114206972e-03
1.328390119905638496e-02
2.384730199434672085e-02
3.373975475152913434e-02
4.298778253339462230e-02
5.162105981387785786e-02
5.967183036385524664e-02
6.717431897689660203e-02
7.416414534701819272e-02
8.067774832007605645e-02
8.675182819049020999e-02
9.242281452256381757e-02
9.772636615392638060e-02
1.026969095533115661e-01
1.073672210021319878e-01
1.117680570970329551e-01
1.159278373586466182e-01
1.198723818339411523e-01
1.236247054733888712e-01
1.272048703400764924e-01
1.306298957379374293e-01
1.339137253411970541e-01
1.370672495445245109e-01
1.400983805254004400e-01
1.430121766730480526e-01
1.458110123788025070e-01
1.484947884259485429e-01
1.510611779121885934e-01
1.535059020393018947e-01
1.558230299853547440e-01
1.580052964640987212e-01
1.600444309268537757e-01
1.619314920803144320e-01
1.636572015035523409e-01
1.652122704936992148e-01
1.665877143372126445e-01
1.677751488668658419e-01
1.687670644248618068e-01
1.695570728623394252e-01
1.701401239926751408e-01
1.705126883658804604e-01
1.706729039913842949e-01
1.706206853449378502e-01
1.703577936743020660e-01
1.698878683938061240e-01
1.692164198962702870e-01
1.683507850515350290e-01
1.673000470423868236e-01
1.660749219168740909e-01
1.646876147185859229e-01
1.631516485370009539e-01
1.614816703271062803e-01
1.596932374520493025e-01
1.578025893919901834e-01
1.558264090962708792e-01
1.537815785012100478e-01
1.516849327846581663e-01
1.495530179536909976e-01
1.474018560679273560e-01
1.452467221627634086e-01
1.431019367184091506e-01
1.409806771278485082e-01
1.388948111337645619e-01
1.368547548797025559e-01
1.348693576216118128e-01
1.329458147275596747e-01
1.310896098866106141e-01
1.293044870308379113e-01
1.275924520215841185e-01
1.259538034082383351e-01
1.243871911848099254e-01
1.228897020190950207e-01
1.214569689430670674e-01
1.200833031552865082e-01
1.187618451487895826e-01
1.174847321373609782e-01
1.162432785598792040e-01
1.150281663717284131e-01
1.138296414350509350e-01
1.126377126407785700e-01
1.114423501011685275e-01
1.102336791241623065e-01
1.090021666274341161e-01
1.077387969128785206e-01
1.064352340048456969e-01
1.050839680532033998e-01
1.036784436426134159e-01
1.022131681123900210e-01
1.006837985184001194e-01
9.908720617412664078e-02
9.742151820856194411e-02
9.568613583455920502e-02
9.388172967347824249e-02
9.201021272786220895e-02
9.007469196903500341e-02
8.807939988924090580e-02
8.602960764633584001e-02
8.393152180752459779e-02
8.179216686620291443e-02
7.961925594758524627e-02
7.742105209157768009e-02
7.520622295180877381e-02
7.298369150469109778e-02
7.076248543349149267e-02
6.855158796293228662e-02
6.635979263583922927e-02
6.419556439095963629e-02
6.206690941964999181e-02
5.998125569311716504e-02
5.794534599648531320e-02
5.596514512594463753e-02
5.404576246433381165e-02
5.219139087057877296e-02
5.040526261494025773e-02
4.868962277402797550e-02
4.704571992109833622e-02
4.547381400117420092e-02
4.397320085463079370e-02
4.254225247768399221e-02
4.117847198823827021e-02
3.987856192795916077e-02
3.863850443338306268e-02
3.745365161843011714e-02
3.631882433556592876e-02
3.522841742237205892e-02
3.417650939107514524e-02
3.315697462228001796e-02
3.216359613431058612e-02
3.119017689974838345e-02
3.023064788153143057e-02
2.927917103355426667e-02
2.833023563254191343e-02
2.737874648302704786e-02
2.642010276346538206e-02
2.545026636382459809e-02
2.446581887457779936e-02
2.346400659421355242e-02
2.244277306630543256e-02
2.140077907887772551e-02
2.033741000224648446e-02
1.925277076148736166e-02
1.814766894068746764e-02
1.702358661470750392e-02
1.588264166995474388e-02
1.472753965284044966e-02
1.356151718884537373e-02
1.238827823468681075e-02
1.121192434074615510e-02
1.003688037891671027e-02
8.867817111963625931e-03
7.709571908016023614e-03
6.567069038418486306e-03
5.445240826580302097e-03
4.348951007717105806e-03
3.282921451714587019e-03
2.251663289553202697e-03
1.259413491174207452e-03
3.100776766069829175e-04
-5.928200834860210267e-04
-1.446180012757241912e-03
-2.247361390819816417e-03
-2.994209135759527598e-03
-3.685072101230267832e-03
-4.318813111765465278e-03
-4.894810915454172844e-03
-5.412954393261189441e-03
-5.873629446180301042e-03
-6.277699053685690742e-03
-6.626477156819374735e-03
-6.921697095198004086e-03
-7.165475304164820210e-03
-7.360271175987160436e-03
-7.508843871236008972e-03
-7.614206893927318552e-03
-7.679581404757206478e-03
-7.708348917631216088e-03
-7.704004331344209422e-03
-7.670109883165907201e-03
-7.610250870096440905e-03
-7.527993668744105416e-03
-7.426846571215001483e-03
-7.310223885274079111e-03
-7.181413676526605776e-03
-7.043549400900526829e-03
-6.899585723641719209e-03
-6.752278428359479411e-03
-6.604168455509402437e-03
-6.457570093110531588e-03
-6.314563096175938341e-03
-6.176988468699973374e-03
-6.046447662711167993e-03
-5.924304831486632179e-03
-5.811691775463251677e-03
-5.709515255476502876e-03
-5.618466069720765531e-03
-5.539029573033925867e-03
-5.471497153010258623e-03
-5.415978369560734557e-03
-5.372413212883011061e-03
-5.340584214203754343e-03
-5.320128074065154540e-03
-5.310546443779885425e-03
-5.311215729441958432e-03
-5.321395724181627457e-03
-5.340236932961180474e-03
-5.366786550295585267e-03
-5.399993056612193733e-03
-5.438709544035419050e-03
-5.481695762668512516e-03
-5.527619135609757040e-03
-5.575054984407985109e-03
-5.622486067788062813e-03
-5.668301783185034776e-03
-5.710797350320495798e-03
-5.748173144705694994e-03
-5.778534616555112621e-03
-5.799893014278583933e-03
-5.810167246518236142e-03
-5.807187163219579458e-03
-5.788698438637299333e-03
-5.752369343528108102e-03
-5.695799519053110910e-03
-5.616530902735676796e-03
-5.512060914097953630e-03
-5.379857838153176246e-03
-5.217378421419149523e-03
-5.022087563861318479e-03
-4.791480040431414164e-03
-4.523103952886792581e-03
-4.214585676552716487e-03
-3.863656027813076963e-03
-3.468177288251114623e-03
-3.026170699959206383e-03
-2.535844012383177155e-03
-1.995618634535920987e-03
-1.404155929548039266e-03
-7.603822024741984167e-04
-6.351193557423827514e-05
6.869312425497909073e-04
1.491096164659175098e-03
2.348788894637087159e-03
3.259460877108371658e-03
4.222200857663373219e-03
5.235730817223910143e-03
6.298406217335654998e-03
7.408220625213108798e-03
8.562814760787934576e-03
9.759490146657398904e-03
1.099522724252684214e-02
1.226670785121084309e-02
1.357034169176145506e-02
1.490229687527907035e-02
1.625853386361583025e-02
1.763484263346166633e-02
1.902688249710040441e-02
2.043022411825083651e-02
2.184039319583686370e-02
2.325291513617028585e-02
2.466336024255834369e-02
2.606738874465956354e-02
2.746079486003514397e-02
2.883954953600943033e-02
3.019984112576366148e-02
3.153811330786597533e-02
3.285109984620827178e-02
3.413585558011022342e-02
3.538978317692455938e-02
3.661065529952128167e-02
3.779663172378718017e-02
3.894627118220697626e-02
4.005853776443433351e-02
4.113280180097553251e-02
4.216883507359936445e-02
4.316680042008994023e-02
4.412723596573284168e-02
4.505103414224309599e-02
4.593941576986081826e-02
4.679389958868258870e-02
4.761626767135637012e-02
4.840852727697844693e-02
4.917286959056931667e-02
4.991162617635241244e-02
5.062722358755138152e-02
5.132213692936291732e-02
5.199884295851353588e-02
5.265977359432764959e-02
5.330727045022576327e-02
5.394354099980706863e-02
5.457061722974086010e-02
5.519031726831421375e-02
5.580421062488739176e-02
5.641358757145163022e-02
5.701943312747152076e-02
5.762240603704657516e-02
5.822282306334976981e-02
5.882064878681908526e-02
5.941549117067120717e-02
6.000660287927792741e-02
6.059288835251810251e-02
6.117291648528639519e-02
6.174493871863896699e-02
6.230691225075768447e-02
6.285652799627643172e-02
6.339124280777418130e-02
6.390831558025690529e-02
6.440484648994232453e-02
6.487781881915705151e-02
6.532414272745684647e-02
6.574070023233030691e-02
6.612439063361220948e-02
6.647217578841775609e-02
6.678112440016185924e-02
6.704845467033224149e-02
6.727157455215942994e-02
6.744811905886764769e-02
6.757598402522849157e-02
6.765335573663484869e-02
6.767873597353897541e-02
6.765096203304901690e-02
6.756922153595461278e-02
6.743306168349152974e-02
6.724239284737298927e-02
6.699748641466336807e-02
6.669896705579317353e-02
6.634779940275610521e-02
6.594526942921655199e-02
6.549296092691414550e-02
6.499272734765484949e-02
6.444665955541305224e-02
6.385705005865975614e-02
6.322635426288321370e-02
6.255714942593343375e-02
6.185209203384484794e-02
6.111387429064703974e-02
6.034518043661683123e-02
5.954864359645439809e-02
5.872680406063392894e-02
5.788206954020776868e-02
5.701667812477268643e-02
5.613266459461476593e-02
5.523183062915743707e-02
5.431571950404767701e-02
5.338559563298226479e-02
5.244242929709968387e-02
5.148688697409026238e-02
5.051932735320213697e-02
4.953980310093970829e-02
4.854806845010494615e-02
4.754359236414898437e-02
4.652557727054521669e-02
4.549298293952080963e-02
4.444455513684679449e-02
4.337885861535837467e-02
4.229431385316834158e-02
4.118923699603600080e-02
4.006188232659972648e-02
3.891048647781170794e-02
3.773331377000981729e-02
3.652870168134145223e-02
3.529510600880555321e-02
3.403114470171649669e-02
3.273563960966314329e-02
3.140765554985460589e-02
3.004653589639333031e-02
2.865193408413719764e-02
2.722384051556050663e-02
2.576260429290997550e-02
2.426894930951566456e-02
2.274398454773721504e-02
2.118920821040522554e-02
1.960650558903322127e-02
1.799814062993815647e-02
1.636674128018112198e-02
1.471527870519913350e-02
1.304704080420779171e-02
1.136560019650208024e-02
9.674777310297189709e-03
7.978598995696277105e-03
6.281253301409474299e-03
4.587041133932989734e-03
2.900325450498658815e-03
1.225478827708580826e-03
-4.331698159734225233e-04
-2.071388574896314977e-03
-3.685095045340854979e-03
-5.270407265516521486e-03
-6.823692168065068064e-03
-8.341610985278918519e-03
-9.821160737821868492e-03
-1.125971120560970845e-02
-1.265503682138662336e-02
-1.400534295646525297e-02
-1.530928620788353338e-02
-1.656598832093056362e-02
-1.777504361114767492e-02
-1.893651967406459816e-02
-2.005095141329055197e-02
-2.111932847687098685e-02
-2.214307631832214754e-02
-2.312403106757177779e-02
-2.406440865289380046e-02
-2.496676877942926795e-02
-2.583397405215827336e-02
-2.666914510520436779e-02
-2.747561234866218588e-02
-2.825686499042728492e-02
-2.901649815081498024e-02
-2.975815897243650268e-02
-3.048549243687241270e-02
-3.120208761115355819e-02
-3.191142536264704455e-02
-3.261682811060228476e-02
-3.332141245767418491e-02
-3.402804532839952961e-02
-3.473930429409787662e-02
-3.545744258586853298e-02
-3.618435926311867890e-02
-3.692157500703310835e-02
-3.767021385796592153e-02
-3.843099096566810619e-02
-3.920420656275963589e-02
-3.998974611184493572e-02
-4.078708663247702232e-02
-4.159530900610029086e-02
-4.241311590626549444e-02
-4.323885503361783733e-02
-4.407054727401078786e-02
-4.490591920962517386e-02
-4.574243943226821707e-02
-4.657735802633720251e-02
-4.740774856782921376e-02
-4.823055195721974442e-02
-4.904262129851811453e-02
-4.984076724433969541e-02
-5.062180296512036604e-02
-5.138258810741497956e-02
-5.212007099328520854e-02
-5.283132859237509721e-02
-5.351360351583138442e-02
-5.416433754810889845e-02
-5.478120131163446288e-02
-5.536211966747011520e-02
-5.590529253804245313e-02
-5.640921084229547772e-02
-5.687266747605952688e-02
-5.729476327846150935e-02
-5.767490802075950218e-02
-5.801281646762857652e-02
-5.830849972025228117e-02
-5.856225210834890837e-02
-5.877463401538002286e-02
-5.894645093345590031e-02
-5.907872926108069522e-02
-5.917268933617471360e-02
-5.922971619626797579e-02
-5.925132865873512095e-02
-5.923914735625991634e-02
-5.919486220214068700e-02
-5.912019990274604980e-02
-5.901689212148922281e-02
-5.888664483121321819e-02
-5.873110934721852833e-02
-5.855185557104162358e-02
-5.835034771469789494e-02
-5.812792308390599821e-02
-5.788577411110210763e-02
-5.762493396685017255e-02
-5.734626580797627660e-02
-5.705045586676840697e-02
-5.673801039145429104e-02
-5.640925647160707074e-02
-5.606434664218971908e-02
-5.570326695060445060e-02
-5.532584851880268523e-02
-5.493178206582424727e-02
-5.452063530070809516e-02
-5.409187268049181485e-02
-5.364487711947864973e-02
-5.317897332494162660e-02
-5.269345224242490827e-02
-5.218759607847263393e-02
-5.166070357195941265e-02
-5.111211487354143379e-02
-5.054123577947744472e-02
-4.994756073721300788e-02
-4.933069428199351319e-02
-4.869037058801050505e-02
-4.802647067827943428e-02
-4.733903714719545769e-02
-4.662828610404982227e-02
-4.589461615036535824e-02
-4.513861428240695250e-02
-4.436105858452066980e-02
-4.356291782671921353e-02
-4.274534790261524247e-02
-4.190968525792862498e-02
-4.105743742203265406e-02
-4.019027085069296068e-02
-3.930999631758474999e-02
-3.841855208206797212e-02
-3.751798518697975482e-02
-3.661043113584035863e-02
-3.569809238560364001e-02
-3.478321596471917881e-02
-3.386807056581022518e-02
-3.295492355322565681e-02
-3.204601815456981084e-02
-3.114355112336213843e-02
-3.024965139330424574e-02
-2.936635977737028780e-02
-2.849561020767690106e-02
-2.763921262874435500e-02
-2.679883776612784416e-02
-2.597600388936826404e-02
-2.517206578530966840e-02
-2.438820598870400022e-02
-2.362542829638338698e-02
-2.288455362082586139e-02
-2.216621805159380010e-02
-2.147087308940354156e-02
-2.079878800664084967e-02
-2.015005418650533606e-02
-1.952459124512812352e-02
-1.892215476065266938e-02
-1.834234539632594724e-02
-1.778461931266444099e-02
-1.724829951328644972e-02
-1.673258795485439362e-02
-1.623657824447459486e-02
-1.575926865776378777e-02
-1.529957529999117008e-02
-1.485634520254518025e-02
-1.442836921632691984e-02
-1.401439444469160939e-02
-1.361313624410041487e-02
-1.322328959787187445e-02
-1.284353978210402494e-02
-1.247257226965986336e-02
-1.210908187180190741e-02
-1.175178109792695408e-02
-1.139940769860232558e-02
-1.105073149504107351e-02
-1.070456053016338553e-02
-1.035974656965831658e-02
-1.001519010504328851e-02
-9.669844845233279557e-03
-9.322721829918325862e-03
-8.972893364249938386e-03
-8.619496749647745718e-03
-8.261737913062347852e-03
-7.898895047038752629e-03
-7.530322298138010691e-03
-7.155453588082750019e-03
-6.773806503172615824e-03
-6.384986392880884556e-03
-5.988690622199760102e-03
-5.584712875959777292e-03
-5.172947595496171259e-03
-4.753394332055434560e-03
-4.326162056833892343e-03
-3.891473242378261886e-03
-3.449667607009146517e-03
-3.001205370139372122e-03
-2.546669913185666077e-03
-2.086769629477077271e-03
-1.622338906990185726e-03
-1.154337999243244426e-03
-6.838516580003800626e-04
-2.120863495047557593e-04
2.596339545635535260e-04
7.298735922300842241e-04
1.197092721738038552e-03
1.659656534905463044e-03
2.115846311972990196e-03
2.563872182441538465e-03
3.001887537216091015e-03
3.428005184365734079e-03
3.840314979749136909e-03
4.236902827108467509e-03
4.615870947731401386e-03
4.975359060636160534e-03
5.313566390424021707e-03
5.628774023191047624e-03
5.919367559240024980e-03
6.183859514273282697e-03
6.420911275625843830e-03
6.629354187927967088e-03
6.808209501586968970e-03
6.956706755634390997e-03
7.074300267972544708e-03
7.160683486639961987e-03
7.215800795383986617e-03
7.239856500735826310e-03
7.233320850593636005e-03
7.196932791389697333e-03
7.131699272625778747e-03
7.038891122607175525e-03
6.920035261740233382e-03
6.776903328578343273e-03
6.611496756729086204e-03
6.426028331851263778e-03
6.222900502726442899e-03
6.004680567292663453e-03
5.774073045523260735e-03
5.533889520732955189e-03
5.287016362978205937e-03
5.036380710425988026e-03
4.784915182687419707e-03
4.535521749640269822e-03
4.291035333804437552e-03
4.054187610182281333e-03
3.827571576919843593e-03
3.613607403670491148e-03
3.414510047749948034e-03
3.232259257328948861e-03
3.068572312539436919e-03
2.924879984402095449e-03
2.802306219163597928e-03
2.701651807595753518e-03
2.623382399027829499e-03
2.567621071641088860e-03
2.534145685773578349e-03
2.522391074466172507e-03
2.531456175912558896e-03
2.560116056854901297e-03
2.606838678883476555e-03
2.669806285488350670e-03
2.746941124341603559e-03
2.835935153188038575e-03
2.934283450507505636e-03
3.039320702013578648e-03
3.148260460000842052e-03
3.258236508645693131e-03
3.366345724776027143e-03
3.469691903316196591e-03
3.565429901390633309e-03
3.650809385572024047e-03
3.723217525016325573e-03
3.780220031253409951e-03
3.819599964678989813e-03
3.839393595253331841e-03
3.837922872794466596e-03
3.813823851344056923e-03
3.766070823060270380e-03
3.693995593453480632e-03
3.597301621644421500e-03
3.476072796746677938e-03
3.330776635731052572e-03
3.162261898523760148e-03
2.971750514541837088e-03
2.760824005254819847e-03
2.531404529525065842e-03
2.285730705347446823e-03
2.026328670064107048e-03
1.755978736258828046e-03
1.477678073643136141e-03
1.194600007335682281e-03
9.100504844246095053e-04
6.274223624662928584e-04
3.501481142867639133e-04
8.165172103728655332e-05
-1.746995547722021919e-04
-4.156429134370901021e-04
-6.380664052350207369e-04
-8.390533634794065986e-04
-1.015924216055558507e-03
-1.166275151883497570e-03
-1.288012901065330477e-03
-1.379385202088223225e-03
-1.439006502021390223e-03
-1.465878549684559475e-03
-1.459405501908234582e-03
-1.419403369476255651e-03
-1.346103641464579124e-03
-1.240151097955818904e-03
-1.102595807703487911e-03
-9.348793686340173053e-04
-7.388156962106648363e-04
-5.165667154669654993e-04
-2.706131408564601821e-04
-3.720995707344529618e-06
2.810958158006544925e-04
5.806161654636119406e-04
8.914551061529643302e-04
1.210109255631192657e-03
1.533003562105501047e-03
1.856538772744304334e-03
2.177138771253236092e-03
2.491297211836407746e-03
2.795622722294984885e-03
3.086881995800392752e-03
3.362040167297920476e-03
3.618297993407482496e-03
3.853125111561998568e-03
4.064289035256051993e-03
4.249879434322277605e-03
4.408327434600784259e-03
4.538419672993988796e-03
4.639306927462697079e-03
4.710507217003061416e-03
4.751903428815723411e-03
4.763735598902725868e-03
4.746587910237401974e-03
4.701370724769620910e-03
4.629297997515552029e-03
4.531860412403703603e-03
4.410794727448834676e-03
4.268049889793263697e-03
4.105750402684964391e-03
3.926157589864079887e-03
3.731629403104562512e-03
3.524579410411021480e-03
3.307435606331155485e-03
3.082599723134285194e-03
2.852407696688593480e-03
2.619091830299472012e-03
2.384745381873359070e-03
2.151290052937229400e-03
1.920446804228689418e-03
1.693710576479333417e-03
1.472329189962923515e-03
1.257286845164967996e-03
1.049292371069428719e-03
8.487724030262318786e-04
6.558695744297287234e-04
4.704457455780027648e-04
2.920901899175095111e-04
1.201325673350553261e-04
-4.633958811286687575e-05
-2.084590643109701820e-04
-3.675533258686346032e-04
-5.251154084764406496e-04
-6.827718207678237002e-04
-8.422480114473804551e-04
-1.005332013594242542e-03
-1.173836786723935930e-03
-1.349561933856797654e-03
-1.534255334352152729e-03
-1.729575399927592034e-03
-1.937054609432390523e-03
-2.158064761682604044e-03
-2.393784681503403552e-03
-2.645170804129529530e-03
-2.912931246940171984e-03
-3.197503623325909095e-03
-3.499037163729109678e-03
-3.817379317106340403e-03
-4.152067169449062158e-03
-4.502323749642721945e-03
-4.867059401573305827e-03
-5.244878247567322238e-03
-5.634089608700944794e-03
-6.032724256922939246e-03
-6.438555286129455518e-03
-6.849123413527185948e-03
-7.261766258485865752e-03
-7.673651208102822384e-03
-8.081811401585137916e-03
-8.483184371316591574e-03
-8.874652782810648136e-03
-9.253086520724613379e-03
-9.615385766784065660e-03
-9.958524224484984269e-03
-1.027959198694112543e-02
-1.057583734621130207e-02
-1.084470700692697839e-02
-1.108388401700710277e-02
-1.129132292665703009e-02
-1.146528160106115996e-02
-1.160434928287608185e-02
-1.170747034121079160e-02
-1.177396350878810206e-02
-1.180353619321467332e-02
-1.179629363971544491e-02
-1.175274284121670745e-02
-1.167379104264889417e-02
-1.156073891599163767e-02
-1.141526838668476158e-02
-1.123942530089779186e-02
-1.103559712399419281e-02
-1.080648594276054954e-02
-1.055507721936736407e-02
-1.028460455635123345e-02
-9.998511098311768305e-03
-9.700407946928989514e-03
-9.394030171751645286e-03
-9.083191079152775488e-03
-8.771735335635915884e-03
-8.463491521482152669e-03
-8.162224760404257831e-03
-7.871590093128818383e-03
-7.595087219344117020e-03
-7.336017216865020098e-03
-7.097441826684570965e-03
-6.882145745983774855e-03
-6.692602543710677795e-03
-6.530944661534799495e-03
-6.398937837129880547e-03
-6.297960273737909960e-03
-6.228986868767677314e-03
-6.192578665331308942e-03
-6.188877656651858503e-03
-6.217607049274527162e-03
-6.278076877949897300e-03
-6.369194933601476406e-03
-6.489482781616065683e-03
-6.637096708274587732e-03
-6.809853219498039796e-03
-7.005258747312704225e-03
-7.220543211044341998e-03
-7.452696855801741946e-03
-7.698509891194162819e-03
-7.954614349075121715e-03
-8.217527634542677595e-03
-8.483697093492836849e-03
-8.749545100266417630e-03
-9.011513878040550499e-03
-9.266109581701336209e-03
-9.509944959348390001e-03
-9.739780101293837866e-03
-9.952560634483799754e-03
-1.014545294382652313e-02
-1.031587583500104960e-02
-1.046152843618282716e-02
-1.058041375418646880e-02
-1.067085780222100030e-02
-1.073152394363897401e-02
-1.076142234147411600e-02
-1.075991445964791411e-02
-1.072671255132603453e-02
-1.066187428033476582e-02
-1.056579252414274403e-02
-1.043918057718199420e-02
-1.028305319130057814e-02
-1.009870354040361302e-02
-9.887676667290304366e-03
-9.651739832582387907e-03
-9.392850195322949985e-03
-9.113120400825791556e-03
-8.814782577580650147e-03
-8.500151417983846380e-03
-8.171586838226352692e-03
-7.831456806056033212e-03
-7.482100991060843843e-03
-7.125795764743882675e-03
-6.764721132489044490e-03
-6.400929994485092013e-03
-6.036320332470707616e-03
-5.672610714033757273e-03
-5.311319502966400409e-03
-4.953748023328543963e-03
-4.600968012760090278e-03
-4.253813490774600165e-03
-3.912877143276774494e-03
-3.578511267547597290e-03
-3.250833246333172891e-03
-2.929735406682136469e-03
-2.614899179903019955e-03
-2.305813067687892057e-03
-2.001794398685962598e-03
-1.702014266120710495e-03
-1.405525184209541634e-03
-1.111291113466695169e-03
-8.182192996012497546e-04
-5.251932310468635781e-04
-2.311062955116423572e-04
6.510461235885855872e-05
3.644261087153317100e-04
6.677364780265231418e-04
9.757756412232036726e-04
1.289117539214757044e-03
1.608145414961246631e-03
1.933030416839480112e-03
2.263714025274474358e-03
2.599894776462302604e-03
2.941019391212453069e-03
3.286278690639493627e-03
3.634608415145489709e-03
3.984695009319262279e-03
4.334986426714261022e-03
4.683707795689300533e-03
5.028881871260327575e-03
5.368353865837626610e-03
5.699820459317444729e-03
6.020862529312597314e-03
6.328981135721871258e-03
6.621636167878898471e-03
6.896287140973650365e-03
7.150435540214323919e-03
7.381667828447764125e-03
7.587698576521246033e-03
7.766412967882926031e-03
7.915907916745049469e-03
8.034531151517370837e-03
8.120917489946932050e-03
8.174021756683363601e-03
8.193147649187429091e-03
8.177971971470915022e-03
8.128563730701894932e-03
8.045397707663335188e-03
7.929362155740238977e-03
7.781760348314129688e-03
7.604305798635303294e-03
7.399111137245854321e-03
7.168670616542196020e-03
6.915836370011444086e-03
6.643788751319132206e-03
6.356000931037315491e-03
6.056198353897899317e-03
5.748313463584807381e-03
5.436436318667353142e-03
5.124761722103979289e-03
4.817533705778069379e-03
4.518988038771531816e-03
4.233293785579561423e-03
3.964494575921334758e-03
3.716450529329164750e-03
3.492781749329808630e-03
3.296814256831185133e-03
3.131529201388633284e-03
2.999516124403015047e-03
2.902931066005329762e-03
2.843460167753735727e-03
2.822289502145496152e-03
2.840081445294310482e-03
2.896958254320880152e-03
2.992493080051688084e-03
3.125708572801075714e-03
3.295083289360526725e-03
3.498565819555287271e-03
3.733596549719418040e-03
3.997136777331431953e-03
4.285704871039383405e-03
4.595418907773200778e-03
4.922045289908581409e-03
5.261052662835922003e-03
5.607670461968312058e-03
5.956951029618809401e-03
6.303834649533553158e-03
6.643216417827794464e-03
6.970014021675915473e-03
7.279235485149322844e-03
7.566045795283755926e-03
7.825831512182768526e-03
8.054262430582600357e-03
8.247349245281473257e-03
8.401496465683482712e-03
8.513549829967310620e-03
8.580837425616282682e-03
8.601204037150797510e-03
8.573038119052819525e-03
8.495290978527891487e-03
8.367488027293673580e-03
8.189731830597152262e-03
7.962697054373420180e-03
7.687617275511914386e-03
7.366263955227349974e-03
7.000917983293913904e-03
6.594334112940246871e-03
6.149699031098273920e-03
5.670583491599177038e-03
5.160889439327714934e-03
4.624792941095475819e-03
4.066683744778641293e-03
3.491102396937495293e-03
2.902675961859367288e-03
2.306053200489561333e-03
1.705840198008288502e-03
1.106537570432812416e-03
5.124799870468097754e-04
-7.222104188919007252e-05
-6.437303022587466958e-04
-1.198537142695183097e-03
-1.733498241696934151e-03
-2.245874322581306853e-03
-2.733360346092839500e-03
-3.194108688611128379e-03
-3.626745268149711432e-03
-4.030378341582143906e-03
-4.404600025873498491e-03
-4.749480592105848227e-03
-5.065555779623215175e-03
-5.353807439933056488e-03
-5.615637979789350927e-03
-5.852839011984948062e-03
-6.067554906296509371e-03
-6.262241852765774650e-03
-6.439623207749464555e-03
-6.602641811298872072e-03
-6.754410139533069748e-03
-6.898159098722928331e-03
-7.037186242871365342e-03
-7.174804207774192720e-03
-7.314290259108523901e-03
-7.458837570881465644e-03
-7.611508984282404182e-03
-7.775193892528821371e-03
-7.952568766477074655e-03
-8.146061842655465818e-03
-8.357822339455638072e-03
-8.589694599234472955e-03
-8.843197291480324809e-03
-9.119507854440154701e-03
-9.419452206313412568e-03
-9.743499636536829406e-03
-1.009176274962354097e-02
-1.046400228831438108e-02
-1.085963656161654210e-02
-1.127775499260600701e-02
-1.171713546441874310e-02
-1.217626508597293745e-02
-1.265336374852331011e-02
-1.314641000097222304e-02
-1.365316875794157780e-02
-1.417122022415868987e-02
-1.469798965425745188e-02
-1.523077733766268517e-02
-1.576678838666830534e-02
-1.630316190815977312e-02
-1.683699906691808051e-02
-1.736538989690435825e-02
-1.788543847282941454e-02
-1.839428623764382403e-02
-1.888913334463097199e-02
-1.936725792446999592e-02
-1.982603319394951602e-02
-2.026294254330833142e-02
-2.067559261251177005e-02
-2.106172446371302326e-02
-2.141922306488994870e-02
-2.174612525540142033e-02
-2.204062648627064247e-02
-2.230108646793049418e-02
-2.252603408635774421e-02
-2.271417170392035084e-02
-2.286437923962812702e-02
-2.297571813139114363e-02
-2.304743542619903593e-02
-2.307896804133091964e-02
-2.306994743652148253e-02
-2.302020471312335795e-02
-2.292977612349254499e-02
-2.279890895440608509e-02
-2.262806761753275928e-02
-2.241793995590437780e-02
-2.216944345718926263e-02
-2.188373110371445718e-02
-2.156219659010915127e-02
-2.120647862629043701e-02
-2.081846390727815424e-02
-2.040028843711219966e-02
-1.995433671975631665e-02
-1.948323865735624230e-02
-1.898986356214714399e-02
-1.847731115831774060e-02
-1.794889912862545137e-02
-1.740814708029415556e-02
-1.685875664942875982e-02
-1.630458770548173092e-02
-1.574963063299676322e-02
-1.519797473151052528e-02
-1.465377279907431260e-02
-1.412120222523574435e-02
-1.360442284729372620e-02
-1.310753213057314071e-02
-1.263451797315758712e-02
-1.218920985786013655e-02
-1.177522897338860106e-02
-1.139593805941080222e-02
-1.105439179684548218e-02
-1.075328846306083073e-02
-1.049492381992547275e-02
-1.028114800988964329e-02
-1.011332643720522229e-02
-9.992305386564037661e-03
-9.918383224482527419e-03
-9.891287884648495426e-03
-9.910161350428671120e-03
-9.973551692858701606e-03
-1.007941310645500688e-02
-1.022511430504537480e-02
-1.040745551922409549e-02
-1.062269413756289881e-02
-1.086657900417619359e-02
-1.113439296947063561e-02
-1.142100347385773505e-02
-1.172092054704837287e-02
-1.202836154921351104e-02
-1.233732184690828834e-02
-1.264165041354696310e-02
-1.293512930921955455e-02
-1.321155588389234109e-02
-1.346482639155841161e-02
-1.368901977127504402e-02
-1.387848013834174464e-02
-1.402789667716156097e-02
-1.413237949173202536e-02
-1.418753015839503868e-02
-1.418950565490351146e-02
-1.413507448966181898e-02
-1.402166399869667415e-02
-1.384739781509277887e-02
-1.361112273607336526e-02
-1.331242433639506263e-02
-1.295163095855133770e-02
-1.252980581833875416e-02
-1.204872709070685388e-02
-1.151085642391776014e-02
-1.091929606954057490e-02
-1.027773530356034318e-02
-9.590387051529742843e-03
-8.861915596167861328e-03
-8.097356623110557941e-03
-7.302030933788318523e-03
-6.481453430466978770e-03
-5.641238863012223992e-03
-4.787006021995067126e-03
-3.924282196842130560e-03
-3.058409553265985757e-03
-2.194455324503553906e-03
-1.337127449894503833e-03
-4.906972612727881350e-04
3.410692462392227479e-04
1.154970131591138548e-03
1.948415143395008540e-03
2.719461045023574552e-03
3.466834073685127245e-03
4.189938862845942087e-03
4.888853501616757108e-03
5.564310831552097408e-03
6.217666116887406169e-03
6.850851638029024394e-03
7.466318983670981908e-03
8.066970070763941278e-03
8.656078057119404034e-03
9.237199863541751751e-03
9.814081813256490469e-03
1.039056021158179730e-02
1.097045895266387378e-02
1.155748620139723098e-02
1.215513219317424128e-02
1.276657030265753584e-02
1.339456358769035814e-02
1.404137881339859693e-02
1.470870981629571715e-02
1.539761202981954763e-02
1.610844977131852332e-02
1.684085754814682034e-02
1.759371673472469311e-02
1.836514821718006688e-02
1.915252158845183808e-02
1.995248107965023887e-02
2.076098807112003800e-02
2.157337977869465059e-02
2.238444320870600079e-02
2.318850325875761870e-02
2.397952360732340596e-02
2.475121848252323856e-02
2.549717346136975635e-02
2.621097294009597234e-02
2.688633202259778712e-02
2.751723009791191832e-02
2.809804354018236722e-02
2.862367479163122064e-02
2.908967510219380437e-02
2.949235837483343836e-02
2.982890355063830615e-02
3.009744312150358994e-02
3.029713562343906361e-02
3.042822029785516649e-02
3.049205229525460067e-02
3.049111721698135463e-02
3.042902413193291147e-02
3.031047662851222430e-02
3.014122179937045107e-02
2.992797776352655939e-02
2.967834043519301107e-02
2.940067081377482558e-02
2.910396456628623271e-02
2.879770603505846932e-02
2.849170903356197659e-02
2.819594736761586035e-02
2.792037808277511926e-02
2.767476080692824261e-02
2.746847658322865843e-02
2.731034999396464436e-02
2.720847806211609474e-02
2.717006965599201226e-02
2.720129892692649265e-02
2.730717614068776944e-02
2.749143906110322610e-02
2.775646775981865932e-02
2.810322529348624823e-02
2.853122644233095292e-02
2.903853599882163378e-02
2.962179775444198637e-02
3.027629474976509250e-02
3.099604068110620170e-02
3.177390198563501827e-02
3.260174929354067719e-02
3.347063652398146044e-02
3.437100513426195186e-02
3.529291069983763601e-02
3.622626831894989324e-02
3.716111299193089468e-02
3.808787058852677876e-02
3.899763479552924295e-02
3.988244510240631507e-02
4.073556065136182958e-02
4.155172480974833604e-02
4.232741513636271297e-02
4.306107359537599683e-02
4.375331201112703239e-02
4.440708796133696623e-02
4.502784682974146635e-02
4.562362586612610238e-02
4.620511693910070439e-02
4.678568504530932620e-02
4.738134030380770217e-02
4.801066187286454068e-02
4.869467314294551041e-02
4.945666809994136298e-02
5.032198959199568611e-02
5.131776119746842696e-02
5.247257505021305640e-02
5.381613872578720759e-02
5.537888517000202904e-02
5.719155014028436818e-02
5.928472259552881179e-02
6.168837373841221106e-02
6.443137087569823784e-02
6.754098298667055023e-02
7.104238480500410513e-02
7.495816665335289231e-02
7.930785734046380542e-02
8.410746723116817314e-02
8.936905852198695488e-02
9.510034971733070941e-02
1.013043606787964734e-01
1.079791041332501256e-01
1.151173291301363227e-01
1.227063212337706627e-01
1.307277633801034455e-01
1.391576607107289643e-01
1.479663315154020886e-01
1.571184658717058591e-01
1.665732524039570117e-01
1.762845726565201165e-01
1.862012616649730001e-01
1.962674322434708740e-01
2.064228598496843370e-01
2.166034236740183305e-01
2.267415991036154932e-01
2.367669959073275265e-01
2.466069355598419222e-01
2.561870609305303970e-01
2.654319709541285710e-01
2.742658725199793590e-01
2.826132416881173559e-01
2.903994860860575900e-01
2.975516005101663808e-01
3.039988078498389590e-01
3.096731775469531711e-01
3.145102144753617601e-01
3.184494113143807592e-01
3.214347581896033201e-01
3.234152040427191177e-01
3.243450649038691624e-01
3.241843750060230400e-01
3.228991775760390315e-01
3.204617530602010267e-01
3.168507834483834662e-01
3.120514522992959838e-01
3.060554809460471759e-01
2.988611022529715222e-01
2.904729742803301984e-01
2.809020368765741682e-01
2.701653149788267316e-01
2.582856732153896440e-01
2.452915268186633968e-01
2.312165143511999976e-01
2.160991382883225842e-01
1.999823795412617455e-01
1.829132924235569169e-01
1.649425863227113320e-01
1.461242005851526304e-01
1.265148787469281000e-01
1.061737479351015506e-01
8.516190915846395815e-02
6.354204341877198181e-02
4.137803823908000472e-02
1.873463856663497989e-02
-4.322874725919330710e-03
-2.772897631187186407e-02
-5.141815581694319376e-02
-7.532514425438936734e-02
-9.938510714709777871e-02
-1.235338048464875993e-01
-1.477077211642539023e-01
-1.718441621568929378e-01
-1.958813274745979105e-01
-2.197583574152382202e-01
-2.434153591534456706e-01
-2.667934158943796596e-01
-2.898345832463108396e-01
-3.124818772058532423e-01
-3.346792582732454058e-01
-3.563716161313169595e-01
-3.775047593506958843e-01
-3.980254143953822488e-01
-4.178812377029010872e-01
-4.370208445650388684e-01
-4.553938577950956135e-01
-4.729509787489495354e-01
-4.896440826842273775e-01
-5.054263397759882759e-01
-5.202523623994336210e-01
-5.340783786676516209e-01
-5.468624314357216631e-01
-5.585646012034120034e-01
-5.691472508274464381e-01
-5.785752892113777968e-01
-5.868164505325003111e-01
-5.938415849709831607e-01
-5.996249564813791455e-01
-6.041445426787818151e-01
-6.073823317502899943e-01
-6.093246108224018576e-01
-6.099622402885293004e-01
-6.092909084879383208e-01
-6.073113613532543642e-01
-6.040296016049775396e-01
-5.994570525250216830e-01
-5.936106817139252811e-01
-5.865130806341688485e-01
-5.781924964083604568e-01
-5.686828129587525593e-01
-5.580234791405888073e-01
-5.462593826402376562e-01
-5.334406687777797362e-01
-5.196225043701384605e-01
-5.048647878234211461e-01
-4.892318071095153043e-01
-4.727918484471347882e-01
-4.556167589427254638e-01
-4.377814675801455224e-01
-4.193634692862859281e-01
-4.004422777060342442e-01
-3.810988525988958653e-01
-3.614150084354168513e-01
-3.414728110268359651e-01
-3.213539692306371376e-01
-3.011392289729749594e-01
-2.809077769115882472e-01
-2.607366608268203989e-01
-2.407002337304280370e-01
-2.208696284125838405e-01
-2.013122687055972360e-01
-1.820914231916949400e-01
-1.632658065674931491e-01
-1.448892331713743375e-01
-1.270103265178419982e-01
-1.096722877264249413e-01
-9.291272511768865205e-02
-7.676354619657831113e-02
-6.125091255614872887e-02
-4.639525707193939419e-02
-3.221136228762616627e-02
-1.870849765855053110e-02
-5.890612827177166104e-03
6.243416867793149735e-03
1.769949685047664950e-02
2.848797689120875776e-02
3.862327723700311605e-02
4.812348315308613567e-02
5.700991423387347795e-02
6.530667495041789228e-02
7.304019300058305075e-02
8.023875217939428761e-02
8.693202622165296933e-02
9.315062013103314609e-02
9.892562502513270462e-02
1.042881923238637432e-01
1.092691323778726964e-01
1.138985425330666379e-01
1.182054686644990887e-01
1.222176037941920257e-01
1.259610265970843024e-01
1.294599820062820872e-01
1.327367052379041235e-01
1.358112899800035245e-01
1.387016006556721359e-01
1.414232281080503029e-01
1.439894871196968351e-01
1.464114538759421213e-01
1.486980405470887390e-01
1.508561038579648850e-01
1.528905841601437277e-01
1.548046708338861599e-01
1.565999897844936040e-01
1.582768085110394518e-01
1.598342540355880415e-01
1.612705390649057380e-01
1.625831916624895790e-01
1.637692838334644241e-01
1.648256547459730770e-01
1.657491244419947163e-01
1.665366942531000261e-01
1.671857306001223731e-01
1.676941291393219680e-01
1.680604568755843520e-01
1.682840702827150536e-01
1.683652079952233649e-01
1.683050570733989615e-01
1.681057926814251147e-01
1.677705912989059800e-01
1.673036181603010097e-01
1.667099900169263516e-01
1.659957150584958352e-01
1.651676118997818243e-01
1.642332101235724762e-01
1.632006349633130515e-01
1.620784792148616538e-01
1.608756652903690354e-01
1.596013009567976981e-01
1.582645317777976735e-01
1.568743936321999599e-01
1.554396684169928322e-01
1.539687460753658144e-01
1.524694958104678422e-01
1.509491489336652892e-01
1.494141957767229911e-01
1.478702985846818141e-01
1.463222219706722671e-01
1.447737823689593251e-01
1.432278169311604343e-01
1.416861725223840796e-01
1.401497147789418918e-01
1.386183567229798963e-01
1.370911062441703132e-01
1.355661311337194030e-01
1.340408403748567512e-01
1.325119796393649241e-01
1.309757390764990093e-01
1.294278710865370274e-01
1.278638156380246804e-01
1.262788305096430308e-01
1.246681238221105797e-01
1.230269863166795347e-01
1.213509206315667444e-01
1.196357651558878354e-01
1.178778100490905506e-01
1.160739032382153563e-01
1.142215443332825209e-01
1.123189648571680382e-01
1.103651932495581800e-01
1.083601035640156668e-01
1.063044470121078250e-01
1.041998659418322259e-01
1.020488900011381622e-01
9.985491495357004532e-02
9.762216433900523793e-02
9.535563512886563453e-02
9.306102832807645886e-02
9.074466612823496592e-02
8.841339709609917497e-02
8.607449138980126369e-02
8.373552798922796747e-02
8.140427607171343838e-02
7.908857282401253463e-02
7.679619998272059489e-02
7.453476131694319884e-02
7.231156333118807233e-02
7.013350137006235663e-02
6.800695309654358756e-02
6.593768118679345369e-02
6.393074702580309188e-02
6.199043675000368014e-02
6.012020085451626195e-02
5.832260834321809778e-02
5.659931611156765463e-02
5.495105389958632874e-02
5.337762486445840615e-02
5.187792168777653756e-02
5.044995769495250193e-02
4.909091222493142809e-02
4.779718936211077573e-02
4.656448880796278805e-02
4.538788739550370793e-02
4.426192969920898779e-02
4.318072617483346975e-02
4.213805692561958111e-02
4.112747919076230330e-02
4.014243666555359497e-02
3.917636872629774031e-02
3.822281772842200942e-02
3.727553243949810469e-02
3.632856604243769189e-02
3.537636702131335964e-02
3.441386163254750441e-02
3.343652656979681503e-02
3.244045085373691711e-02
3.142238606965568753e-02
3.037978439110967238e-02
2.931082393086821558e-02
2.821442133187323023e-02
2.709023160911363387e-02
2.593863557621783542e-02
2.476071545643299815e-02
2.355821918121817765e-02
2.233351436595506362e-02
2.108953313088827997e-02
1.982970880729329616e-02
1.855790587086235399e-02
1.727834456378437439e-02
1.599552147859075596e-02
1.471412779629951637e-02
1.343896652379893315e-02
1.217487031668962154e-02
1.092662114322479755e-02
9.698873242164684355e-03
8.496080614047054128e-03
7.322430169431989704e-03
6.181781543924441853e-03
5.077614379675779790e-03
4.012983866319980511e-03
2.990484920495825247e-03
2.012225472102573912e-03
1.079809001303633784e-03
1.943263620513718023e-04
-6.436432826265848454e-04
-1.434022792437296629e-03
-2.177219039261319225e-03
-2.874097220005028454e-03
-3.525948088485270863e-03
-4.134449082064968646e-03
-4.701620155217370312e-03
-5.229775427686137249e-03
-5.721471475425876294e-03
-6.179453480427754553e-03
-6.606600183514700630e-03
-7.005868641430537322e-03
-7.380239937941206717e-03
-7.732666685568330422e-03
-8.066023186002151471e-03
-8.383059141197021086e-03
-8.686357485027388498e-03
-8.978297026914657669e-03
-9.261020381469397753e-03
-9.536407463252511221e-03
-9.806054914976313278e-03
-1.007126154242250077e-02
-1.033301971294696593e-02
-1.059201269219762868e-02
-1.084861759057919109e-02
-1.110291374340706405e-02
-1.135469597498490850e-02
-1.160349236265384443e-02
-1.184858591390665176e-02
-1.208903956976454218e-02
-1.232372385198210289e-02
-1.255134646254224724e-02
-1.277048323205000335e-02
-1.297960971409287644e-02
-1.317713273999683923e-02
-1.336142135006841529e-02
-1.353083649116565423e-02
-1.368375893377536505e-02
-1.381861491223144479e-02
-1.393389920539733068e-02
-1.402819519664469557e-02
-1.410019173345460237e-02
-1.414869658668043741e-02
-1.417264644343987218e-02
-1.417111342296248876e-02
-1.414330811709863661e-02
-1.408857931335051779e-02
-1.400641075768335742e-02
-1.389641501427054358e-02
-1.375832487223571654e-02
-1.359198257409155626e-02
-1.339732735692843006e-02
-1.317438162304719780e-02
-1.292323627371677434e-02
-1.264403551052741513e-02
-1.233696164659359509e-02
-1.200222031247154438e-02
-1.164002641921876163e-02
-1.125059125329673677e-02
-1.083411099567273272e-02
-1.039075698548692570e-02
-9.920667918477562436e-03
-9.423944145638837866e-03
-8.900644197452475467e-03
-8.350783551957405640e-03
-7.774335740842444956e-03
-7.171235584360777411e-03
-6.541384529683181778e-03
-5.884657998916218574e-03
-5.200914460713850808e-03
-4.490006002815846893e-03
-3.751790125390347050e-03
-2.986142499763870268e-03
-2.192970221776592132e-03
-1.372225503129608642e-03
-5.239192695664548474e-04
3.518655780843536404e-04
1.254961630964333916e-03
2.185105447431628760e-03
3.141927172168088901e-03
4.124941673317853753e-03
5.133541400604061354e-03
6.166991157628341942e-03
7.224424713913896873e-03
8.304843613376779177e-03
9.407117984529112312e-03
1.052998955204992662e-02
1.167207665458548302e-02
1.283188119288335670e-02
1.400779743188097261e-02
1.519812240740395920e-02
1.640106786559906646e-02
1.761477341694237322e-02
1.883732058252654898e-02
2.006674764559194732e-02
2.130106497257295770e-02
2.253827040766130663e-02
2.377636462694047992e-02
2.501336614398158228e-02
2.624732564991916206e-02
2.747633947719130623e-02
2.869856202391098468e-02
2.991221693461278489e-02
3.111560685976829874e-02
3.230712166246700601e-02
3.348524495854359601e-02
3.464855909193949313e-02
3.579574837585051961e-02
3.692560064043417384e-02
3.803700717448244700e-02
3.912896111479823719e-02
4.020055446276221689e-02
4.125097378456281383e-02
4.227949486576661892e-02
4.328547632772899306e-02
4.426835255791388563e-02
4.522762610086405316e-02
4.616285972239916879e-02
4.707366837885190725e-02
4.795971121216095756e-02
4.882068380104790523e-02
4.965631091307836503e-02
5.046633974152524293e-02
5.125053402583436973e-02
5.200866887033819136e-02
5.274052660506378665e-02
5.344589357640946309e-02
5.412455796853839901e-02
5.477630863603853706e-02
5.540093488185802995e-02
5.599822720445982865e-02
5.656797890981341004e-02
5.710998841280254257e-02
5.762406219503352078e-02
5.811001820806972751e-02
5.856768964317150827e-02
5.899692880650909271e-02
5.939761100594646848e-02
5.976963825550956483e-02
6.011294262294242935e-02
6.042748908797634932e-02
6.071327770791593026e-02
6.097034507336021592e-02
6.119876480280213304e-02
6.139864707556733081e-02
6.157013717143627884e-02
6.171341286047454799e-02
6.182868072197552495e-02
6.191617141839539373e-02
6.197613394750427218e-02
6.200882892583583356e-02
6.201452105835476847e-02
6.199347086158005921e-02
6.194592586104157028e-02
6.187211143813400871e-02
6.177222143694638401e-02
6.164640879683146168e-02
6.149477646228344169e-02
6.131736868441335642e-02
6.111416297762162220e-02
6.088506295452415090e-02
6.062989226859306913e-02
6.034838982496295440e-02
6.004020638731860648e-02
5.970490284470329062e-02
5.934195015437896542e-02
5.895073113525715197e-02
5.853054410833758575e-02
5.808060847395338233e-02
5.760007220943489520e-02
5.708802126543326139e-02
5.654349077446447353e-02
5.596547795380251572e-02
5.535295659897577353e-02
5.470489292962455591e-02
5.402026268143365895e-02
5.329806915633579500e-02
5.253736188769995985e-02
5.173725596103841140e-02
5.089695132562049168e-02
5.001575200322372350e-02
4.909308491876760577e-02
4.812851797023072475e-02
4.712177710018661952e-02
4.607276194715850814e-02
4.498156002951333998e-02
4.384845905512710362e-02
4.267395715335024764e-02
4.145877086684655877e-02
4.020384066372083981e-02
3.891033392708573291e-02
3.757964524980359627e-02
3.621339403929632605e-02
3.481341934102476915e-02
3.338177199730361228e-02
3.192070406991251441e-02
3.043265576979084161e-02
2.892023994416246732e-02
2.738622432998216380e-02
2.583351180358056318e-02
2.426511877128856645e-02
2.268415211425814024e-02
2.109378484853749111e-02
1.949723088270886515e-02
1.789771915749422890e-02
1.629846756185439685e-02
1.470265683015061983e-02
1.311340487059342239e-02
1.153374183659338498e-02
9.966586203943262820e-03
8.414722135246006582e-03
6.880778509581482634e-03
5.367209820925799083e-03
3.876279128124210296e-03
2.410043223683632548e-03
9.703402878643432395e-04
-4.412198834046606398e-04
-1.823263022263730453e-03
-3.174654750624510743e-03
-4.494502383444183569e-03
-5.782154012743952881e-03
-7.037194975930927306e-03
-8.259441764967746444e-03
-9.448933605659898607e-03
-1.060592183563467336e-02
-1.173085723965408556e-02
-1.282437554302462424e-02
-1.388728145915556558e-02
-1.492053126802836242e-02
-1.592521438904700645e-02
-1.690253415722191288e-02
-1.785378818585655475e-02
-1.878034839463779346e-02
-1.968364109611388246e-02
-2.056512736810906308e-02
-2.142628397583772742e-02
-2.226858504446208031e-02
-2.309348475231335837e-02
-2.390240115742985061e-02
-2.469670130082613976e-02
-2.547768785995411719e-02
-2.624658732525964738e-02
-2.700453980598123069e-02
-2.775259055882411258e-02
-2.849168321130103598e-02
-2.922265470640031740e-02
-2.994623193831586275e-02
-3.066302998236338298e-02
-3.137355178696366043e-02
-3.207818940276625092e-02
-3.277722646891453873e-02
-3.347084183161821991e-02
-3.415911416681420565e-02
-3.484202753513935408e-02
-3.551947753029872923e-02
-3.619127795316184892e-02
-3.685716790810526777e-02
-3.751681903245877164e-02
-3.816984275216254996e-02
-3.881579748965963833e-02
-3.945419560585503721e-02
-4.008450998379931018e-02
-4.070618015928718914e-02
-4.131861791775216092e-02
-4.192121237275295287e-02
-4.251333432265515938e-02
-4.309434000655894964e-02
-4.366357420340281209e-02
-4.422037270823724053e-02
-4.476406423722305294e-02
-4.529397176295897609e-02
-4.580941345726821656e-02
-4.630970317077554022e-02
-4.679415072026626987e-02
-4.726206193112533066e-02
-4.771273865958714638e-02
-4.814547879492388216e-02
-4.855957646339541245e-02
-4.895432248775544865e-02
-4.932900516055008233e-02
-4.968291150548762025e-02
-5.001532901608982812e-02
-5.032554803564903700e-02
-5.061286476593093026e-02
-5.087658488525462902e-02
-5.111602791687602093e-02
-5.133053223824235456e-02
-5.151946077633200172e-02
-5.168220724717471903e-02
-5.181820296290356315e-02
-5.192692403831517672e-02
-5.200789898762137042e-02
-5.206071655270920473e-02
-5.208503354068266811e-02
-5.208058264055169528e-02
-5.204718005270743408e-02
-5.198473271039675409e-02
-5.189324496495149180e-02
-5.177282451651268880e-02
-5.162368754544686272e-02
-5.144616284328843575e-02
-5.124069473610903119e-02
-5.100784476919249105e-02
-5.074829195557104683e-02
-5.046283153126416426e-02
-5.015237225319855996e-02
-4.981793206130446378e-02
-4.946063210235834839e-02
-4.908168918370201667e-02
-4.868240671155535382e-02
-4.826416407963371458e-02
-4.782840470041056086e-02
-4.737662281061784386e-02
-4.691034913239330167e-02
-4.643113560985270144e-02
-4.594053942552464576e-02
-4.544010654680255556e-02
-4.493135496629872827e-02
-4.441575789705527744e-02
-4.389472723852773373e-02
-4.336959749776445050e-02
-4.284161051941528381e-02
-4.231190116892886988e-02
-4.178148433486823798e-02
-4.125124347812036268e-02
-4.072192079287823702e-02
-4.019410932782616769e-02
-3.966824720278676331e-02
-3.914461403831149405e-02
-3.862332978035316194e-02
-3.810435588142752072e-02
-3.758749891972969215e-02
-3.707241677761465709e-02
-3.655862704247013484e-02
-3.604551784803141506e-02
-3.553236092641860050e-02
-3.501832668370836316e-02
-3.450250111440215928e-02
-3.398390434641784807e-02
-3.346151057412007079e-02
-3.293426900810249996e-02
-3.240112565164824515e-02
-3.186104546229125145e-02
-3.131303464797421943e-02
-3.075616271668532922e-02
-3.018958386311428391e-02
-2.961255745483572580e-02
-2.902446718759934402e-02
-2.842483864053331477e-02
-2.781335493936014716e-02
-2.718987020102106231e-02
-2.655442053952833739e-02
-2.590723239877976841e-02
-2.524872809279410033e-02
-2.457952838796282485e-02
-2.390045200094882694e-02
-2.321251203174936120e-02
-2.251690938835198066e-02
-2.181502311969555144e-02
-2.110839793003243745e-02
-2.039872887602797377e-02
-1.968784355305332190e-02
-1.897768201731793447e-02
-1.827027471564783914e-02
-1.756771862387158586e-02
-1.687215211058968808e-02
-1.618572884702939446e-02
-1.551059110170348136e-02
-1.484884287288943706e-02
-1.420252324952799364e-02
-1.357358041163788179e-02
-1.296384677291685314e-02
-1.237501545744053993e-02
-1.180861854221386918e-02
-1.126600750236310747e-02
-1.074833615286552128e-02
-1.025654626266825006e-02
-9.791356084730694007e-03
-9.353252102264394269e-03
-8.942484031758474866e-03
-8.559063114877696332e-03
-8.202763873063933717e-03
-7.873129096954468303e-03
-7.569478191428242325e-03
-7.290918620706204716e-03
-7.036360299484264828e-03
-6.804532681941660548e-03
-6.594004330865248925e-03
-6.403204543357580297e-03
-6.230446764117087040e-03
-6.073953385657848529e-03
-5.931881587101670190e-03
-5.802349691414190706e-03
-5.683463640611101202e-03
-5.573343231101196039e-03
-5.470147596639720125e-03
-5.372099668821002025e-03
-5.277508988538236710e-03
-5.184792773017425811e-03
-5.092494731686897196e-03
-4.999301477589425738e-03
-4.904056113721381657e-03
-4.805768953986072622e-03
-4.703625164075440207e-03
-4.596989228023873331e-03
-4.485406222040123209e-03
-4.368599917160693666e-03
-4.246467771890015744e-03
-4.119072987273002598e-03
-3.986633704621352428e-03
-3.849509666628950048e-03
-3.708186624440066095e-03
-3.563258709183124689e-03
-3.415409232292641612e-03
-3.265390169335561591e-03
-3.114000837281314608e-03
-2.962066138683346235e-03
-2.810414741118406022e-03
-2.659857639300726787e-03
-2.511167575161920174e-03
-2.365059618592919594e-03
-2.222173263502355816e-03
-2.083056409724317205e-03
-1.948151611737874945e-03
-1.817784722575976940e-03
-1.692156251441685180e-03
-1.571335534937508879e-03
-1.455257855934800632e-03
-1.343724548246746746e-03
-1.236406118088110261e-03
-1.132848293175145070e-03
-1.032480871786534788e-03
-9.346292602489188498e-04
-8.385284149948583074e-04
-7.433389891828937621e-04
-6.481653026850727785e-04
-5.520747943807248828e-04
-4.541186822629000842e-04
-3.533532940328308961e-04
-2.488617268158608751e-04
-1.397753924000363153e-04
-2.529503727344367762e-05
9.528925578300645807e-05
2.225793647556310114e-04
3.570522070684256210e-04
4.990449481680908368e-04
6.487425973991377574e-04
8.061682875547395788e-04
9.711765554731317113e-04
1.143449628501017230e-03
1.322497009019708543e-03
1.507658315260517390e-03
1.698109371195041664e-03
1.892871532052962632e-03
2.090824176972524550e-03
2.290720033572240903e-03
2.491203233898277043e-03
2.690829731306072174e-03
2.888089833414174846e-03
3.081432321730779005e-03
3.269289976124379552e-03
3.450105885179858417e-03
3.622360157219483342e-03
3.784596433624149488e-03
3.935447960233949549e-03
4.073662485784280453e-03
4.198125716850460536e-03
4.307882870046708147e-03
4.402157762358801379e-03
4.480369204793713776e-03
4.542144338150764897e-03
4.587328552543271445e-03
4.615991934329062747e-03
4.628431876056306182e-03
4.625171866686162044e-03
4.606956453771563452e-03
4.574742282537233758e-03
4.529685358112938917e-03
4.473124795740812849e-03
4.406563082766927486e-03
4.331643347522204195e-03
4.250123878196792812e-03
4.163850215702147306e-03
4.074725337817400317e-03
3.984678486617042846e-03
3.895632997096088422e-03
3.809473728004603068e-03
3.728014618862777844e-03
3.652967033968416207e-03
3.585909188895727590e-03
3.528257370983698543e-03
3.481239396183965964e-03
3.445870797617900296e-03
3.422934123370466927e-03
3.412961820527618019e-03
3.416222897909490692e-03
3.432713724996976079e-03
3.462153189278469999e-03
3.503982331309520720e-03
3.557368465091339995e-03
3.621213794963928315e-03
3.694168499105928739e-03
3.774648105810466531e-03
3.860854883361003638e-03
3.950803072565700104e-03
4.042347367297723440e-03
4.133214553025488756e-03
4.221037637148073417e-03
4.303391972239938891e-03
4.377832862632669193e-03
4.441934071391176637e-03
4.493326659130454821e-03
4.529737522530369494e-03
4.549027068884279983e-03
4.549225365456070411e-03
4.528566309483362910e-03
4.485519150855729262e-03
4.418816955602001932e-03
4.327481452596367711e-03
4.210843893006096725e-03
4.068561621824899784e-03
3.900630042476368325e-03
3.707389660915739408e-03
3.489528151191472090e-03
3.248077439303591590e-03
2.984405674746613054e-03
2.700204229167140878e-03
2.397469854741472641e-03
2.078482270011116750e-03
1.745777480706138529e-03
1.402117126438786991e-03
1.050454243086447383e-03
6.938961701738955356e-04
3.356647918645789034e-04
-2.094512454124549427e-05
-3.726089677936211429e-04
-7.160160112154006617e-04
-1.047913286801984431e-03
-1.365148992078749502e-03
-1.664714709089503775e-03
-1.943785936611694843e-03
-2.199760285630902867e-03
-2.430292815712065298e-03
-2.633328018455007805e-03
-2.807127970383650143e-03
-2.950296212449181332e-03
-3.061797086755850984e-03
-3.140970217904801715e-03
-3.187539975934887242e-03
-3.201619647216392625e-03
-3.183710398387944347e-03
-3.134695037719477124e-03
-3.055826572504256010e-03
-2.948711808034500548e-03
-2.815290166801761879e-03
-2.657808029601786085e-03
-2.478788960636214671e-03
-2.281000251602563044e-03
-2.067416323784195507e-03
-1.841179287708340304e-03
-1.605557376119612313e-03
-1.363901822924198232e-03
-1.119602723364762544e-03
-8.760445371619684195e-04
-6.365617693112096860e-04
-4.043955146337149765e-04
-1.826514319060441698e-04
2.574034365303178970e-05
2.180626982319372074e-04
3.918460422756786196e-04
5.448992691373514587e-04
6.753368378484917714e-04
7.816015853886079624e-04
8.624829751759732028e-04
9.171305800682039155e-04
9.450625727196213877e-04
9.461691838880671680e-04
9.207110990757804043e-04
8.693127933109188153e-04
7.929508920766419966e-04
6.929378396963178184e-04
5.709011033049030039e-04
4.287580392672569302e-04
2.686869951564055457e-04
9.309494079976045669e-05
-9.541792826686345251e-05
-2.940960324436739794e-04
-5.000682961040516482e-04
-7.103894064300743470e-04
-9.220820345101201970e-04
-1.132179219452776348e-03
-1.337766499808479975e-03
-1.536023210150111364e-03
-1.724262378402772284e-03
-1.899968608279511322e-03
-2.060833523066532124e-03
-2.204788215152774563e-03
-2.330032326861915248e-03
-2.435059319936852019e-03
-2.518677624038786773e-03
-2.580027403032333130e-03
-2.618592657802771336e-03
-2.634208514641326812e-03
-2.627063597661316932e-03
-2.597697466434595315e-03
-2.546993212049825615e-03
-2.476165175361668119e-03
-2.386742043531073568e-03
-2.280545482128825286e-03
-2.159664674240304588e-03
-2.026427025040256676e-03
-1.883365437146686597e-03
-1.733182701010139038e-03
-1.578713286603059245e-03
-1.422883179083797274e-03
-1.268668286318589203e-03
-1.119051927900834541e-03
-9.769820596179565591e-04
-8.453286851308555944e-04
-7.268421431986319932e-04
-6.241128349887317120e-04
-5.395328657017699377e-04
-4.752602235394405117e-04
-4.331858927439988910e-04
-4.149044216654680151e-04
-4.216883889842135786e-04
-4.544670263483788393e-04
-5.138094172972937791e-04
-5.999124442493290266e-04
-7.125937246580077260e-04
-8.512895568919113566e-04
-1.015058065161614058e-03
-1.202587424274913133e-03
-1.412209148209979869e-03
-1.641916167357554456e-03
-1.889385628728974418e-03
-2.152006014532865073e-03
-2.426908304739956983e-03
-2.711000720317294395e-03
-3.001006636442708937e-03
-3.293505163383776951e-03
-3.584973855200836775e-03
-3.871832960577358939e-03
-4.150490604873601462e-03
-4.417388351454594984e-03
-4.669046475602461541e-03
-4.902108374595708258e-03
-5.113383563374272571e-03
-5.299888508212735778e-03
-5.458884874247196123e-03
-5.587914595839265329e-03
-5.684831380166593083e-03
-5.747828056790739611e-03
-5.775459568583804319e-03
-5.766661155752027777e-03
-5.720761585114116435e-03
-5.637491182276970977e-03
-5.516984559450851915e-03
-5.359778029073686972e-03
-5.166801773065001283e-03
-4.939366878549275586e-03
-4.679147360697361556e-03
-4.388157479241772303e-03
-4.068724749669030104e-03
-3.723459024420568576e-03
-3.355218006822773338e-03
-2.967069722147119143e-03
-2.562252610447262290e-03
-2.144133748036395736e-03
-1.716165722079477773e-03
-1.281842913844021339e-03
-8.446577669640736993e-04
-4.080576802906441566e-04
2.459685144316902804e-05
4.500722148069663054e-04
8.652993123907187995e-04
1.267408242429947894e-03
1.653759521570181664e-03
2.021971417165701300e-03
2.369943046481146846e-03
2.695873014152552500e-03
2.998273260885467393e-03
3.275977959697858304e-03
3.528147416615268032e-03
3.754267079317607538e-03
3.954141531219745702e-03
4.127883838012758738e-03
4.275900273139341019e-03
4.398870908738646869e-03
4.497726352096736817e-03
4.573621089476221507e-03
4.627903882988293645e-03
4.662085773161010749e-03
4.677806234855732583e-03
4.676798193246808552e-03
4.660852303926098748e-03
4.631781230074598008e-03
4.591384513936164029e-03
4.541414642011803657e-03
4.483544839385741367e-03
4.419339155103570171e-03
4.350225364715620650e-03
4.277471034464566321e-03
4.202163245888693166e-03
4.125192169626187844e-03
4.047238891817759275e-03
3.968767561505937881e-03
3.890021919402828626e-03
3.811026307991585271e-03
3.731591094277137127e-03
3.651322266975099394e-03
3.569635147061817840e-03
3.485771758109211180e-03
3.398821623355544920e-03
3.307745462721610550e-03
3.211401437822605873e-03
3.108573404784357834e-03
2.998000549720972966e-03
2.878407917738272023e-03
2.748537176109257067e-03
2.607177115022900511e-03
2.453193270699643037e-03
2.285556036605241627e-03
2.103366851039774853e-03
1.905881800220259742e-03
1.692532342900386969e-03
1.462942663435354024e-03
1.216943291931441105e-03
9.545808360571152607e-04
6.761234850285426567e-04
3.820623286625146457e-04
7.310831147498759899e-05
-2.498150637987869111e-04
-5.855832299287813984e-04
-9.328859637595460696e-04
-1.290246506709659359e-03
-1.656044023572852400e-03
-2.028539022601664240e-03
-2.405901222332705418e-03
-2.786239451485865003e-03
-3.167633015381623486e-03
-3.548163884919454565e-03
-3.925949196299328980e-03
-4.299173488766492440e-03
-4.666119990709188987e-03
-5.025200470296943382e-03
-5.374983105708894607e-03
-5.714217798582246939e-03
-6.041858468562749142e-03
-6.357081961033579642e-03
-6.659303245098395670e-03
-6.948186507938892628e-03
-7.223651989801723426e-03
-7.485878438854213883e-03
-7.735301131173345605e-03
-7.972605421349985080e-03
-8.198715994317226294e-03
-8.414781977824189324e-03
-8.622158137223435298e-03
-8.822382522750893061e-03
-9.017150846428532984e-03
-9.208288178180942460e-03
-9.397718388948079690e-03
-9.587431820600886279e-03
-9.779451770865059054e-03
-9.975800419683624604e-03
-1.017846466191912533e-02
-1.038936252485452710e-02
-1.061031066973070966e-02
-1.084299351603464252e-02
-1.108893455849908546e-02
-1.134947027862289078e-02
-1.162572711613495818e-02
-1.191860172286436474e-02
-1.222874498012819534e-02
-1.255654985560827365e-02
-1.290214328897760707e-02
-1.326538219625364098e-02
-1.364585356018315453e-02
-1.404287866431612984e-02
-1.445552112424524846e-02
-1.488259857845092120e-02
-1.532269786272060126e-02
-1.577419328441334243e-02
-1.623526760558734530e-02
-1.670393525075015984e-02
-1.717806746379196489e-02
-1.765541876582833389e-02
-1.813365438280696920e-02
-1.861037809480049765e-02
-1.908315999484696407e-02
-1.954956373283722737e-02
-2.000717282762161722e-02
-2.045361562998156135e-02
-2.088658858052281492e-02
-2.130387741993433615e-02
-2.170337615940310869e-02
-2.208310353096261044e-02
-2.244121682236256687e-02
-2.277602300472978542e-02
-2.308598715429473897e-02
-2.336973813241503481e-02
-2.362607171937351064e-02
-2.385395125851692485e-02
-2.405250608035389495e-02
-2.422102790185209215e-02
-2.435896549601569011e-02
-2.446591786072982791e-02
-2.454162634094550835e-02
-2.458596594620572270e-02
-2.459893618392231321e-02
-2.458065172810182039e-02
-2.453133332160516156e-02
-2.445129913406089706e-02
-2.434095678619328101e-02
-2.420079623908318045e-02
-2.403138387115296218e-02
-2.383335772528101873e-02
-2.360742407952119357e-02
-2.335435537338284226e-02
-2.307498932794789168e-02
-2.277022925423456343e-02
-2.244104547048705878e-02
-2.208847763066444300e-02
-2.171363765587865091e-02
-2.131771305845930192e-02
-2.090197042951270900e-02
-2.046775873193992096e-02
-2.001651201509105707e-02
-1.954975139209217186e-02
-1.906908588470401789e-02
-1.857621180390911855e-02
-1.807291036084533384e-02
-1.756104341509578948e-02
-1.704254708545916569e-02
-1.651942310132496067e-02
-1.599372771545634619e-02
-1.546755833485219736e-02
-1.494303772428212142e-02
-1.442229600129970452e-02
-1.390745061974223151e-02
-1.340058448810434698e-02
-1.290372253731000667e-02
-1.241880724320909915e-02
-1.194767340157684710e-02
-1.149202264499291429e-02
-1.105339816355717202e-02
-1.063316025438396963e-02
-1.023246315310965930e-02
-9.852233842211701592e-03
-9.493153109856192554e-03
-9.155639632094998009e-03
-8.839837441771886128e-03
-8.545607257664109002e-03
-8.272521970265348662e-03
-8.019866752307591717e-03
-7.786643802531544901e-03
-7.571581987560341634e-03
-7.373151426277295244e-03
-7.189582910065516787e-03
-7.018892015476858176e-03
-6.858907607191735284e-03
-6.707304372365962587e-03
-6.561638986921350045e-03
