-1.161279067681285637e-01
-1.161177851304953795e-01
-1.161076602300252919e-01
-1.160975320668100885e-01
-1.160874006409412240e-01
-1.160772659525098477e-01
-1.160671280016068591e-01
-1.160569867883229911e-01
-1.160468423127487131e-01
-1.160366945749741890e-01
-1.160265435750893331e-01
-1.160163893131837959e-01
-1.160062317893469641e-01
-1.159960710036679610e-01
-1.159859069562355904e-01
-1.159757396471383512e-01
-1.159655690764644226e-01
-1.159553952443017760e-01
-1.159452181507380775e-01
-1.159350377958606876e-01
-1.159248541797567172e-01
-1.159146673025129720e-01
-1.159044771642159938e-01
-1.158942837649520469e-01
-1.158840871048071874e-01
-1.158738871838672357e-01
-1.158636840022177761e-01
-1.158534775599440736e-01
-1.158432678571310742e-01
-1.158330548938634186e-01
-1.158228386702255391e-01
-1.158126191863016047e-01
-1.158023964421754370e-01
-1.157921704379305666e-01
-1.157819411736502047e-01
-1.157717086494172987e-01
-1.157614728653145464e-01
-1.157512338214243958e-01
-1.157409915178289894e-01
-1.157307459546101092e-01
-1.157204971318492315e-01
-1.157102450496275831e-01
-1.156999897080260853e-01
-1.156897311071253542e-01
-1.156794692470056590e-01
-1.156692041277470190e-01
-1.156589357494291898e-01
-1.156486641121316911e-01
-1.156383892159337373e-01
-1.156281110609142793e-01
-1.156178296471519207e-01
-1.156075449747249739e-01
-1.155972570437114322e-01
-1.155869658541889694e-01
-1.155766714062350237e-01
-1.155663736999266999e-01
-1.155560727353408673e-01
-1.155457685125540757e-01
-1.155354610316426112e-01
-1.155251502926824686e-01
-1.155148362957493513e-01
-1.155045190409187128e-01
-1.154941985282657152e-01
-1.154838747578652292e-01
-1.154735477297918200e-01
-1.154632174441198172e-01
-1.154528839009232588e-01
-1.154425471002759745e-01
-1.154322070422515445e-01
-1.154218637269232156e-01
-1.154115171543639989e-01
-1.154011673246467112e-01
-1.153908142378438639e-01
-1.153804578940276770e-01
-1.153700982932700930e-01
-1.153597354356427074e-01
-1.153493693212168103e-01
-1.153389999500634422e-01
-1.153286273222533520e-01
-1.153182514378571222e-01
-1.153078722969450298e-01
-1.152974898995871023e-01
-1.152871042458530337e-01
-1.152767153358122826e-01
-1.152663231695341267e-01
-1.152559277470875526e-01
-1.152455290685412553e-01
-1.152351271339636524e-01
-1.152247219434228559e-01
-1.152143134969867283e-01
-1.152039017947228544e-01
-1.151934868366986386e-01
-1.151830686229811940e-01
-1.151726471536373003e-01
-1.151622224287335017e-01
-1.151517944483360506e-01
-1.151413632125109776e-01
-1.151309287213240773e-01
-1.151204909748408528e-01
-1.151100499731265714e-01
-1.150996057162462644e-01
-1.150891582042647410e-01
-1.150787074372465746e-01
-1.150682534152560055e-01
-1.150577961383569964e-01
-1.150473356066132602e-01
-1.150368718200882323e-01
-1.150264047788451260e-01
-1.150159344829469188e-01
-1.150054609324563659e-01
-1.149949841274359452e-01
-1.149845040679478569e-01
-1.149740207540539544e-01
-1.149635341858157994e-01
-1.149530443632947874e-01
-1.149425512865521887e-01
-1.149320549556490378e-01
-1.149215553706461057e-01
-1.149110525316038994e-01
-1.149005464385825792e-01
-1.148900370916419583e-01
-1.148795244908416280e-01
-1.148690086362409019e-01
-1.148584895278988161e-01
-1.148479671658742401e-01
-1.148374415502257662e-01
-1.148269126810117086e-01
-1.148163805582901043e-01
-1.148058451821187681e-01
-1.147953065525552929e-01
-1.147847646696570495e-01
-1.147742195334811310e-01
-1.147636711440844087e-01
-1.147531195015234901e-01
-1.147425646058547050e-01
-1.147320064571341475e-01
-1.147214450554177034e-01
-1.147108804007609395e-01
-1.147003124932192003e-01
-1.146897413328475529e-01
-1.146791669197008423e-01
-1.146685892538336915e-01
-1.146580083353005014e-01
-1.146474241641554509e-01
-1.146368367404524552e-01
-1.146262460642451658e-01
-1.146156521355869568e-01
-1.146050549545310493e-01
-1.145944545211303456e-01
-1.145838508354374702e-01
-1.145732438975047701e-01
-1.145626337073843842e-01
-1.145520202651281322e-01
-1.145414035707876116e-01
-1.145307836244141564e-01
-1.145201604260588368e-01
-1.145095339757724456e-01
-1.144989042736054979e-01
-1.144882713196083007e-01
-1.144776351138309528e-01
-1.144669956563232754e-01
-1.144563529471348401e-01
-1.144457069863149129e-01
-1.144350577739125380e-01
-1.144244053099764818e-01
-1.144137495945553029e-01
-1.144030906276973097e-01
-1.143924284094504779e-01
-1.143817629398625607e-01
-1.143710942189811175e-01
-1.143604222468535131e-01
-1.143497470235268487e-01
-1.143390685490480035e-01
-1.143283868234635375e-01
-1.143177018468197609e-01
-1.143070136191626646e-01
-1.142963221405380175e-01
-1.142856274109912834e-01
-1.142749294305677316e-01
-1.142642281993124093e-01
-1.142535237172701695e-01
-1.142428159844856156e-01
-1.142321050010030731e-01
-1.142213907668666734e-01
-1.142106732821203535e-01
-1.141999525468078286e-01
-1.141892285609725083e-01
-1.141785013246575525e-01
-1.141677708379059131e-01
-1.141570371007602919e-01
-1.141463001132630717e-01
-1.141355598754564271e-01
-1.141248163873822274e-01
-1.141140696490820922e-01
-1.141033196605973909e-01
-1.140925664219692437e-01
-1.140818099332384511e-01
-1.140710501944455502e-01
-1.140602872056308281e-01
-1.140495209668343224e-01
-1.140387514780958761e-01
-1.140279787394550687e-01
-1.140172027509512159e-01
-1.140064235126233977e-01
-1.139956410245104579e-01
-1.139848552866509768e-01
-1.139740662990833264e-01
-1.139632740618455875e-01
-1.139524785749755492e-01
-1.139416798385107926e-01
-1.139308778524886351e-01
-1.139200726169461025e-01
-1.139092641319199295e-01
-1.138984523974466423e-01
-1.138876374135625175e-01
-1.138768191803035401e-01
-1.138659976977055566e-01
-1.138551729658042327e-01
-1.138443449846349848e-01
-1.138335137542329650e-01
-1.138226792746330346e-01
-1.138118415458698185e-01
-1.138010005679777475e-01
-1.137901563409910027e-01
-1.137793088649435708e-01
-1.137684581398692024e-01
-1.137576041658014125e-01
-1.137467469427735772e-01
-1.137358864708188921e-01
-1.137250227499702615e-01
-1.137141557802603953e-01
-1.137032855617218230e-01
-1.136924120943868938e-01
-1.136815353782877069e-01
-1.136706554134561259e-01
-1.136597721999238475e-01
-1.136488857377222772e-01
-1.136379960268825706e-01
-1.136271030674357030e-01
-1.136162068594123581e-01
-1.136053074028429144e-01
-1.135944046977575700e-01
-1.135834987441863009e-01
-1.135725895421588472e-01
-1.135616770917047685e-01
-1.135507613928533471e-01
-1.135398424456336847e-01
-1.135289202500747024e-01
-1.135179948062051414e-01
-1.135070661140534370e-01
-1.134961341736478030e-01
-1.134851989850163001e-01
-1.134742605481868089e-01
-1.134633188631870293e-01
-1.134523739300444256e-01
-1.134414257487862260e-01
-1.134304743194394921e-01
-1.134195196420311191e-01
-1.134085617165877247e-01
-1.133976005431356349e-01
-1.133866361217009538e-01
-1.133756684523096331e-01
-1.133646975349873326e-01
-1.133537233697594765e-01
-1.133427459566512113e-01
-1.133317652956875171e-01
-1.133207813868931518e-01
-1.133097942302927069e-01
-1.132988038259105518e-01
-1.132878101737708337e-01
-1.132768132738974226e-01
-1.132658131263138551e-01
-1.132548097310434043e-01
-1.132438030881091351e-01
-1.132327931975338209e-01
-1.132217800593400131e-01
-1.132107636735499995e-01
-1.131997440401859012e-01
-1.131887211592695203e-01
-1.131776950308224367e-01
-1.131666656548659944e-01
-1.131556330314213432e-01
-1.131445971605093831e-01
-1.131335580421507780e-01
-1.131225156763659700e-01
-1.131114700631751513e-01
-1.131004212025983058e-01
-1.130893690946551955e-01
-1.130783137393653742e-01
-1.130672551367481876e-01
-1.130561932868228703e-01
-1.130451281896084625e-01
-1.130340598451237549e-01
-1.130229882533873159e-01
-1.130119134144176168e-01
-1.130008353282329764e-01
-1.129897539948515051e-01
-1.129786694142910636e-01
-1.129675815865693045e-01
-1.129564905117036722e-01
-1.129453961897114722e-01
-1.129342986206098576e-01
-1.129231978044158285e-01
-1.129120937411461911e-01
-1.129009864308175987e-01
-1.128898758734464963e-01
-1.128787620690490795e-01
-1.128676450176413493e-01
-1.128565247192391124e-01
-1.128454011738579815e-01
-1.128342743815133192e-01
-1.128231443422202385e-01
-1.128120110559936579e-01
-1.128008745228483017e-01
-1.127897347427987002e-01
-1.127785917158591750e-01
-1.127674454420438538e-01
-1.127562959213666838e-01
-1.127451431538414733e-01
-1.127339871394818505e-01
-1.127228278783012488e-01
-1.127116653703129495e-01
-1.127004996155300531e-01
-1.126893306139654244e-01
-1.126781583656317337e-01
-1.126669828705414711e-01
-1.126558041287068351e-01
-1.126446221401398301e-01
-1.126334369048523354e-01
-1.126222484228561055e-01
-1.126110566941627561e-01
-1.125998617187837780e-01
-1.125886634967305372e-01
-1.125774620280142191e-01
-1.125662573126458427e-01
-1.125550493506362326e-01
-1.125438381419960748e-01
-1.125326236867358332e-01
-1.125214059848658049e-01
-1.125101850363961209e-01
-1.124989608413367731e-01
-1.124877333996974482e-01
-1.124765027114876248e-01
-1.124652687767165593e-01
-1.124540315953933278e-01
-1.124427911675267844e-01
-1.124315474931256026e-01
-1.124203005721982757e-01
-1.124090504047530192e-01
-1.123977969907978269e-01
-1.123865403303404703e-01
-1.123752804233885128e-01
-1.123640172699493095e-01
-1.123527508700300354e-01
-1.123414812236376292e-01
-1.123302083307788635e-01
-1.123189321914602884e-01
-1.123076528056882878e-01
-1.122963701734691344e-01
-1.122850842948089484e-01
-1.122737951697136971e-01
-1.122625027981891815e-01
-1.122512071802410499e-01
-1.122399083158747979e-01
-1.122286062050958100e-01
-1.122173008479093043e-01
-1.122059922443203461e-01
-1.121946803943337512e-01
-1.121833652979541129e-01
-1.121720469551859140e-01
-1.121607253660334980e-01
-1.121494005305010561e-01
-1.121380724485925712e-01
-1.121267411203118736e-01
-1.121154065456626409e-01
-1.121040687246484119e-01
-1.120927276572726283e-01
-1.120813833435385792e-01
-1.120700357834494149e-01
-1.120586849770081883e-01
-1.120473309242178556e-01
-1.120359736250812338e-01
-1.120246130796010570e-01
-1.120132492877799202e-01
-1.120018822496202660e-01
-1.119905119651243841e-01
-1.119791384342944951e-01
-1.119677616571326390e-01
-1.119563816336407031e-01
-1.119449983638204221e-01
-1.119336118476733505e-01
-1.119222220852009175e-01
-1.119108290764043584e-01
-1.118994328212847139e-01
-1.118880333198428306e-01
-1.118766305720793747e-01
-1.118652245779947763e-01
-1.118538153375893268e-01
-1.118424028508631929e-01
-1.118309871178163051e-01
-1.118195681384484552e-01
-1.118081459127592547e-01
-1.117967204407481902e-01
-1.117852917224146231e-01
-1.117738597577577486e-01
-1.117624245467766231e-01
-1.117509860894702195e-01
-1.117395443858373999e-01
-1.117280994358768598e-01
-1.117166512395871281e-01
-1.117051997969666088e-01
-1.116937451080135812e-01
-1.116822871727261440e-01
-1.116708259911022155e-01
-1.116593615631396724e-01
-1.116478938888362249e-01
-1.116364229681894582e-01
-1.116249488011968466e-01
-1.116134713878556978e-01
-1.116019907281632084e-01
-1.115905068221164087e-01
-1.115790196697122733e-01
-1.115675292709476102e-01
-1.115560356258190750e-01
-1.115445387343232814e-01
-1.115330385964567184e-01
-1.115215352122158193e-01
-1.115100285815968789e-01
-1.114985187045960807e-01
-1.114870055812094418e-01
-1.114754892114327850e-01
-1.114639695952619469e-01
-1.114524467326925977e-01
-1.114409206237202965e-01
-1.114293912683405052e-01
-1.114178586665485471e-01
-1.114063228183395926e-01
-1.113947837237087707e-01
-1.113832413826510714e-01
-1.113716957951613323e-01
-1.113601469612342937e-01
-1.113485948808646125e-01
-1.113370395540467517e-01
-1.113254809807750351e-01
-1.113139191610437451e-01
-1.113023540948470669e-01
-1.112907857821790469e-01
-1.112792142230336484e-01
-1.112676394174046957e-01
-1.112560613652859298e-01
-1.112444800666710226e-01
-1.112328955215535764e-01
-1.112213077299271519e-01
-1.112097166917852265e-01
-1.111981224071210972e-01
-1.111865248759279778e-01
-1.111749240981990683e-01
-1.111633200739274990e-01
-1.111517128031062618e-01
-1.111401022857282650e-01
-1.111284885217864032e-01
-1.111168715112735711e-01
-1.111052512541825937e-01
-1.110936277505062825e-01
-1.110820010002373376e-01
-1.110703710033683761e-01
-1.110587377598919873e-01
-1.110471012698006632e-01
-1.110354615330867850e-01
-1.110238185497426505e-01
-1.110121723197605020e-01
-1.110005228431325403e-01
-1.109888701198508965e-01
-1.109772141499076326e-01
-1.109655549332947549e-01
-1.109538924700041590e-01
-1.109422267600276846e-01
-1.109305578033571299e-01
-1.109188855999843071e-01
-1.109072101499009588e-01
-1.108955314530987724e-01
-1.108838495095694487e-01
-1.108721643193046336e-01
-1.108604758822958752e-01
-1.108487841985347361e-01
-1.108370892680127229e-01
-1.108253910907213008e-01
-1.108136896666519489e-01
-1.108019849957960351e-01
-1.107902770781448998e-01
-1.107785659136897999e-01
-1.107668515024218814e-01
-1.107551338443321931e-01
-1.107434129394118116e-01
-1.107316887876517858e-01
-1.107199613890431783e-01
-1.107082307435770102e-01
-1.106964968512442749e-01
-1.106847597120358268e-01
-1.106730193259424372e-01
-1.106612756929548497e-01
-1.106495288130637245e-01
-1.106377786862597495e-01
-1.106260253125335852e-01
-1.106142686918759194e-01
-1.106025088242774124e-01
-1.105907457097287522e-01
-1.105789793482205574e-01
-1.105672097397433773e-01
-1.105554368842877333e-01
-1.105436607818441330e-01
-1.105318814324030841e-01
-1.105200988359550801e-01
-1.105083129924905871e-01
-1.104965239020001128e-01
-1.104847315644740952e-01
-1.104729359799030697e-01
-1.104611371482775162e-01
-1.104493350695877896e-01
-1.104375297438242309e-01
-1.104257211709771258e-01
-1.104139093510367597e-01
-1.104020942839934044e-01
-1.103902759698373176e-01
-1.103784544085587155e-01
-1.103666296001478281e-01
-1.103548015445948161e-01
-1.103429702418897151e-01
-1.103311356920225750e-01
-1.103192978949834591e-01
-1.103074568507624309e-01
-1.102956125593495540e-01
-1.102837650207349057e-01
-1.102719142349085774e-01
-1.102600602018607157e-01
-1.102482029215814258e-01
-1.102363423940608961e-01
-1.102244786192892734e-01
-1.102126115972567599e-01
-1.102007413279536274e-01
-1.101888678113701198e-01
-1.101769910474965503e-01
-1.101651110363232461e-01
-1.101532277778404512e-01
-1.101413412720383678e-01
-1.101294515189072259e-01
-1.101175585184372419e-01
-1.101056622706185900e-01
-1.100937627754414588e-01
-1.100818600328960090e-01
-1.100699540429724288e-01
-1.100580448056609484e-01
-1.100461323209517839e-01
-1.100342165888351237e-01
-1.100222976093011840e-01
-1.100103753823401115e-01
-1.099984499079420391e-01
-1.099865211860971831e-01
-1.099745892167957456e-01
-1.099626540000279706e-01
-1.099507155357840327e-01
-1.099387738240540924e-01
-1.099268288648282410e-01
-1.099148806580965698e-01
-1.099029292038491007e-01
-1.098909745020758971e-01
-1.098790165527671336e-01
-1.098670553559131513e-01
-1.098550909115043883e-01
-1.098431232195313245e-01
-1.098311522799845091e-01
-1.098191780928545608e-01
-1.098072006581321397e-01
-1.097952199758079478e-01
-1.097832360458727563e-01
-1.097712488683173504e-01
-1.097592584431325846e-01
-1.097472647703093829e-01
-1.097352678498387246e-01
-1.097232676817115893e-01
-1.097112642659189563e-01
-1.096992576024519439e-01
-1.096872476913016980e-01
-1.096752345324594202e-01
-1.096632181259163813e-01
-1.096511984716639354e-01
-1.096391755696935200e-01
-1.096271494199966418e-01
-1.096151200225648770e-01
-1.096030873773897740e-01
-1.095910514844629091e-01
-1.095790123437759972e-01
-1.095669699553207671e-01
-1.095549243190890865e-01
-1.095428754350728645e-01
-1.095308233032641493e-01
-1.095187679236550859e-01
-1.095067092962379585e-01
-1.094946474210050646e-01
-1.094825822979487995e-01
-1.094705139270616134e-01
-1.094584423083360541e-01
-1.094463674417647109e-01
-1.094342893273402700e-01
-1.094222079650555568e-01
-1.094101233549035074e-01
-1.093980354968771135e-01
-1.093859443909694501e-01
-1.093738500371736894e-01
-1.093617524354830589e-01
-1.093496515858908974e-01
-1.093375474883905435e-01
-1.093254401429753914e-01
-1.093133295496389323e-01
-1.093012157083746994e-01
-1.092890986191762948e-01
-1.092769782820373903e-01
-1.092648546969517132e-01
-1.092527278639130461e-01
-1.092405977829153385e-01
-1.092284644539526645e-01
-1.092163278770192231e-01
-1.092041880521093244e-01
-1.091920449792173897e-01
-1.091798986583379510e-01
-1.091677490894656793e-01
-1.091555962725952733e-01
-1.091434402077215982e-01
-1.091312808948396440e-01
-1.091191183339445814e-01
-1.091069525250317057e-01
-1.090947834680965067e-01
-1.090826111631345435e-01
-1.090704356101414446e-01
-1.090582568091129217e-01
-1.090460747600447144e-01
-1.090338894629326455e-01
-1.090217009177726626e-01
-1.090095091245608383e-01
-1.089973140832934534e-01
-1.089851157939669829e-01
-1.089729142565780268e-01
-1.089607094711232821e-01
-1.089485014375995847e-01
-1.089362901560038399e-01
-1.089240756263331056e-01
-1.089118578485845923e-01
-1.088996368227555939e-01
-1.088874125488436123e-01
-1.088751850268463023e-01
-1.088629542567614433e-01
-1.088507202385870648e-01
-1.088384829723213626e-01
-1.088262424579627408e-01
-1.088139986955096311e-01
-1.088017516849606736e-01
-1.087895014263146748e-01
-1.087772479195705938e-01
-1.087649911647274731e-01
-1.087527311617845077e-01
-1.087404679107410038e-01
-1.087282014115964757e-01
-1.087159316643506457e-01
-1.087036586690033890e-01
-1.086913824255547334e-01
-1.086791029340048176e-01
-1.086668201943539469e-01
-1.086545342066025377e-01
-1.086422449707511589e-01
-1.086299524868005323e-01
-1.086176567547515459e-01
-1.086053577746051435e-01
-1.085930555463623798e-01
-1.085807500700244205e-01
-1.085684413455926534e-01
-1.085561293730685772e-01
-1.085438141524538574e-01
-1.085314956837502703e-01
-1.085191739669598143e-01
-1.085068490020846543e-01
-1.084945207891272329e-01
-1.084821893280901589e-01
-1.084698546189762636e-01
-1.084575166617885444e-01
-1.084451754565301795e-01
-1.084328310032044718e-01
-1.084204833018148906e-01
-1.084081323523651413e-01
-1.083957781548591098e-01
-1.083834207093009039e-01
-1.083710600156949089e-01
-1.083586960740456767e-01
-1.083463288843579397e-01
-1.083339584466366107e-01
-1.083215847608867688e-01
-1.083092078271136877e-01
-1.082968276453227241e-01
-1.082844442155194986e-01
-1.082720575377097982e-01
-1.082596676118995488e-01
-1.082472744380949259e-01
-1.082348780163021745e-01
-1.082224783465276507e-01
-1.082100754287778910e-01
-1.081976692630596121e-01
-1.081852598493797668e-01
-1.081728471877454467e-01
-1.081604312781639793e-01
-1.081480121206428169e-01
-1.081355897151895923e-01
-1.081231640618121187e-01
-1.081107351605184036e-01
-1.080983030113166349e-01
-1.080858676142151253e-01
-1.080734289692224376e-01
-1.080609870763473146e-01
-1.080485419355986798e-01
-1.080360935469855954e-01
-1.080236419105172485e-01
-1.080111870262029511e-01
-1.079987288940522094e-01
-1.079862675140747241e-01
-1.079738028862803900e-01
-1.079613350106792963e-01
-1.079488638872816569e-01
-1.079363895160979081e-01
-1.079239118971386663e-01
-1.079114310304148117e-01
-1.078989469159374326e-01
-1.078864595537177423e-01
-1.078739689437670790e-01
-1.078614750860969196e-01
-1.078489779807189353e-01
-1.078364776276449361e-01
-1.078239740268869679e-01
-1.078114671784572570e-01
-1.077989570823682242e-01
-1.077864437386324287e-01
-1.077739271472625687e-01
-1.077614073082715368e-01
-1.077488842216723086e-01
-1.077363578874780542e-01
-1.077238283057021934e-01
-1.077112954763583819e-01
-1.076987593994605114e-01
-1.076862200750226123e-01
-1.076736775030588539e-01
-1.076611316835835025e-01
-1.076485826166109772e-01
-1.076360303021559328e-01
-1.076234747402332048e-01
-1.076109159308577673e-01
-1.075983538740447748e-01
-1.075857885698095762e-01
-1.075732200181677284e-01
-1.075606482191349689e-01
-1.075480731727271738e-01
-1.075354948789603721e-01
-1.075229133378508839e-01
-1.075103285494152655e-01
-1.074977405136702813e-01
-1.074851492306329037e-01
-1.074725547003203413e-01
-1.074599569227499829e-01
-1.074473558979394117e-01
-1.074347516259064605e-01
-1.074221441066691568e-01
-1.074095333402457775e-01
-1.073969193266548494e-01
-1.073843020659150799e-01
-1.073716815580453010e-01
-1.073590578030645531e-01
-1.073464308009920848e-01
-1.073338005518474358e-01
-1.073211670556503822e-01
-1.073085303124208939e-01
-1.072958903221790800e-01
-1.072832470849451325e-01
-1.072706006007394380e-01
-1.072579508695825773e-01
-1.072452978914953114e-01
-1.072326416664985821e-01
-1.072199821946134696e-01
-1.072073194758612485e-01
-1.071946535102633880e-01
-1.071819842978414400e-01
-1.071693118386172067e-01
-1.071566361326127259e-01
-1.071439571798502716e-01
-1.071312749803522563e-01
-1.071185895341412730e-01
-1.071059008412400954e-01
-1.070932089016716909e-01
-1.070805137154591663e-01
-1.070678152826257112e-01
-1.070551136031946404e-01
-1.070424086771894490e-01
-1.070297005046338262e-01
-1.070169890855516559e-01
-1.070042744199670021e-01
-1.069915565079039843e-01
-1.069788353493869165e-01
-1.069661109444403069e-01
-1.069533832930887746e-01
-1.069406523953571331e-01
-1.069279182512703902e-01
-1.069151808608537202e-01
-1.069024402241324778e-01
-1.068896963411322676e-01
-1.068769492118788744e-01
-1.068641988363982498e-01
-1.068514452147165394e-01
-1.068386883468601389e-01
-1.068259282328556659e-01
-1.068131648727299182e-01
-1.068003982665098744e-01
-1.067876284142226795e-01
-1.067748553158956032e-01
-1.067620789715561097e-01
-1.067492993812318297e-01
-1.067365165449506159e-01
-1.067237304627404598e-01
-1.067109411346295750e-01
-1.066981485606462859e-01
-1.066853527408190561e-01
-1.066725536751765152e-01
-1.066597513637473904e-01
-1.066469458065605336e-01
-1.066341370036449354e-01
-1.066213249550297670e-01
-1.066085096607443522e-01
-1.065956911208181257e-01
-1.065828693352806472e-01
-1.065700443041615875e-01
-1.065572160274906727e-01
-1.065443845052977401e-01
-1.065315497376126824e-01
-1.065187117244655035e-01
-1.065058704658863736e-01
-1.064930259619056852e-01
-1.064801782125540525e-01
-1.064673272178622010e-01
-1.064544729778609672e-01
-1.064416154925813540e-01
-1.064287547620544200e-01
-1.064158907863114317e-01
-1.064030235653838641e-01
-1.063901530993034139e-01
-1.063772793881020556e-01
-1.063644024318119163e-01
-1.063515222304652758e-01
-1.063386387840946357e-01
-1.063257520927327060e-01
-1.063128621564123494e-01
-1.062999689751665949e-01
-1.062870725490286800e-01
-1.062741728780320360e-01
-1.062612699622102475e-01
-1.062483638015970649e-01
-1.062354543962264475e-01
-1.062225417461325483e-01
-1.062096258513496178e-01
-1.061967067119121283e-01
-1.061837843278547050e-01
-1.061708586992121117e-01
-1.061579298260192511e-01
-1.061449977083111645e-01
-1.061320623461230878e-01
-1.061191237394905201e-01
-1.061061818884490027e-01
-1.060932367930342152e-01
-1.060802884532820317e-01
-1.060673368692285207e-01
-1.060543820409098892e-01
-1.060414239683624832e-01
-1.060284626516227319e-01
-1.060154980907272587e-01
-1.060025302857128260e-01
-1.059895592366163208e-01
-1.059765849434747692e-01
-1.059636074063253913e-01
-1.059506266252054768e-01
-1.059376426001523985e-01
-1.059246553312036543e-01
-1.059116648183968667e-01
-1.058986710617697974e-01
-1.058856740613603326e-01
-1.058726738172064696e-01
-1.058596703293463864e-01
-1.058466635978184550e-01
-1.058336536226611724e-01
-1.058206404039132020e-01
-1.058076239416133879e-01
-1.057946042358006433e-01
-1.057815812865140481e-01
-1.057685550937927516e-01
-1.057555256576760833e-01
-1.057424929782034700e-01
-1.057294570554143942e-01
-1.057164178893484074e-01
-1.057033754800452280e-01
-1.056903298275446434e-01
-1.056772809318864415e-01
-1.056642287931105484e-01
-1.056511734112570572e-01
-1.056381147863661857e-01
-1.056250529184781933e-01
-1.056119878076334923e-01
-1.055989194538726056e-01
-1.055858478572361536e-01
-1.055727730177649093e-01
-1.055596949354997566e-01
-1.055466136104816766e-01
-1.055335290427518585e-01
-1.055204412323515889e-01
-1.055073501793222929e-01
-1.054942558837054928e-01
-1.054811583455427526e-01
-1.054680575648756641e-01
-1.054549535417459716e-01
-1.054418462761954611e-01
-1.054287357682660020e-01
-1.054156220179994913e-01
-1.054025050254378953e-01
-1.053893847906232639e-01
-1.053762613135977438e-01
-1.053631345944034958e-01
-1.053500046330826528e-01
-1.053368714296774450e-01
-1.053237349842301718e-01
-1.053105952967832021e-01
-1.052974523673789325e-01
-1.052843061960598292e-01
-1.052711567828684691e-01
-1.052580041278474987e-01
-1.052448482310396477e-01
-1.052316890924877152e-01
-1.052185267122345558e-01
-1.052053610903230935e-01
-1.051921922267963216e-01
-1.051790201216972892e-01
-1.051658447750691006e-01
-1.051526661869549711e-01
-1.051394843573982413e-01
-1.051262992864423207e-01
-1.051131109741307162e-01
-1.050999194205069764e-01
-1.050867246256147053e-01
-1.050735265894975068e-01
-1.050603253121990405e-01
-1.050471207937630075e-01
-1.050339130342331506e-01
-1.050207020336532127e-01
-1.050074877920669780e-01
-1.049942703095182034e-01
-1.049810495860506870e-01
-1.049678256217082689e-01
-1.049545984165348306e-01
-1.049413679705742397e-01
-1.049281342838703918e-01
-1.049148973564671544e-01
-1.049016571884084231e-01
-1.048884137797380794e-01
-1.048751671305001437e-01
-1.048619172407386502e-01
-1.048486641104976608e-01
-1.048354077398211959e-01
-1.048221481287532897e-01
-1.048088852773380181e-01
-1.047956191856195401e-01
-1.047823498536420150e-01
-1.047690772814494492e-01
-1.047558014690858075e-01
-1.047425224165951241e-01
-1.047292401240213916e-01
-1.047159545914085471e-01
-1.047026658188004722e-01
-1.046893738062410484e-01
-1.046760785537741711e-01
-1.046627800614436943e-01
-1.046494783292935271e-01
-1.046361733573675651e-01
-1.046228651457096898e-01
-1.046095536943637272e-01
-1.045962390033735034e-01
-1.045829210727829001e-01
-1.045695999026358403e-01
-1.045562754929762750e-01
-1.045429478438481968e-01
-1.045296169552956539e-01
-1.045162828273627220e-01
-1.045029454600935048e-01
-1.044896048535320920e-01
-1.044762610077225456e-01
-1.044629139227089137e-01
-1.044495635985351611e-01
-1.044362100352452666e-01
-1.044228532328832365e-01
-1.044094931914929386e-01
-1.043961299111182128e-01
-1.043827633918029130e-01
-1.043693936335908512e-01
-1.043560206365257564e-01
-1.043426444006512605e-01
-1.043292649260109950e-01
-1.043158822126486057e-01
-1.043024962606076411e-01
-1.042891070699316497e-01
-1.042757146406640689e-01
-1.042623189728482253e-01
-1.042489200665274590e-01
-1.042355179217450134e-01
-1.042221125385441177e-01
-1.042087039169678764e-01
-1.041952920570592273e-01
-1.041818769588609833e-01
-1.041684586224158882e-01
-1.041550370477666299e-01
-1.041416122349558965e-01
-1.041281841840262512e-01
-1.041147528950202295e-01
-1.041013183679802417e-01
-1.040878806029486847e-01
-1.040744395999679828e-01
-1.040609953590804215e-01
-1.040475478803281478e-01
-1.040340971637532252e-01
-1.040206432093975786e-01
-1.040071860173030632e-01
-1.039937255875114513e-01
-1.039802619200644179e-01
-1.039667950150034992e-01
-1.039533248723701342e-01
-1.039398514922056094e-01
-1.039263748745510724e-01
-1.039128950194474627e-01
-1.038994119269355532e-01
-1.038859255970559642e-01
-1.038724360298491634e-01
-1.038589432253555211e-01
-1.038454471836153109e-01
-1.038319479046687366e-01
-1.038184453885558911e-01
-1.038049396353167703e-01
-1.037914306449912588e-01
-1.037779184176190750e-01
-1.037644029532398260e-01
-1.037508842518930080e-01
-1.037373623136179923e-01
-1.037238371384540253e-01
-1.037103087264401868e-01
-1.036967770776154457e-01
-1.036832421920185349e-01
-1.036697040696881039e-01
-1.036561627106626221e-01
-1.036426181149804476e-01
-1.036290702826798138e-01
-1.036155192137988706e-01
-1.036019649083756294e-01
-1.035884073664480182e-01
-1.035748465880537844e-01
-1.035612825732305509e-01
-1.035477153220158014e-01
-1.035341448344468812e-01
-1.035205711105610382e-01
-1.035069941503954233e-01
-1.034934139539870068e-01
-1.034798305213725650e-01
-1.034662438525887074e-01
-1.034526539476719048e-01
-1.034390608066585032e-01
-1.034254644295847514e-01
-1.034118648164867316e-01
-1.033982619674003040e-01
-1.033846558823611206e-01
-1.033710465614046947e-01
-1.033574340045663870e-01
-1.033438182118813914e-01
-1.033301991833847355e-01
-1.033165769191111832e-01
-1.033029514190953457e-01
-1.032893226833716122e-01
-1.032756907119741496e-01
-1.032620555049369587e-01
-1.032484170622938735e-01
-1.032347753840785476e-01
-1.032211304703244681e-01
-1.032074823210650250e-01
-1.031938309363334833e-01
-1.031801763161628721e-01
-1.031665184605860958e-01
-1.031528573696358780e-01
-1.031391930433447762e-01
-1.031255254817452227e-01
-1.031118546848694695e-01
-1.030981806527497130e-01
-1.030845033854179138e-01
-1.030708228829058937e-01
-1.030571391452452801e-01
-1.030434521724675756e-01
-1.030297619646041024e-01
-1.030160685216859329e-01
-1.030023718437438479e-01
-1.029886719308084342e-01
-1.029749687829101812e-01
-1.029612624000793980e-01
-1.029475527823462133e-01
-1.029338399297405476e-01
-1.029201238422921133e-01
-1.029064045200303312e-01
-1.028926819629843725e-01
-1.028789561711831307e-01
-1.028652271446553051e-01
-1.028514948834294146e-01
-1.028377593875337698e-01
-1.028240206569965148e-01
-1.028102786918456413e-01
-1.027965334921088908e-01
-1.027827850578137969e-01
-1.027690333889876295e-01
-1.027552784856574503e-01
-1.027415203478500988e-01
-1.027277589755921511e-01
-1.027139943689099749e-01
-1.027002265278296744e-01
-1.026864554523771456e-01
-1.026726811425780622e-01
-1.026589035984579318e-01
-1.026451228200420951e-01
-1.026313388073555738e-01
-1.026175515604232230e-01
-1.026037610792697174e-01
-1.025899673639194126e-01
-1.025761704143963865e-01
-1.025623702307244811e-01
-1.025485668129272609e-01
-1.025347601610280684e-01
-1.025209502750499685e-01
-1.025071371550157900e-01
-1.024933208009480706e-01
-1.024795012128690147e-01
-1.024656783908006047e-01
-1.024518523347645454e-01
-1.024380230447823059e-01
-1.024241905208751607e-01
-1.024103547630640931e-01
-1.023965157713698643e-01
-1.023826735458129439e-01
-1.023688280864136074e-01
-1.023549793931918944e-01
-1.023411274661676085e-01
-1.023272723053603589e-01
-1.023134139107894636e-01
-1.022995522824739489e-01
-1.022856874204325361e-01
-1.022718193246837104e-01
-1.022579479952456100e-01
-1.022440734321361788e-01
-1.022301956353730001e-01
-1.022163146049733518e-01
-1.022024303409541646e-01
-1.021885428433320225e-01
-1.021746521121232459e-01
-1.021607581473438914e-01
-1.021468609490097657e-01
-1.021329605171363702e-01
-1.021190568517389707e-01
-1.021051499528325829e-01
-1.020912398204318339e-01
-1.020773264545510456e-01
-1.020634098552043040e-01
-1.020494900224054868e-01
-1.020355669561682083e-01
-1.020216406565058881e-01
-1.020077111234317380e-01
-1.019937783569587614e-01
-1.019798423570996565e-01
-1.019659031238668578e-01
-1.019519606572724807e-01
-1.019380149573284461e-01
-1.019240660240464114e-01
-1.019101138574377563e-01
-1.018961584575135970e-01
-1.018821998242848414e-01
-1.018682379577621200e-01
-1.018542728579558132e-01
-1.018403045248759964e-01
-1.018263329585324117e-01
-1.018123581589345239e-01
-1.017983801260914645e-01
-1.017843988600121014e-01
-1.017704143607049833e-01
-1.017564266281783397e-01
-1.017424356624401366e-01
-1.017284414634980066e-01
-1.017144440313591941e-01
-1.017004433660306656e-01
-1.016864394675190547e-01
-1.016724323358307175e-01
-1.016584219709716352e-01
-1.016444083729474701e-01
-1.016303915417636067e-01
-1.016163714774251381e-01
-1.016023481799369216e-01
-1.015883216493034952e-01
-1.015742918855290777e-01
-1.015602588886175550e-01
-1.015462226585724659e-01
-1.015321831953970577e-01
-1.015181404990943698e-01
-1.015040945696671082e-01
-1.014900454071176877e-01
-1.014759930114482456e-01
-1.014619373826605858e-01
-1.014478785207561795e-01
-1.014338164257361508e-01
-1.014197510976013322e-01
-1.014056825363522790e-01
-1.013916107419892132e-01
-1.013775357145120654e-01
-1.013634574539204192e-01
-1.013493759602135807e-01
-1.013352912333905093e-01
-1.013212032734498724e-01
-1.013071120803899494e-01
-1.012930176542086863e-01
-1.012789199949037378e-01
-1.012648191024723976e-01
-1.012507149769116682e-01
-1.012366076182182190e-01
-1.012224970263883722e-01
-1.012083832014182144e-01
-1.011942661433034990e-01
-1.011801458520396879e-01
-1.011660223276219378e-01
-1.011518955700450445e-01
-1.011377655793034014e-01
-1.011236323553910688e-01
-1.011094958983017184e-01
-1.010953562080286749e-01
-1.010812132845649025e-01
-1.010670671279030042e-01
-1.010529177380352361e-01
-1.010387651149534660e-01
-1.010246092586492006e-01
-1.010104501691136414e-01
-1.009962878463376568e-01
-1.009821222903117544e-01
-1.009679535010260254e-01
-1.009537814784702281e-01
-1.009396062226337598e-01
-1.009254277335056571e-01
-1.009112460110746234e-01
-1.008970610553291125e-01
-1.008828728662572172e-01
-1.008686814438466833e-01
-1.008544867880849516e-01
-1.008402888989591156e-01
-1.008260877764559776e-01
-1.008118834205619790e-01
-1.007976758312632559e-01
-1.007834650085455419e-01
-1.007692509523942792e-01
-1.007550336627946047e-01
-1.007408131397312945e-01
-1.007265893831887638e-01
-1.007123623931510809e-01
-1.006981321696020226e-01
-1.006838987125250606e-01
-1.006696620219033056e-01
-1.006554220977195629e-01
-1.006411789399562356e-01
-1.006269325485953797e-01
-1.006126829236187320e-01
-1.005984300650077240e-01
-1.005841739727434403e-01
-1.005699146468067157e-01
-1.005556520871780934e-01
-1.005413862938378672e-01
-1.005271172667660112e-01
-1.005128450059422085e-01
-1.004985695113457950e-01
-1.004842907829558013e-01
-1.004700088207510084e-01
-1.004557236247098917e-01
-1.004414351948105660e-01
-1.004271435310308408e-01
-1.004128486333482340e-01
-1.003985505017398056e-01
-1.003842491361822409e-01
-1.003699445366518506e-01
-1.003556367031246538e-01
-1.003413256355763783e-01
-1.003270113339824465e-01
-1.003126937983178646e-01
-1.002983730285572778e-01
-1.002840490246750399e-01
-1.002697217866452134e-01
-1.002553913144415415e-01
-1.002410576080373927e-01
-1.002267206674057887e-01
-1.002123804925194039e-01
-1.001980370833505940e-01
-1.001836904398713535e-01
-1.001693405620533994e-01
-1.001549874498680881e-01
-1.001406311032864010e-01
-1.001262715222789590e-01
-1.001119087068160218e-01
-1.000975426568675025e-01
-1.000831733724029116e-01
-1.000688008533913986e-01
-1.000544250998018636e-01
-1.000400461116029011e-01
-1.000256638887627447e-01
-1.000112784312493230e-01
-9.999688973903025913e-02
-9.998249781207288467e-02
-9.996810265034423992e-02
-9.995370425381099044e-02
-9.993930262243938545e-02
-9.992489775619534109e-02
-9.991048965504453760e-02
-9.989607831895228052e-02
-9.988166374788355617e-02
-9.986724594180305947e-02
-9.985282490067508288e-02
-9.983840062446350250e-02
-9.982397311313179200e-02
-9.980954236664307810e-02
-9.979510838496018221e-02
-9.978067116804562042e-02
-9.976623071586160352e-02
-9.975178702837010636e-02
-9.973734010553281237e-02
-9.972288994731104417e-02
-9.970843655366581904e-02
-9.969397992455786284e-02
-9.967952005994755449e-02
-9.966505695979491208e-02
-9.965059062405955126e-02
-9.963612105270079622e-02
-9.962164824567766586e-02
-9.960717220294881824e-02
-9.959269292447256450e-02
-9.957821041020697983e-02
-9.956372466010977862e-02
-9.954923567413838381e-02
-9.953474345224988529e-02
-9.952024799440097047e-02
-9.950574930054802147e-02
-9.949124737064711510e-02
-9.947674220465398121e-02
-9.946223380252401658e-02
-9.944772216421225719e-02
-9.943320728967348920e-02
-9.941868917886216572e-02
-9.940416783173244841e-02
-9.938964324823815200e-02
-9.937511542833268874e-02
-9.936058437196911008e-02
-9.934605007910013441e-02
-9.933151254967809152e-02
-9.931697178365495038e-02
-9.930242778098233303e-02
-9.928788054161158394e-02
-9.927333006549365901e-02
-9.925877635257909781e-02
-9.924421940281813459e-02
-9.922965921616072604e-02
-9.921509579255649580e-02
-9.920052913195473443e-02
-9.918595923430444106e-02
-9.917138609955432338e-02
-9.915680972765281154e-02
-9.914223011854804424e-02
-9.912764727218781324e-02
-9.911306118851957725e-02
-9.909847186749050352e-02
-9.908387930904737073e-02
-9.906928351313658287e-02
-9.905468447970419699e-02
-9.904008220869592316e-02
-9.902547670005708291e-02
-9.901086795373266469e-02
-9.899625596966732388e-02
-9.898164074780543831e-02
-9.896702228809105273e-02
-9.895240059046786496e-02
-9.893777565487928138e-02
-9.892314748126844470e-02
-9.890851606957823394e-02
-9.889388141975113955e-02
-9.887924353172931891e-02
-9.886460240545465183e-02
-9.884995804086868509e-02
-9.883531043791257686e-02
-9.882065959652716614e-02
-9.880600551665302822e-02
-9.879134819823046088e-02
-9.877668764119948430e-02
-9.876202384549973012e-02
-9.874735681107045526e-02
-9.873268653785059745e-02
-9.871801302577876136e-02
-9.870333627479321859e-02
-9.868865628483186603e-02
-9.867397305583235079e-02
-9.865928658773200077e-02
-9.864459688046781083e-02
-9.862990393397649824e-02
-9.861520774819446111e-02
-9.860050832305784774e-02
-9.858580565850243171e-02
-9.857109975446370909e-02
-9.855639061087685671e-02
-9.854167822767669060e-02
-9.852696260479772150e-02
-9.851224374217408541e-02
-9.849752163973958530e-02
-9.848279629742766328e-02
-9.846806771517134516e-02
-9.845333589290333753e-02
-9.843860083055598620e-02
-9.842386252806131774e-02
-9.840912098535103958e-02
-9.839437620235655380e-02
-9.837962817900901269e-02
-9.836487691523920773e-02
-9.835012241097756958e-02
-9.833536466615420968e-02
-9.832060368069892031e-02
-9.830583945454120232e-02
-9.829107198761026509e-02
-9.827630127983506825e-02
-9.826152733114421056e-02
-9.824675014146602714e-02
-9.823196971072849226e-02
-9.821718603885923327e-02
-9.820239912578557218e-02
-9.818760897143448407e-02
-9.817281557573269424e-02
-9.815801893860660876e-02
-9.814321905998234230e-02
-9.812841593978573196e-02
-9.811360957794237891e-02
-9.809879997437757904e-02
-9.808398712901626737e-02
-9.806917104178303202e-02
-9.805435171260212801e-02
-9.803952914139750507e-02
-9.802470332809280762e-02
-9.800987427261145801e-02
-9.799504197487664270e-02
-9.798020643481120118e-02
-9.796536765233768151e-02
-9.795052562737834034e-02
-9.793568035985515674e-02
-9.792083184968987386e-02
-9.790598009680399894e-02
-9.789112510111887266e-02
-9.787626686255559982e-02
-9.786140538103504927e-02
-9.784654065647775678e-02
-9.783167268880398060e-02
-9.781680147793370139e-02
-9.780192702378662228e-02
-9.778704932628216884e-02
-9.777216838533953069e-02
-9.775728420087761994e-02
-9.774239677281508498e-02
-9.772750610107028280e-02
-9.771261218556129280e-02
-9.769771502620593073e-02
-9.768281462292173478e-02
-9.766791097562596558e-02
-9.765300408423560619e-02
-9.763809394866748703e-02
-9.762318056883817485e-02
-9.760826394466390332e-02
-9.759334407606062856e-02
-9.757842096294409850e-02
-9.756349460522974193e-02
-9.754856500283276555e-02
-9.753363215566811240e-02
-9.751869606365047571e-02
-9.750375672669417404e-02
-9.748881414471330387e-02
-9.747386831762169801e-02
-9.745891924533293948e-02
-9.744396692776036151e-02
-9.742901136481703361e-02
-9.741405255641569227e-02
-9.739909050246881028e-02
-9.738412520288868002e-02
-9.736915665758734406e-02
-9.735418486647656744e-02
-9.733920982946780986e-02
-9.732423154647223962e-02
-9.730925001740081681e-02
-9.729426524216423788e-02
-9.727927722067290783e-02
-9.726428595283698186e-02
-9.724929143856640701e-02
-9.723429367777083887e-02
-9.721929267035973876e-02
-9.720428841624226268e-02
-9.718928091532733071e-02
-9.717427016752355762e-02
-9.715925617273932224e-02
-9.714423893088275364e-02
-9.712921844186166165e-02
-9.711419470558362022e-02
-9.709916772195587020e-02
-9.708413749088541655e-02
-9.706910401227897278e-02
-9.705406728604290545e-02
-9.703902731208333132e-02
-9.702398409030613124e-02
-9.700893762061701953e-02
-9.699388790292143292e-02
-9.697883493712461389e-02
-9.696377872313155510e-02
-9.694871926084709657e-02
-9.693365655017585625e-02
-9.691859059102220231e-02
-9.690352138329028087e-02
-9.688844892688402988e-02
-9.687337322170720688e-02
-9.685829426766338901e-02
-9.684321206465593135e-02
-9.682812661258785591e-02
-9.681303791136192105e-02
-9.679794596088067693e-02
-9.678285076104638229e-02
-9.676775231176105996e-02
-9.675265061292652458e-02
-9.673754566444438263e-02
-9.672243746621601856e-02
-9.670732601814255314e-02
-9.669221132012489894e-02
-9.667709337206380205e-02
-9.666197217385980034e-02
-9.664684772541316804e-02
-9.663172002662401283e-02
-9.661658907739217872e-02
-9.660145487761725991e-02
-9.658631742719864244e-02
-9.657117672603549030e-02
-9.655603277402671769e-02
-9.654088557107105839e-02
-9.652573511706703802e-02
-9.651058141191301565e-02
-9.649542445550719771e-02
-9.648026424774761023e-02
-9.646510078853208492e-02
-9.644993407775824534e-02
-9.643476411532357628e-02
-9.641959090112542374e-02
-9.640441443506095331e-02
-9.638923471702708079e-02
-9.637405174692056931e-02
-9.635886552463804322e-02
-9.634367605007587709e-02
-9.632848332313026507e-02
-9.631328734369723477e-02
-9.629808811167263338e-02
-9.628288562695209996e-02
-9.626767988943102372e-02
-9.625247089900457187e-02
-9.623725865556767567e-02
-9.622204315901503047e-02
-9.620682440924115120e-02
-9.619160240614030299e-02
-9.617637714960651507e-02
-9.616114863953359460e-02
-9.614591687581518220e-02
-9.613068185834480750e-02
-9.611544358701570867e-02
-9.610020206172088797e-02
-9.608495728235323663e-02
-9.606970924880542384e-02
-9.605445796096989675e-02
-9.603920341873888045e-02
-9.602394562200432249e-02
-9.600868457065805939e-02
-9.599342026459176114e-02
-9.597815270369687568e-02
-9.596288188786473994e-02
-9.594760781698657981e-02
-9.593233049095341303e-02
-9.591704990965606303e-02
-9.590176607298514511e-02
-9.588647898083103860e-02
-9.587118863308390082e-02
-9.585589502963375030e-02
-9.584059817037046680e-02
-9.582529805518372190e-02
-9.580999468396296515e-02
-9.579468805659750730e-02
-9.577937817297652034e-02
-9.576406503298906525e-02
-9.574874863652411972e-02
-9.573342898347059204e-02
-9.571810607371723789e-02
-9.570277990715266025e-02
-9.568745048366526784e-02
-9.567211780314338609e-02
-9.565678186547514616e-02
-9.564144267054854043e-02
-9.562610021825143636e-02
-9.561075450847163204e-02
-9.559540554109677291e-02
-9.558005331601431009e-02
-9.556469783311158372e-02
-9.554933909227579514e-02
-9.553397709339400690e-02
-9.551861183635317054e-02
-9.550324332104011271e-02
-9.548787154734152127e-02
-9.547249651514395918e-02
-9.545711822433387839e-02
-9.544173667479760592e-02
-9.542635186642139944e-02
-9.541096379909140557e-02
-9.539557247269365992e-02
-9.538017788711407319e-02
-9.536478004223837568e-02
-9.534937893795214503e-02
-9.533397457414084786e-02
-9.531856695068977037e-02
-9.530315606748408774e-02
-9.528774192440886415e-02
-9.527232452134901108e-02
-9.525690385818939843e-02
-9.524147993481484054e-02
-9.522605275111004075e-02
-9.521062230695943873e-02
-9.519518860224732149e-02
-9.517975163685786499e-02
-9.516431141067509258e-02
-9.514886792358288881e-02
-9.513342117546505494e-02
-9.511797116620535064e-02
-9.510251789568742453e-02
-9.508706136379477258e-02
-9.507160157041080750e-02
-9.505613851541884485e-02
-9.504067219870210304e-02
-9.502520262014378660e-02
-9.500972977962703070e-02
-9.499425367703487333e-02
-9.497877431225031086e-02
-9.496329168515621477e-02
-9.494780579563533163e-02
-9.493231664357026922e-02
-9.491682422884349657e-02
-9.490132855133739942e-02
-9.488582961093423862e-02
-9.487032740751615012e-02
-9.485482194096529762e-02
-9.483931321116371993e-02
-9.482380121799334483e-02
-9.480828596133598907e-02
-9.479276744107334451e-02
-9.477724565708701976e-02
-9.476172060925849849e-02
-9.474619229746920890e-02
-9.473066072160057915e-02
-9.471512588153398193e-02
-9.469958777715072051e-02
-9.468404640833208430e-02
-9.466850177495926555e-02
-9.465295387691347040e-02
-9.463740271407584947e-02
-9.462184828632744238e-02
-9.460629059354928871e-02
-9.459072963562231706e-02
-9.457516541242741437e-02
-9.455959792384543983e-02
-9.454402716975725263e-02
-9.452845315004354543e-02
-9.451287586458498313e-02
-9.449729531326224452e-02
-9.448171149595596674e-02
-9.446612441254674530e-02
-9.445053406291507858e-02
-9.443494044694143719e-02
-9.441934356450626398e-02
-9.440374341548986303e-02
-9.438813999977249680e-02
-9.437253331723438610e-02
-9.435692336775579336e-02
-9.434131015121696717e-02
-9.432569366749818385e-02
-9.431007391647969196e-02
-9.429445089804165681e-02
-9.427882461206428533e-02
-9.426319505842771507e-02
-9.424756223701211133e-02
-9.423192614769757003e-02
-9.421628679036417320e-02
-9.420064416489193349e-02
-9.418499827116086354e-02
-9.416934910905090661e-02
-9.415369667844199209e-02
-9.413804097921403546e-02
-9.412238201124693837e-02
-9.410671977442056080e-02
-9.409105426861476273e-02
-9.407538549370939029e-02
-9.405971344958419245e-02
-9.404403813611886265e-02
-9.402835955319313599e-02
-9.401267770068676144e-02
-9.399699257847950185e-02
-9.398130418645106454e-02
-9.396561252448115686e-02
-9.394991759244955554e-02
-9.393421939023600953e-02
-9.391851791772022617e-02
-9.390281317478185730e-02
-9.388710516130051309e-02
-9.387139387715588701e-02
-9.385567932222770027e-02
-9.383996149639564632e-02
-9.382424039953943251e-02
-9.380851603153872453e-02
-9.379278839227321585e-02
-9.377705748162257215e-02
-9.376132329946648691e-02
-9.374558584568473685e-02
-9.372984512015708480e-02
-9.371410112276339077e-02
-9.369835385338354250e-02
-9.368260331189745549e-02
-9.366684949818507300e-02
-9.365109241212637992e-02
-9.363533205360141665e-02
-9.361956842249026522e-02
-9.360380151867304932e-02
-9.358803134202983709e-02
-9.357225789244079384e-02
-9.355648116978612649e-02
-9.354070117394598649e-02
-9.352491790480063627e-02
-9.350913136223033828e-02
-9.349334154611541048e-02
-9.347754845633633736e-02
-9.346175209277371443e-02
-9.344595245530819272e-02
-9.343014954382042325e-02
-9.341434335819118195e-02
-9.339853389830131414e-02
-9.338272116403172063e-02
-9.336690515526326062e-02
-9.335108587187687657e-02
-9.333526331375352481e-02
-9.331943748077421719e-02
-9.330360837282004882e-02
-9.328777598977215646e-02
-9.327194033151174624e-02
-9.325610139792009368e-02
-9.324025918887855757e-02
-9.322441370426856611e-02
-9.320856494397163072e-02
-9.319271290786931838e-02
-9.317685759584322380e-02
-9.316099900777501108e-02
-9.314513714354638596e-02
-9.312927200303920683e-02
-9.311340358613535984e-02
-9.309753189271671725e-02
-9.308165692266520685e-02
-9.306577867586285358e-02
-9.304989715219176560e-02
-9.303401235153410664e-02
-9.301812427377210979e-02
-9.300223291878816079e-02
-9.298633828646474253e-02
-9.297044037668444894e-02
-9.295453918932997106e-02
-9.293863472428409711e-02
-9.292272698142975407e-02
-9.290681596064995218e-02
-9.289090166182774333e-02
-9.287498408484623491e-02
-9.285906322958865922e-02
-9.284313909593835956e-02
-9.282721168377869314e-02
-9.281128099299315592e-02
-9.279534702346543817e-02
-9.277940977507929954e-02
-9.276346924771872171e-02
-9.274752544126781129e-02
-9.273157835561081364e-02
-9.271562799063205740e-02
-9.269967434621602387e-02
-9.268371742224729148e-02
-9.266775721861061910e-02
-9.265179373519089046e-02
-9.263582697187308646e-02
-9.261985692854228513e-02
-9.260388360508364780e-02
-9.258790700138248841e-02
-9.257192711732427359e-02
-9.255594395279460873e-02
-9.253995750767932127e-02
-9.252396778186440518e-02
-9.250797477523599321e-02
-9.249197848768027364e-02
-9.247597891908367063e-02
-9.245997606933270552e-02
-9.244396993831410780e-02
-9.242796052591477352e-02
-9.241194783202182073e-02
-9.239593185652249241e-02
-9.237991259930415644e-02
-9.236389006025434723e-02
-9.234786423926076571e-02
-9.233183513621129324e-02
-9.231580275099393607e-02
-9.229976708349692249e-02
-9.228372813360860571e-02
-9.226768590121753322e-02
-9.225164038621250229e-02
-9.223559158848243511e-02
-9.221953950791643428e-02
-9.220348414440374119e-02
-9.218742549783384699e-02
-9.217136356809649267e-02
-9.215529835508161349e-02
-9.213922985867939452e-02
-9.212315807878027063e-02
-9.210708301527487096e-02
-9.209100466805401897e-02
-9.207492303700880176e-02
-9.205883812203051464e-02
-9.204274992301071656e-02
-9.202665843984113303e-02
-9.201056367241373934e-02
-9.199446562062070509e-02
-9.197836428435436640e-02
-9.196225966350726755e-02
-9.194615175797206386e-02
-9.193004056764159104e-02
-9.191392609240889300e-02
-9.189780833216727729e-02
-9.188168728681016251e-02
-9.186556295623124480e-02
-9.184943534032444235e-02
-9.183330443898395090e-02
-9.181717025210413274e-02
-9.180103277957964159e-02
-9.178489202130531155e-02
-9.176874797717625432e-02
-9.175260064708770646e-02
-9.173645003093508499e-02
-9.172029612861404280e-02
-9.170413894002048261e-02
-9.168797846505054305e-02
-9.167181470360058482e-02
-9.165564765556720450e-02
-9.163947732084724851e-02
-9.162330369933775753e-02
-9.160712679093602206e-02
-9.159094659553958240e-02
-9.157476311304617311e-02
-9.155857634335372308e-02
-9.154238628636029995e-02
-9.152619294196433219e-02
-9.150999631006449808e-02
-9.149379639055972568e-02
-9.147759318334915124e-02
-9.146138668833217467e-02
-9.144517690540850119e-02
-9.142896383447809971e-02
-9.141274747544121670e-02
-9.139652782819841781e-02
-9.138030489265046297e-02
-9.136407866869837580e-02
-9.134784915624345747e-02
-9.133161635518721733e-02
-9.131538026543148390e-02
-9.129914088687836327e-02
-9.128289821943018356e-02
-9.126665226298949496e-02
-9.125040301745911131e-02
-9.123415048274206851e-02
-9.121789465874163838e-02
-9.120163554536137029e-02
-9.118537314250503567e-02
-9.116910745007673900e-02
-9.115283846798082068e-02
-9.113656619612185705e-02
-9.112029063440470200e-02
-9.110401178273443146e-02
-9.108772964101646830e-02
-9.107144420915652683e-02
-9.105515548706054341e-02
-9.103886347463464868e-02
-9.102256817178522308e-02
-9.100626957841892462e-02
-9.098996769444271659e-02
-9.097366251976386764e-02
-9.095735405428997944e-02
-9.094104229792890348e-02
-9.092472725058875493e-02
-9.090840891217794040e-02
-9.089208728260515791e-02
-9.087576236177935529e-02
-9.085943414960973019e-02
-9.084310264600579943e-02
-9.082676785087739901e-02
-9.081042976413465639e-02
-9.079408838568800433e-02
-9.077774371544820864e-02
-9.076139575332634046e-02
-9.074504449923387339e-02
-9.072868995308265572e-02
-9.071233211478481329e-02
-9.069597098425273562e-02
-9.067960656139911757e-02
-9.066323884613697315e-02
-9.064686783837969108e-02
-9.063049353804097930e-02
-9.061411594503476774e-02
-9.059773505927525006e-02
-9.058135088067699459e-02
-9.056496340915495824e-02
-9.054857264462437549e-02
-9.053217858700075837e-02
-9.051578123619988259e-02
-9.049938059213789854e-02
-9.048297665473135909e-02
-9.046656942389709466e-02
-9.045015889955219934e-02
-9.043374508161404479e-02
-9.041732797000044675e-02
-9.040090756462951238e-02
-9.038448386541964030e-02
-9.036805687228956219e-02
-9.035162658515839829e-02
-9.033519300394561580e-02
-9.031875612857102886e-02
-9.030231595895484020e-02
-9.028587249501759948e-02
-9.026942573668025882e-02
-9.025297568386404790e-02
-9.023652233649048782e-02
-9.022006569448146052e-02
-9.020360575775919487e-02
-9.018714252624626670e-02
-9.017067599986559878e-02
-9.015420617854051633e-02
-9.013773306219464987e-02
-9.012125665075192138e-02
-9.010477694413655814e-02
-9.008829394227320375e-02
-9.007180764508690429e-02
-9.005531805250295563e-02
-9.003882516444694506e-02
-9.002232898084482071e-02
-9.000582950162290541e-02
-8.998932672670793831e-02
-8.997282065602707490e-02
-8.995631128950783151e-02
-8.993979862707802975e-02
-8.992328266866585207e-02
-8.990676341419984174e-02
-8.989024086360895838e-02
-8.987371501682253627e-02
-8.985718587377028443e-02
-8.984065343438227269e-02
-8.982411769858900108e-02
-8.980757866632135822e-02
-8.979103633751060742e-02
-8.977449071208835896e-02
-8.975794178998658390e-02
-8.974138957113758641e-02
-8.972483405547404534e-02
-8.970827524292906974e-02
-8.969171313343610175e-02
-8.967514772692895819e-02
-8.965857902334181673e-02
-8.964200702260917419e-02
-8.962543172466586050e-02
-8.960885312944714964e-02
-8.959227123688864869e-02
-8.957568604692622838e-02
-8.955909755949607864e-02
-8.954250577453483351e-02
-8.952591069197951557e-02
-8.950931231176748049e-02
-8.949271063383651414e-02
-8.947610565812484651e-02
-8.945949738457116551e-02
-8.944288581311453379e-02
-8.942627094369438867e-02
-8.940965277625056995e-02
-8.939303131072331987e-02
-8.937640654705314436e-02
-8.935977848518093791e-02
-8.934314712504794198e-02
-8.932651246659584210e-02
-8.930987450976672626e-02
-8.929323325450312654e-02
-8.927658870074789421e-02
-8.925994084844422749e-02
-8.924328969753568541e-02
-8.922663524796622947e-02
-8.920997749968026524e-02
-8.919331645262265629e-02
-8.917665210673861309e-02
-8.915998446197379024e-02
-8.914331351827428640e-02
-8.912663927558660271e-02
-8.910996173385765662e-02
-8.909328089303476805e-02
-8.907659675306560387e-02
-8.905990931389817788e-02
-8.904321857548090635e-02
-8.902652453776256636e-02
-8.900982720069233745e-02
-8.899312656421991263e-02
-8.897642262829538740e-02
-8.895971539286931518e-02
-8.894300485789266575e-02
-8.892629102331675583e-02
-8.890957388909330461e-02
-8.889285345517450310e-02
-8.887612972151290314e-02
-8.885940268806147291e-02
-8.884267235477358304e-02
-8.882593872160300663e-02
-8.880920178850394697e-02
-8.879246155543102370e-02
-8.877571802233925891e-02
-8.875897118918414652e-02
-8.874222105592154131e-02
-8.872546762250771435e-02
-8.870871088889945022e-02
-8.869195085505394982e-02
-8.867518752092884426e-02
-8.865842088648223651e-02
-8.864165095167264585e-02
-8.862487771645906343e-02
-8.860810118080091058e-02
-8.859132134465802499e-02
-8.857453820799064681e-02
-8.855775177075944637e-02
-8.854096203292557976e-02
-8.852416899445061937e-02
-8.850737265529660946e-02
-8.849057301542612164e-02
-8.847377007480214384e-02
-8.845696383338809421e-02
-8.844015429114783500e-02
-8.842334144804565865e-02
-8.840652530404631559e-02
-8.838970585911497257e-02
-8.837288311321712941e-02
-8.835605706631864675e-02
-8.833922771838580157e-02
-8.832239506938531493e-02
-8.830555911928432422e-02
-8.828871986805038319e-02
-8.827187731565143414e-02
-8.825503146205590510e-02
-8.823818230723259881e-02
-8.822132985115074821e-02
-8.820447409378000259e-02
-8.818761503509049693e-02
-8.817075267505285197e-02
-8.815388701363811863e-02
-8.813701805081773644e-02
-8.812014578656363062e-02
-8.810327022084819826e-02
-8.808639135364432216e-02
-8.806950918492527369e-02
-8.805262371466480997e-02
-8.803573494283717382e-02
-8.801884286941709379e-02
-8.800194749437972863e-02
-8.798504881770068120e-02
-8.796814683935598456e-02
-8.795124155932204646e-02
-8.793433297757571876e-02
-8.791742109409428352e-02
-8.790050590885539750e-02
-8.788358742183716155e-02
-8.786666563301810673e-02
-8.784974054237719432e-02
-8.783281214989371866e-02
-8.781588045554741817e-02
-8.779894545931851702e-02
-8.778200716118772506e-02
-8.776506556113614077e-02
-8.774812065914529280e-02
-8.773117245519719554e-02
-8.771422094927425195e-02
-8.769726614135936460e-02
-8.768030803143593566e-02
-8.766334661948781137e-02
-8.764638190549928209e-02
-8.762941388945512389e-02
-8.761244257134059854e-02
-8.759546795114141193e-02
-8.757849002884370015e-02
-8.756150880443402951e-02
-8.754452427789936875e-02
-8.752753644922720011e-02
-8.751054531840549155e-02
-8.749355088542264125e-02
-8.747655315026754697e-02
-8.745955211292960607e-02
-8.744254777339864615e-02
-8.742554013166498050e-02
-8.740852918771938040e-02
-8.739151494155307509e-02
-8.737449739315772401e-02
-8.735747654252541683e-02
-8.734045238964868729e-02
-8.732342493452056875e-02
-8.730639417713459416e-02
-8.728936011748474055e-02
-8.727232275556542906e-02
-8.725528209137163593e-02
-8.723823812489872598e-02
-8.722119085614254974e-02
-8.720414028509940185e-02
-8.718708641176603491e-02
-8.717002923613968723e-02
-8.715296875821809675e-02
-8.713590497799940382e-02
-8.711883789548217905e-02
-8.710176751066542322e-02
-8.708469382354865063e-02
-8.706761683413177799e-02
-8.705053654241531880e-02
-8.703345294840021673e-02
-8.701636605208785957e-02
-8.699927585348007919e-02
-8.698218235257922093e-02
-8.696508554938819913e-02
-8.694798544391035833e-02
-8.693088203614958431e-02
-8.691377532611020695e-02
-8.689666531379700021e-02
-8.687955199921518212e-02
-8.686243538237035933e-02
-8.684531546326869356e-02
-8.682819224191680452e-02
-8.681106571832176988e-02
-8.679393589249115304e-02
-8.677680276443300311e-02
-8.675966633415581331e-02
-8.674252660166857642e-02
-8.672538356698078488e-02
-8.670823723010243067e-02
-8.669108759104389439e-02
-8.667393464981600071e-02
-8.665677840643000451e-02
-8.663961886089764641e-02
-8.662245601323112498e-02
-8.660528986344304125e-02
-8.658812041154644035e-02
-8.657094765755481147e-02
-8.655377160148218507e-02
-8.653659224334313282e-02
-8.651940958315262886e-02
-8.650222362092616080e-02
-8.648503435667964645e-02
-8.646784179042954488e-02
-8.645064592219281474e-02
-8.643344675198696980e-02
-8.641624427983002343e-02
-8.639903850574043309e-02
-8.638182942973715583e-02
-8.636461705183964832e-02
-8.634740137206792232e-02
-8.633018239044241982e-02
-8.631296010698406851e-02
-8.629573452171429571e-02
-8.627850563465497280e-02
-8.626127344582841527e-02
-8.624403795525738270e-02
-8.622679916296513425e-02
-8.620955706897542870e-02
-8.619231167331245502e-02
-8.617506297600083243e-02
-8.615781097706562419e-02
-8.614055567653244871e-02
-8.612329707442731297e-02
-8.610603517077665414e-02
-8.608876996560739514e-02
-8.607150145894690296e-02
-8.605422965082298870e-02
-8.603695454126396303e-02
-8.601967613029862236e-02
-8.600239441795624884e-02
-8.598510940426662419e-02
-8.596782108926001587e-02
-8.595052947296723256e-02
-8.593323455541963807e-02
-8.591593633664898477e-02
-8.589863481668752465e-02
-8.588132999556799541e-02
-8.586402187332366209e-02
-8.584671044998827549e-02
-8.582939572559614150e-02
-8.581207770018201009e-02
-8.579475637378113084e-02
-8.577743174642923907e-02
-8.576010381816254191e-02
-8.574277258901767673e-02
-8.572543805903172498e-02
-8.570810022824225383e-02
-8.569075909668737168e-02
-8.567341466440563102e-02
-8.565606693143605621e-02
-8.563871589781814342e-02
-8.562136156359188843e-02
-8.560400392879773113e-02
-8.558664299347648607e-02
-8.556927875766943969e-02
-8.555191122141830862e-02
-8.553454038476530907e-02
-8.551716624775308750e-02
-8.549978881042476220e-02
-8.548240807282382614e-02
-8.546502403499425804e-02
-8.544763669698041131e-02
-8.543024605882712508e-02
-8.541285212057976584e-02
-8.539545488228418579e-02
-8.537805434398668125e-02
-8.536065050573403423e-02
-8.534324336757349860e-02
-8.532583292955274457e-02
-8.530841919171980314e-02
-8.529100215412313557e-02
-8.527358181681175819e-02
-8.525615817983522859e-02
-8.523873124324357620e-02
-8.522130100708735778e-02
-8.520386747141756034e-02
-8.518643063628571210e-02
-8.516899050174381314e-02
-8.515154706784423821e-02
-8.513410033463972293e-02
-8.511665030218347472e-02
-8.509919697052914511e-02
-8.508174033973091299e-02
-8.506428040984341521e-02
-8.504681718092171883e-02
-8.502935065302137663e-02
-8.501188082619846875e-02
-8.499440770050950555e-02
-8.497693127601137209e-02
-8.495945155276135585e-02
-8.494196853081732723e-02
-8.492448221023769783e-02
-8.490699259108135111e-02
-8.488949967340760072e-02
-8.487200345727623219e-02
-8.485450394274754449e-02
-8.483700112988232234e-02
-8.481949501874183617e-02
-8.480198560938782826e-02
-8.478447290188251273e-02
-8.476695689628868657e-02
-8.474943759266956311e-02
-8.473191499108877200e-02
-8.471438909161035924e-02
-8.469685989429889816e-02
-8.467932739921943397e-02
-8.466179160643753920e-02
-8.464425251601925826e-02
-8.462671012803110737e-02
-8.460916444254008850e-02
-8.459161545961363382e-02
-8.457406317931963347e-02
-8.455650760172643554e-02
-8.453894872690286000e-02
-8.452138655491819863e-02
-8.450382108584221508e-02
-8.448625231974514482e-02
-8.446868025669763969e-02
-8.445110489677093435e-02
-8.443352624003679086e-02
-8.441594428656742921e-02
-8.439835903643558290e-02
-8.438077048971447114e-02
-8.436317864647779885e-02
-8.434558350679972893e-02
-8.432798507075482675e-02
-8.431038333841818500e-02
-8.429277830986535436e-02
-8.427516998517239899e-02
-8.425755836441581326e-02
-8.423994344767252174e-02
-8.422232523501990697e-02
-8.420470372653586499e-02
-8.418707892229881917e-02
-8.416945082238776188e-02
-8.415181942688208794e-02
-8.413418473586160851e-02
-8.411654674940655108e-02
-8.409890546759767049e-02
-8.408126089051612406e-02
-8.406361301824352705e-02
-8.404596185086196658e-02
-8.402830738845405711e-02
-8.401064963110282946e-02
-8.399298857889182790e-02
-8.397532423190505468e-02
-8.395765659022692839e-02
-8.393998565394232558e-02
-8.392231142313658077e-02
-8.390463389789555582e-02
-8.388695307830545955e-02
-8.386926896445306978e-02
-8.385158155642569167e-02
-8.383389085431110221e-02
-8.381619685819753640e-02
-8.379849956817367329e-02
-8.378079898432860828e-02
-8.376309510675196413e-02
-8.374538793553387706e-02
-8.372767747076489964e-02
-8.370996371253604240e-02
-8.369224666093875997e-02
-8.367452631606502045e-02
-8.365680267800726377e-02
-8.363907574685844337e-02
-8.362134552271197063e-02
-8.360361200566167328e-02
-8.358587519580185088e-02
-8.356813509322731648e-02
-8.355039169803338273e-02
-8.353264501031587574e-02
-8.351489503017103799e-02
-8.349714175769556990e-02
-8.347938519298661597e-02
-8.346162533614177870e-02
-8.344386218725918791e-02
-8.342609574643743142e-02
-8.340832601377549949e-02
-8.339055298937278482e-02
-8.337277667332912423e-02
-8.335499706574488188e-02
-8.333721416672089377e-02
-8.331942797635835674e-02
-8.330163849475898108e-02
-8.328384572202496283e-02
-8.326604965825901150e-02
-8.324825030356432232e-02
-8.323044765804450684e-02
-8.321264172180364849e-02
-8.319483249494630250e-02
-8.317701997757746823e-02
-8.315920416980257523e-02
-8.314138507172745551e-02
-8.312356268345838517e-02
-8.310573700510205664e-02
-8.308790803676564807e-02
-8.307007577855683722e-02
-8.305224023058375982e-02
-8.303440139295500955e-02
-8.301655926577961031e-02
-8.299871384916700234e-02
-8.298086514322711160e-02
-8.296301314807029426e-02
-8.294515786380736444e-02
-8.292729929054956650e-02
-8.290943742840861663e-02
-8.289157227749671675e-02
-8.287370383792649897e-02
-8.285583210981101177e-02
-8.283795709326381707e-02
-8.282007878839893478e-02
-8.280219719533085665e-02
-8.278431231417456015e-02
-8.276642414504548073e-02
-8.274853268805949791e-02
-8.273063794333294918e-02
-8.271273991098264389e-02
-8.269483859112580770e-02
-8.267693398388009651e-02
-8.265902608936361029e-02
-8.264111490769494861e-02
-8.262320043899308575e-02
-8.260528268337741231e-02
-8.258736164096781851e-02
-8.256943731188466640e-02
-8.255150969624876212e-02
-8.253357879418143916e-02
-8.251564460580447513e-02
-8.249770713124002230e-02
-8.247976637061074645e-02
-8.246182232403986845e-02
-8.244387499165109490e-02
-8.242592437356857649e-02
-8.240797046991693575e-02
-8.239001328082123932e-02
-8.237205280640705340e-02
-8.235408904680040221e-02
-8.233612200212776788e-02
-8.231815167251607668e-02
-8.230017805809276832e-02
-8.228220115898574050e-02
-8.226422097532333499e-02
-8.224623750723439319e-02
-8.222825075484821444e-02
-8.221026071829452830e-02
-8.219226739770356394e-02
-8.217427079320596683e-02
-8.215627090493285434e-02
-8.213826773301582951e-02
-8.212026127758698113e-02
-8.210225153877884208e-02
-8.208423851672438931e-02
-8.206622221155704389e-02
-8.204820262341067094e-02
-8.203017975241959359e-02
-8.201215359871856514e-02
-8.199412416244275525e-02
-8.197609144372779155e-02
-8.195805544270974574e-02
-8.194001615952511974e-02
-8.192197359431087345e-02
-8.190392774720442470e-02
-8.188587861834360770e-02
-8.186782620786665909e-02
-8.184977051591227348e-02
-8.183171154261960345e-02
-8.181364928812821791e-02
-8.179558375257819924e-02
-8.177751493611007394e-02
-8.175944283886478481e-02
-8.174136746098374651e-02
-8.172328880260883166e-02
-8.170520686388237086e-02
-8.168712164494713879e-02
-8.166903314594635421e-02
-8.165094136702368000e-02
-8.163284630832322308e-02
-8.161474796998953452e-02
-8.159664635216760942e-02
-8.157854145500291476e-02
-8.156043327864137549e-02
-8.154232182322937450e-02
-8.152420708891373879e-02
-8.150608907584176721e-02
-8.148796778416120268e-02
-8.146984321402025997e-02
-8.145171536556759795e-02
-8.143358423895236120e-02
-8.141544983432415228e-02
-8.139731215183301782e-02
-8.137917119162943469e-02
-8.136102695386428219e-02
-8.134287943868895310e-02
-8.132472864625527043e-02
-8.130657457671551513e-02
-8.128841723022245391e-02
-8.127025660692928366e-02
-8.125209270698960373e-02
-8.123392553055748533e-02
-8.121575507778742986e-02
-8.119758134883439671e-02
-8.117940434385383097e-02
-8.116122406300167735e-02
-8.114304050643439403e-02
-8.112485367430893879e-02
-8.110666356678268574e-02
-8.108847018401345308e-02
-8.107027352615951699e-02
-8.105207359337959772e-02
-8.103387038583290125e-02
-8.101566390367906378e-02
-8.099745414707816560e-02
-8.097924111619071719e-02
-8.096102481117774252e-02
-8.094280523220075130e-02
-8.092458237942175281e-02
-8.090635625300325595e-02
-8.088812685310818595e-02
-8.086989417989988438e-02
-8.085165823354213688e-02
-8.083341901419917319e-02
-8.081517652203566715e-02
-8.079693075721679218e-02
-8.077868171990822133e-02
-8.076042941027601618e-02
-8.074217382848668245e-02
-8.072391497470719768e-02
-8.070565284910502513e-02
-8.068738745184811378e-02
-8.066911878310478734e-02
-8.065084684304379969e-02
-8.063257163183436271e-02
-8.061429314964614623e-02
-8.059601139664931968e-02
-8.057772637301449659e-02
-8.055943807891274844e-02
-8.054114651451564633e-02
-8.052285167999527482e-02
-8.050455357552419033e-02
-8.048625220127533786e-02
-8.046794755742210647e-02
-8.044963964413834323e-02
-8.043132846159839477e-02
-8.041301400997706572e-02
-8.039469628944963253e-02
-8.037637530019181575e-02
-8.035805104237982166e-02
-8.033972351619028673e-02
-8.032139272180030543e-02
-8.030305865938743015e-02
-8.028472132912969905e-02
-8.026638073120563599e-02
-8.024803686579423667e-02
-8.022968973307496865e-02
-8.021133933322772969e-02
-8.019298566643282000e-02
-8.017462873287099778e-02
-8.015626853272347918e-02
-8.013790506617192444e-02
-8.011953833339846565e-02
-8.010116833458567898e-02
-8.008279506991655694e-02
-8.006441853957460553e-02
-8.004603874374384420e-02
-8.002765568260880591e-02
-8.000926935635448156e-02
-7.999087976516630616e-02
-7.997248690923022818e-02
-7.995409078873273734e-02
-7.993569140386078131e-02
-7.991728875480176575e-02
-7.989888284174355426e-02
-7.988047366487446843e-02
-7.986206122438330168e-02
-7.984364552045934704e-02
-7.982522655329236938e-02
-7.980680432307263317e-02
