-6.194643887856571968e-02
-6.242857038122753138e-02
-6.287906718801739014e-02
-6.329817186441483168e-02
-6.368618314353573229e-02
-6.404345592253289643e-02
-6.437040070018480720e-02
-6.466748231544536263e-02
-6.493521805605931285e-02
-6.517417518694353096e-02
-6.538496785145692103e-02
-6.556825347399003467e-02
-6.572472864704144435e-02
-6.585512452598399347e-02
-6.596020193268219145e-02
-6.604074604929885406e-02
-6.609756094085560141e-02
-6.613146387901931711e-02
-6.614327953206347588e-02
-6.613383415753812389e-02
-6.610394988171669484e-02
-6.605443904066896077e-02
-6.598609873005073512e-02
-6.589970561763627832e-02
-6.579601110077838710e-02
-6.567573680106900125e-02
-6.553957047344383113e-02
-6.538816236834252282e-02
-6.522212209535449556e-02
-6.504201602854992048e-02
-6.484836522437108230e-02
-6.464164389686465062e-02
-6.442227841649982023e-02
-6.419064687293130067e-02
-6.394707914060204779e-02
-6.369185748094673138e-02
-6.342521760916407236e-02
-6.314735028114645821e-02
-6.285840324396181622e-02
-6.255848358357939121e-02
-6.224766038721973177e-02
-6.192596777953481707e-02
-6.159340814625158256e-02
-6.124995559799976258e-02
-6.089555960440110743e-02
-6.053014875449245352e-02
-6.015363459739269530e-02
-5.976591552471346991e-02
-5.936688066804451935e-02
-5.895641371954728205e-02
-5.853439673903418350e-02
-5.810071383928116368e-02
-5.765525479704405876e-02
-5.719791851169772623e-02
-5.672861624946447939e-02
-5.624727483174701143e-02
-5.575383953946906612e-02
-5.524827692343788066e-02
-5.473057728927512022e-02
-5.420075705133328703e-02
-5.365886087131034599e-02
-5.310496361747574917e-02
-5.253917211551947797e-02
-5.196162664793636116e-02
-5.137250230282287139e-02
-5.077201009100894280e-02
-5.016039784293949838e-02
-4.953795091234707015e-02
-4.890499267082657614e-02
-4.826188472745907010e-02
-4.760902703311462730e-02
-4.694685774769832148e-02
-4.627585279729087842e-02
-4.559652529613426875e-02
-4.490942463352364661e-02
-4.421513536638893571e-02
-4.351427586451699775e-02
-4.280749667882229048e-02
-4.209547862333187784e-02
-4.137893058253370310e-02
-4.065858710650616797e-02
-3.993520571057940921e-02
-3.920956382958826203e-02
-3.848245556338249218e-02
-3.775468821092687471e-02
-3.702707842973311514e-02
-3.630044829071442380e-02
-3.557562108633359477e-02
-3.485341689609065124e-02
-3.413464808687496216e-02
-3.342011462053030152e-02
-3.271059929900343999e-02
-3.200686297045370055e-02
-3.130963973426899305e-02
-3.061963219838318567e-02
-2.993750675494820726e-02
-2.926388906967034714e-02
-2.859935976545691788e-02
-2.794445034395813543e-02
-2.729963937777758406e-02
-2.666534905411315978e-02
-2.604194215994919126e-02
-2.542971944576380774e-02
-2.482891745888671578e-02
-2.423970702258752136e-02
-2.366219215343651899e-02
-2.309640953654226378e-02
-2.254232868265792361e-02
-2.199985266132613998e-02
-2.146881938613578317e-02
-2.094900358012058775e-02
-2.044011938568665934e-02
-1.994182342270122907e-02
-1.945371848376454410e-02
-1.897535773828757169e-02
-1.850624946625453390e-02
-1.804586211446635932e-02
-1.759362983149250284e-02
-1.714895825334532969e-02
-1.671123056827349129e-02
-1.627981375216486573e-02
-1.585406492883733448e-02
-1.543333776819401891e-02
-1.501698879512372922e-02
-1.460438363577111834e-02
-1.419490310902976268e-02
-1.378794897778050539e-02
-1.338294939618324061e-02
-1.297936404104023563e-02
-1.257668873130632879e-02
-1.217445954453469543e-02
-1.177225642391505414e-02
-1.136970624790430671e-02
-1.096648517529920548e-02
-1.056232049686303687e-02
-1.015699181377938132e-02
-9.750331555970492836e-03
-9.342224876015686741e-03
-8.932609037011240635e-03
-8.521472144453392378e-03
-8.108851303844392608e-03
-7.694830334659854242e-03
-7.279537027988268807e-03
-6.863139979562703392e-03
-6.445845086442392700e-03
-6.027891890811129354e-03
-5.609549501217733249e-03
-5.191112542233374851e-03
-4.772896993993972631e-03
-4.355235983512822234e-03
-3.938475723456607430e-03
-3.522971532227552136e-03
-3.109083994093235145e-03
-2.697175437795229763e-03
-2.287606682542314956e-03
-1.880734088243599502e-03
-1.476907003839387318e-03
-1.076465620337520475e-03
-6.797391682272462118e-04
-2.870445930100537935e-04
1.013144292014834489e-04
4.850479628369590399e-04
8.638799838407229884e-04
1.237548131297526877e-03
1.605803140979105174e-03
1.968407964584384731e-03
2.325136697461161091e-03
2.675773221091302598e-03
3.020109726686185173e-03
3.357945221494456657e-03
3.689083881870669490e-03
4.013333539933191044e-03
4.330504184143961141e-03
4.640406646001517602e-03
4.942851446399103288e-03
5.237647968922958149e-03
5.524603803661843129e-03
5.803524485675227475e-03
6.074213655677316442e-03
6.336473517749714214e-03
6.590105709160810551e-03
6.834912616066909571e-03
7.070699085480806195e-03
7.297274553809702385e-03
7.514455486788717588e-03
7.722068233888814033e-03
7.919952198075605465e-03
8.107963221724700381e-03
8.285977278345115979e-03
8.453894236286172911e-03
8.611641734999337175e-03
8.759179073532886994e-03
8.896501143491964206e-03
9.023642143716805938e-03
9.140679097340127790e-03
9.247735152771606112e-03
9.344982540797172610e-03
9.432645082806136866e-03
9.511000190533452220e-03
9.580380453255200185e-03
9.641174497512469341e-03
9.693827238023630666e-03
9.738839484180330380e-03
9.776766877039145404e-03
9.808218027067126810e-03
9.833851932295051279e-03
9.854374702268310290e-03
9.870535545934949750e-03
9.883122115107056960e-03
9.892955116069647101e-03
9.900882360145892014e-03
9.907772261625705928e-03
9.914506837545576309e-03
9.921974299605449896e-03
9.931061360326379553e-03
9.942645172932822531e-03
9.957585180566009761e-03
9.976714993941348739e-03
1.000083417573903281e-02
1.003070020874204278e-02
1.006702072389084601e-02
1.011044605270228387e-02
1.016156222671789344e-02
1.022088446028619931e-02
1.028885121694009773e-02
1.036581899191178942e-02
1.045205790949984767e-02
1.054774804279753897e-02
1.065297660575025875e-02
1.076773606793108955e-02
1.089192323008669576e-02
1.102533920723087688e-02
1.116769037615453729e-02
1.131859029123669091e-02
1.147756253084094083e-02
1.164404444325964870e-02
1.181739171915298890e-02
1.199688387154733069e-02
1.218173040110022941e-02
1.237107769454104389e-02
1.256401646218039021e-02
1.275958976201225017e-02
1.295680143915089143e-02
1.315462491134466311e-02
1.335201218843518924e-02
1.354790302700131961e-02
1.374123426139631406e-02
1.393094895740143620e-02
1.411600538813342735e-02
1.429538590393676124e-02
1.446810530965749776e-02
1.463321893641600022e-02
1.478983016478414847e-02
1.493709738217918748e-02
1.507424027752879078e-02
1.520054556003798407e-02
1.531537186298055978e-02
1.541815383374148772e-02
1.550840549227251904e-02
1.558572276051767118e-02
1.564978515986828467e-02
1.570035668329187312e-02
1.573728594042332618e-02
1.576050542295619195e-02
1.577003007947776897e-02
1.576595510541283288e-02
1.574845306510842466e-02
1.571777045470070314e-02
1.567422368628940479e-02
1.561819455291089953e-02
1.555012526147517976e-02
1.547051308863172173e-02
1.537990472968049638e-02
1.527889041592329911e-02
1.516809789830867415e-02
1.504818636133846421e-02
1.491984027528780662e-02
1.478376329411475523e-02
1.464067228703396645e-02
1.449129150160451650e-02
1.433634696491980533e-02
1.417656113319062765e-02
1.401264782081157977e-02
1.384530756950123377e-02
1.367522329668978236e-02
1.350305637553673999e-02
1.332944312805632754e-02
1.315499166758785261e-02
1.298027925657021728e-02
1.280585007993475556e-02
1.263221341270772714e-02
1.245984221346012333e-02
1.228917207928978753e-02
1.212060058642964143e-02
1.195448704736349309e-02
1.179115247180078339e-02
1.163087992924641961e-02
1.147391514194216929e-02
1.132046726857352525e-02
1.117070989737697917e-02
1.102478225692072808e-02
1.088279050943266081e-02
1.074480913554452625e-02
1.061088243620584431e-02
1.048102605315746894e-02
1.035522854987857427e-02
1.023345293272806891e-02
1.011563817375905894e-02
1.000170074686993101e-02
9.891536045219168072e-03
9.785019794326724890e-03
9.682009370682748486e-03
9.582345034729588054e-03
9.485851188164987069e-03
9.392337471733552129e-03
9.301599873714745323e-03
9.213421715468021050e-03
9.127574686183205152e-03
9.043819811329460029e-03
8.961908392521976061e-03
8.881582961491930189e-03
8.802578236093060171e-03
8.724622134169289847e-03
8.647436734274522793e-03
8.570739361251330027e-03
8.494243715687656987e-03
8.417661058615464806e-03
8.340701530578382289e-03
8.263075468627084988e-03
8.184494804333440621e-03
8.104674579637880308e-03
8.023334515601039316e-03
7.940200632665407598e-03
7.855006968890776084e-03
7.767497282252473940e-03
7.677426817398720106e-03
7.584564066911031639e-03
7.488692519200241746e-03
7.389612419105029591e-03
7.287142398967037284e-03
7.181121108275419392e-03
7.071408656686939583e-03
6.957888005194786188e-03
6.840466200844654183e-03
6.719075389666121119e-03
6.593673641042355031e-03
6.464245603728000292e-03
6.330802862004288219e-03
6.193384113115971146e-03
6.052055059128440620e-03
5.906908012816152430e-03
5.758061239398965143e-03
5.605658030644436983e-03
5.449865528421554695e-03
5.290873264119737990e-03
5.128891460077692963e-03
4.964149117724004322e-03
4.796891849767398117e-03
4.627379580127623931e-03
4.455884040861664112e-03
4.282686196573919427e-03
4.108073530001767580e-03
3.932337327675043508e-03
3.755769860059229512e-03
3.578661681976746251e-03
3.401298960602784031e-03
3.223960889149185376e-03
3.046917238542428113e-03
2.870426117922235051e-03
2.694731934143364347e-03
2.520063593678424901e-03
2.346632984896722743e-03
2.174633756328184578e-03
2.004240405417357686e-03
1.835607728895590320e-03
1.668870614492402741e-03
1.504144136829195988e-03
1.341524061187790483e-03
1.181087646915840710e-03
1.022894809375565154e-03
8.669895695153903353e-04
7.134017775310342495e-04
5.621491530327048496e-04
4.132394239194086150e-04
2.666727487884793793e-04
1.224442037504060144e-04
-1.945357245541221716e-05
-1.590277170947617790e-04
-2.962824841820336391e-04
-4.312166847429421972e-04
-5.638211799863516093e-04
-6.940765734358625557e-04
-8.219510879485483106e-04
-9.473986875534653454e-04
-1.070357485487632380e-03
-1.190748529537276161e-03
-1.308474906947241275e-03
-1.423421233714716651e-03
-1.535453542623239518e-03
-1.644419656096061640e-03
-1.750149879860097213e-03
-1.852458225160038803e-03
-1.951143988494016259e-03
-2.045993707913022763e-03
-2.136783543778618660e-03
-2.223281990989158050e-03
-2.305252911676372671e-03
-2.382458802232014384e-03
-2.454664289857774132e-03
-2.521639865581656696e-03
-2.583165591492233779e-03
-2.639034932265854529e-03
-2.689058579553143136e-03
-2.733068175163761923e-03
-2.770919974625648576e-03
-2.802498248698888795e-03
-2.827718408913100761e-03
-2.846529872413689453e-03
-2.858918541397401092e-03
-2.864908873000206625e-03
-2.864565503361751059e-03
-2.857994400825765360e-03
-2.845343501780494069e-03
-2.826802839152255283e-03
-2.802604114431896023e-03
-2.773019753064738871e-03
-2.738361426169698409e-03
-2.698978055959378071e-03
-2.655253312194040798e-03
-2.607602721052634798e-03
-2.556470257555193675e-03
-2.502324667035371163e-03
-2.445655395866273927e-03
-2.386968264665468523e-03
-2.326780978957626849e-03
-2.265618464943783186e-03
-2.204008160092117002e-03
-2.142475294097346758e-03
-2.081538222711219223e-03
-2.021703900080663342e-03
-1.963463502310463550e-03
-1.907288369761515716e-03
-1.853626210023954102e-03
-1.802897646277640915e-03
-1.755493142901659804e-03
-1.711770453391656295e-03
-1.672052449517425279e-03
-1.636625415013545290e-03
-1.605737897625999448e-03
-1.579599966576686852e-03
-1.558383048238274260e-03
-1.542220152545096092e-03
-1.531206607390793711e-03
-1.525401185162200690e-03
-1.524827594100418467e-03
-1.529476334951868207e-03
-1.539306843834860761e-03
-1.554249844122622664e-03
-1.574209943372555012e-03
-1.599068297714577097e-03
-1.628685356604125728e-03
-1.662903680530758996e-03
-1.701550613164386477e-03
-1.744440959445034802e-03
-1.791379452650710595e-03
-1.842163016527219224e-03
-1.896582792587956376e-03
-1.954425955605749131e-03
-2.015477221825838841e-03
-2.079519977270715900e-03
-2.146337247216638117e-03
-2.215712178489705544e-03
-2.287428288658870015e-03
-2.361269431936606749e-03
-2.437019381631885286e-03
-2.514461252823296973e-03
-2.593376738204227448e-03
-2.673545051786771314e-03
-2.754741867975747053e-03
-2.836738098611138025e-03
-2.919298714904611930e-03
-3.002181565924279261e-03
-3.085136274794601612e-03
-3.167903324525409708e-03
-3.250213255937180797e-03
-3.331786124664973432e-03
-3.412331334481187323e-03
-3.491547696220139493e-03
-3.569123919614370331e-03
-3.644739422192870646e-03
-3.718065520274540896e-03
-3.788767132600862324e-03
-3.856504785261592044e-03
-3.920937076366849683e-03
-3.981723410025728160e-03
-4.038527189916049122e-03
-4.091019208086993375e-03
-4.138881372219187400e-03
-4.181810580148331499e-03
-4.219522771224105268e-03
-4.251757000279608040e-03
-4.278279568817000729e-03
-4.298888053781805239e-03
-4.313415146144337214e-03
-4.321732320991954375e-03
-4.323753162912906747e-03
-4.319436312318837741e-03
-4.308787989308461228e-03
-4.291863984635197957e-03
-4.268771107253652337e-03
-4.239667954284638204e-03
-4.204765099860805454e-03
-4.164324520282891920e-03
-4.118658391817853204e-03
-4.068127121470390545e-03
-4.013136674463603504e-03
-3.954135230205079073e-03
-3.891609184162855405e-03
-3.826078504262235384e-03
-3.758091524246643354e-03
-3.688219241977265875e-03
-3.617049199702121812e-03
-3.545178972487725289e-03
-3.473209432187193257e-03
-3.401737890649491822e-03
-3.331351092510057531e-03
-3.262618249778490107e-03
-3.196084246515799171e-03
-3.132263073801205312e-03
-3.071631646595581345e-03
-3.014624042170685816e-03
-2.961626205972072920e-03
-2.912971360671412317e-03
-2.868936035231391037e-03
-2.829736871014323831e-03
-2.795528234305830195e-03
-2.766400630014053535e-03
-2.742380032847352433e-03
-2.723428068086519889e-03
-2.709443092880216286e-03
-2.700262099527471048e-03
-2.695663502658050652e-03
-2.695370683510288617e-03
-2.699056258233628949e-03
-2.706347074336094144e-03
-2.716829744312196111e-03
-2.730056678701689703e-03
-2.745552535908152986e-03
-2.762820990093090880e-03
-2.781351694163040466e-03
-2.800627346919973629e-03
-2.820130687852463042e-03
-2.839351422982576423e-03
-2.857792853730861671e-03
-2.874978219226063340e-03
-2.890456577735971925e-03
-2.903808174842844973e-03
-2.914649187637104698e-03
-2.922635835339025632e-03
-2.927467744882480787e-03
-2.928890542128649663e-03
-2.926697693796110212e-03
-2.920731506025221486e-03
-2.910883306863765695e-03
-2.897092855698719764e-03
-2.879346968463743738e-03
-2.857677398463619612e-03
-2.832158062477062570e-03
-2.802901638279460973e-03
-2.770055616476179566e-03
-2.733797901608595125e-03
-2.694332052261669188e-03
-2.651882234352364275e-03
-2.606687962039755911e-03
-2.558998813368345161e-03
-2.509069141033804483e-03
-2.457152944582478848e-03
-2.403498939517908356e-03
-2.348345891454292709e-03
-2.291918424579704287e-03
-2.234423264839893643e-03
-2.176046001842582567e-03
-2.116948464171503758e-03
-2.057266694830463434e-03
-1.997109612212374062e-03
-1.936558355957510328e-03
-1.875666303713198479e-03
-1.814459767088059125e-03
-1.752939371538470579e-03
-1.691082018041033296e-03
-1.628843441313397979e-03
-1.566161296732129695e-03
-1.502958704511796325e-03
-1.439148138638063389e-03
-1.374635664918837574e-03
-1.309325368668243575e-03
-1.243123913619782750e-03
-1.175945118524638960e-03
-1.107714494100953389e-03
-1.038373614529696431e-03
-9.678842441729612741e-04
-8.962320806005855123e-04
-8.234302099688590266e-04
-7.495220190210389460e-04
-6.745835657876533571e-04
-5.987253598353863525e-04
-5.220935492316629203e-04
-4.448703817213644661e-04
-3.672740466044862283e-04
-2.895577972214997183e-04
-2.120083952195381065e-04
-1.349439037150041419e-04
-5.871082304147729586e-05
1.631936839300974934e-05
8.975418433158762691e-05
1.611846130728053928e-04
2.301899885677613435e-04
2.963432654027850542e-04
3.592165227837889534e-04
4.183866071539476986e-04
4.734408939565306479e-04
5.239830735237769113e-04
5.696387997112463582e-04
6.100611807513948211e-04
6.449360197452623164e-04
6.739867309809380053e-04
6.969788323888824379e-04
7.137239686712302340e-04
7.240833655304013431e-04
7.279707303790911759e-04
7.253545235794014003e-04
7.162595916053263742e-04
7.007680947953511983e-04
6.790197511090680614e-04
6.512114045497357888e-04
6.175958741042981374e-04
5.784801980635332708e-04
5.342232232256782960e-04
4.852326139904711419e-04
4.319612678033782891e-04
3.749032944095634042e-04
3.145894954428150219e-04
2.515825055560704545e-04
1.864715587406848339e-04
1.198670401094721090e-04
5.239487044657353040e-05
-1.530923846887314284e-05
-8.260561194322731875e-05
-1.488563928562095309e-04
-2.134312413529014876e-04
-2.757129307019509515e-04
-3.351027111490921875e-04
-3.910254233080663654e-04
-4.429343919853331066e-04
-4.903159324383204141e-04
-5.326935126527757979e-04
-5.696314926565186837e-04
-6.007385101011419566e-04
-6.256703729057136237e-04
-6.441326533548915158e-04
-6.558827295724427081e-04
-6.607314393346921206e-04
-6.585442212083725310e-04
-6.492418454226326708e-04
-6.328006777133323791e-04
-6.092528006565877015e-04
-5.786855154118382156e-04
-5.412404917095495031e-04
-4.971125415263367596e-04
-4.465481038017107785e-04
-3.898434076198158452e-04
-3.273422495444045064e-04
-2.594335639996612586e-04
-1.865486644245957222e-04
-1.091582608908901774e-04
-2.776927885651646541e-05
5.707862000629443806e-05
1.448167015311254042e-04
2.348510030912820640e-04
3.265664376987820346e-04
4.193309704085374737e-04
5.125000389110708062e-04
6.054210805455607566e-04
6.974381458798584177e-04
7.878966824588880735e-04
8.761484193739684824e-04
9.615562329953481879e-04
1.043499135048263620e-03
1.121377238228640164e-03
1.194616709658728607e-03
1.262674666369710368e-03
1.325043979917264227e-03
1.381257953375499958e-03
1.430894853074883349e-03
1.473582188310594739e-03
1.509000736673606589e-03
1.536888161544880047e-03
1.557042376776744371e-03
1.569324439829207756e-03
1.573660975059765514e-03
1.570046073855041729e-03
1.558542665537416194e-03
1.539283206308753515e-03
1.512469807835793495e-03
1.478373598973473958e-03
1.437333507470614415e-03
1.389754209914408544e-03
1.336103409113413880e-03
1.276908359877055232e-03
1.212751699918748153e-03
1.144266556793938766e-03
1.072130972822787302e-03
9.970617614834206312e-04
9.198076743647506980e-04
8.411421294439253233e-04
7.618554429582894902e-04
6.827467447596087188e-04
6.046155158522992148e-04
5.282530112066053177e-04
4.544335421427639138e-04
3.839058182492810262e-04
3.173843920992904639e-04
2.555413423778473444e-04
1.989983170318278813e-04
1.483190356418211738e-04
1.040023495197105354e-04
6.647601224669034785e-05
3.609117266316139427e-05
1.311776683841452118e-05
-2.259173597888712207e-06
-9.942196157761473943e-06
-9.923080077582150030e-06
-2.283334445581704670e-06
1.280640761580526077e-05
3.508812525033331198e-05
6.421926114001106679e-05
9.977669720997905576e-05
1.412617747211575075e-04
1.881063308193546622e-04
2.396797030452544122e-04
2.952965603545467397e-04
3.542254393323566314e-04
4.156979932669582398e-04
4.789186886510222183e-04
5.430748880873659604e-04
6.073471621222710634e-04
6.709197937123104671e-04
7.329910531127309045e-04
7.927833803580360038e-04
8.495531371965577873e-04
9.025998329863689235e-04
9.512748176385590719e-04
9.949891122572826225e-04
1.033220322901058381e-03
1.065518646520512364e-03
1.091511712402779216e-03
1.110908300390296699e-03
1.123500840036573871e-03
1.129166633269784508e-03
1.127867867391617578e-03
1.119650290437190386e-03
1.104640675120640214e-03
1.083043141848407916e-03
1.055134267656056713e-03
1.021257251026756914e-03
9.818150517855455013e-04
9.372627640627019009e-04
8.880992552068076680e-04
8.348583239855157786e-04
7.780994314919327656e-04
7.183981823804777740e-04
6.563368236055101661e-04
5.924947638673986380e-04
5.274394213106057498e-04
4.617175117420334578e-04
3.958469075800913122e-04
3.303092300255386945e-04
2.655433615455666803e-04
2.019399129219326763e-04
1.398367298986238623e-04
7.951563235063820168e-05
2.120040017269532819e-05
-3.494401195925014853e-05
-8.881102576731468774e-05
-1.403506361877496667e-04
-1.895664271948949988e-04
-2.365114270741179722e-04
-2.812828486582223046e-04
-3.240158168417475964e-04
-3.648763124137451366e-04
-4.040533286414666630e-04
-4.417504869950007263e-04
-4.781772548607865405e-04
-5.135399875877034873e-04
-5.480329145507495305e-04
-5.818293116219982412e-04
-6.150730435520483045e-04
-6.478706711635803762e-04
-6.802843057305909841e-04
-7.123253209944073591e-04
-7.439492312695077103e-04
-7.750516869821381851e-04
-8.054658499935654420e-04
-8.349611594196961438e-04
-8.632436479361084956e-04
-8.899577398516387520e-04
-9.146896138474082307e-04
-9.369721476481965121e-04
-9.562913127460981799e-04
-9.720940344256425196e-04
-9.837973336785914985e-04
-9.907986246939616895e-04
-9.924870678200243494e-04
-9.882557501806482365e-04
-9.775145077928909260e-04
-9.597031475386213041e-04
-9.343047937262473302e-04
-9.008591789920170111e-04
-8.589756258857426420e-04
-8.083453758039695677e-04
-7.487530603695694833e-04
-6.800870917161536697e-04
-6.023487202689919648e-04
-5.156595476272974763e-04
-4.202671680714413060e-04
-3.165489971566017480e-04
-2.050139569532209672e-04
-8.630204491837084992e-05
3.881840122030453865e-05
1.694557105727833083e-04
3.046021995966344221e-04
4.431437164831626306e-04
5.838713430977265743e-04
7.254951345480303154e-04
8.666597318059682383e-04
1.005961599386418414e-03
1.141967720056958745e-03
1.273235428783058487e-03
1.398333070833798980e-03
1.515861148374608247e-03
1.624473719039119671e-03
1.722899597452059355e-03
1.809962999226618361e-03
1.884603246576037035e-03
1.945893271054713802e-03
1.993056464058804399e-03
2.025481607462421927e-03
2.042735526350135736e-03
2.044573273750706181e-03
2.030945560146691330e-03
2.002003169471484618e-03
1.958098363955921087e-03
1.899783025957975076e-03
1.827803583062353847e-03
1.743092718847463448e-03
1.646757883415731405e-03
1.540066711205383739e-03
1.424429644483738572e-03
1.301379847139337922e-03
1.172550777223020169e-03
1.039651734830183841e-03
9.044417172637132362e-04
7.687020348431424909e-04
6.342080526612505062e-04
5.027006353741496911e-04
3.758577184899067878e-04
2.552665303683036152e-04
1.423968758758743618e-04
3.857603606926557355e-05
-5.503430963435097074e-05
-1.374586193318526458e-04
-2.079251598205686163e-04
-2.658803790739321517e-04
-3.109997220302299385e-04
-3.431945772852729236e-04
-3.626152286029751424e-04
-3.696496517990764609e-04
-3.649180545835906770e-04
-3.492632158087397411e-04
-3.237367375356368709e-04
-2.895813081805984632e-04
-2.482092702711150532e-04
-2.011777789209179203e-04
-1.501608929550987378e-04
-9.691913843686418388e-05
-4.326693104521698587e-05
8.961551627805213090e-06
5.794746029509843631e-05
1.019228393040687270e-04
1.392058200181155235e-04
1.682349486326295779e-04
1.876019670369223494e-04
1.960824629553948695e-04
1.926637122702294863e-04
1.765693266515360436e-04
1.472798711932273919e-04
1.045493204180885917e-04
4.841682328469888317e-05
-2.078657942681542408e-05
-1.024363901749670761e-04
-1.956185398233415416e-04
-2.991386642404402743e-04
-4.115367665780339588e-04
-5.311070922971174949e-04
-6.559230844952462910e-04
-7.838669238015666353e-04
-9.126633737371465634e-04
-1.039917315644846210e-03
-1.163154443748955560e-03
-1.279864482405784071e-03
-1.387546118095459111e-03
-1.483753021099580181e-03
-1.566139996239638557e-03
-1.632508570300232999e-03
-1.680851165660046361e-03
-1.709392965646287007e-03
-1.716630797867486945e-03
-1.701368152230365660e-03
-1.662745709531940124e-03
-1.600266724401918804e-03
-1.513816610271772212e-03
-1.403676379686604392e-03
-1.270529474015871536e-03
-1.115461773749762712e-03
-9.399544802426885049e-04
-7.458700859464777308e-04
-5.354313209816089717e-04
-3.111933643403443799e-04
-7.600972170652019915e-05
1.670079424756346401e-04
4.145353285945207349e-04
6.630856450124628185e-04
9.090638198275901400e-04
1.148823663757071647e-03
1.378727264802451398e-03
1.595205509380715056e-03
1.794818725975598104e-03
1.974316494561343532e-03
2.130695436033059643e-03
2.261254057698381531e-03
2.363643647495561415e-03
2.435914162575295201e-03
2.476554372186526558e-03
2.484525349498234621e-03
2.459286654606985135e-03
2.400814701761760928e-03
2.309612736556409997e-03
2.186712146522842414e-03
2.033664957362189222e-03
1.852527472094304701e-03
1.645835169031416257e-03
1.416569167208467676e-03
1.168114701332741926e-03
9.042121143052696177e-04
6.289011182503263754e-04
3.464592295807768858e-04
6.133522637817512486e-05
-2.219213192920270136e-04
-4.987332065482269917e-04
-7.645703983815778414e-04
-1.015025053272475318e-03
-1.245885736888549707e-03
-1.453209380252227069e-03
-1.633389896927734839e-03
-1.783222082273813085e-03
-1.899959846492729103e-03
-1.981367665307002136e-03
-2.025764313583143170e-03
-2.032058100864882200e-03
-1.999772891745011955e-03
-1.929064407692335269e-03
-1.820726431550113511e-03
-1.676186751597914847e-03
-1.497492801351973501e-03
-1.287287115446454503e-03
-1.048773017424284261e-03
-7.856709612134307134e-04
-5.021661966127958848e-04
-2.028486268295234200e-04
1.073542903809883138e-04
4.232504229017934063e-04
7.394604863726638756e-04
1.050498973161917990e-03
1.350857082615796812e-03
1.635086473758615025e-03
1.897882217432956013e-03
2.134163714204594890e-03
2.339152191136138759e-03
2.508443514257200583e-03
2.638075108221616706e-03
2.724585923534593706e-03
2.765068372068840014e-03
2.757211435273893181e-03
2.699334299694040266e-03
2.590409891969958078e-03
2.430078022507764328e-03
2.218648004429694606e-03
1.957090693335491322e-03
1.647020139026791289e-03
1.290665265105581886e-03
8.908321567219612937e-04
4.508575481674704914e-04
-2.544547124466716383e-05
-5.338486511937771397e-04
-1.069775607190160370e-03
-1.628373344331141091e-03
-2.204587063569610553e-03
-2.793236973031443336e-03
-3.389095764933177084e-03
-3.986965355037275054e-03
-4.581751594435826309e-03
-5.168535815121583221e-03
-5.742641839992247352e-03
-6.299697452663575829e-03
-6.835689409226427746e-03
-7.347011075101572176e-03
-7.830502000314170166e-03
-8.283479021871141892e-03
-8.703758391738102701e-03
-9.089668763142310162e-03
-9.440055148435742144e-03
-9.754273859465041607e-03
-1.003217885285366193e-02
-1.027409993063187719e-02
-1.048081345309178833e-02
-1.065350637572625402e-02
-1.079373444518808706e-02
-1.090337558520876500e-02
-1.098457951925989849e-02
-1.103971475897782412e-02
-1.107131406310786145e-02
-1.108201961191953612e-02
-1.107452890955561327e-02
-1.105154259820659637e-02
-1.101571520589044416e-02
-1.096960966735743663e-02
-1.091565654271464333e-02
-1.085611856559690926e-02
-1.079306113873036189e-02
-1.072832922165111759e-02
-1.066353079181504328e-02
-1.060002707123255603e-02
-1.053892933727092543e-02
-1.048110223339361949e-02
-1.042717309352955354e-02
-1.037754686790877401e-02
-1.033242588840753602e-02
-1.029183389721113374e-02
-1.025564330684298510e-02
-1.022360485067942172e-02
-1.019537871614884655e-02
-1.017056601442883901e-02
-1.014873971752821256e-02
-1.012947403959088381e-02
-1.011237128442855904e-02
-1.009708543002777598e-02
-1.008334150625966007e-02
-1.007095026440709730e-02
-1.005981759805503993e-02
-1.004994825885429342e-02
-1.004144372009294246e-02
-1.003449412896711447e-02
-1.002936438785870243e-02
-1.002637483014998283e-02
-1.002587672559370618e-02
-1.002822336134422815e-02
-1.003373752812984805e-02
-1.004267613689912263e-02
-1.005519295037952086e-02
-1.007130068523649953e-02
-1.009083353412224514e-02
-1.011341123183296699e-02
-1.013840598009198464e-02
-1.016491338749450461e-02
-1.019172845618831515e-02
-1.021732779976844072e-02
-1.023985889594722712e-02
-1.025713725548117912e-02
-1.026665214476192578e-02
-1.026558125073362936e-02
-1.025081468561755450e-02
-1.021898818341476951e-02
-1.016652551110236100e-02
-1.008968955408775549e-02
-9.984641532174121439e-03
-9.847507482102044185e-03
-9.674450902465372634e-03
-9.461750269406883629e-03
-9.205880090811040597e-03
-8.903593797582796260e-03
-8.552006883824368744e-03
-8.148678436710134546e-03
-7.691689115829060570e-03
-7.179713878998396533e-03
-6.612087476100286798e-03
-5.988861052701357005e-03
-5.310848086926964716e-03
-4.579658206247278276e-03
-3.797717484593265188e-03
-2.968274145653915057e-03
-2.095388794857720553e-03
-1.183908574360574952e-03
-2.394250029836231741e-04
7.317845106010738721e-04
1.722831007267490834e-03
2.726303610568434586e-03
3.734373307569086118e-03
4.738909498150730218e-03
5.731607639303966210e-03
6.704126023334272370e-03
7.648229406131817724e-03
8.555937094379946137e-03
9.419672762758317039e-03
1.023241321918222542e-02
1.098783330015324668e-02
1.168044392099210245e-02
1.230572045730831537e-02
1.286021860645767366e-02
1.334167503915375912e-02
1.374909046647685915e-02
1.408279274238587175e-02
1.434447825477601704e-02
1.453722990425814973e-02
1.466551052270961310e-02
1.473513103893986549e-02
1.475319302906554809e-02
1.472800581371858271e-02
1.466897877913931648e-02
1.458649017681925078e-02
1.449173389406193183e-02
1.439654637654444458e-02
1.431321628141766535e-02
1.425427969395322639e-02
1.423230438794790068e-02
1.425966658590684458e-02
1.434832421455093515e-02
1.450959066458419079e-02
1.475391320254434632e-02
1.509066035110199176e-02
1.552792223651731918e-02
1.607232814414674346e-02
1.672888495793695141e-02
1.750084016506983989e-02
1.838957260669619315e-02
1.939451375451918883e-02
2.051310194099848286e-02
2.174077108769291791e-02
2.307097531776618193e-02
2.449524996193200299e-02
2.600330877774123528e-02
2.758317677343233992e-02
2.922135703023915482e-02
3.090302946521746724e-02
3.261227892878840184e-02
3.433234911054472427e-02
3.604591853021373721e-02
3.773539407888117092e-02
3.938321740723968456e-02
4.097217890912259464e-02
4.248573392395778997e-02
4.390831555057740643e-02
4.522563836059657894e-02
4.642498751392071243e-02
4.749548761466161617e-02
4.842834623975376257e-02
4.921706717822653399e-02
4.985762891024259763e-02
5.034862449319787991e-02
5.069135952841777315e-02
5.088990568315002183e-02
5.095110794344697575e-02
5.088454451280721019e-02
5.070243935647809203e-02
5.041952794703474100e-02
5.005287789622191175e-02
4.962166688993548819e-02
4.914692122498681010e-02
4.865121905279477105e-02
4.815836306163808617e-02
4.769302808601622728e-02
4.728038977302821688e-02
4.694574064897867605e-02
4.671410060844450457e-02
4.660982878021496800e-02
4.665624402784128433e-02
4.687526127222957362e-02
4.728705060655116754e-02
4.790972592834437382e-02
4.875906928488585312e-02
4.984829678504526518e-02
5.118787099468087576e-02
5.278536406860066810e-02
5.464537496784751397e-02
5.676950316273272901e-02
5.915638005907854907e-02
6.180175846267668693e-02
6.469865911786852608e-02
6.783757231793528797e-02
7.120671138261852606e-02
7.479231381406080403e-02
7.857898472200618156e-02
8.255007640999600937e-02
8.668809676284529309e-02
9.097513868423989791e-02
9.539332196613142800e-02
9.992523856262452986e-02
1.045543917957846014e-01
1.092656200627715735e-01
1.140454954125888765e-01
1.188826876174168823e-01
1.237682847059439900e-01
1.286960615075618541e-01
1.336626884214736355e-01
1.386678735059808376e-01
1.437144319768017264e-01
1.488082785194798641e-01
1.539583389601467123e-01
1.591763792350252005e-01
1.644767511278884820e-01
1.698760558183181058e-01
1.753927277361507220e-01
1.810465428917364950e-01
1.868580573025322156e-01
1.928479826744258219e-01
1.990365079087428879e-01
2.054425763069514799e-01
2.120831296238781527e-01
2.189723309649603267e-01
2.261207795488975325e-01
2.335347310036605395e-01
2.412153371814023950e-01
2.491579198728376965e-01
2.573512926882956520e-01
2.657771452220623054e-01
2.744095030618295405e-01
2.832142765937331608e-01
2.921489104775983336e-01
3.011621445161135058e-01
3.101938953829362910e-01
3.191752669870719372e-01
3.280286955667520155e-01
3.366682335956121541e-01
3.449999748663347687e-01
3.529226207030137230e-01
3.603281852822856068e-01
3.671028358543548253e-01
3.731278614092990442e-01
3.782807612646083006e-01
3.824364431531618869e-01
3.854685180689271795e-01
3.872506777618053841e-01
3.876581389394969102e-01
3.865691367641329035e-01
3.838664492073433077e-01
3.794389329192526250e-01
3.731830503323370629e-01
3.650043675162950585e-01
3.548190023562085571e-01
3.425550025665216047e-01
3.281536336304541335e-01
3.115705577849877117e-01
2.927768858720028455e-01
2.717600856020793709e-01
2.485247311716745067e-01
2.230930811290624538e-01
1.955054734695257090e-01
1.658205298074031109e-01
1.341151612755009104e-01
1.004843729265167546e-01
6.504086533846066553e-02
2.791443505849720841e-02
-1.074882209669734620e-02
-5.078749805154853664e-02
-9.202604030985156447e-02
-1.342760890233461180e-01
-1.773379689717125840e-01
-2.210023202450224211e-01
-2.650518495762705373e-01
-3.092631822663312047e-01
-3.534087936414814779e-01
-3.972589977132973682e-01
-4.405839695835823688e-01
-4.831557782129776712e-01
-5.247504055391416511e-01
-5.651497282490728358e-01
-6.041434391016129446e-01
-6.415308852550931640e-01
-6.771228022914391742e-01
-7.107429240526534908e-01
-7.422294499203049289e-01
-7.714363532913482979e-01
-7.982345168164628468e-01
-8.225126825878690262e-01
-8.441782076358352871e-01
-8.631576179145658001e-01
-8.793969563309860238e-01
-8.928619232354667590e-01
-9.035378103517661685e-01
-9.114292319472067083e-01
-9.165596593733081887e-01
-9.189707676051581675e-01
-9.187216048590117756e-01
-9.158875983541705512e-01
-9.105594111021861892e-01
-9.028416665177027012e-01
-8.928515588465496533e-01
-8.807173687665303952e-01
-8.665769040842777882e-01
-8.505758863967125549e-01
-8.328663044940213256e-01
-8.136047555433636447e-01
-7.929507945980126538e-01
-7.710653124107152978e-01
-7.481089607336327552e-01
-7.242406430929526628e-01
-6.996160876922785654e-01
-6.743865175325864936e-01
-6.486974312092268491e-01
-6.226875057553236115e-01
-5.964876310749444022e-01
-5.702200833107862188e-01
-5.439978424651774613e-01
-5.179240572756302896e-01
-4.920916582901431191e-01
-4.665831179920685301e-01
-4.414703548366231134e-01
-4.168147758742419273e-01
-3.926674512165320152e-01
-3.690694117880696790e-01
-3.460520602945733604e-01
-3.236376840774752295e-01
-3.018400576657530587e-01
-2.806651217837330403e-01
-2.601117251399533981e-01
-2.401724147074318361e-01
-2.208342603995200049e-01
-2.020796997934353190e-01
-1.838873890672511335e-01
-1.662330467890058006e-01
-1.490902777889684672e-01
-1.324313653885940689e-01
-1.162280211674838193e-01
-1.004520825637056358e-01
-8.507615008466742901e-02
-7.007415703034026999e-02
-5.542186629247081858e-02
-4.109729008642184350e-02
-2.708102998605808193e-02
-1.335653608653739575e-02
8.971438670160197554e-05
1.326811744210114330e-02
2.618591872263712275e-02
3.884726179419598080e-02
5.125330321286004909e-02
6.340238834232403420e-02
7.529028089684344782e-02
8.691043882149936117e-02
9.825432831971105119e-02
1.093117678978166585e-01
1.200712938580237588e-01
1.305205385897647008e-01
1.406466135965693809e-01
1.504364889781040215e-01
1.598773617763764032e-01
1.689570062473340628e-01
1.776640994149982222e-01
1.859885164967513826e-01
1.939215911837947615e-01
2.014563369027732032e-01
2.085876259815487577e-01
2.153123247577026222e-01
2.216293833512232303e-01
2.275398800804735167e-01
2.330470211676779757e-01
2.381560973229970846e-01
2.428743995697499602e-01
2.472110975372384389e-01
2.511770838895148739e-01
2.547847891298498646e-01
2.580479717123518313e-01
2.609814884471571839e-01
2.636010504616136396e-01
2.659229701811573476e-01
2.679639047694222787e-01
2.697406014777911087e-01
2.712696497452646849e-01
2.725672451994907708e-01
2.736489698413362426e-01
2.745295924012365885e-01
2.752228923390648285e-01
2.757415104821391294e-01
2.760968284106950499e-01
2.762988783321911890e-01
2.763562843690668958e-01
2.762762355724634467e-01
2.760644902425525293e-01
2.757254107357551831e-01
2.752620270385985335e-01
2.746761271316494613e-01
2.739683714634714717e-01
2.731384285692509684e-01
2.721851284478867816e-01
2.711066300768718573e-01
2.699005992097755491e-01
2.685643924413165795e-01
2.670952436276005648e-01
2.654904486041592127e-01
2.637475444778902833e-01
2.618644798526227335e-01
2.598397724704486489e-01
2.576726513440621424e-01
2.553631806882015742e-01
2.529123632453355586e-01
2.503222214320451333e-01
2.475958548006441384e-01
2.447374731053171826e-01
2.417524045376916175e-01
2.386470793837102977e-01
2.354289897796740250e-01
2.321066266606357509e-01
2.286893954277760266e-01
2.251875123099372211e-01
2.216118837467505875e-01
2.179739713844793259e-01
2.142856454496470109e-01
2.105590295151873736e-01
2.068063398803551833e-01
2.030397226430115665e-01
1.992710916702983281e-01
1.955119706224359710e-01
1.917733419346054624e-01
1.880655055140938725e-01
1.843979498067163381e-01
1.807792375057366840e-01
1.772169077860610564e-01
1.737173967148408771e-01
1.702859771399042321e-01
1.669267188390258505e-01
1.636424694099484489e-01
1.604348559394694063e-01
1.573043072236042506e-01
1.542500956034764947e-01
1.512703975316829763e-01
1.483623714142524863e-01
1.455222510945706482e-01
1.427454527906191761e-01
1.400266936047613597e-01
1.373601190662672167e-01
1.347394372751099523e-01
1.321580570853285730e-01
1.296092278067892956e-01
1.270861778439909828e-01
1.245822497711224636e-01
1.220910295002425316e-01
1.196064673504510789e-01
1.171229889275497565e-01
1.146355941687160068e-01
1.121399429035555007e-01
1.096324257182198503e-01
1.071102192911743550e-01
1.045713253785918451e-01
1.020145932422750756e-01
9.943972553360712341e-02
9.684726789112563239e-02
9.423858285608928409e-02
9.161580895271362324e-02
8.898180610020285652e-02
8.634008863761573338e-02
8.369474766391683807e-02
8.105036424479963864e-02
7.841191538704085640e-02
7.578467470252173155e-02
7.317410978800591159e-02
7.058577828525017250e-02
6.802522452124257213e-02
6.549787869949826036e-02
6.300896054724115791e-02
6.056338895428176744e-02
5.816569917835339582e-02
5.581996900866614819e-02
5.352975504503461324e-02
5.129803997992732345e-02
4.912719159083001053e-02
4.701893395478277254e-02
4.497433106110280965e-02
4.299378283932024647e-02
4.107703338054002895e-02
3.922319085379021020e-02
3.743075846113264743e-02
3.569767550605144890e-02
3.402136770797708348e-02
3.239880544797630463e-02
3.082656871962157277e-02
2.930091733085905467e-02
2.781786512050565124e-02
2.637325635940916679e-02
2.496284328654520962e-02
2.358236298580965173e-02
2.222761224642740008e-02
2.089451926981972588e-02
1.957921075641579772e-02
1.827807345316563234e-02
1.698780901517878139e-02
1.570548144981743707e-02
1.442855644074372487e-02
1.315493212221199686e-02
1.188296092639740814e-02
1.061146238314126036e-02
9.339726842326373166e-03
8.067510427368912787e-03
6.795021559151417923e-03
5.522899445884853729e-03
4.252185396016823840e-03
2.984287442349949603e-03
1.720939379372270466e-03
4.641550500012453897e-04
-7.838211107983037752e-04
-2.020566178321084577e-03
-3.243532490208478770e-03
-4.450101965439223067e-03
-5.637639930001249466e-03
-6.803547476164568779e-03
-7.945311355467273712e-03
-9.060550614060270194e-03
-1.014705916028998435e-02
-1.120284363055422568e-02
-1.222615591261724984e-02
-1.321551997235393024e-02
-1.416975257941914534e-02
-1.508797775728400355e-02
-1.596963496406050842e-02
-1.681448096634881317e-02
-1.762258554553855841e-02
-1.839432152677999976e-02
-1.913034920511685194e-02
-1.983159593947975488e-02
-2.049923124758453591e-02
-2.113463806988590335e-02
-2.173938104411366271e-02
-2.231517224528121665e-02
-2.286383526398231766e-02
-2.338726843275598655e-02
-2.388740769316929219e-02
-2.436619004834883473e-02
-2.482551818393503862e-02
-2.526722688578146234e-02
-2.569305182932500944e-02
-2.610460129193145976e-02
-2.650333118138494676e-02
-2.689052372359997806e-02
-2.726727018630750732e-02
-2.763445769021600704e-02
-2.799276029133011129e-02
-2.834263438715522304e-02
-2.868431827680221341e-02
-2.901783579371687571e-02
-2.934300386452802153e-02
-2.965944361915610547e-02
-2.996659468160933412e-02
-3.026373238087987777e-02
-3.054998735103044843e-02
-3.082436718273549869e-02
-3.108577951205196421e-02
-3.133305615214070083e-02
-3.156497769856368013e-02
-3.178029828065228463e-02
-3.197776991446332068e-02
-3.215616599924155106e-02
-3.231430362718420990e-02
-3.245106426431846464e-02
-3.256541262087671307e-02
-3.265641337606273870e-02
-3.272324558282015128e-02
-3.276521453974440279e-02
-3.278176112807780485e-02
-3.277246852181199543e-02
-3.273706630443189158e-02
-3.267543199788751351e-02
-3.258759020115838123e-02
-3.247370941952092832e-02
-3.233409688236490998e-02
-3.216919140738318944e-02
-3.197955463046606162e-02
-3.176586088592392443e-02
-3.152888598130356573e-02
-3.126949522278504867e-02
-3.098863084834524093e-02
-3.068729918170022553e-02
-3.036655778266981326e-02
-3.002750281845416314e-02
-2.967125687278763038e-02
-2.929895741532510464e-02
-2.891174606170969844e-02
-2.851075872561662644e-02
-2.809711688367572818e-02
-2.767191983145955714e-02
-2.723623809784217475e-02
-2.679110800597248737e-02
-2.633752730305833484e-02
-2.587645181982525106e-02
-2.540879312871677578e-02
-2.493541704140950568e-02
-2.445714281594905948e-02
-2.397474301960038010e-02
-2.348894385956089292e-02
-2.300042577372131414e-02
-2.250982425348157026e-02
-2.201773076688398958e-02
-2.152469352405075517e-02
-2.103121806595468005e-02
-2.053776758588294477e-02
-2.004476282450180086e-02
-1.955258152521139464e-02
-1.906155745477794428e-02
-1.857197893419659795e-02
-1.808408686275351021e-02
-1.759807225651605078e-02
-1.711407343811154752e-02
-1.663217288644969205e-02
-1.615239384282863080e-02
-1.567469687116410104e-02
-1.519897635570937287e-02
-1.472505721354089130e-02
-1.425269184596227902e-02
-1.378155760671746777e-02
-1.331125481898960509e-02
-1.284130552336077390e-02
-1.237115308595042144e-02
-1.190016278511826266e-02
-1.142762351355838119e-02
-1.095275063819892321e-02
-1.047469009429742581e-02
-9.992523753802731723e-03
-9.505276117758835672e-03
-9.011922257598467198e-03
-8.511396979681317906e-03
-8.002605174647479946e-03
-7.484433291459379606e-03
-6.955761703400484969e-03
-6.415477925320572927e-03
-5.862490396902161893e-03
-5.295742778280194615e-03
-4.714228446201698848e-03
-4.117005048292743039e-03
-3.503208856650237568e-03
-2.872068680839713790e-03
-2.222919154189509534e-03
-1.555213119926801731e-03
-8.685328537035702772e-04
-1.626000737867339065e-04
5.627155913325489894e-04
1.307389849418801086e-03
2.071238725792647322e-03
2.853915506792267277e-03
3.654909760079185378e-03
4.473548347174638798e-03
5.308998642280867916e-03
6.160273759877495092e-03
7.026239906545876657e-03
7.905625701089736071e-03
8.797033373568271045e-03
9.698951702179915701e-03
1.060977051939336439e-02
1.152779655335432751e-02
1.245127049951928223e-02
1.337838494958595338e-02
1.430730298452674056e-02
1.523617720645825506e-02
1.616316888745679414e-02
1.708646687393258062e-02
1.800430617479785445e-02
1.891498576785640220e-02
1.981688546836078701e-02
2.070848152980618584e-02
2.158836088363352487e-02
2.245523366422546782e-02
2.330794397029284717e-02
2.414547857732690997e-02
2.496697365007272129e-02
2.577171918298129874e-02
2.655916122083839051e-02
2.732890189341481701e-02
2.808069714792321356e-02
2.881445232915533922e-02
2.953021565120815192e-02
3.022816971748733261e-02
3.090862120625352191e-02
3.157198891198007007e-02
3.221879033355468103e-02
3.284962703658639988e-02
3.346516902733496363e-02
3.406613843063780595e-02
3.465329271496623426e-02
3.522740762388473085e-02
3.578926032993923895e-02
3.633961281654900233e-02
3.687919592574694094e-02
3.740869426908653705e-02
3.792873220296930081e-02
3.843986110289767527e-02
3.894254806996705343e-02
3.943716633485033068e-02
3.992398743882962647e-02
4.040317533542309159e-02
4.087478240695601589e-02
4.133874755962776287e-02
4.179489628029270376e-02
4.224294268856536999e-02
4.268249354288603664e-02
4.311305414491981708e-02
4.353403593025693963e-02
4.394476572226709010e-02
4.434449632221863086e-02
4.473241840977752043e-02
4.510767348094575635e-02
4.546936760475436129e-02
4.581658575283864554e-02
4.614840645020057419e-02
4.646391649629212639e-02
4.676222561674418798e-02
4.704248063035896404e-02
4.730387908884316900e-02
4.754568191995016402e-02
4.776722514457183710e-02
4.796793028843739093e-02
4.814731333016401826e-02
4.830499212996983149e-02
4.844069219634088846e-02
4.855425066853772537e-02
4.864561836576464238e-02
4.871486005450881979e-02
4.876215281003362656e-02
4.878778247313782235e-02
4.879213833267340150e-02
4.877570603047132886e-02
4.873905890245002620e-02
4.868284780887226909e-02
4.860778960994712600e-02
4.851465451097572434e-02
4.840425235157189837e-02
4.827741825020438748e-02
4.813499758798679695e-02
4.797783074511757090e-02
4.780673771967845764e-02
4.762250286790741666e-02
4.742586004183337728e-02
4.721747823397353522e-02
4.699794811416181661e-02
4.676776950692662638e-02
4.652734003751829439e-02
4.627694516350277371e-02
4.601674965550834467e-02
4.574679071207519293e-02
4.546697284794813665e-02
4.517706449638296540e-02
4.487669650643508895e-02
4.456536251681286753e-02
4.424242116098960759e-02
4.390710013879687429e-02
4.355850207177942163e-02
4.319561207351061555e-02
4.281730687485105907e-02
4.242236556584514512e-02
4.200948151489616172e-02
4.157727565064358449e-02
4.112431062104268675e-02
4.064910582931964556e-02
4.015015316060770167e-02
3.962593308096900441e-02
3.907493105641566405e-02
3.849565395403388435e-02
3.788664625092189736e-02
3.724650599008282048e-02
3.657390012289256365e-02
3.586757917343028068e-02
3.512639101430668070e-02
3.434929364655030237e-02
3.353536680649654017e-02
3.268382228052727628e-02
3.179401290415392878e-02
3.086544015598858409e-02
2.989776023702984606e-02
2.889078866296709847e-02
2.784450326773803622e-02
2.675904579303514663e-02
2.563472192042087761e-02
2.447199991317423190e-02
2.327150785055824914e-02
2.203402958314132007e-02
2.076049955128593180e-02
1.945199644701597549e-02
1.810973587566040710e-02
1.673506225242477052e-02
1.532943990549748975e-02
1.389444358981552045e-02
1.243174858917309167e-02
1.094312042761768147e-02
9.430404424605749736e-03
7.895515159003939007e-03
6.340425966760979658e-03
4.767158587140242314e-03
3.177773061914985781e-03
1.574357912910637463e-03
-4.097920796959254462e-05
-1.666120454981142055e-03
-3.298946164708050667e-03
-4.937342748127912864e-03
-6.579209927168163351e-03
-8.222467436336318436e-03
-9.865061196528461529e-03
-1.150496884425322892e-02
-1.314020473946441586e-02
-1.476882444595663431e-02
-1.638892877334424333e-02
-1.799866735369167609e-02
-1.959624181844358409e-02
-2.117990869270718751e-02
-2.274798198121484247e-02
-2.429883552712883144e-02
-2.583090520866868078e-02
-2.734269100366111191e-02
-2.883275888339187007e-02
-3.029974277738948715e-02
-3.174234643024563540e-02
-3.315934525631033386e-02
-3.454958815777033065e-02
-3.591199933382962367e-02
-3.724558016286177303e-02
-3.854941097404366440e-02
-3.982265278532627628e-02
-4.106454899213950877e-02
-4.227442687585729331e-02
-4.345169896667998299e-02
-4.459586416005451026e-02
-4.570650854720496870e-02
-4.678330585858441609e-02
-4.782601758274896558e-02
-4.883449263569798748e-02
-4.980866644137257188e-02
-5.074855946164909953e-02
-5.165427513931865333e-02
-5.252599720245840903e-02
-5.336398622111695328e-02
-5.416857556773202464e-02
-5.494016663547128532e-02
-5.567922333545635705e-02
-5.638626599294498110e-02
-5.706186458546341073e-02
-5.770663132123997341e-02
-5.832121284416463131e-02
-5.890628185932429706e-02
-5.946252846707839046e-02
-5.999065123972899261e-02
-6.049134809888237485e-02
-6.096530719400264364e-02
-6.141319790794649847e-02
-6.183566206197659704e-02
-6.223330542971518969e-02
-6.260668985366894812e-02
-6.295632592677044559e-02
-6.328266642829444288e-02
-6.358610069026121581e-02
-6.386694991928844323e-02
-6.412546362216901830e-02
-6.436181723996484139e-02
-6.457611095380107191e-02
-6.476836981241106128e-02
-6.493854545480175211e-02
-6.508651894414339834e-02
-6.521210499852699016e-02
-6.531505753259835012e-02
-6.539507652818894734e-02
-6.545181605413977199e-02
-6.548489337660988452e-02
-6.549389916754709551e-02
-6.547840847890612492e-02
-6.543799240847478216e-02
-6.537223036753747607e-02
-6.528072262439867102e-02
-6.516310312524184467e-02
-6.501905218997555691e-02
-6.484830893198233193e-02
-6.465068334719141496e-02
-6.442606766991917921e-02
-6.417444688253501339e-02
-6.389590825575966471e-02
-6.359064958292931502e-02
-6.325898608340173312e-02
-6.290135575737880458e-02
-6.251832310978006069e-02
-6.211058111816164518e-02
-6.167895137032869401e-02
-6.122438236161790309e-02
-6.074794583167155565e-02
-6.025083129895762030e-02
-5.973433869582435440e-02
-5.919986926107427549e-02
-5.864891476310575558e-02
-5.808304521061688486e-02
-5.750389511914458934e-02
-5.691314858164255031e-02
-5.631252338068738067e-02
-5.570375427902324317e-02
-5.508857570757225847e-02
-5.446870418645107653e-02
-5.384582071625689664e-02
-5.322155337935166597e-02
-5.259746035951438914e-02
-5.197501375745916530e-02
-5.135558432933381295e-02
-5.074042747577591633e-02
-5.013067062649252670e-02
-4.952730225789005181e-02
-4.893116272973473818e-02
-4.834293709060995953e-02
-4.776314993581730339e-02
-4.719216246677377519e-02
-4.663017176809566844e-02
-4.607721231307328191e-02
-4.553315966000785753e-02
-4.499773642394225975e-02
-4.447052030664819244e-02
-4.395095408072264426e-02
-4.343835746401198544e-02
-4.293194062621468604e-02
-4.243081915407675986e-02
-4.193403016578169107e-02
-4.144054953935984859e-02
-4.094930981628191330e-02
-4.045921844958404179e-02
-3.996917624627540494e-02
-3.947809574621513606e-02
-3.898491912029190126e-02
-3.848863541310531405e-02
-3.798829676746812850e-02
-3.748303351080083806e-02
-3.697206771441247791e-02
-3.645472517501081172e-02
-3.593044553645172168e-02
-3.539879046313627181e-02
-3.485944973461258672e-02
-3.431224513341469412e-02
-3.375713207724207604e-02
-3.319419910251900779e-02
-3.262366514388332500e-02
-3.204587470988692899e-02
-3.146129099565361104e-02
-3.087048708086338050e-02
-3.027413546533365418e-02
-2.967299609083491607e-02
-2.906790304873146241e-02
-2.845975022014890846e-02
-2.784947613206257416e-02
-2.723804833293826458e-02
-2.662644741621395320e-02
-2.601565121470055669e-02
-2.540661927291918559e-02
-2.480027793324669425e-02
-2.419750622142435859e-02
-2.359912294863743959e-02
-2.300587513898214378e-02
-2.241842787523416411e-02
-2.183735603093933664e-02
-2.126313775805902320e-02
-2.069614991871507326e-02
-2.013666559863274211e-02
-1.958485363110817890e-02
-1.904078021422527661e-02
-1.850441255726459691e-02
-1.797562441060233593e-02
-1.745420344710509053e-02
-1.693986033916245262e-02
-1.643223922295514866e-02
-1.593092955374378686e-02
-1.543547895403228794e-02
-1.494540687537099753e-02
-1.446021869446911801e-02
-1.397942015490477065e-02
-1.350253174012034166e-02
-1.302910262737278467e-02
-1.255872416134666547e-02
-1.209104238558792767e-02
-1.162576945685950443e-02
-1.116269366478541900e-02
-1.070168784797095006e-02
-1.024271615263863677e-02
-9.785838722355369793e-03
-9.331214476134176358e-03
-8.879101765694664278e-03
-8.429856850033260254e-03
-7.983930222316791905e-03
-7.541860863619335824e-03
-7.104268446459401955e-03
-6.671843641924682031e-03
-6.245336675446262059e-03
-5.825544372295040491e-03
-5.413295760284978463e-03
-5.009436712388765089e-03
-4.614813685172919865e-03
-4.230256966593400753e-03
-3.856563719289819465e-03
-3.494481124120857058e-03
-3.144689875927277316e-03
-2.807788478700599857e-03
-2.484278512986230238e-03
-2.174551217585094735e-03
-1.878875634690870509e-03
-1.597388586401762584e-03
-1.330086670870511993e-03
-1.076820563818322576e-03
-8.372915333544341757e-04
-6.110505037102584259e-04
-3.974996697845378335e-04
-1.958965385769299709e-04
-5.360580309879279079e-06
1.751176936639611478e-04
3.466653163360384343e-04
5.105133241958443062e-04
6.679812161343613849e-04
8.204596386127611420e-04
9.693916073155003010e-04
1.116252526813300968e-03
1.262529403495924255e-03
1.409699486337255558e-03
1.559208666599214924e-03
1.712450103149430964e-03
1.870743365812309713e-03
2.035314450767823548e-03
2.207277024982253789e-03
2.387615182954609411e-03
2.577167995212323575e-03
2.776616175276767472e-03
2.986471169025418752e-03
3.207066712255066294e-03
3.438553051798653049e-03
3.680894054943488220e-03
3.933867147427451069e-03
4.197066152306696933e-03
4.469907002313853496e-03
4.751636260431628574e-03
5.041342283806565794e-03
5.337968881999034798e-03
5.640331333302493408e-03
5.947134382578101765e-03
6.256992002333489587e-03
6.568448535521345319e-03
6.880001093642505380e-03
7.190122531782265104e-03
7.497284862355272153e-03
7.799982643151606200e-03
8.096755957484411820e-03
8.386212664605921172e-03
8.667049452385023126e-03
8.938071398729149214e-03
9.198209810942893291e-03
9.446537883985930972e-03
9.682284045323667765e-03
9.904842721132789407e-03
1.011378238345367504e-02
1.030885070441242904e-02
1.048997669865212902e-02
1.065727001065305130e-02
1.081101716088503709e-02
1.095167490601864531e-02
1.107986081726504250e-02
1.119634122721047814e-02
1.130201687796720394e-02
1.139790631680677284e-02
1.148512749600486861e-02
1.156487773782902996e-02
1.163841256708324570e-02
1.170702369590847537e-02
1.177201655960463320e-02
1.183468772988337074e-02
1.189630260043729286e-02
1.195807387724058535e-02
1.202114106033650570e-02
1.208655127850707424e-02
1.215524186621025869e-02
1.222802502836557378e-02
1.230557472948854043e-02
1.238841604570768522e-02
1.247691721539612338e-02
1.257128450755967859e-02
1.267155993538656399e-02
1.277762187537008660e-02
1.288918862018194680e-02
1.300582470368663417e-02
1.312694989938828147e-02
1.325185082954274778e-02
1.337969485372962966e-02
1.350954600373705482e-02
1.364038273029172590e-02
1.377111713965221453e-02
1.390061537748901038e-02
1.402771867802705096e-02
1.415126493150595244e-02
1.427011012774389090e-02
1.438314955557321549e-02
1.448933826096340978e-02
1.458771030246858516e-02
1.467739662269361769e-02
1.475764111844779687e-02
1.482781467148740207e-02
1.488742694146439650e-02
1.493613558109835836e-02
1.497375282145800915e-02
1.500024915937516953e-02
1.501575421868758635e-02
1.502055480833327378e-02
1.501509000486096930e-02
1.499994345866973236e-02
1.497583309339810959e-02
1.494359820724493887e-02
1.490418442576829476e-02
1.485862657897335341e-02
1.480802987051256514e-02
1.475354959311547982e-02
1.469636983266769947e-02
1.463768144854691276e-02
1.457865977951887208e-02
1.452044241151355386e-02
1.446410739917344465e-02
1.441065227665430139e-02
1.436097432039406055e-02
1.431585233317372516e-02
1.427593027213708635e-02
1.424170312776074088e-02
1.421350513402680309e-02
1.419150061613702260e-02
1.417567761884614037e-02
1.416584449155420047e-02
1.416162947656486419e-02
1.416248331048361626e-02
1.416768488474223417e-02
1.417634976492493544e-02
1.418744159482697269e-02
1.419978611781171421e-02
1.421208759909483796e-02
1.422294754027646387e-02
1.423088522243953769e-02
1.423435986034832582e-02
1.423179404575016828e-02
1.422159796290236103e-02
1.420219419526981205e-02
1.417204263217353329e-02
1.412966512015141791e-02
1.407366937244352786e-02
1.400277193305410860e-02
1.391581974144363333e-02
1.381180992366163630e-02
1.368990767925002891e-02
1.354946173966640847e-02
1.339001732118702895e-02
1.321132634489312167e-02
1.301335474135096974e-02
1.279628673494497687e-02
1.256052607619360072e-02
1.230669420639191394e-02
1.203562528224121596e-02
1.174835826182743168e-02
1.144612610799203116e-02
1.113034230811869689e-02
1.080258490406898857e-02
1.046457824186744143e-02
1.011817268859359874e-02
9.765322735300780224e-03
9.408063721021748746e-03
9.048487489900097075e-03
8.688717416148876091e-03
8.330883047637566499e-03
7.977094839429325207e-03
7.629419236012229856e-03
7.289854517288654745e-03
6.960307674711210292e-03
6.642572695335105699e-03
6.338310440547550474e-03
6.049030478015371588e-03
5.776074956982481072e-03
5.520604873933960058e-03
5.283588752943156261e-03
5.065793968173900284e-03
4.867780660325160373e-03
4.689898299962339326e-03
4.532284982302524183e-03
4.394869342728695283e-03
4.277375034311487606e-03
4.179327650099516796e-03
4.100063915211951508e-03
4.038742996911834013e-03
3.994359744436343576e-03
3.965759556777513108e-03
3.951654746122138656e-03
3.950642137904426462e-03
3.961221546631513504e-03
3.981814953268651702e-03
4.010786027845028058e-03
4.046459790355156835e-03
4.087142193359454521e-03
4.131139267821488763e-03
4.176775670953821774e-03
4.222412466349248321e-03
4.266463857998548798e-03
4.307412696907849184e-03
4.343824702104022092e-03
4.374361202488806326e-03
4.397790308969425944e-03
4.412996454782953243e-03
4.418988364276954517e-03
4.414905207558273738e-03
4.400021150649536736e-03
4.373748235252391571e-03
4.335637652207458004e-03
4.285379461617538216e-03
4.222800918960209655e-03
4.147863424509821290e-03
4.060658279565520883e-03
3.961401266045543913e-03
3.850426273745865928e-03
3.728178128437307625e-03
3.595204638785078934e-03
3.452148132796704124e-03
3.299736510270159188e-03
3.138773948643015788e-03
2.970131401381064223e-03
2.794737048999241993e-03
2.613566670254315483e-03
2.427634152757175093e-03
2.237982117359494857e-03
2.045672771680251065e-03
1.851779042063499397e-03
1.657375990425469063e-03
1.463532598920042060e-03
1.271303884676006383e-03
1.081723460157291540e-03
8.957963465495457061e-04
7.144922532729857572e-04
5.387391690974031736e-04
3.694173924418828409e-04
2.073538242735035292e-04
5.331663984735188948e-05
-9.198975362240855390e-05
-2.279293891051759286e-04
-3.539391092461202887e-04
-4.695326454122722816e-04
-5.743042989065203939e-04
-6.679323510053756857e-04
-7.501820392330310573e-04
-8.209081845729157296e-04
-8.800573961339691132e-04
-9.276697602298697226e-04
-9.638800603629599315e-04
-9.889184594875399022e-04
-1.003110517776225957e-03
-1.006876542341840139e-03
-1.000730296938239861e-03
-9.852769068247637079e-04
-9.612099989405955853e-04
-9.293079530520001507e-04
-8.904293311068374591e-04
-8.455073894043318126e-04
-7.955437026653403108e-04
-7.416008818897121095e-04
-6.847944359026725356e-04
-6.262837497647281071e-04
-5.672622759692549530e-04
-5.089469964540921203e-04
-4.525672001549357220e-04
-3.993527033346655811e-04
-3.505215980830307058e-04
-3.072676466475611923e-04
-2.707475175427848340e-04
-2.420679205872013572e-04
-2.222728950233911508e-04
-2.123312920359911034e-04
-2.131247400833796723e-04
-2.254361972824262634e-04
-2.499393220856407851e-04
-2.871887199518005575e-04
-3.376114002742559915e-04
-4.014993377968819775e-04
-4.790035221291188928e-04
-5.701295385445918993e-04
-6.747347850611108136e-04
-7.925273775858550623e-04
-9.230668581553528240e-04
-1.065766715170660866e-03
-1.219898726875800294e-03
-1.384599154224010111e-03
-1.558876723991353252e-03
-1.741622335754509227e-03
-1.931620367134241623e-03
-2.127561529699192096e-03
-2.328057057166068016e-03
-2.531654044796518427e-03
-2.736851923173261574e-03
-2.942119587508779457e-03
-3.145913170261597971e-03
-3.346694142140408702e-03
-3.542947495651851443e-03
-3.733199746728428636e-03
-3.916036453927004835e-03
-4.090119135190929331e-03
-4.254201233889254308e-03
-4.407142989006920808e-03
-4.547924836439153247e-03
-4.675659305487945248e-03
-4.789601124414698263e-03
-4.889155393068146671e-03
-4.973883763263259143e-03
-5.043508478925117812e-03
-5.097914172741582588e-03
-5.137147456731975918e-03
-5.161414274625557991e-03
-5.171075072371470599e-03
-5.166637819970679862e-03
-5.148749063801190233e-03
-5.118183064271352237e-03
-5.075829226550389144e-03
-5.022677975756380774e-03
-4.959805384606129353e-03
-4.888356700076430805e-03
-4.809529115491058444e-03
-4.724553941053319731e-03
-4.634678595119575729e-03
-4.541148543417728410e-03
-4.445189581850569026e-03
-4.347990682876785862e-03
-4.250687771484146053e-03
-4.154348555106528000e-03
-4.059958665080156542e-03
-3.968409431014722176e-03
-3.880487358041301640e-03
-3.796865506763946307e-03
-3.718096860233728162e-03
-3.644609848195499123e-03
-3.576706052854834034e-03
-3.514560088048787351e-03
-3.458221652388290997e-03
-3.407619681089210824e-03
-3.362568551748701656e-03
-3.322776191217298013e-03
-3.287853914824325971e-03
-3.257327825059864578e-03
-3.230651571959845120e-03
-3.207220193836125745e-03
-3.186384870450473857e-03
-3.167468213111169877e-03
-3.149779904093904029e-03
-3.132632358495643973e-03
-3.115356127026205641e-03
-3.097314757537812744e-03
-3.077918918080131249e-03
-3.056639408421706929e-03
-3.033018951844686575e-03
-3.006682475564572202e-03
-2.977345694852367216e-03
-2.944821950100822480e-03
-2.909027004991299702e-03
-2.869981888147030060e-03
-2.827813601654154650e-03
-2.782753779534749040e-03
-2.735135232792274690e-03
-2.685386598882675765e-03
-2.634024933886012793e-03
-2.581646662978774685e-03
-2.528916816127933873e-03
-2.476556910552455467e-03
-2.425331647040152548e-03
-2.376034584779718965e-03
-2.329473174878842184e-03
-2.286453327146600097e-03
-2.247763809251551032e-03
-2.214160796225508009e-03
-2.186352836118895387e-03
-2.164986467126913793e-03
-2.150632768660004114e-03
-2.143775133759301052e-03
-2.144798413655759229e-03
-2.153979659655456437e-03
-2.171480646646024859e-03
-2.197342343599588150e-03
-2.231481395538502562e-03
-2.273688659036370453e-03
-2.323629883262714069e-03
-2.380848543528493559e-03
-2.444770694151985647e-03
-2.514711870829648612e-03
-2.589885850886008457e-03
-2.669415167952365192e-03
-2.752343216141834876e-03
-2.837647699306944816e-03
-2.924255135240610547e-03
-3.011056345217915688e-03
-3.096922502781131181e-03
-3.180721530855345428e-03
-3.261334601679176815e-03
-3.337672344037543107e-03
-3.408690632009608520e-03
-3.473405559817983792e-03
-3.530907398343418810e-03
-3.580373314335313830e-03
-3.621078599550931702e-03
-3.652406267409153817e-03
-3.673854814060610856e-03
-3.685044035569091676e-03
-3.685718856888463551e-03
-3.675751014750663469e-03
-3.655138688634679278e-03
-3.624004014737147814e-03
-3.582588560711497897e-03
-3.531246890545789927e-03
-3.470438303934758606e-03
-3.400716977323182694e-03
-3.322720524737551081e-03
-3.237157406917246048e-03
-3.144793288564361536e-03
-3.046436601916963777e-03
-2.942923654720864830e-03
-2.835103483156472572e-03
-2.723822694641236334e-03
-2.609910650346101198e-03
-2.494165301819386768e-03
-2.377339751691319447e-03
-2.260129954367470512e-03
-2.143163682897473825e-03
-2.026991005482223739e-03
-1.912076393673684547e-03
-1.798792603784276712e-03
-1.687416444545575224e-03
-1.578126523481124558e-03
-1.471002947327019897e-03
-1.366029013258492986e-03
-1.263094852774613057e-03
-1.162002894521496025e-03
-1.062475093543656119e-03
-9.641618149132391569e-04
-8.666520806535363492e-04
-7.694850035945624556e-04
-6.721623103524981694e-04
-5.741616270728963287e-04
-4.749502382840224213e-04
-3.739991573787563163e-04
-2.707971320084419137e-04
-1.648643708629937157e-04
-5.576574002406620145e-05
5.687683488599787601e-05
1.733730331641182565e-04
2.939540463727043128e-04
4.187638548852066264e-04
5.478522625590768417e-04
6.811695892170292494e-04
8.185632558972759333e-04
9.597762941396226731e-04
1.104447801684697947e-03
1.252115401553265291e-03
1.402219660321092414e-03
1.554110316362169140e-03
1.707054291589901913e-03
1.860245355601859328e-03
2.012815190967416189e-03
2.163845776821667500e-03
2.312382797739132110e-03
2.457449856384788609e-03
2.598063239553143663e-03
2.733247019197229590e-03
2.862048162083079446e-03
2.983551440240290488e-03
3.096893776900650885e-03
3.201277857107864486e-03
3.295984785317312982e-03
3.380385476479366019e-03
3.453950669723901239e-03
3.516259306713342969e-03
3.567005180069748004e-03
3.606001748042879981e-03
3.633184980919789211e-03
3.648614192096756581e-03
3.652470899021891329e-03
3.645055718688703945e-03
3.626783318024724787e-03
3.598175533589233026e-03
3.559852752718771496e-03
3.512523834071564453e-03
3.456974590934173801e-03
3.394055102939802938e-03
3.324666160762921631e-03
3.249744945497829926e-03
3.170250300643127472e-03
3.087147805131409180e-03
3.001394933705926055e-03
2.913926574333399692e-03
2.825641153123398773e-03
2.737387553454484479e-03
2.649953095206629937e-03
2.564052800765178382e-03
2.480320072885354703e-03
2.399299013646853315e-03
2.321438415762488126e-03
2.247087602219829602e-03
2.176494081884259527e-03
2.109803141063138106e-03
2.047059272410909746e-03
1.988209450189181837e-03
1.933108171365728253e-03
1.881524090936437287e-03
1.833148181959703537e-03
1.787603222113829955e-03
1.744454373990913859e-03
1.703220748760549087e-03
1.663387618974482892e-03
1.624419126742130022e-03
1.585771162527878017e-03
1.546904236704098583e-03
1.507296044789815503e-03
1.466453508130938308e-03
1.423924072627429050e-03
1.379306052096869635e-03
1.332257761812518987e-03
1.282505372048384044e-03
1.229849192226721176e-03
1.174168484034394336e-03
1.115424525593393086e-03
1.053661947293129579e-03
9.890083158169530892e-04
9.216720161776848505e-04
8.519383901357382776e-04
7.801642858922134063e-04
7.067711408626113157e-04
6.322367281513147389e-04
5.570855826830818213e-04
4.818784895972769828e-04
4.072012219144313769e-04
3.336526691859808625e-04
2.618326191494666508e-04
1.923294148082602855e-04
1.257077829773867509e-04
6.249698396632759876e-05
3.179648717464020767e-06
-5.181864821946579295e-05
-1.021387114759527413e-04
-1.474958819234576128e-04
-1.876867758162090237e-04
-2.225945720578274356e-04
-2.521926359131274813e-04
-2.765464135768907973e-04
-2.958136060801133649e-04
-3.102426099289260658e-04
-3.201692438607555671e-04
-3.260117464131407337e-04
-3.282641762099285251e-04
-3.274883869213001406e-04
-3.243046650938128999e-04
-3.193811794235179103e-04
-3.134224324430453438e-04
-3.071570728533102039e-04
-3.013250559426036506e-04
-2.966645557085537490e-04
-2.938988268937305819e-04
-2.937232434685103466e-04
-2.967927437788995680e-04
-3.037099613263752633e-04
-3.150142740707698934e-04
-3.311717823679154659e-04
-3.525666925289805170e-04
-3.794940635189435457e-04
-4.121541253090607333e-04
-4.506482278813629216e-04
-4.949765737662594920e-04
-5.450376532260521947e-04
-6.006295041602075988e-04
-6.614527001605207974e-04
-7.271150235699312377e-04
-7.971377697286851499e-04
-8.709635030275643614e-04
-9.479651514240221332e-04
-1.027456244832110040e-03
-1.108702226927548622e-03
-1.190932378607362490e-03
-1.273352384552677626e-03
-1.355157147752679295e-03
-1.435543672928880866e-03
-1.513723750021164771e-03
-1.588936247712593704e-03
-1.660458763914875223e-03
-1.727618434339047793e-03
-1.789801638867803647e-03
-1.846462594013529440e-03
-1.897130454550706230e-03
-1.941414986838309233e-03
-1.979010642667520126e-03
-2.009698954065567734e-03
-2.033349306252549629e-03
-2.049917972888227937e-03
-2.059445539609025457e-03
-2.062052785483042740e-03
-2.057935029041631399e-03
-2.047355190177460420e-03
-2.030635613579767108e-03
-2.008148943028843780e-03
-1.980308195591772447e-03
-1.947556148676801366e-03
-1.910354411913955377e-03
-1.869172369918461422e-03
-1.824476203306541746e-03
-1.776718284990880985e-03
-1.726327057569911018e-03
-1.673697791082529810e-03
-1.619184210846326150e-03
-1.563091322459848062e-03
-1.505669519223696217e-03
-1.447110170107292117e-03
-1.387542679114491277e-03
-1.327033143592840124e-03
-1.265584683528780605e-03
-1.203139399582456521e-03
-1.139581862583139002e-03
-1.074744186579384845e-03
-1.008412504843901039e-03
-9.403347372791885737e-04
-8.702294712528167503e-04
-7.977958079673913572e-04
-7.227238794651640909e-04
-6.447059565777266176e-04
-5.634477763951974963e-04
-4.786798611483532848e-04
-3.901685951469645156e-04
-2.977268760123159114e-04
-2.012239740759884832e-04
-1.005944897925494744e-04
4.153954643317084518e-06
1.129343870758670455e-04
2.255756887715995910e-04
3.418194499851256465e-04
4.613186571722253872e-04
5.836382535050929328e-04
7.082575618478230460e-04
8.345746701104212904e-04
9.619126316728676468e-04
1.089527459634346282e-03
1.216617755022737822e-03
1.342335867553628602e-03
1.465800374539811450e-03
1.586109586127893009e-03
1.702355993399161122e-03
1.813641300280476000e-03
1.919091667922238073e-03
2.017872968337503046e-03
2.109205806801043356e-03
2.192379901918488187e-03
2.266767519340383459e-03
2.331835750317653479e-03
2.387157298116671968e-03
2.432419599589861602e-03
2.467432023755508717e-03
2.492130875685396544e-03
2.506582229515258615e-03
2.510982381840958736e-03
2.505655873309942019e-03
2.491051040734106829e-03
2.467733187492757597e-03
2.436375477932275525e-03
2.397747516627428323e-03
2.352701964466360519e-03
2.302159366952134280e-03
2.247091392549627458e-03
2.188502827508008453e-03
2.127412576771003754e-03
2.064834116877154856e-03
2.001755716078205440e-03
1.939120837610370292e-03
1.877809022028630904e-03
1.818617738472660212e-03
1.762245508202032497e-03
1.709276711642855997e-03
1.660168421467765262e-03
1.615239468336800198e-03
1.574662125344619126e-03
1.538456570156627535e-03
1.506488355155513777e-03
1.478468888862994853e-03
1.453959134990314827e-03
1.432376526851514200e-03
1.413004910718529709e-03
1.395007561021368442e-03
1.377443011538398605e-03
1.359283499328829779e-03
1.339435706230167594e-03
1.316763487417162279e-03
1.290112270726343196e-03
1.258334518952090777e-03
1.220315996958052165e-03
1.175002240478184102e-03
1.121424793384220939e-03
1.058726623231884354e-03
9.861863052829337051e-04
9.032404786766823086e-04
8.095039925126350580e-04
7.047874373076496324e-04
5.891114850034009573e-04
4.627178266530614548e-04
3.260763914905763527e-04
1.798884867923229594e-04
2.508579398719662252e-05
-1.371748928375566526e-04
-3.055213794494569400e-04
-4.783799543414226957e-04
-6.539934677704994839e-04
-8.304433249824863875e-04
-1.005675114904061021e-03
-1.177527669657445208e-03
-1.343764887102797149e-03
-1.502109989222637568e-03
-1.650281683208576922e-03
-1.786031521971799324e-03
-1.907181954324255451e-03
-2.011664398175038327e-03
-2.097556592165216588e-03
-2.163118614238142019e-03
-2.206826913089432463e-03
-2.227405648376438920e-03
-2.223854823251651680e-03
-2.195474518777019816e-03
-2.141884860512718956e-03
-2.063041095426476450e-03
-1.959243594754278214e-03
-1.831142315704931828e-03
-1.679735620943778075e-03
-1.506363413712409746e-03
-1.312694376452983903e-03
-1.100707594974222265e-03
-8.726686115843857285e-04
-6.311003687856801608e-04
-3.787493177321038670e-04
-1.185472322679323334e-04
1.464307603217049477e-04
4.130112715219337008e-04
6.779700938034518383e-04
9.380812937614501756e-04
1.190167111391210062e-03
1.431147828931529338e-03
1.658090767300333815e-03
1.868257528463406402e-03
2.059148664047481293e-03
2.228544979977627963e-03
2.374544675355941010e-03
2.495595604999699402e-03
2.590522052448137463e-03
2.658545510121531827e-03
2.699298963678860817e-03
2.712834297880731705e-03
2.699622736588920113e-03
2.660548006585811750e-03
2.596892453405356179e-03
2.510316126229981612e-03
2.402829177564768867e-03
2.276757884454380307e-03
2.134704924492857123e-03
1.979504442276092471e-03
1.814172601948673596e-03
1.641854598594680000e-03
1.465768906320533702e-03
1.289149773387903699e-03
1.115188911170770592e-03
9.469774755092455823e-04
7.874494009925866447e-04
6.393271096236510581e-04
5.050705805419129779e-04
3.868307675981860847e-04
2.864083456511270099e-04
2.052184824525247477e-04
1.442624571159696514e-04
1.041067326938872742e-04
8.486998298299180108e-05
8.621837691137553038e-05
1.073693542927819017e-04
1.471039793815052206e-04
2.037877821528127106e-04
2.753997921405998157e-04
3.595693986198175056e-04
4.536204435131546524e-04
5.546218801839905132e-04
6.594441499346433925e-04
7.648203180615428549e-04
8.674109337125408695e-04
9.638714830717009553e-04
1.050921169918401631e-03
1.125411811801045863e-03
1.184395562305331400e-03
1.225190170782761981e-03
1.245440524406155221e-03
1.243175192903946081e-03
1.216856970220102059e-03
1.165426220841235929e-03
1.088336027166399416e-03
9.855784504456855007e-04
8.577011917179091192e-04
7.058141135770320315e-04
5.315853093349821087e-04
3.372264766020808126e-04
1.254677227535886232e-04
-1.004779518014551904e-04
-3.369601774493152509e-04
-5.799461039928587242e-04
-8.250838160592006846e-04
-1.067773357878369460e-03
-1.303244266884914185e-03
-1.526638341923188631e-03
-1.733096276991891388e-03
-1.917846780487211713e-03
-2.076296474390043785e-03
-2.204119117192386915e-03
-2.297342519644140612e-03
-2.352431605598784975e-03
-2.366365917852385724e-03
-2.336710290877087697e-03
-2.261677090602260201e-03
-2.140178932497189667e-03
-1.971870625821270373e-03
-1.757179468847936375e-03
-1.497323124699993010e-03
-1.194314376859523545e-03
-8.509526559618999040e-04
-4.708020461126783828e-04
-5.815587773569965536e-05
3.820116424566303475e-04
8.441062279731948587e-04
1.321985970761345138e-03
1.809044338202871411e-03
2.298302590043483588e-03
2.782510137283843773e-03
3.254251357257725678e-03
3.706057155597108129e-03
4.130519361878992081e-03
4.520406197271103349e-03
4.868776807005419961e-03
5.169093084797845433e-03
5.415326675291647074e-03
5.602059398112068864e-03
5.724575369983791844e-03
5.778943073575079983e-03
5.762086040246316293e-03
5.671840684431971209e-03
5.507000240826791411e-03
5.267343938744705086e-03
4.953650808007525885e-03
4.567697658954070032e-03
4.112241219862521405e-03
3.590984514387877101e-03
3.008527978697276423e-03
2.370305975682266385e-03
1.682509683323181893e-03
9.519975752796745912e-04
1.861948620977396988e-04
-6.070164772290060316e-04
-1.419415276423964707e-03
-2.242564444025463375e-03
-3.067937789392065351e-03
-3.887048405500229467e-03
-4.691576450330460675e-03
-5.473494096992183137e-03
-6.225185666889204716e-03
-6.939560798011864054e-03
-7.610158817562258891e-03
-8.231242492485213794e-03
-8.797879569073517245e-03
-9.306010805304942499e-03
-9.752503277370634313e-03
-1.013518808711363385e-02
-1.045288186520002688e-02
-1.070539182314272399e-02
-1.089350417620560917e-02
-1.101895629360742125e-02
-1.108439311372225178e-02
-1.109330860817817760e-02
-1.104997342368004010e-02
-1.095935007079689924e-02
-1.082699717799247632e-02
-1.065896452944680405e-02
-1.046168087803556884e-02
-1.024183652863761354e-02
-1.000626291012097352e-02
-9.761811150397828318e-03
-9.515231978028797569e-03
-9.273059015629067647e-03
-9.041497632861623251e-03
-8.826321241670577467e-03
-8.632776917501992775e-03
-8.465501982745832904e-03
-8.328452960808974126e-03
-8.224848069132843428e-03
-8.157124177619441696e-03
-8.126908967734295872e-03
-8.135008541986822606e-03
-8.181410565278764840e-03
-8.265302742510348757e-03
-8.385105995769368339e-03
-8.538521648424357915e-03
-8.722591434175948691e-03
-8.933769072174961579e-03
-9.168001793077950809e-03
-9.420820204847253632e-03
-9.687434500719205657e-03
-9.962834999954648871e-03
-1.024189508108353658e-02
-1.051947423220672521e-02
-1.079051930410211170e-02
-1.105016175282760166e-02
-1.129380905475920946e-02
-1.151722843184126155e-02
-1.171662114758470138e-02
-1.188868607577291472e-02
-1.203067130106075591e-02
-1.214041269983790958e-02
-1.221635890825152268e-02
-1.225758224646053898e-02
-1.226377562791958024e-02
-1.223523552212806877e-02
-1.217283155530544773e-02
-1.207796356823171227e-02
-1.195250725771757234e-02
-1.179874958397368438e-02
-1.161931564944668899e-02
-1.141708862928536572e-02
-1.119512478906659232e-02
-1.095656551569549296e-02
-1.070454851311031068e-02
-1.044212012969420247e-02
-1.017215105267504222e-02
-9.897257251380783827e-03
-9.619728172739483441e-03
-9.341463935613301614e-03
-9.063922995385753287e-03
-8.788081742325724866e-03
-8.514407037952352944e-03
-8.242842544534875748e-03
-7.972809214881524872e-03
-7.703220173352160957e-03
-7.432509854153710772e-03
-7.158676852392556814e-03
-6.879339708131434507e-03
-6.591804365176827732e-03
-6.293142056658783401e-03
-5.980275825158720172e-03
-5.650073785223350999e-03
-5.299447003994216081e-03
-4.925449760801059451e-03
-4.525379762623345063e-03
-4.096875960694102217e-03
-3.638011482706122925e-03
-3.147379375975027649e-03
-2.624168875790752059e-03
-2.068230099786256410e-03
-1.480125144350547244e-03
-8.611641327958698784e-04
-2.134247059317884295e-04
4.602460102043042910e-04
1.156247632595077453e-03
1.870261268243201538e-03
2.597302640803794693e-03
3.331793071413224287e-03
4.067647361604812689e-03
4.798377318195391414e-03
5.517209189420212503e-03
6.217212994136636466e-03
6.891441252175051560e-03
7.533074593320530574e-03
8.135571309181412539e-03
8.692817860364578444e-03
9.199277099922797962e-03
9.650130964172489931e-03
1.004141451065338267e-02
1.037013809012175478e-02
1.063439476143146836e-02
1.083345006055248805e-02
1.096781172855725017e-02
1.103927717142069720e-02
1.105095685062796630e-02
1.100727237913293709e-02
1.091392829594816337e-02
1.077785728109075837e-02
1.060713888406900930e-02
1.041089250816347282e-02
1.019914585528687578e-02
9.982680622528097500e-03
9.772857719664686596e-03
9.581424727474393069e-03
9.420308839037279391e-03
9.301398795565284441e-03
9.236319737062214860e-03
9.236205177793639989e-03
9.311470389323202659e-03
9.471591624679960228e-03
9.724895655976664374e-03
1.007836406428111280e-02
1.053745650385517693e-02
1.110595692682956812e-02
1.178584648157568471e-02
1.257720626946615128e-02
1.347815293775040529e-02
1.448480913062184100e-02
1.559131059645743958e-02
1.678985094468018330e-02
1.807076431730515395e-02
1.942264564195704188e-02
2.083250729752462657e-02
2.228597042320542079e-02
2.376748830876997121e-02
2.526059868265535455e-02
2.674820107081749346e-02
2.821285485595113190e-02
2.963709318669967979e-02
3.100374732444245371e-02
3.229627593354022358e-02
3.349909339646757467e-02
3.459789103746852695e-02
3.557994545225990485e-02
3.643440793086309692e-02
3.715256923900754626e-02
3.772809444644390636e-02
3.815722277452773120e-02
3.843892803930004654e-02
3.857503587015139596e-02
3.857029469512109066e-02
3.843239805785566426e-02
3.817195681443169564e-02
3.780242063528339858e-02
3.733994908828643100e-02
3.680323360386293652e-02
3.621327250157179573e-02
3.559310204349949713e-02
3.496748762085642032e-02
3.436257971614264245e-02
3.380554015181320288e-02
3.332414480971761239e-02
3.294636945389785299e-02
3.269996584033553477e-02
3.261203557103744405e-02
3.270860922752709399e-02
3.301423850385296066e-02
3.355160895266737220e-02
3.434118055216925369e-02
3.540086312307072491e-02
3.674573303976064881e-02
3.838779686337231989e-02
4.033580694756618013e-02
4.259513313503546228e-02
4.516769364154189781e-02
4.805194720107548029e-02
5.124294742433702782e-02
5.473245913384184452e-02
5.850913525706925855e-02
6.255875172242472693e-02
6.686449663274462996e-02
7.140730881325819956e-02
7.616625989876595060e-02
8.111897303348260257e-02
8.624207039459071134e-02
9.151164126503665008e-02
9.690372145316041019e-02
1.023947745775937584e-01
1.079621656014389947e-01
1.135846165617317854e-01
1.192426348670184433e-01
1.249189046164024680e-01
1.305986319024166342e-01
1.362698356034793001e-01
1.419235761171025734e-01
1.475541152849012272e-01
1.531590020999223645e-01
1.587390797561522293e-01
1.642984109798105441e-01
1.698441203629007801e-01
1.753861534072190531e-01
1.809369540117778397e-01
1.865110633209535462e-01
1.921246447404921509e-01
1.977949411500088683e-01
2.035396719731191739e-01
2.093763790447491502e-01
2.153217313869550953e-01
2.213908003108078781e-01
2.275963169193723767e-01
2.339479250856841830e-01
2.404514432163867566e-01
2.471081487214001615e-01
2.539140990366671735e-01
2.608595029216730365e-01
2.679281555390503611e-01
2.750969499155484499e-01
2.823354768718753793e-01
2.896057242463289105e-01
2.968618849207319554e-01
3.040502819793173273e-01
3.111094174536573886e-01
3.179701493976864191e-01
3.245560001707405440e-01
3.307835968213850841e-01
3.365632423500334314e-01
3.417996146354224662e-01
3.463925876745378996e-01
3.502381677744186850e-01
3.532295353180642805e-01
3.552581809467063589e-01
3.562151231756501280e-01
3.559921928041436812e-01
3.544833684672742957e-01
3.515861460576417685e-01
3.472029241571360503e-01
3.412423867254213983e-01
3.336208639309990454e-01
3.242636521132855609e-01
3.131062736598906882e-01
3.000956583489677865e-01
2.851912282765696194e-01
2.683658695393490445e-01
2.496067751399332346e-01
2.289161450533933606e-01
2.063117311637144846e-01
1.818272167937219075e-01
1.555124225296235785e-01
1.274333324655148314e-01
9.767193719993373657e-02
6.632589253515912275e-02
3.350799520735896903e-02
-6.545203830391965131e-04
-3.602085834244814211e-02
-7.243770141728295142e-02
-1.097404042445842415e-01
-1.477543265324399724e-01
-1.862962911916018482e-01
-2.251761503967271705e-01
-2.641984414121812952e-01
-3.031641125172633289e-01
-3.418722983618967537e-01
-3.801221234420160688e-01
-4.177145119642848292e-01
-4.544539823636671860e-01
-4.901504047413116072e-01
-5.246207001860818675e-01
-5.576904616145345051e-01
-5.891954770049666612e-01
-6.189831370608532835e-01
-6.469137112166311043e-01
-6.728614773202907795e-01
-6.967156927595646865e-01
-7.183813967331081907e-01
-7.377800356539691018e-01
-7.548499061588448411e-01
-7.695464126166151608e-01
-7.818421386063122425e-01
-7.917267340913247686e-01
-7.992066224733515023e-01
-8.043045342282063581e-01
-8.070588758093716342e-01
-8.075229446617799844e-01
-8.057640028805364008e-01
-8.018622240452529804e-01
-7.959095288553863501e-01
-7.880083265583756047e-01
-7.782701800925492241e-01
-7.668144133479443125e-01
-7.537666795556512422e-01
-7.392575097153819552e-01
-7.234208601045221121e-01
-7.063926769133285211e-01
-6.883094959707173333e-01
-6.693070941472690771e-01
-6.495192080693340531e-01
-6.290763342602669894e-01
-6.081046234996492217e-01
-5.867248802791076301e-01
-5.650516764851341023e-01
-5.431925866447652185e-01
-5.212475499203135243e-01
-4.993083622223828399e-01
-4.774582997271554774e-01
-4.557718731609364804e-01
-4.343147102740590459e-01
-4.131435623481111707e-01
-3.923064285450206246e-01
-3.718427907430529311e-01
-3.517839498325763814e-01
-3.321534536029680518e-01
-3.129676048784749143e-01
-2.942360382577036693e-01
-2.759623529899940531e-01
-2.581447891602403621e-01
-2.407769341918763739e-01
-2.238484470230448498e-01
-2.073457871048127177e-01
-1.912529363215018929e-01
-1.755521022862975011e-01
-1.602243923263968195e-01
-1.452504486332421851e-01
-1.306110358371710689e-01
-1.162875736468154814e-01
-1.022626085132589679e-01
-8.852021949256801137e-02
-7.504635490059836933e-02
-6.182909768868277700e-02
-4.885885885480988067e-02
-3.612849962594426312e-02
-2.363338419715344321e-02
-1.137136619106316957e-02
6.572870808664590340e-04
1.245002748553797507e-02
2.400220991896178171e-02
3.530732074744260401e-02
4.635724340398420656e-02
5.714255366394020708e-02
6.765283679126765648e-02
7.787701851819861520e-02
8.780370204665964573e-02
9.742150344231211012e-02
1.067193780639848211e-01
1.156869312693027257e-01
1.243147069526842480e-01
1.325944485976512932e-01
1.405193278370500676e-01
1.480841366562647698e-01
1.552854401331928147e-01
1.621216875920519218e-01
1.685932808261341176e-01
1.747025992186698462e-01
1.804539822521825654e-01
1.858536709032701240e-01
1.909097101518374973e-01
1.956318156831559629e-01
2.000312083530456919e-01
2.041204207239338819e-01
2.079130802839317671e-01
2.114236745711927379e-01
2.146673031309563329e-01
2.176594221947726893e-01
2.204155874249932867e-01
2.229512000906060387e-01
2.252812618277192092e-01
2.274201429495485982e-01
2.293813688609299684e-01
2.311774285850017041e-01
2.328196090540667618e-01
2.343178580275249723e-01
2.356806778711172390e-01
2.369150520798451731e-01
2.380264052119225870e-01
2.390185965595582607e-01
2.398939473539913880e-01
2.406533000932543631e-01
2.412961083347918145e-01
2.418205547103292052e-01
2.422236943323331504e-01
2.425016202291024048e-01
2.426496470666303362e-01
2.426625091928585054e-01
2.425345688313681192e-01
2.422600300385886751e-01
2.418331538856849650e-01
2.412484706516662414e-01
2.405009846693132447e-01
2.395863678139237840e-01
2.385011378821616235e-01
2.372428183844955685e-01
2.358100768046864637e-01
2.342028387608569018e-01
2.324223759363641117e-01
2.304713664127753525e-01
2.283539264387176582e-01
2.260756131647707889e-01
2.236433986121288409e-01
2.210656155656040844e-01
2.183518767258061377e-01
2.155129688673488586e-01
2.125607242006185560e-01
2.095078716426692356e-01
2.063678709059226513e-01
2.031547327586568918e-01
1.998828289125522684e-01
1.965666952175040560e-01
1.932208319326932100e-01
1.898595047313773043e-01
1.864965502396681019e-01
1.831451895334107738e-01
1.798178529974304440e-01
1.765260197615723947e-01
1.732800742716296694e-01
1.700891826264825379e-01
1.669611906262384038e-01
1.639025451089285157e-01
1.609182397662026753e-01
1.580117860393413232e-01
1.551852093990718773e-01
1.524390706275373375e-01
1.497725114987971673e-01
1.471833235629143033e-01
1.446680385629692811e-01
1.422220384485357314e-01
1.398396827155660438e-01
1.375144506922897358e-01
1.352390956814810974e-01
1.330058082778473316e-01
1.308063855885269189e-01
1.286324033129224720e-01
1.264753875797746119e-01
1.243269833190704110e-01
1.221791163542185338e-01
1.200241464330557006e-01
1.178550085258214947e-01
1.156653400773612200e-01
1.134495923600846862e-01
1.112031240227953077e-01
1.089222757533819530e-01
1.066044248352710777e-01
1.042480192027621516e-01
1.018525908593447410e-01
9.941874869428679595e-02
9.694815136057002847e-02
9.444346118662230727e-02
9.190828025490160869e-02
8.934707037032042776e-02
8.676505858871068344e-02
8.416813043582573040e-02
8.156271304168125069e-02
7.895565050412764463e-02
7.635407410599713562e-02
7.376526968473795520e-02
7.119654484440961217e-02
6.865509832642548160e-02
6.614789398978739021e-02
6.368154164987459287e-02
6.126218672252004005e-02
5.889541065053519042e-02
5.658614354757147968e-02
5.433859063418693125e-02
5.215617332363153835e-02
5.004148588296485067e-02
4.799626803396263297e-02
4.602139358321177820e-02
4.411687514388303033e-02
4.228188433323859519e-02
4.051478685114794781e-02
3.881319135484416483e-02
3.717401102141390523e-02
3.559353623511000986e-02
3.406751701057680881e-02
3.259125327599101535e-02
3.115969119601180379e-02
2.976752361976863978e-02
2.840929276272023338e-02
2.707949314844299710e-02
2.577267284748855497e-02
2.448353131899994387e-02
2.320701195281714424e-02
2.193838793142788637e-02
2.067333986779437693e-02
1.940802403009285124e-02
1.813913007596593824e-02
1.686392754928506266e-02
1.558030046544970834e-02
1.428676976703533233e-02
1.298250352918043672e-02
1.166731488565692608e-02
1.034164811757816438e-02
9.006553455449364462e-03
7.663651452034563917e-03
6.315087687441476617e-03
4.963478948325010000e-03
3.611852174579501060e-03
2.263577388785689096e-03
9.222961310548353532e-04
-4.081533073557192925e-04
-1.723812189890449849e-03
-3.020677794491228273e-03
-4.294778675123106688e-03
-5.542247250044442762e-03
-6.759388427485403701e-03
-7.942743134771097432e-03
-9.089145714008681903e-03
-1.019577423616172158e-02
-1.126019299141293138e-02
-1.228038653718839177e-02
-1.325478499831767541e-02
-1.418228027486532344e-02
-1.506223319042600435e-02
-1.589447164705696386e-02
-1.667928005056518517e-02
-1.741738060290762974e-02
-1.810990685855810162e-02
-1.875837036736221347e-02
-1.936462127490200594e-02
-1.993080374649118872e-02
-2.045930728386901112e-02
-2.095271487588305434e-02
-2.141374920152458450e-02
-2.184521798688276659e-02
-2.224995944202074957e-02
-2.263078899058824228e-02
-2.299044826048755874e-02
-2.333155727091907466e-02
-2.365657063654337533e-02
-2.396773852767298055e-02
-2.426707300621128161e-02
-2.455632041351200195e-02
-2.483693996791044509e-02
-2.511008891961537953e-02
-2.537661435699153922e-02
-2.563705174294223302e-02
-2.589162986629217622e-02
-2.614028207453955241e-02
-2.638266328600663568e-02
-2.661817234208514737e-02
-2.684597910501518997e-02
-2.706505568178563942e-02
-2.727421091617339075e-02
-2.747212742704569985e-02
-2.765740041710395072e-02
-2.782857731098158094e-02
-2.798419753818319478e-02
-2.812283153564628171e-02
-2.824311820016847316e-02
-2.834380002302999690e-02
-2.842375527053478054e-02
-2.848202672227576407e-02
-2.851784622091821722e-02
-2.853065472623064411e-02
-2.852011754405815724e-02
-2.848613449181758642e-02
-2.842884491639560349e-02
-2.834862744447324071e-02
-2.824609464251734078e-02
-2.812208276632898254e-02
-2.797763680661646477e-02
-2.781399130621428975e-02
-2.763254742130921010e-02
-2.743484657362253373e-02
-2.722254140120179688e-02
-2.699736461591303871e-02
-2.676109639757474554e-02
-2.651553104569063374e-02
-2.626244347517277256e-02
-2.600355637203325201e-02
-2.574050851321406028e-02
-2.547482499362770797e-02
-2.520788983164082633e-02
-2.494092153201901349e-02
-2.467495207791563921e-02
-2.441080969526913599e-02
-2.414910570904360218e-02
-2.389022580554391734e-02
-2.363432567375581966e-02
-2.338133120525704226e-02
-2.313094316482651111e-02
-2.288264624890423357e-02
-2.263572230054021472e-02
-2.238926736453760932e-02
-2.214221229097266402e-02
-2.189334641685028449e-02
-2.164134385301185598e-02
-2.138479195214570278e-02
-2.112222130696762845e-02
-2.085213671371661734e-02
-2.057304853788212429e-02
-2.028350379203636145e-02
-1.998211650777102083e-02
-1.966759661508753199e-02
-1.933877697463492334e-02
-1.899463805527920254e-02
-1.863432967272271590e-02
-1.825718944805868396e-02
-1.786275771927083728e-02
-1.745078855332284420e-02
-1.702125668830308663e-02
-1.657436033435615713e-02
-1.611051972966705617e-02
-1.563037151743503633e-02
-1.513475904417975471e-02
-1.462471881958836081e-02
-1.410146330257730507e-02
-1.356636037677860090e-02
-1.302090988171504884e-02
-1.246671766775883650e-02
-1.190546755050598572e-02
-1.133889176350623071e-02
-1.076874043222068519e-02
-1.019675053852019293e-02
-9.624614999181829375e-03
-9.053952364926039567e-03
-8.486277730332185756e-03
-7.922975366637509051e-03
-7.365273481475783160e-03
-6.814221588072934613e-03
-6.270670920645636005e-03
-5.735258237777970079e-03
-5.208393187117084377e-03
-4.690249596561208052e-03
-4.180760795347679588e-03
-3.679619018301864657e-03
-3.186278925525126010e-03
-2.699965256236207516e-03
-2.219684391535187932e-03
-1.744239691411224140e-03
-1.272250383179057871e-03
-8.021735956542173484e-04
-3.323292899230745573e-04
1.390723065765808123e-04
6.139013417982438180e-04
1.094077444424738921e-03
1.581537796346371705e-03
2.078204661139427221e-03
2.585952984596716527e-03
3.106578510380912043e-03
3.641766878053400228e-03
4.193064335682457344e-03
4.761850443366082326e-03
5.349313125926673240e-03
5.956426623392910118e-03
6.583932557383066590e-03
7.232324525152617617e-03
7.901836345523055236e-03
8.592434143694266044e-03
9.303812465486328148e-03
1.003539447245203886e-02
1.078633606407709312e-02
1.155553406343038693e-02
1.234163811207917953e-02
1.314306624731610348e-02
1.395802385158227514e-02
1.478452570238918476e-02
1.562042066492458185e-02
1.646341878919425211e-02
1.731112027641010589e-02
1.816104592999650408e-02
1.901066862309476815e-02
1.985744524052123969e-02
2.069884867918233423e-02
2.153239940937437188e-02
2.235569609970520372e-02
2.316644487126430507e-02
2.396248670057507177e-02
2.474182267590551917e-02
2.550263665012516417e-02
2.624331502966026006e-02
2.696246331691659268e-02
2.765891935759998144e-02
2.833176296993009449e-02
2.898032189364886310e-02
2.960417403223161020e-02
3.020314593580163479e-02
3.077730756633108994e-02
3.132696355132846833e-02
3.185264096344572055e-02
3.235507394235547646e-02
3.283518539307803824e-02
3.329406605011108605e-02
3.373295114910124237e-02
3.415319528807300720e-02
3.455624573097584168e-02
3.494361462336642576e-02
3.531685050642561358e-02
3.567750964010540232e-02
3.602712744867452715e-02
3.636719066965916902e-02
3.669911052181844963e-02
3.702419737194211774e-02
3.734363717623737089e-02
3.765847008548130204e-02
3.796957157734547061e-02
3.827763633848043495e-02
3.858316510589702986e-02
3.888645462777150230e-02
3.918759094729284964e-02
3.948644607076590152e-02
3.978267802492662514e-02
4.007573432460781460e-02
4.036485867824242402e-02
4.064910094357238740e-02
4.092733011445338909e-02
4.119825009997486048e-02
4.146041813175945639e-02
4.171226537361590742e-02
4.195211958146483067e-02
4.217822929843551699e-02
4.238878936760729493e-02
4.258196728140401649e-02
4.275593004529401608e-02
4.290887106316785410e-02
4.303903672198832603e-02
4.314475231292502072e-02
4.322444675336070685e-02
4.327667591059644603e-02
4.330014418855281794e-02
4.329372385417520896e-02
4.325647204916181765e-02
4.318764519388684775e-02
4.308671047328233722e-02
4.295335434168318089e-02
4.278748785578253416e-02
4.258924880340084207e-02
4.235900056321546814e-02
4.209732775617883865e-02
4.180502861488210459e-02
4.148310439254159626e-02
4.113274581530899920e-02
4.075531669089851178e-02
4.035233508515852219e-02
3.992545220592342431e-02
3.947642927867050372e-02
3.900711281838853406e-02
3.851940854142726217e-02
3.801525434882144228e-02
3.749659274596529868e-02
3.696534302774322212e-02
3.642337363156846614e-02
3.587247509679767493e-02
3.531433386444007838e-02
3.475050745637003197e-02
3.418240129860072168e-02
3.361124748348275071e-02
3.303808579599142037e-02
3.246374728777472185e-02
3.188884057681230788e-02
3.131374117199148960e-02
3.073858389281348968e-02
3.016325858060370235e-02
2.958740907687995580e-02
2.901043559081270193e-02
2.843150044349318853e-02
2.784953709572149730e-02
2.726326243129479840e-02
2.667119204086517911e-02
2.607165841391896610e-02
2.546283187246985852e-02
2.484274387105771947e-02
2.420931244069089369e-02
2.356036951090081585e-02
2.289368973736308904e-02
2.220702044673481326e-02
2.149811235084000613e-02
2.076475065680785659e-02
2.000478620559347984e-02
1.921616618719582462e-02
1.839696404843199976e-02
1.754540835722821421e-02
1.665991002622294395e-02
1.573908767549492271e-02
1.478179079941863150e-02
1.378712047799227590e-02
1.275444729128047058e-02
1.168342621555779406e-02
1.057400830395787382e-02
9.426448979789283159e-03
8.241312931715672266e-03
7.019475352158013534e-03
5.762119668887482303e-03
4.470731634892334376e-03
3.147089979837501984e-03
1.793253587804513258e-03
4.115454467157391924e-04
-9.954664094695509034e-04
-2.424990871251661226e-03
-3.874038265994101966e-03
-5.339447046049549360e-03
-6.817912517879804769e-03
-8.306017107847174508e-03
-9.800261804880701366e-03
-1.129709844336587721e-02
-1.279296239132929509e-02
-1.428430518881966017e-02
-1.576762683876216722e-02
-1.723950719246249499e-02
-1.869663622825767230e-02
-2.013584272020786312e-02
-2.155412089466106698e-02
-2.294865493542926765e-02
-2.431684081116925952e-02
-2.565630537090044655e-02
-2.696492232475942649e-02
-2.824082506916712754e-02
-2.948241609499255636e-02
-3.068837297531305103e-02
-3.185765085572726807e-02
-3.298948143276213968e-02
-3.408336850667907647e-02
-3.513908019651017928e-02
-3.615663804100274076e-02
-3.713630309834966420e-02
-3.807855928355132619e-02
-3.898409422418091380e-02
-3.985377797685918377e-02
-4.068863997689910195e-02
-4.148984442983912058e-02
-4.225866472625067899e-02
-4.299645717135963663e-02
-4.370463438369128623e-02
-4.438463889691194458e-02
-4.503791723188741575e-02
-4.566589495566085455e-02
-4.626995302699424273e-02
-4.685140575781278349e-02
-4.741148076480475315e-02
-4.795130116684642035e-02
-4.847187028601369907e-02
-4.897405904137239196e-02
-4.945859624149647610e-02
-4.992606182665358661e-02
-5.037688321804190128e-02
-5.081133457531345626e-02
-5.122953922338451677e-02
-5.163147493837978025e-02
-5.201698208268222545e-02
-5.238577427806665604e-02
-5.273745140217983574e-02
-5.307151480435393781e-02
-5.338738421634590253e-02
-5.368441613979427207e-02
-5.396192337421031743e-02
-5.421919520201277931e-02
-5.445551791103305644e-02
-5.467019530087956908e-02
-5.486256866604365123e-02
-5.503203593996457144e-02
-5.517806967343049512e-02
-5.530023342309378642e-02
-5.539819625889935706e-02
-5.547174508819548849e-02
-5.552079460773438890e-02
-5.554539470825274605e-02
-5.554573501856325396e-02
-5.552214665531446380e-02
-5.547510113984015223e-02
-5.540520640608268682e-02
-5.531319996294992158e-02
-5.519993942295930295e-02
-5.506639048221848021e-02
-5.491361260920941956e-02
-5.474274277407485678e-02
-5.455497744948720890e-02
-5.435155328223072874e-02
-5.413372673198130203e-02
-5.390275318828316453e-02
-5.365986597629233273e-02
-5.340625563080943911e-02
-5.314304983747695360e-02
-5.287129457087239720e-02
-5.259193666836016468e-02
-5.230580849168752627e-02
-5.201361474944989072e-02
-5.171592191689135948e-02
-5.141315051822165083e-02
-5.110557051390915428e-02
-5.079329992136490113e-02
-5.047630675140826056e-02
-5.015441428029202009e-02
-4.982730979783556169e-02
-4.949455651323491495e-02
-4.915560864162505511e-02
-4.880982929701076223e-02
-4.845651109878777035e-02
-4.809489896130015457e-02
-4.772421479204506933e-02
-4.734368363449702882e-02
-4.695256072861468677e-02
-4.655015913972776476e-02
-4.613587720807869885e-02
-4.570922550947278951e-02
-4.526985251299239787e-02
-4.481756866983472448e-02
-4.435236821130047330e-02
-4.387444825333960269e-02
-4.338422471301841415e-02
-4.288234465563663805e-02
-4.236969462527397784e-02
-4.184740474308649982e-02
-4.131684830509513989e-02
-4.077963667207387677e-02
-4.023760947740702421e-02
-3.969282000793609988e-02
-3.914751594549063796e-02
-3.860411562913088068e-02
-3.806518001866017464e-02
-3.753338071133812542e-02
-3.701146445847920685e-02
-3.650221466470914694e-02
-3.600841040242645785e-02
-3.553278339387121870e-02
-3.507797391434525069e-02
-3.464648608229942833e-02
-3.424064325782680274e-02
-3.386254437174884141e-02
-3.351402190306278922e-02
-3.319660219789966754e-02
-3.291146889358774474e-02
-3.265943008191907193e-02
-3.244088987366412075e-02
-3.225582492639278431e-02
-3.210376643364586113e-02
-3.198378805909575517e-02
-3.189450014822998308e-02
-3.183405052325433832e-02
-3.180013191920846166e-02
-3.178999619999588189e-02
-3.180047527684656816e-02
-3.182800868530787780e-02
-3.186867744178197015e-02
-3.191824385146148357e-02
-3.197219679504931938e-02
-3.202580199817348094e-02
-3.207415669955135384e-02
-3.211224781388619803e-02
-3.213501302746749749e-02
-3.213740380337593017e-02
-3.211444954595368134e-02
-3.206132195841697452e-02
-3.197339870108352466e-02
-3.184632533842273600e-02
-3.167607480446827523e-02
-3.145900332396165539e-02
-3.119190213094434963e-02
-3.087204398512178802e-02
-3.049722395358260563e-02
-3.006579367829282506e-02
-2.957668862140297103e-02
-2.902944782340359173e-02
-2.842422586284484159e-02
-2.776179669708488118e-02
-2.704354934752496026e-02
-2.627147537859460258e-02
-2.544814834419198077e-02
-2.457669535297227897e-02
-2.366076121155076539e-02
-2.270446559423833915e-02
-2.171235378689718998e-02
-2.068934171858713422e-02
-1.964065619758263020e-02
-1.857177041024407615e-02
-1.748833660975354642e-02
-1.639611654951061981e-02
-1.530091059147465141e-02
-1.420848647317849919e-02
-1.312450878560097664e-02
-1.205447017699235596e-02
-1.100362521329149336e-02
-9.976927899335704883e-03
-8.978973684302206382e-03
-8.013946684158232761e-03
-7.085573051855178529e-03
-6.197080959099480167e-03
-5.351167710812823088e-03
-4.549974628263584418e-03
-3.795069765654279000e-03
-3.087438749223606841e-03
-2.427483819606987992e-03
-1.815031081226953918e-03
-1.249345689737569806e-03
-7.291546575984073466e-04
-2.526769555765532335e-04
1.823396106791048629e-04
5.785753610796409143e-04
9.390903311766565830e-04
1.267271092070158724e-03
1.566773765329571889e-03
1.841464120774788079e-03
2.095355593450514992e-03
2.332546197228215542e-03
2.557155343252908494e-03
2.773261405270405731e-03
2.984841078384737299e-03
3.195711301951223958e-03
3.409474606784703224e-03
3.629468685749985286e-03
3.858720908714937878e-03
4.099908306849690820e-03
4.355323614288001029e-03
4.626847785256639999e-03
4.915929268447199671e-03
5.223570253914447056e-03
5.550320060323413011e-03
5.896275528942215849e-03
6.261088428379408925e-03
6.643979513774078346e-03
7.043758976629582551e-03
7.458852905388465779e-03
7.887335137023636020e-03
8.326964064396726733e-03
8.775223602149872029e-03
9.229367594001150824e-03
9.686467116466276547e-03
1.014345966259821812e-02
1.059719950980800816e-02
1.104450849665145930e-02
1.148222634633355721e-02
1.190725981902408283e-02
1.231662991657211242e-02
1.270751647796005378e-02
1.307729944164390257e-02
1.342359628283892187e-02
1.374429509587483597e-02
1.403758293066068030e-02
1.430196896284389660e-02
1.453630219956371719e-02
1.473978381991417064e-02
1.491197376614167985e-02
1.505279178389989751e-02
1.516251293429622671e-02
1.524175780248387957e-02
1.529147782493413092e-02
1.531293579778543121e-02
1.530768217423277705e-02
1.527752755911648309e-02
1.522451202537308639e-02
1.515087165700737017e-02
1.505900302845467401e-02
1.495142615818518747e-02
1.483074668453785404e-02
1.469961776375389509e-02
1.456070228691537516e-02
1.441663610788961221e-02
1.426999278147736416e-02
1.412325032041797900e-02
1.397876047295773527e-02
1.383872083814798905e-02
1.370515031914232469e-02
1.357986810947802749e-02
1.346447645658114221e-02
1.336034737315587063e-02
1.326861330053433555e-02
1.319016185166799540e-02
1.312563450641002043e-02
1.307542914398386429e-02
1.303970625055357081e-02
1.301839852786643853e-02
1.301122364598076078e-02
1.301769973774604891e-02
1.303716340056658776e-02
1.306878964837878028e-02
1.311161346543684471e-02
1.316455249072100153e-02
1.322643036286469051e-02
1.329600045779206173e-02
1.337196934676971108e-02
1.345301968829144476e-02
1.353783214411106127e-02
1.362510594851559440e-02
1.371357781640257512e-02
1.380203906332284555e-02
1.388935040986788091e-02
1.397445450680174714e-02
1.405638597754594807e-02
1.413427899987407602e-02
1.420737223624119958e-02
1.427501123221226048e-02
1.433664838833919979e-02
1.439184055311133401e-02
1.444024453489911770e-02
1.448161057663432082e-02
1.451577411037627968e-02
1.454264604980112438e-02
1.456220196688731532e-02
1.457447040416903067e-02
1.457952067979857193e-02
1.457745041028074909e-02
1.456837311348496700e-02
1.455240627253102589e-02
1.452966011957696445e-02
1.450022741104736550e-02
1.446417430149548114e-02
1.442153272608033727e-02
1.437229437708449110e-02
1.431640637804794218e-02
1.425376883397473475e-02
1.418423428069683599e-02
1.410760906111210682e-02
1.402365654391784719e-02
1.393210212197130635e-02
1.383263996256357126e-02
1.372494130285926810e-02
1.360866405354331163e-02
1.348346359986155908e-02
1.334900451931255241e-02
1.320497293241434424e-02
1.305108923246090478e-02
1.288712088191763284e-02
1.271289503208268383e-02
