-6.166280804798051447e-04
-7.682617624950894295e-04
-9.303351430151874909e-04
-1.101893626186525648e-03
-1.281902409662363188e-03
-1.469256916863017747e-03
-1.662793887298556761e-03
-1.861303018228038786e-03
-2.063539054519674450e-03
-2.268233990125378529e-03
-2.474109512454674125e-03
-2.679889190702755206e-03
-2.884310501628560043e-03
-3.086136349091576133e-03
-3.284166132327054084e-03
-3.477246096806971536e-03
-3.664278852491601162e-03
-3.844232027676121322e-03
-4.016145881874724766e-03
-4.179139922225121040e-03
-4.332418295652404674e-03
-4.475274081705631415e-03
-4.607092460211370012e-03
-4.727352611893150501e-03
-4.835628521307165639e-03
-4.931588648967447260e-03
-5.014994520466087811e-03
-5.085698341659230896e-03
-5.143639661192833321e-03
-5.188841214740669283e-03
-5.221404010538226344e-03
-5.241501883626401188e-03
-5.249375418108032272e-03
-5.245325580797895355e-03
-5.229707024808753248e-03
-5.202921244446699969e-03
-5.165409700881437235e-03
-5.117647038559127587e-03
-5.060134463139348907e-03
-4.993393351860913286e-03
-4.917959271401873590e-03
-4.834376449101279206e-03
-4.743192694643703043e-03
-4.644954947382084857e-03
-4.540205316148592830e-03
-4.429477809023155133e-03
-4.313295635301872717e-03
-4.192169190746653645e-03
-4.066594678547467111e-03
-3.937053213719878854e-03
-3.804010611868466514e-03
-3.667917591507826799e-03
-3.529210454353851056e-03
-3.388312150126849848e-03
-3.245633672373143212e-03
-3.101575744537773960e-03
-2.956530591221044526e-03
-2.810883906643100571e-03
-2.665016744775721650e-03
-2.519307428699593329e-03
-2.374133330917242886e-03
-2.229872446777328605e-03
-2.086904771245292126e-03
-1.945613282156538485e-03
-1.806384723188674815e-03
-1.669609880432017289e-03
-1.535683580874730621e-03
-1.405004203494937976e-03
-1.277972816290134277e-03
-1.154991855623146079e-03
-1.036463427500280239e-03
-9.227873258220935888e-04
-8.143585926621868488e-04
-7.115648172355092246e-04
-6.147832361201795463e-04
-5.243775413388263289e-04
-4.406946269520811178e-04
-3.640612301773736310e-04
-2.947805302634630962e-04
-2.331288025230547460e-04
-1.793522438968547794e-04
-1.336638553577138141e-04
-9.624064765816914703e-05
-6.722106282368710164e-05
-4.670274755597450116e-05
-3.474076804520628760e-05
-3.134615095802067525e-05
-3.648490818883965521e-05
-5.007742467376721638e-05
-7.199844789842503850e-05
-1.020775380300040588e-04
-1.400999030591375076e-04
-1.858077742069697924e-04
-2.389022026387820129e-04
-2.990452441183499995e-04
-3.658625595601766242e-04
-4.389462959441597033e-04
-5.178582949887462674e-04
-6.021336217290161738e-04
-6.912841442043510601e-04
-7.848023090756652605e-04
-8.821650371011698685e-04
-9.828376268777446693e-04
-1.086277556349053708e-03
-1.191938294225114566e-03
-1.299272933093907449e-03
-1.407737651966470011e-03
-1.516794969629451728e-03
-1.625916785665831692e-03
-1.734587106441976001e-03
-1.842304480779708266e-03
-1.948584058751222587e-03
-2.052959400291196491e-03
-2.154983983288083840e-03
-2.254232342796539529e-03
-2.350300883596711469e-03
-2.442808422438870215e-03
-2.531396510614002896e-03
-2.615729472074582347e-03
-2.695494182850238524e-03
-2.770399726523204657e-03
-2.840176949441243319e-03
-2.904577848759194638e-03
-2.963374972523413319e-03
-3.016360703528601743e-03
-3.063346570627408384e-03
-3.104162688594873116e-03
-3.138657240650662150e-03
-3.166695992305331407e-03
-3.188162002532612602e-03
-3.202955456539755604e-03
-3.210993643452651064e-03
-3.212211111537102010e-03
-3.206559989686728722e-03
-3.194010379887344403e-03
-3.174550973584985142e-03
-3.148189746716689372e-03
-3.114954761360811276e-03
-3.074895040472000549e-03
-3.028081431442094466e-03
-2.974607507479598047e-03
-2.914590440520658902e-03
-2.848171726617602494e-03
-2.775517823475603593e-03
-2.696820640265711489e-03
-2.612297774772148317e-03
-2.522192537107387136e-03
-2.426773707290144546e-03
-2.326334971112105441e-03
-2.221194026660525903e-03
-2.111691324132136238e-03
-1.998188458372689765e-03
-1.881066220697744833e-03
-1.760722256917570490e-03
-1.637568349014734701e-03
-1.512027380573492414e-03
-1.384530024833499325e-03
-1.255511114689934152e-03
-1.125405862444644892e-03
-9.946457763675233855e-04
-8.636545419739025467e-04
-7.328437757205729037e-04
-6.026087862925685185e-04
-4.733244618373854025e-04
-3.453412052564844834e-04
-2.189811693179902208e-04
-9.453468587543667283e-05
2.774295125900923909e-05
1.476342305548370250e-04
2.649617838164649393e-04
3.795900968292435329e-04
4.914267307465035577e-04
6.004229035683508698e-04
7.065733766238869703e-04
8.099157479269078258e-04
9.105289846058481004e-04
1.008531290270378057e-03
1.104077300175369553e-03
1.197354574304948733e-03
1.288579552597943515e-03
1.377992858112565139e-03
1.465854160108610122e-03
1.552436473784032977e-03
1.638020190074515386e-03
1.722886813323024459e-03
1.807312455686613164e-03
1.891561227390521063e-03
1.975878681900654788e-03
2.060485400482709416e-03
2.145570744670728149e-03
2.231286992839441596e-03
2.317743882888289534e-03
2.405003691747162331e-03
2.493077015963190198e-03
2.581919235392291390e-03
2.671427784137421751e-03
2.761440294491852333e-03
2.851733685775840587e-03
2.942024214423904962e-03
3.031968542955381079e-03
3.121165826310621887e-03
3.209160776620560360e-03
3.295447756438600086e-03
3.379475831554791879e-03
3.460654696382380654e-03
3.538361454947010470e-03
3.611948133010798798e-03
3.680749917823200774e-03
3.744093908234903938e-03
3.801308310600889397e-03
3.851731873156521643e-03
3.894723568468322437e-03
3.929672322963447158e-03
3.956006493821151264e-03
3.973203221930688041e-03
3.980797276045210456e-03
3.978389372950134895e-03
3.965653792924207603e-03
3.942345190618002163e-03
3.908304404816701459e-03
3.863463293758505942e-03
3.807848357482578223e-03
3.741583138850744852e-03
3.664889361040513625e-03
3.578086754755651928e-03
3.481591431376944174e-03
3.375913022515653755e-03
3.261650433408550421e-03
3.139486291090067341e-03
3.010180167116079542e-03
2.874560546716673631e-03
2.733515822139849852e-03
2.587984328759042330e-03
2.438943500829040840e-03
2.287398404322417075e-03
2.134369719087229975e-03
1.980881337230168144e-03
1.827947863550538057e-03
1.676562013831229712e-03
1.527682231524487341e-03
1.382220692646719687e-03
1.241031780532570947e-03
1.104901300089265867e-03
9.745365167887941804e-04
8.505573007174647591e-04
7.334883570018320897e-04
6.237527290816421597e-04
5.216667331190658367e-04
4.274363135155901218e-04
3.411549489261607188e-04
2.628031262245513031e-04
1.922493431388903710e-04
1.292527964188472140e-04
7.346750620040572253e-05
2.444797566025524551e-05
-1.834372122674096827e-05
-5.552955268395477789e-05
-8.780593028850779841e-05
-1.159330850944841285e-04
-1.407235046949550320e-04
-1.630297099989959841e-04
-1.837313396147462847e-04
-2.037220531355036590e-04
-2.238961487378715056e-04
-2.451352171760156728e-04
-2.682950639852544781e-04
-2.941931137795512582e-04
-3.235963127968654457e-04
-3.572099128613566432e-04
-3.956671766073371985e-04
-4.395202549832880577e-04
-4.892323130741632001e-04
-5.451710012809494153e-04
-6.076034549828036738e-04
-6.766927329077789596e-04
-7.524959901174356827e-04
-8.349642208249983665e-04
-9.239435018788602887e-04
-1.019178024468649036e-03
-1.120314558468504156e-03
-1.226908392867222123e-03
-1.338430667158213919e-03
-1.454276941736585855e-03
-1.573776879840173412e-03
-1.696204828230572868e-03
-1.820791254015770430e-03
-1.946734767991086185e-03
-2.073214530679685398e-03
-2.199402843119666572e-03
-2.324477743413330168e-03
-2.447635397046768815e-03
-2.568102080423548955e-03
-2.685145577368725205e-03
-2.798085790675002103e-03
-2.906304379616530230e-03
-3.009253344488621584e-03
-3.106462340885685503e-03
-3.197544673117478503e-03
-3.282201810220834650e-03
-3.360226426041551875e-03
-3.431503875394668023e-03
-3.496012108614585372e-03
-3.553820001417282593e-03
-3.605084227987834927e-03
-3.650044632511112355e-03
-3.689018235740575569e-03
-3.722392002487611394e-03
-3.750614445557425795e-03
-3.774186290473599721e-03
-3.793650233242765787e-03
-3.809580203221366295e-03
-3.822570088747275115e-03
-3.833222290470054971e-03
-3.842136107159947484e-03
-3.849896411481572127e-03
-3.857062656830753059e-03
-3.864158418886679165e-03
-3.871661651968950815e-03
-3.879995931900639787e-03
-3.889522782061386862e-03
-3.900535138765859593e-03
-3.913252220714051946e-03
-3.927815721234893288e-03
-3.944287605521372073e-03
-3.962649351206417626e-03
-3.982802851581865484e-03
-4.004572745165523549e-03
-4.027710318949543310e-03
-4.051898826473642086e-03
-4.076760074954992319e-03
-4.101862419306954999e-03
-4.126729746354412288e-03
-4.150851374755252544e-03
-4.173692783766244294e-03
-4.194706798834251654e-03
-4.213345215704708720e-03
-4.229070602481135865e-03
-4.241367998767328618e-03
-4.249756360017408613e-03
-4.253799493493436168e-03
-4.253116329115382011e-03
-4.247390284683387300e-03
-4.236377530951079481e-03
-4.219914119735354401e-03
-4.197921617033448932e-03
-4.170411280890821623e-03
-4.137486691771804885e-03
-4.099344635193158913e-03
-4.056274333993459963e-03
-4.008654940254165709e-03
-3.956951337483302807e-03
-3.901708290004025827e-03
-3.843543002156802561e-03
-3.783136243377352870e-03
-3.721222091563227211e-03
-3.658576565596986969e-03
-3.596005172826208414e-03
-3.534329751962144578e-03
-3.474374654677832470e-03
-3.416952577189606884e-03
-3.362850285860511171e-03
-3.312814486683423893e-03
-3.267537998180797612e-03
-3.227646552835766562e-03
-3.193686399073761284e-03
-3.166112944980432019e-03
-3.145280696840803674e-03
-3.131434567827383417e-03
-3.124702858831587046e-03
-3.125091886593741545e-03
-3.132482520823072839e-03
-3.146628609530874830e-03
-3.167157379459317138e-03
-3.193571871689772964e-03
-3.225255317748538641e-03
-3.261477434723740985e-03
-3.301402594153282286e-03
-3.344099746675030082e-03
-3.388553903199803888e-03
-3.433679094446054954e-03
-3.478332559094018256e-03
-3.521329976664821192e-03
-3.561461447172343999e-03
-3.597508146649123096e-03
-3.628259173670276509e-03
-3.652528509916879058e-03
-3.669171782650294551e-03
-3.677102488247609244e-03
-3.675307594002439303e-03
-3.662862076909367565e-03
-3.638942419986978399e-03
-3.602838650895506898e-03
-3.553964858379511736e-03
-3.491867931370964354e-03
-3.416234486250732585e-03
-3.326895878221057361e-03
-3.223831237678786293e-03
-3.107168408427287646e-03
-2.977182881904127509e-03
-2.834294759657682468e-03
-2.679063706696433768e-03
-2.512182162189156593e-03
-2.334466809249560910e-03
-2.146848506497892051e-03
-1.950360788304462013e-03
-1.746127215463661548e-03
-1.535347749303417331e-03
-1.319284429995251206e-03
-1.099246493440773171e-03
-8.765752470540698988e-04
-6.526288716645088422e-04
-4.287675908967492652e-04
-2.063390898797859776e-04
1.333531995214898674e-05
2.289736959569259236e-04
4.393453736426067660e-04
6.432817741786432805e-04
8.396857443691183812e-04
1.027539620303691281e-03
1.205911717501520920e-03
1.373961200173101985e-03
1.530941450242487463e-03
1.676201892218279503e-03
1.809188246123710157e-03
1.929441371325482353e-03
2.036594759089298441e-03
2.130370761229021578e-03
2.210575795594902238e-03
2.277094593091466904e-03
2.329883738096874025e-03
2.368964586170760247e-03
2.394415852609613985e-03
2.406366049963047215e-03
2.404985909701601917e-03
2.390481038791133356e-03
2.363084932422957959e-03
2.323052551844569536e-03
2.270654626769212474e-03
2.206172733900325662e-03
2.129895368626105474e-03
2.042114919390499318e-03
1.943125774756300755e-03
1.833223482247587494e-03
1.712705017108778283e-03
1.581870004706461110e-03
1.441022969563145835e-03
1.290476480656651452e-03
1.130555098023859964e-03
9.615999307300322632e-04
7.839736410018638760e-04
5.980657794521466531e-04
4.042983081587178196e-04
2.031310313439272405e-04
-4.933219700824131230e-06
-2.193438966506555698e-04
-4.394986223235195660e-04
-6.647398611036388263e-04
-8.943526179552760934e-04
-1.127563247166656979e-03
-1.363539510420822562e-03
-1.601392040293362923e-03
-1.840177137539695694e-03
-2.078901105879546636e-03
-2.316526039234045008e-03
-2.551977056581426588e-03
-2.784150970422328859e-03
-3.011926261124697225e-03
-3.234174204756572624e-03
-3.449771115210630880e-03
-3.657611377398286082e-03
-3.856621228203887825e-03
-4.045772865358060813e-03
-4.224098835398344166e-03
-4.390706262396759998e-03
-4.544790820981114629e-03
-4.685650025278398703e-03
-4.812695600978047356e-03
-4.925464794997671918e-03
-5.023630248903342664e-03
-5.107008242404547510e-03
-5.175565036742320150e-03
-5.229421215985323966e-03
-5.268853876233953876e-03
-5.294296513842155875e-03
-5.306336422517887903e-03
-5.305709770386986442e-03
-5.293294184831195091e-03
-5.270099030167844228e-03
-5.237253357829350225e-03
-5.195991650720034778e-03
-5.147637718511646927e-03
-5.093586716670202123e-03
-5.035285684184792609e-03
-4.974212910503719720e-03
-4.911856300357838462e-03
-4.849691167440509099e-03
-4.789157839610641045e-03
-4.731639435423297402e-03
-4.678440026579689694e-03
-4.630763744156009797e-03
-4.589695168731251600e-03
-4.556181277379142518e-03
-4.531015273404517991e-03
-4.514822667883309354e-03
-4.508049881910764119e-03
-4.510955532238366747e-03
-4.523604724467291359e-03
-4.545866318808122232e-03
-4.577413374688635815e-03
-4.617726855301731298e-03
-4.666102547690044455e-03
-4.721661133406247247e-03
-4.783361280287484925e-03
-4.850015642814482254e-03
-4.920309532411423423e-03
-4.992821973579217830e-03
-5.066048894450625624e-03
-5.138428125750487720e-03
-5.208365793371677772e-03
-5.274263717988439924e-03
-5.334547407401257074e-03
-5.387694220780910211e-03
-5.432261322370690766e-03
-5.466912834125836965e-03
-5.490445916608144468e-03
-5.501815344176102726e-03
-5.500156088961265406e-03
-5.484803630352834934e-03
-5.455311620827583800e-03
-5.411466721313147425e-03
-5.353300233219308521e-03
-5.281096377898239491e-03
-5.195397173030789385e-03
-5.097003600075225745e-03
-4.986973268393946404e-03
-4.866614389574775226e-03
-4.737476319366136848e-03
-4.601336718770704555e-03
-4.460185409091077177e-03
-4.316205280853338024e-03
-4.171750521044475038e-03
-4.029322392198199376e-03
-3.891542864137987733e-03
-3.761126703725681947e-03
-3.640852076361284894e-03
-3.533530376587443959e-03
-3.441975420435242940e-03
-3.368972609338850236e-03
-3.317248377107458613e-03
-3.289440357961950258e-03
-3.288068631471180794e-03
-3.315508304232618695e-03
-3.373963929463898864e-03
-3.465445901392685477e-03
-3.591749098657803698e-03
-3.754434099666834751e-03
-3.954810953499501153e-03
-4.193925754496760465e-03
-4.472550009070079373e-03
-4.791172977555452177e-03
-5.149996803525330041e-03
-5.548934423115737050e-03
-5.987610214777044221e-03
-6.465363284191322397e-03
-6.981253078863260304e-03
-7.534067360743467411e-03
-8.122332074635793542e-03
-8.744323112238340176e-03
-9.398079625514026147e-03
-1.008141862413392334e-02
-1.079195073425494311e-02
-1.152709673344298573e-02
-1.228410470824635101e-02
-1.306006763028979070e-02
-1.385194109184503808e-02
-1.465656106526753814e-02
-1.547066156082328899e-02
-1.629089199113722616e-02
-1.711383421056249243e-02
-1.793601908070318121e-02
-1.875394253689575616e-02
-1.956408119029963075e-02
-2.036290744841930470e-02
-2.114690417407204953e-02
-2.191257886332308169e-02
-2.265647759553969867e-02
-2.337519862653923350e-02
-2.406540583955301890e-02
-2.472384217060364861e-02
-2.534734297272625905e-02
-2.593284947306963642e-02
-2.647742242038522709e-02
-2.697825590471120485e-02
-2.743269145206782278e-02
-2.783823241558267686e-02
-2.819255859761132105e-02
-2.849354109824071835e-02
-2.873925725273250575e-02
-2.892800558762675597e-02
-2.905832072220081164e-02
-2.912898792148115382e-02
-2.913905722579186383e-02
-2.908785678858543874e-02
-2.897500527128141212e-02
-2.880042293791017921e-02
-2.856434127328777092e-02
-2.826731064329791182e-02
-2.791020589255085310e-02
-2.749422951648048882e-02
-2.702091189561272103e-02
-2.649210870071359858e-02
-2.590999487385729078e-02
-2.527705520653874757e-02
-2.459607117247412933e-02
-2.387010401314335409e-02
-2.310247385929724631e-02
-2.229673494641254070e-02
-2.145664695764383859e-02
-2.058614259012426714e-02
-1.968929154187876868e-02
-1.877026103890919520e-02
-1.783327341815344955e-02
-1.688256096624307645e-02
-1.592231848313513040e-02
-1.495665423216361624e-02
-1.398953964343945845e-02
-1.302475852163847286e-02
-1.206585635276006922e-02
-1.111609039048610040e-02
-1.017838134623550751e-02
-9.255267291306245800e-03
-8.348860582152025853e-03
-7.460808474654185944e-03
-6.592258235294893090e-03
-5.743827278317342223e-03
-4.915579079773381259e-03
-4.107005366130028583e-03
-3.317015110556142347e-03
-2.543930743358832625e-03
-1.785491884654433203e-03
-1.038866863961759607e-03
-3.006720751079328775e-04
4.330007283155055150e-04
1.166549335526576806e-03
1.904818491660422407e-03
2.653049993946659125e-03
3.416826120149319725e-03
4.202006832494923141e-03
5.014661518694249996e-03
5.860996050052589071e-03
6.747276030069034904e-03
7.679747204222290777e-03
8.664554045944081531e-03
9.707657662805579263e-03
1.081475409207265960e-02
1.199119422417392784e-02
1.324190650206802551e-02
1.457132349417240846e-02
1.598331352205156070e-02
1.748111836776254993e-02
1.906729814751540603e-02
2.074368427450780719e-02
2.251134130550785234e-02
2.437053839205051073e-02
2.632073093932906643e-02
2.836055303788350551e-02
3.048782080328903826e-02
3.269954684417419183e-02
3.499196582830602087e-02
3.736057100300502198e-02
3.980016130680205655e-02
4.230489850231434340e-02
4.486837384680403273e-02
4.748368315115327615e-02
5.014350957180197660e-02
5.284021287482677798e-02
5.556592396055907990e-02
5.831264338278573101e-02
6.107234250768619338e-02
6.383706574350146712e-02
6.659903246671025623e-02
6.935073709814561227e-02
7.208504579988438132e-02
7.479528847785077428e-02
7.747534452291150731e-02
8.011972102420419906e-02
8.272362232560027950e-02
8.528300968042962227e-02
8.779465017979884434e-02
9.025615401022586692e-02
9.266599963211048785e-02
9.502354633256494820e-02
9.732903381166634060e-02
9.958356894189822339e-02
1.017890997777559370e-01
1.039483771789176253e-01
1.060649047206628920e-01
1.081428774972472973e-01
1.101871108469492655e-01
1.122029602381142133e-01
1.141962333699112903e-01
1.161730959772862976e-01
1.181399728879764383e-01
1.201034459484755512e-01
1.220701503020812373e-01
1.240466708660918210e-01
1.260394406890316399e-01
1.280546427576045865e-01
1.300981169165391638e-01
1.321752733868617746e-01
1.342910143747252094e-01
1.364496649452502930e-01
1.386549142365642306e-01
1.409097680853829415e-01
1.432165137244862940e-01
1.455766970484195788e-01
1.479911127668954718e-01
1.504598074170388766e-01
1.529820952614014684e-01
1.555565863981356878e-01
1.581812265902465819e-01
1.608533479804524491e-01
1.635697296022323721e-01
1.663266663582534666e-01
1.691200451427984364e-01
1.719454265156178385e-01
1.747981302916584989e-01
1.776733233457377381e-01
1.805661078396615937e-01
1.834716079671622480e-01
1.863850536150465920e-01
1.893018592578778192e-01
1.922176962761754371e-01
1.951285574757863073e-01
1.980308124623986477e-01
2.009212526092016282e-01
2.037971249600461776e-01
2.066561542816444386e-01
2.094965530412566945e-01
2.123170191569503373e-01
2.151167216081988631e-01
2.178952745978894323e-01
2.206527010008596523e-01
2.233893860383296681e-01
2.261060226044134813e-01
2.288035498387676614e-01
2.314830865903964585e-01
2.341458618591012453e-01
2.367931442531278075e-01
2.394261727074741275e-01
2.420460907341829282e-01
2.446538863637169603e-01
2.472503401086705022e-01
2.498359830940251880e-01
2.524110672409342615e-01
2.549755492394245038e-01
2.575290900075523637e-01
2.600710707014331491e-01
2.626006261550227205e-01
2.651166962408255112e-01
2.676180951307409184e-01
2.701035981844401856e-01
2.725720454552304495e-01
2.750224604567921283e-01
2.774541824837611914e-01
2.798670099688148061e-01
2.822613521862706865e-01
2.846383859345761880e-01
2.870002136647022417e-01
2.893500190325852817e-01
2.916922154392162514e-01
2.940325831523469269e-01
2.963783901919803676e-01
2.987384920772444552e-01
3.011234057702387168e-01
3.035453528938422130e-01
3.060182677433423426e-01
3.085577658470344820e-01
3.111810690338084329e-01
3.139068835615662079e-01
3.167552284483102776e-01
3.197472118349594661e-01
3.229047537220427477e-01
3.262502545046804259e-01
3.298062094694058644e-01
3.335947702984516372e-01
3.376372558330100748e-01
3.419536151246846400e-01
3.465618469224022724e-01
3.514773808046864900e-01
3.567124260969796734e-01
3.622752957578725952e-01
3.681697132854196974e-01
3.743941116498357147e-01
3.809409338555135305e-01
3.877959455875154005e-01
3.949375708582248956e-01
4.023362619905703208e-01
4.099539155323514983e-01
4.177433459519515613e-01
4.256478286460338434e-01
4.336007238745319126e-01
4.415251926679295558e-01
4.493340151914845260e-01
4.569295213189671356e-01
4.642036422555436692e-01
4.710380909185564735e-01
4.773046774940868375e-01
4.828657651068848367e-01
4.875748692263998096e-01
4.912774024382269289e-01
4.938115646595202524e-01
4.950093767619804797e-01
4.946978539037206191e-01
4.927003127974916019e-01
4.888378050041700673e-01
4.829306666236166112e-01
4.748001727579194142e-01
4.642702831573962685e-01
4.511694638923128275e-01
4.353325681826353821e-01
4.166027580518735784e-01
3.948334472894621805e-01
3.698902449224650835e-01
3.416528778338011052e-01
3.100170701790137540e-01
2.748963573228211388e-01
2.362238115646227710e-01
1.939536573011371445e-01
1.480627537381297987e-01
9.855192407627179352e-02
4.544711101768897366e-02
-1.119966005937792636e-02
-7.130952751331513795e-02
-1.347762646135500231e-01
-2.014659886131240918e-01
-2.712171185479166358e-01
-3.438405901314390278e-01
-4.191203333904783834e-01
-4.968140157156389902e-01
-5.766540503220894953e-01
-6.583488670842266854e-01
-7.415844394204482715e-01
-8.260260582443115229e-01
-9.113203409156753754e-01
-9.970974602007204313e-01
-1.082973575339621686e+00
-1.168553445106228494e+00
-1.253433200078207577e+00
-1.337203249121953208e+00
-1.419451293406282177e+00
-1.499765419382870224e+00
-1.577737241021469394e+00
-1.652965060607124226e+00
-1.725057016641315943e+00
-1.793634187295499727e+00
-1.858333617881786415e+00
-1.918811241252546429e+00
-1.974744660995716217e+00
-2.025835768337837184e+00
-2.071813165410965940e+00
-2.112434369305772996e+00
-2.147487773787481569e+00
-2.176794347488784087e+00
-2.200209050978716441e+00
-2.217621957383815623e+00
-2.228959064811642854e+00
-2.234182792047320731e+00
-2.233292152474014802e+00
-2.226322604575202480e+00
-2.213345581133687290e+00
-2.194467702496973427e+00
-2.169829682916143199e+00
-2.139604942296974954e+00
-2.103997938856970951e+00
-2.063242241193278037e+00
-2.017598361029122600e+00
-1.967351370497911978e+00
-1.912808330114280420e+00
-1.854295555135342610e+00
-1.792155750070325348e+00
-1.726745041970851657e+00
-1.658429944045095805e+00
-1.587584281619191406e+00
-1.514586112496615566e+00
-1.439814673466575545e+00
-1.363647383887361286e+00
-1.286456936459701605e+00
-1.208608503541604984e+00
-1.130457085925414162e+00
-1.052345028712373232e+00
-9.745997267442519929e-01
-8.975315393268705755e-01
-8.214319313740489070e-01
-7.465718550308269030e-01
-6.732003828257663303e-01
-6.015436002089923351e-01
-5.318037622840496859e-01
-4.641587159814014041e-01
-3.987615862987202719e-01
-3.357407216425723484e-01
-2.751998906272529188e-01
-2.172187198860137114e-01
-1.618533597354938902e-01
-1.091373621998021487e-01
-5.908275378929984251e-02
-1.168128361267868967e-02
3.309417431198086873e-02
7.528808681087841015e-02
1.149606185774122019e-01
1.521859042795802031e-01
1.870502599760878182e-01
2.196503577995667644e-01
2.500913877332923696e-01
2.784852293498752407e-01
3.049486558218867938e-01
3.296015909418796297e-01
3.525654386616864921e-01
3.739615027759428112e-01
3.939095126871641206e-01
4.125262691074415566e-01
4.299244212161107415e-01
4.462113849240224583e-01
4.614884091011642320e-01
4.758497947743389744e-01
4.893822696331515676e-01
5.021645181705616245e-01
5.142668653420277014e-01
5.257511096557355712e-01
5.366704997525205689e-01
5.470698464387917515e-01
5.569857609827137956e-01
5.664470085738624316e-01
5.754749648320595101e-01
5.840841624198958026e-01
5.922829137336096395e-01
6.000739955283102001e-01
6.074553806635915043e-01
6.144210024178384799e-01
6.209615367698584354e-01
6.270651886217976090e-01
6.327184684705847717e-01
6.379069467510610769e-01
6.426159741525097058e-01
6.468313573495050317e-01
6.505399804657558960e-01
6.537303645058148982e-01
6.563931579464372668e-01
6.585215532868945454e-01
6.601116258362480504e-01
6.611625926127170372e-01
6.616769905375280425e-01
6.616607746053827510e-01
6.611233381076866422e-01
6.600774582529804757e-01
6.585391715770022580e-01
6.565275847855517322e-01
6.540646273222802121e-01
6.511747530016152030e-01
6.478845985094586757e-01
6.442226069470871064e-01
6.402186250510043530e-01
6.359034828548721929e-01
6.313085643917470957e-01
6.264653779619154816e-01
6.214051341508086690e-01
6.161583393056635494e-01
6.107544118495487062e-01
6.052213276453513036e-01
5.995853002820930033e-01
5.938705010927277650e-01
5.880988229808982171e-01
5.822896909998531711e-01
5.764599217429888789e-01
5.706236326994386099e-01
5.647922016565319892e-01
5.589742753712945156e-01
5.531758258168132381e-01
5.474002514944072972e-01
5.416485205740799724e-01
5.359193518826537161e-01
5.302094293205866782e-01
5.245136445943737735e-01
5.188253629844832293e-01
5.131367065230828528e-01
5.074388487410461668e-01
5.017223152141609965e-01
4.959772841799767740e-01
4.901938815406678973e-01
4.843624651212719567e-01
4.784738929524875450e-01
4.725197713724206827e-01
4.664926787370698991e-01
4.603863612983053466e-01
4.541958984733575067e-01
4.479178352699264010e-01
4.415502804499459311e-01
4.350929695646141293e-01
4.285472926622022061e-01
4.219162871918448188e-01
4.152045973288172043e-01
4.084184013009100056e-01
4.015653091828348398e-01
3.946542338700526065e-01
3.876952383451874318e-01
3.806993628704540278e-01
3.736784359409488498e-01
3.666448730116015353e-01
3.596114671892228221e-01
3.525911760104863402e-01
3.455969085574680522e-01
3.386413168929113815e-01
3.317365957612917193e-01
3.248942939970130284e-01
3.181251410836282711e-01
3.114388917250520694e-01
3.048441910302318592e-01
2.983484622100393002e-01
2.919578186120094787e-01
2.856770009687629730e-01
2.795093405986363022e-01
2.734567487024376353e-01
2.675197312456071841e-01
2.616974286453526699e-01
2.559876790097477817e-01
2.503871031591487495e-01
2.448912094644657145e-01
2.394945160279582652e-01
2.341906876014971661e-01
2.289726844636267022e-01
2.238329201066449614e-01
2.187634248256354053e-01
2.137560119064870479e-01
2.088024433976033989e-01
2.038945924971433954e-01
1.990245995834792059e-01
1.941850192518812246e-01
1.893689558714332366e-01
1.845701855008200498e-01
1.797832622558950544e-01
1.750036075341825093e-01
1.702275810789729282e-01
1.654525328372735415e-01
1.606768352615911555e-01
1.558998959177237964e-01
1.511221507868656666e-01
1.463450387404620079e-01
1.415709582333305183e-01
1.368032074646163831e-01
1.320459095152994589e-01
1.273039242457280062e-01
1.225827489182598762e-01
1.178884095930450709e-01
1.132273456446823562e-01
1.086062896193269872e-01
1.040321448087086764e-01
9.951186280522199279e-02
9.505232325974692642e-02
9.066021802226439941e-02
8.634194162511410475e-02
8.210348999961976368e-02
7.795036904386788701e-02
7.388751428196060900e-02
6.991922296826044714e-02
6.604909942008199697e-02
6.228001419515662163e-02
5.861407749188424221e-02
5.505262675600939432e-02
5.159622839407087408e-02
4.824469305127464941e-02
4.499710379891489614e-02
4.185185635283599631e-02
3.880671007013115903e-02
3.585884852678943024e-02
3.300494823706211223e-02
3.024125399627682412e-02
2.756365913495208153e-02
2.496778906933585368e-02
2.244908655461251221e-02
2.000289685036058321e-02
1.762455127170716937e-02
1.530944752115177485e-02
1.305312551418168730e-02
1.085133727749706782e-02
8.700109938709984017e-03
6.595800624582866950e-03
4.535142695715446010e-03
2.515282613409010413e-03
5.338071667158230792e-04
-1.411239300624386826e-03
-3.321347500632552008e-03
-5.197545441741999346e-03
-7.040410060049176119e-03
-8.850087452882781161e-03
-1.062632110515867624e-02
-1.236848737138104663e-02
-1.407563702359029834e-02
-1.574654190386657118e-02
-1.737974555703391752e-02
-1.897361662684165368e-02
-2.052640383914497088e-02
-2.203629132929414702e-02
-2.350145314963755436e-02
-2.492010581916663178e-02
-2.629055795098894643e-02
-2.761125591904798823e-02
-2.888082465347016972e-02
-3.009810285183929165e-02
-3.126217217323689485e-02
-3.237237973691452220e-02
-3.342835371358891111e-02
-3.443001183320445330e-02
-3.537756277993374388e-02
-3.627150072913322421e-02
-3.711259308820399200e-02
-3.790186209974533149e-02
-3.864056066612384099e-02
-3.933014308508732404e-02
-3.997223147353019118e-02
-4.056857865950146136e-02
-4.112102838191214471e-02
-4.163147380896914385e-02
-4.210181520282711004e-02
-4.253391772445801883e-02
-4.292957029525493184e-02
-4.329044636758882375e-02
-4.361806742397399128e-02
-4.391377003741985668e-02
-4.417867711222799032e-02
-4.441367389189129766e-02
-4.461938925466252953e-02
-4.479618260833486548e-02
-4.494413667832136000e-02
-4.506305627375843670e-02
-4.515247313540870361e-02
-4.521165662897885795e-02
-4.523963013237208147e-02
-4.523519270122460662e-02
-4.519694564691096456e-02
-4.512332343417230912e-02
-4.501262834244606353e-02
-4.486306811899754693e-02
-4.467279592897622359e-02
-4.443995186980143758e-02
-4.416270512334525417e-02
-4.383929605899448273e-02
-4.346807735455790467e-02
-4.304755352374060873e-02
-4.257641793757535598e-02
-4.205358677262013151e-02
-4.147822917270559129e-02
-4.084979308980189044e-02
-4.016802639896893679e-02
-3.943299280521764261e-02
-3.864508231719139542e-02
-3.780501612646243459e-02
-3.691384576853768557e-02
-3.597294664696094185e-02
-3.498400609861757743e-02
-3.394900610815063113e-02
-3.287020104041204344e-02
-3.175009089610506680e-02
-3.059139052009198639e-02
-2.939699534172321091e-02
-2.816994419014560297e-02
-2.691338002071032992e-02
-2.563050904459779344e-02
-2.432455920847964234e-02
-2.299873859937347914e-02
-2.165619454519775861e-02
-2.029997411492855813e-02
-1.893298667401707713e-02
-1.755796919496965466e-02
-1.617745482870119877e-02
-1.479374530096434943e-02
-1.340888760522846584e-02
-1.202465525033992455e-02
-1.064253445887443014e-02
-9.263715441368659126e-03
-7.889088925604421931e-03
-6.519247889766211813e-03
-5.154494489754174631e-03
-3.794851994386127386e-03
-2.440081438702521553e-03
-1.089702731072454212e-03
2.569801791333786180e-04
1.600850576289428303e-03
2.942947198051262467e-03
4.284429915716520161e-03
5.626543555237580214e-03
6.970580440705160391e-03
8.317842260839841684e-03
9.669601911119641430e-03
1.102706604167848388e-02
1.239133887402275695e-02
1.376338782608220977e-02
1.514401156155806977e-02
1.653381102581182732e-02
1.793316375246510608e-02
1.934220200333250025e-02
2.076079503950909941e-02
2.218853574441115306e-02
2.362473179291197864e-02
2.506840154287336836e-02
2.651827463100748378e-02
2.797279718385315556e-02
2.943014169027223861e-02
3.088822117779380441e-02
3.234470753175121976e-02
3.379705374106600074e-02
3.524251938984052784e-02
3.667819936485837429e-02
3.810105504972418483e-02
3.950794763244144109e-02
4.089567295554877302e-02
4.226099737611790919e-02
4.360069409471364899e-02
4.491157941105090867e-02
4.619054839463731382e-02
4.743460940892749167e-02
4.864091701458206352e-02
4.980680275103045729e-02
5.092980340362105590e-02
5.200768636063898137e-02
5.303847171103368702e-02
5.402045086555423009e-02
5.495220136360198099e-02
5.583259781096260033e-02
5.666081874040498900e-02
5.743634940433258590e-02
5.815898057914342667e-02
5.882880332611481466e-02
5.944619988125502547e-02
6.001183092258129820e-02
6.052661938167264860e-02
6.099173106742026423e-02
6.140855247576706283e-02
6.177866606308775321e-02
6.210382341800794320e-02
