-1.079349657848945737e-03
-1.242440474513720021e-03
-1.408969919101811736e-03
-1.578349965612148558e-03
-1.749992174496023444e-03
-1.923313653870703955e-03
-2.097742599112932104e-03
-2.272723237173339059e-03
-2.447720215026348740e-03
-2.622222267625386270e-03
-2.795745149259197537e-03
-2.967833760041914837e-03
-3.138063521561654506e-03
-3.306040945633954928e-03
-3.471403448614813342e-03
-3.633818418321997732e-03
-3.792981615242253367e-03
-3.948614917904446492e-03
-4.100463567278632426e-03
-4.248293004657026709e-03
-4.391885352422774877e-03
-4.531035703300103148e-03
-4.665548362860079921e-03
-4.795232986055191458e-03
-4.919901060809461595e-03
-5.039362549185133489e-03
-5.153422927686759393e-03
-5.261880832502939878e-03
-5.364526230677447299e-03
-5.461139268201875910e-03
-5.551489954795710974e-03
-5.635338600570583868e-03
-5.712437124007770095e-03
-5.782531248372215632e-03
-5.845363523017919026e-03
-5.900677209910092785e-03
-5.948220924402846527e-03
-5.987754010997876734e-03
-6.019052508111491680e-03
-6.041915735297868732e-03
-6.056173214793498724e-03
-6.061691837007568417e-03
-6.058383167821279093e-03
-6.046210698018049390e-03
-6.025196871350566377e-03
-5.995429729509702682e-03
-5.957068967310695344e-03
-5.910351315744752712e-03
-5.855594988697810678e-03
-5.793203127931904027e-03
-5.723666034728880879e-03
-5.647562084722825178e-03
-5.565557300270512937e-03
-5.478403389783115252e-03
-5.386934254076656756e-03
-5.292060942510378244e-03
-5.194765029560580172e-03
-5.096090399279478572e-03
-4.997133576955975140e-03
-4.899032660251474366e-03
-4.802954951131295155e-03
-4.710083426572426145e-03
-4.621602219412255554e-03
-4.538681282201761230e-03
-4.462460495160312617e-03
-4.394033348501464112e-03
-4.334430610960463004e-03
-4.284604038744783440e-03
-4.245410538078717676e-03
-4.217596990633306828e-03
-4.201786004223798283e-03
-4.198462832689746176e-03
-4.207963738374355910e-03
-4.230465981078845861e-03
-4.265979698573789565e-03
-4.314341955664497373e-03
-4.375212885178266474e-03
-4.448074271009769091e-03
-4.532230588899456916e-03
-4.626812610431469373e-03
-4.730783567985283496e-03
-4.842947813540907608e-03
-4.961962133249820349e-03
-5.086349429361536334e-03
-5.214514671671967132e-03
-5.344763108953286268e-03
-5.475320391797927101e-03
-5.604354399234093460e-03
-5.729998593520461980e-03
-5.850376607423558514e-03
-5.963627695786771071e-03
-6.067932698350988856e-03
-6.161540309190244660e-03
-6.242793177446392602e-03
-6.310153581806463886e-03
-6.362228289858279026e-03
-6.397792212874143028e-03
-6.415810486186043771e-03
-6.415458842768687053e-03
-6.396141793462719292e-03
-6.357508372026763124e-03
-6.299465276975721624e-03
-6.222187109572088932e-03
-6.126123594953425747e-03
-6.012003544462898516e-03
-5.880835556584597910e-03
-5.733905345066824151e-03
-5.572769643680784875e-03
-5.399246795910321063e-03
-5.215404040660722926e-03
-5.023541624123415567e-03
-4.826173863895655974e-03
-4.626007326532649566e-03
-4.425916407824009163e-03
-4.228916548620278645e-03
-4.038135331534565414e-03
-3.856781803316438207e-03
-3.688114381981821323e-03
-3.535407595332194092e-03
-3.401918086900813671e-03
-3.290850330008080003e-03
-3.205322292881942255e-03
-3.148331464758246517e-03
-3.122721650274607776e-03
-3.131150863093741521e-03
-3.176060597657769709e-03
-3.259647006310309545e-03
-3.383834043405479792e-03
-3.550248953847413153e-03
-3.760200407666938402e-03
-4.014659504456889738e-03
-4.314243742783065681e-03
-4.659204167681433098e-03
-5.049415851528337232e-03
-5.484371762119652147e-03
-5.963180089730392604e-03
-6.484565084145421827e-03
-7.046871298413215703e-03
-7.648071239939276990e-03
-8.285776442924394983e-03
-8.957251733598457430e-03
-9.659432632510241146e-03
-1.038894565069706059e-02
-1.114213139017470114e-02
-1.191507018349349974e-02
-1.270361005935256513e-02
-1.350339685505818656e-02
-1.430990616671265134e-02
-1.511847679259088403e-02
-1.592434558451652146e-02
-1.672268328797266515e-02
-1.750863116865445865e-02
-1.827733799937195786e-02
-1.902399733394614240e-02
-1.974388460909730011e-02
-2.043239388141409110e-02
-2.108507387525496504e-02
-2.169766305039515578e-02
-2.226612349721734593e-02
-2.278667338438812584e-02
-2.325581768469605487e-02
-2.367037688662094325e-02
-2.402751358503867757e-02
-2.432475666657525626e-02
-2.456002293103972875e-02
-2.473163587914050873e-02
-2.483834149560600404e-02
-2.487932102358620529e-02
-2.485420046194616525e-02
-2.476305651716765102e-02
-2.460641922711889057e-02
-2.438527093567183224e-02
-2.410104159821413808e-02
-2.375560037934077579e-02
-2.335124353205875539e-02
-2.289067856021415395e-02
-2.237700469922965577e-02
-2.181368972478740093e-02
-2.120454319957021036e-02
-2.055368632600634501e-02
-1.986551846470282698e-02
-1.914468052379699609e-02
-1.839601549000383432e-02
-1.762452621494178806e-02
-1.683533086215495758e-02
-1.603361625347382580e-02
-1.522458950174426610e-02
-1.441342819530504887e-02
-1.360522965088089946e-02
-1.280495963315532101e-02
-1.201740091690504594e-02
-1.124710223033859209e-02
-1.049832807375654549e-02
-9.775009912325232156e-03
-9.080699209181681761e-03
-8.418522853732419292e-03
-7.791141493675525498e-03
-7.200711262651756511e-03
-6.648849426055972699e-03
-6.136604376867445601e-03
-5.664430504842267629e-03
-5.232168223903023441e-03
-4.839029698556053180e-03
-4.483590527781607452e-03
-4.163787592290253692e-03
-3.876923413785813340e-03
-3.619677142073027352e-03
-3.388122279376588625e-03
-3.177751093814704195e-03
-2.983505729744702177e-03
-2.799815946660970303e-03
-2.620643165187830619e-03
-2.439530615259587285e-03
-2.249659188351368563e-03
-2.043908528349366524e-03
-1.814922806625884205e-03
-1.555180766198410898e-03
-1.257069132730540949e-03
-9.129587891107160706e-04
-5.152829359880276884e-04
-5.661637885887043807e-05
4.702449446819547112e-04
1.072205065294816765e-03
1.755790649444000442e-03
2.527076117497569462e-03
3.391612271239974503e-03
4.354359200845150761e-03
5.419624371509772220e-03
6.591006758755170621e-03
7.871347870255026788e-03
9.262690334467258216e-03
1.076624463526570409e-02
1.238236464022234549e-02
1.411053238495639343e-02
1.594935247220126071e-02
1.789655631970725122e-02
1.994901635350241134e-02
2.210277019717722669e-02
2.435305465278860687e-02
2.669434935326119029e-02
2.912042958427875361e-02
3.162442787031252006e-02
3.419890353661269450e-02
3.683591964997679630e-02
3.952712638518934840e-02
4.226384983278631130e-02
4.503718531890563842e-02
4.783809398953548647e-02
5.065750146557131128e-02
5.348639738249515857e-02
5.631593452428471092e-02
5.913752625735802654e-02
6.194294095067183481e-02
6.472439214768473115e-02
6.747462333848441851e-02
7.018698604815774844e-02
7.285551024035302747e-02
7.547496595446645529e-02
7.804091538897242608e-02
8.054975466047605004e-02
8.299874460778944307e-02
8.538603020411653088e-02
8.771064815502066514e-02
8.997252267127776870e-02
9.217244938290408696e-02
9.431206765233630940e-02
9.639382158939123479e-02
9.842091029679113368e-02
1.003972281804400707e-01
1.023272960987434699e-01
1.042161843410389643e-01
1.060694286307993228e-01
1.078929403515221652e-01
1.096929124552057100e-01
1.114757222977775103e-01
1.132478330675724537e-01
1.150156951552660650e-01
1.167856491792108597e-01
1.185638319969980897e-01
1.203560872119539410e-01
1.221678816874794127e-01
1.240042291158864468e-01
1.258696221869118892e-01
1.277679741156766413e-01
1.297025705627663783e-01
1.316760326960536853e-01
1.336902918954767094e-01
1.357465765190503659e-01
1.378454108320361637e-01
1.399866260177622390e-01
1.421693830989768370e-01
1.443922071476925195e-01
1.466530322389130447e-01
1.489492561686719396e-01
1.512778038622542287e-01
1.536351983475105487e-01
1.560176378605370173e-01
1.584210775903844015e-01
1.608413145133376077e-01
1.632740735832863832e-01
1.657150937062931151e-01
1.681602117483235181e-01
1.706054429234696024e-01
1.730470559783773843e-01
1.754816416327905637e-01
1.779061728739749215e-01
1.803180559322865029e-01
1.827151709330782081e-01
1.850959012118275349e-01
1.874591508379645222e-01
1.898043499276769464e-01
1.921314476355570344e-01
1.944408930572143757e-01
1.967336043295035142e-01
1.990109267381954261e-01
2.012745808338006204e-01
2.035266016565918101e-01
2.057692706769239654e-01
2.080050420013638823e-01
2.102364646950053428e-01
2.124661033088945938e-01
2.146964586252613216e-01
2.169298908731151776e-01
2.191685475484996815e-01
2.214142981378200425e-01
2.236686777176825902e-01
2.259328414849057221e-01
2.282075321142766899e-01
2.304930614421964452e-01
2.327893078750260802e-01
2.350957306250146261e-01
2.374114013090052877e-01
2.397350533612624401e-01
2.420651491206090300e-01
2.443999639799104562e-01
2.467376867391274375e-01
2.490765346582519413e-01
2.514148812815601985e-01
2.537513947314158913e-01
2.560851836559009387e-01
2.584159477193871401e-01
2.607441289769129034e-01
2.630710603594433872e-01
2.653991071139999436e-01
2.677317968720530073e-01
2.700739338550189328e-01
2.724316927553053214e-01
2.748126876862013734e-01
2.772260118515707528e-01
2.796822437780247528e-01
2.821934161386529527e-01
2.847729436673205328e-01
2.874355070943335200e-01
2.901968905631412965e-01
2.930737706927493136e-01
2.960834561597719405e-01
2.992435772515817383e-01
3.025717260039428314e-01
3.060850482384885884e-01
3.097997896935024698e-01
3.137307994313864867e-01
3.178909948251152917e-01
3.222907931231486778e-01
3.269375156687506223e-01
3.318347716405333214e-01
3.369818291115572184e-01
3.423729820512471100e-01
3.479969223333029271e-01
3.538361266411380601e-01
3.598662684420077529e-01
3.660556657841723127e-01
3.723647755862928843e-01
3.787457453622949388e-01
3.851420330016840921e-01
3.914881052287065843e-01
3.977092247639576472e-01
4.037213355903673251e-01
4.094310550273997928e-01
4.147357803686388955e-01
4.195239166713961576e-01
4.236752311356017375e-01
4.270613381845101419e-01
4.295463176318505827e-01
4.309874669412516734e-01
4.312361866998781768e-01
4.301389968218946036e-01
4.275386790668898596e-01
4.232755396504063183e-01
4.171887838230969869e-01
4.091179926146231716e-01
3.989046900394924156e-01
3.863939874464308866e-01
3.714362900613853435e-01
3.538890493921766356e-01
3.336185438871777653e-01
3.105016688160287530e-01
2.844277160324110154e-01
2.553001229496840163e-01
2.230381698900653908e-01
1.875786048685840202e-01
1.488771745846409755e-01
1.069100409870154950e-01
6.167506321756056203e-02
1.319292567908950803e-02
-3.849190604973637408e-02
-9.331041818582552771e-02
-1.511684858067487702e-01
-2.119465273036717223e-01
-2.754993874836821344e-01
-3.416564582282733409e-01
-4.102220430868721568e-01
-4.809759698306679820e-01
-5.536744521181621304e-01
-6.280511985573219436e-01
-7.038187647630800292e-01
-7.806701410216595471e-01
-8.582805654107192872e-01
-9.363095494793736151e-01
-1.014403100873355390e+00
-1.092196124608788788e+00
-1.169314982595626828e+00
-1.245380188688119061e+00
-1.320009214612299475e+00
-1.392819380298034426e+00
-1.463430801041663232e+00
-1.531469362617779773e+00
-1.596569694796024175e+00
-1.658378113165855261e+00
-1.716555499267240714e+00
-1.770780089245043820e+00
-1.820750141813930023e+00
-1.866186457465795812e+00
-1.906834722100208879e+00
-1.942467649896881143e+00
-1.972886902218551564e+00
-1.997924761715546005e+00
-2.017445543404702946e+00
-2.031346727009472719e+00
-2.039559797976762567e+00
-2.042050787749692731e+00
-2.038820507101074320e+00
-2.029904469770426267e+00
-2.015372506916893069e+00
-1.995328076334766054e+00
-1.969907273876365217e+00
-1.939277557614467185e+00
-1.903636198557764780e+00
-1.863208474734209030e+00
-1.818245628151736737e+00
-1.769022606812025389e+00
-1.715835616183754242e+00
-1.658999506489599707e+00
-1.598845023931130260e+00
-1.535715955190660287e+00
-1.469966195631011274e+00
-1.401956772107504579e+00
-1.332052851565428409e+00
-1.260620766505174961e+00
-1.188025087732095697e+00
-1.114625774048794815e+00
-1.040775427253201046e+00
-9.668166791983873187e-01
-8.930797359547557601e-01
-8.198801017120747048e-01
-7.475165028121552036e-01
-6.762690295657995954e-01
-6.063975108834426253e-01
-5.381401335501970751e-01
-4.717123150619258465e-01
-4.073058357916810590e-01
-3.450882330745418392e-01
-2.852024565944595857e-01
-2.277667817079693513e-01
-1.728749740052028527e-01
-1.205966957616143032e-01
-7.097814218970985300e-02
-2.404289311044756350e-02
2.020703671884904393e-02
6.178996731135981413e-02
1.007431635272746651e-01
1.371213072244293896e-01
1.709948542590904452e-01
2.024482998721568727e-01
2.315783765324858079e-01
2.584922081909205027e-01
2.833054448481610588e-01
3.061404006654060983e-01
3.271242182874273818e-01
3.463870807376152605e-01
3.640604908497664938e-01
3.802756368497030026e-01
3.951618606563483960e-01
4.088452437931265337e-01
4.214473234628005049e-01
4.330839491628255544e-01
4.438642880920163902e-01
4.538899851522125717e-01
4.632544809630240734e-01
4.720424890676039320e-01
4.803296313311583021e-01
4.881822282772841359e-01
4.956572391000944044e-01
5.028023441743709743e-01
5.096561612393818441e-01
5.162485847303105446e-01
5.226012365794523440e-01
5.287280156119403829e-01
5.346357317502101747e-01
5.403248106190594591e-01
5.457900538073723329e-01
5.510214397549442200e-01
5.560049503831608897e-01
5.607234087521467680e-01
5.651573136257121988e-01
5.692856575472917680e-01
5.730867158044543608e-01
5.765387947999011109e-01
5.796209293378832283e-01
5.823135199135626161e-01
5.845989022883126829e-01
5.864618430626969969e-01
5.878899566250698205e-01
5.888740402237047089e-01
5.894083254944623151e-01
5.894906462655995494e-01
5.891225237312972540e-01
5.883091717660211550e-01
5.870594260392798525e-01
5.853856019913267206e-01
5.833032876028430014e-01
5.808310778588801071e-01
5.779902584534264420e-01
5.748044469940032375e-01
5.712992001208463400e-01
5.675015954854705225e-01
5.634397975048762719e-01
5.591426156958529958e-01
5.546390641380848363e-01
5.499579304162077742e-01
5.451273618352997508e-01
5.401744758791277023e-01
5.351250015306767693e-01
5.300029570271008739e-01
5.248303688237997422e-01
5.196270355436584110e-01
5.144103398299558760e-01
5.091951099490000798e-01
5.039935321029292981e-01
4.988151133497488177e-01
4.936666941209993387e-01
4.885525084975184118e-01
4.834742895145034414e-01
4.784314161255806552e-01
4.734210976558240747e-01
4.684385910892259197e-01
4.634774462189378275e-01
4.585297729681400702e-01
4.535865253485032444e-01
4.486377961874522535e-01
4.436731166938493454e-01
4.386817552046418101e-01
4.336530095221455272e-01
4.285764875255001494e-01
4.234423711238683996e-01
4.182416592363268903e-01
4.129663857628049772e-01
4.076098092336437051e-01
4.021665714737242547e-01
3.966328231500607648e-01
3.910063149502071012e-01
3.852864535238810229e-01
3.794743223406200072e-01
3.735726680396503907e-01
3.675858534813662981e-01
3.615197795023273875e-01
3.553817776808739226e-01
3.491804769277865872e-01
3.429256473153262652e-01
3.366280247386143065e-01
3.302991201878324734e-01
3.239510178261682527e-01
3.175961660129008601e-01
3.112471654358035522e-01
3.049165585166818127e-01
2.986166241016746659e-01
2.923591812174732851e-01
2.861554054083035870e-01
2.800156608815566606e-01
2.739493513438152061e-01
2.679647918380090865e-01
2.620691035747366726e-01
2.562681332139662982e-01
2.505663975741948546e-01
2.449670541931724677e-01
2.394718977055055043e-01
2.340813815864997149e-01
2.287946642282805976e-01
2.236096778821344278e-01
2.185232186574518620e-01
2.135310554707303687e-01
2.086280553690947892e-01
2.038083225772774898e-01
1.990653482252838224e-01
1.943921677903647505e-01
1.897815230594244729e-01
1.852260254774972248e-01
1.807183177591752954e-01
1.762512307649141408e-01
1.718179326914549832e-01
1.674120680906047154e-01
1.630278841952650659e-01
1.586603424843394949e-01
1.543052136101726035e-01
1.499591543814647043e-01
1.456197656417737019e-01
1.412856304091759385e-01
1.369563319012646885e-01
1.326324515385708114e-01
1.283155473876444186e-01
1.240081137859282562e-01
1.197135234011364041e-01
1.154359530425110580e-01
1.111802950203744228e-01
1.069520559841272977e-01
1.027572452119851903e-01
9.860225494811422631e-02
9.449373496327223565e-02
9.043846381637406229e-02
8.644321934765930582e-02
8.251465081016821912e-02
7.865915491675817828e-02
7.488275817824176228e-02
7.119100748592606387e-02
6.758887089259961456e-02
6.408065022562456359e-02
6.066990693414543723e-02
5.735940231991665944e-02
5.415105303535423104e-02
5.104590236093768663e-02
4.804410754344488194e-02
4.514494322924818281e-02
4.234682060770911943e-02
3.964732160746924083e-02
3.704324737367673676e-02
3.453067991213994853e-02
3.210505554037802745e-02
2.976124868637905138e-02
2.749366430274087156e-02
2.529633722207456567e-02
2.316303646196230664e-02
2.108737268335102513e-02
1.906290670814669158e-02
1.708325726316486590e-02
1.514220610466608490e-02
1.323379869308230310e-02
1.135243877337509776e-02
9.492975313021451492e-03
7.650780404147941062e-03
5.821817020776205373e-03
4.002695600195606447e-03
2.190718742116583816e-03
3.839134315229590709e-04
-1.418949455259080079e-03
-3.218348496717898799e-03
-5.014017750343595370e-03
-6.804965083047368087e-03
-8.589502281783806953e-03
-1.036528611212067519e-02
-1.212936951432178403e-02
-1.387826173473749244e-02
-1.560799622919562327e-02
-1.731420506554601224e-02
-1.899219842228118751e-02
-2.063704771877061112e-02
-2.224367096132867996e-02
-2.380691875984587355e-02
-2.532165959294501931e-02
-2.678286302026219173e-02
-2.818567944182983481e-02
-2.952551522514233057e-02
-3.079810205245244251e-02
-3.199955956876777974e-02
-3.312645050014120796e-02
-3.417582747975651120e-02
-3.514527108239230702e-02
-3.603291877373070162e-02
-3.683748449691986310e-02
-3.755826890513450089e-02
-3.819516043813105111e-02
-3.874862735064278640e-02
-3.921970118317356924e-02
-3.960995226043294987e-02
-3.992145793755429856e-02
-4.015676418376831064e-02
-4.031884151639487934e-02
-4.041103603548357875e-02
-4.043701663264222257e-02
-4.040071937618703452e-02
-4.030629003111185077e-02
-4.015802561138635124e-02
-3.996031605345289062e-02
-3.971758693377377969e-02
-3.943424402387287614e-02
-3.911462051951165864e-02
-3.876292770190233050e-02
-3.838320958569840097e-02
-3.797930216465327663e-02
-3.755479768459916989e-02
-3.711301423534522914e-02
-3.665697088063538112e-02
-3.618936848053726230e-02
-3.571257617225873093e-02
-3.522862346884787083e-02
-3.473919784335110367e-02
-3.424564741845598226e-02
-3.374898847802908219e-02
-3.324991740486094027e-02
-3.274882663601288296e-02
-3.224582399634127322e-02
-3.174075501640746116e-02
-3.123322766917151910e-02
-3.072263880868935509e-02
-3.020820187262548973e-02
-2.968897528746786488e-02
-2.916389108826156554e-02
-2.863178314467977950e-02
-2.809141465926816641e-02
-2.754150437732971399e-02
-2.698075128874705478e-02
-2.640785748567352903e-02
-2.582154893670234735e-02
-2.522059389626763251e-02
-2.460381896139021349e-02
-2.397012264719524180e-02
-2.331848650909889437e-02
-2.264798382243029748e-02
-2.195778591441082533e-02
-2.124716630255544039e-02
-2.051550284882795727e-02
-1.976227814504769725e-02
-1.898707824496033772e-02
-1.818959015120025224e-02
-1.736959822520413657e-02
-1.652697981160275789e-02
-1.566170037342750482e-02
-1.477380830880129815e-02
-1.386342979752990499e-02
-1.293076376479061936e-02
-1.197607724520308170e-02
-1.099970135003093021e-02
-1.000202778214031619e-02
-8.983506162360205619e-03
-7.944642159323776417e-03
-6.885996515801855351e-03
-5.808184796483325564e-03
-4.711878012121947616e-03
-3.597803856994335851e-03
-2.466748567477770014e-03
-1.319559309198296620e-03
-1.571468792202533138e-04
1.019511520909563602e-03
2.209369463645981507e-03
3.411308651469294791e-03
4.624136684271711387e-03
5.846585320932942177e-03
7.077309548126910557e-03
8.314887441176317673e-03
9.557820997662452508e-03
1.080453817317093140e-02
1.205339605014648340e-02
1.330268524445125944e-02
1.455063561771206999e-02
1.579542325147387585e-02
1.703517864494153225e-02
1.826799607995356622e-02
1.949194408684334565e-02
2.070507684233815690e-02
2.190544638267058822e-02
2.309111544711962838e-02
2.426017072071876002e-02
2.541073632368757648e-02
2.654098732438320285e-02
2.764916299937243693e-02
2.873357969592458053e-02
2.979264296113092597e-02
3.082485879611368551e-02
3.182884385741220623e-02
3.280333433137513216e-02
3.374719336392383723e-02
3.465941684975912263e-02
3.553913753758731336e-02
3.638562733535438687e-02
3.719829771398044937e-02
3.797669824756726153e-02
3.872051326257890808e-02
3.942955665368921836e-02
4.010376495373782491e-02
4.074318875257397499e-02
4.134798257863415982e-02
4.191839350249380175e-02
4.245474852047165931e-02
4.295744106595850847e-02
4.342691675663323120e-02
4.386365874289668843e-02
4.426817283248794116e-02
4.464097266233568728e-02
4.498256513535869860e-02
4.529343643883159548e-02
4.557403892299945886e-02
4.582477889558879414e-02
4.604600568350449008e-02
4.623800206433503757e-02
4.640097632033125113e-02
4.653505595904400965e-02
4.664028321335968175e-02
4.671661240381296681e-02
4.676390911153967961e-02
4.678195137769843720e-02
4.677043262333670931e-02
4.672896631412423035e-02
4.665709237637791912e-02
4.655428509678906368e-02
4.641996240265565399e-02
4.625349629462800066e-02
4.605422423484513417e-02
4.582146135795038544e-02
4.555451311314404061e-02
4.525268814982635890e-02
4.491531124722231844e-02
4.454173601946849470e-02
4.413135706012505377e-02
4.368362138389481758e-02
4.319803892911859566e-02
4.267419193715773357e-02
4.211174294469437196e-02
4.151044128058573729e-02
4.087012787905525135e-02
4.019073845039376758e-02
3.947230479317521967e-02
3.871495433767751376e-02
3.791890776418919279e-02
3.708447490100880151e-02
3.621204879044347125e-02
3.530209818055227849e-02
3.435515851735378157e-02
3.337182155969022762e-02
3.235272387260595961e-02
3.129853429973838280e-02
3.020994074048647185e-02
2.908763647183897072e-02
2.793230623686818528e-02
2.674461233083713294e-02
2.552518102317553536e-02
2.427458959115541201e-02
2.299335408790863927e-02
2.168191820067550193e-02
2.034064344815880720e-02
1.896980087327532552e-02
1.756956448103210236e-02
1.614000652491906496e-02
1.468109483401326340e-02
1.319269224495494761e-02
1.167455819185641078e-02
1.012635263308258628e-02
8.547642131567745674e-03
6.937908223579144357e-03
5.296557852778696097e-03
3.622935926166448960e-03
1.916339789318697619e-03
1.760354350278176200e-04
-1.598724704835034023e-03
-3.408682628479952226e-03
-5.254554548338732749e-03
-7.137009779107982704e-03
-9.056649102051875580e-03
-1.101398282786719522e-02
-1.300940886232237331e-02
-1.504319101724377848e-02
-1.711543807759306063e-02
-1.922608365647560796e-02
-2.137486721790422123e-02
-2.356131664121178040e-02
-2.578473238364639361e-02
-2.804417370233439413e-02
-3.033844689955114346e-02
-3.266609591403064894e-02
-3.502539544940833083e-02
-3.741434664128026610e-02
-3.983067542849434706e-02
-4.227183362741517014e-02
-4.473500276914738755e-02
-4.721710074658305722e-02
-4.971479105904689361e-02
-5.222449471557841227e-02
-5.474240461581312417e-02
-5.726450227448496438e-02
-5.978657676185925030e-02
-6.230424560062335082e-02
-6.481297740254014783e-02
-6.730811608903933263e-02
-6.978490631160444435e-02
-7.223851985738020953e-02
-7.466408281705129435e-02
-7.705670319642170252e-02
-7.941149871731827126e-02
-8.172362436585102474e-02
-8.398829964469438358e-02
-8.620083509437846681e-02
-8.835665797226194274e-02
-9.045133663318365158e-02
-9.248060367852094232e-02
-9.444037739682803467e-02
-9.632678152755351497e-02
-9.813616315615604491e-02
-9.986510848485506686e-02
-1.015104564757878386e-01
-1.030693103887850987e-01
-1.045390469871405326e-01
-1.059173235373441074e-01
-1.072020825977627184e-01
-1.083915545427145133e-01
-1.094842579904748980e-01
-1.104789981610912047e-01
-1.113748633346434147e-01
-1.121712194279210900e-01
-1.128677029696100315e-01
-1.134642125749332625e-01
-1.139608990300148283e-01
-1.143581542382443722e-01
-1.146565992016139596e-01
-1.148570711604390143e-01
-1.149606102530061486e-01
-1.149684456437565089e-01
-1.148819814022284114e-01
-1.147027824041744193e-01
-1.144325602293926880e-01
-1.140731593387833559e-01
-1.136265436511527116e-01
-1.130947835358362269e-01
-1.124800434736070165e-01
-1.117845703663457313e-01
-1.110106826066191432e-01
-1.101607599097455953e-01
-1.092372339806444992e-01
-1.082425800285437001e-01
-1.071793091145672450e-01
-1.060499613033901167e-01
-1.048570996323686250e-01
-1.036033047824893305e-01
-1.022911704104038644e-01
-1.009232991073498314e-01
-9.950229886080375064e-02
-9.803077999149824306e-02
-9.651135242586830754e-02
-9.494662320164981573e-02
-9.333919417618988246e-02
-9.169165989367319969e-02
-9.000660534162800708e-02
-8.828660367057709901e-02
-8.653421381633935594e-02
-8.475197794316570443e-02
-8.294241857178162591e-02
-8.110803544227124240e-02
-7.925130211861641794e-02
-7.737466227976652622e-02
-7.548052560912389686e-02
-7.357126341051954677e-02
-7.164920401282365292e-02
-6.971662782841824002e-02
-6.777576232424553648e-02
-6.582877674137428692e-02
-6.387777688078763449e-02
-6.192479980340664242e-02
-5.997180868034597545e-02
-5.802068777136462630e-02
-5.607323768657780649e-02
-5.413117101600070646e-02
-5.219610842330130174e-02
-5.026957523104542969e-02
-4.835299862221659889e-02
-4.644770548475019023e-02
-4.455492102023762835e-02
-4.267576818626410418e-02
-4.081126791497016737e-02
-3.896234021356926452e-02
-3.712980610638694917e-02
-3.531439052964824993e-02
-3.351672603819502716e-02
-3.173735737328908790e-02
-2.997674681075907649e-02
-2.823528025984450504e-02
-2.651327403651318124e-02
-2.481098229386884471e-02
-2.312860491298559737e-02
-2.146629581588337457e-02
-1.982417161649679613e-02
-1.820232032479548664e-02
-1.660081028675729209e-02
-1.501969901518413787e-02
-1.345904179395650269e-02
-1.191890008303352413e-02
-1.039934945005063435e-02
-8.900487007497648664e-03
-7.422438257171049165e-03
-5.965363167321329103e-03
-4.529461484404561852e-03
-3.114977150593594129e-03
-1.722201871325287773e-03
-3.514776044981119361e-04
9.968019415405953397e-04
2.322190792761902583e-03
3.624191159243208161e-03
4.902254964622426193e-03
6.155786310095621820e-03
7.384144844075088074e-03
8.586650020664190336e-03
9.762586139775221092e-03
1.091120800074503981e-02
1.203174723633443355e-02
1.312341919680572871e-02
1.418543013062589959e-02
1.521698468597247611e-02
1.621729360498649908e-02
1.718558147033725711e-02
1.812109432931256411e-02
1.902310721467910526e-02
1.989093134393474932e-02
2.072392102022116780e-02
2.152147999809097059e-02
2.228306731779019015e-02
2.300820257599505217e-02
2.369647048672227085e-02
2.434752473230502104e-02
2.496109114745765148e-02
2.553697009796361897e-02
2.607503807266875473e-02
2.657524859109644880e-02
2.703763238485212481e-02
2.746229689819098055e-02
2.784942511035643289e-02
2.819927383733069129e-02
2.851217145710502679e-02
2.878851523369487311e-02
2.902876826662634940e-02
2.923345611049303280e-02
2.940316325111840337e-02
2.953852940537630284e-02
2.964024576959478977e-02
2.970905129281648308e-02
2.974572900305589435e-02
2.975110252374360206e-02
2.972603279071877116e-02
2.967141496094910166e-02
2.958817564777711101e-02
2.947727038981138789e-02
2.933968145446368136e-02
2.917641596339094756e-02
2.898850424839928552e-02
2.877699851479871562e-02
2.854297172016785622e-02
2.828751662303841119e-02
2.801174499180970195e-02
2.771678683028953871e-02
2.740378968311118352e-02
2.707391784982075139e-02
2.672835151355949443e-02
2.636828562407209087e-02
2.599492856871711555e-02
2.560950052174185490e-02
2.521323138773241476e-02
2.480735831826089838e-02
2.439312281272575100e-02
2.397176720498383345e-02
2.354453072153065221e-02
2.311264499420840474e-02
2.267732903384814258e-02
2.223978370126812598e-02
2.180118573723919748e-02
2.136268136227885070e-02
2.092537951540956662e-02
2.049034482199941359e-02
2.005859036988017624e-02
1.963107040694065178e-02
1.920867308170740723e-02
1.879221325573703430e-02
1.838242563306283911e-02
1.797995823440458329e-02
1.758536643656124707e-02
1.719910762898509138e-02
1.682153663788430592e-02
1.645290199708998938e-02
1.609334326826526718e-02
1.574288943263183610e-02
1.540145845943268615e-02
1.506885807556481924e-02
1.474478789770072851e-02
1.442884288185874130e-02
1.412051809135971003e-02
1.381921482255478797e-02
1.352424806497764045e-02
1.323485523990866435e-02
1.295020610783339209e-02
1.266941379290787914e-02
1.239154682783668963e-02
1.211564199633971030e-02
1.184071795362649435e-02
1.156578943268254250e-02
1.128988170300550438e-02
1.101204531850283504e-02
1.073137081494626548e-02
1.044700321173936894e-02
1.015815606967856825e-02
9.864124893823905671e-03
9.564299761181413104e-03
9.258176944996494157e-03
8.945369231710015648e-03
8.625614955067474957e-03
8.298785464939303566e-03
7.964890968960490480e-03
7.624084533571331805e-03
7.276664232513007508e-03
6.923073376638290942e-03
6.563898728108159136e-03
6.199866809541440885e-03
5.831838156389098499e-03
5.460799647155531109e-03
5.087855072262123003e-03
4.714213834897762988e-03
4.341178119860079551e-03
3.970128513604484315e-03
3.602508362195038644e-03
3.239807009722130583e-03
2.883542183667234856e-03
2.535241682253812617e-03
2.196424637403468320e-03
1.868582626034017086e-03
1.553160792666941894e-03
1.251539335803380842e-03
9.650156086905576497e-04
6.947870054775972040e-04
4.419348111951257752e-04
2.074095059091614660e-04
-7.982555748676869548e-06
-2.035907759669710107e-04
-3.789301374243280807e-04
-5.336890321561331765e-04
-6.677350116637528928e-04
-7.811183725626273666e-04
-8.740735199848161151e-04
-9.470181313395066450e-04
-1.000550031711983957e-03
-1.035441898112390889e-03
-1.052633824462084191e-03
-1.053223826111741781e-03
-1.038456464930354300e-03
-1.009709681637848506e-03
-9.684801095952709797e-04
-9.163669021778839954e-04
-8.550543974324270862e-04
-7.862938203290927150e-04
-7.118842874539350885e-04
-6.336533270960951906e-04
-5.534372153973246989e-04
-4.730612285886408438e-04
-3.943202696321719829e-04
-3.189599776649293264e-04
-2.486585914767883002e-04
-1.850097991186539024e-04
-1.295067993173962782e-04
-8.352768704644470809e-05
-4.832241169251630267e-05
-2.500144049220744425e-05
-1.452620305212621934e-05
-1.770146034753943812e-05
-3.516958686359569183e-05
-6.740691719125618364e-05
-1.147221630794386559e-04
-1.772568035455320727e-04
-2.549874014316303177e-04
-3.477298877676901078e-04
-4.551456332235663624e-04
-5.767491973652472907e-04
-7.119177489357283832e-04
-8.599017981428279172e-04
-1.019837246354180762e-03
-1.190758473317823397e-03
-1.371612285055768621e-03
-1.561272601268204330e-03
-1.758555529690779056e-03
-1.962234812116585552e-03
-2.171057272881003058e-03
-2.383758132075507359e-03
-2.599076028568330938e-03
-2.815767554866313322e-03
-3.032621042701875557e-03
-3.248469555729235556e-03
-3.462202923483117829e-03
-3.672778628246145885e-03
-3.879231533816610185e-03
-4.080682270669556619e-03
-4.276344257258579522e-03
-4.465529382735087746e-03
-4.647652179009143826e-03
-4.822232580916040179e-03
-4.988897294683078236e-03
-5.147379697848325671e-03
-5.297518451288955182e-03
-5.439254841401149412e-03
-5.572628898604419651e-03
-5.697774397685576378e-03
-5.814912886163958392e-03
-5.924346840762258898e-03
-6.026452046931861893e-03
-6.121669322667389924e-03
-6.210495725360689820e-03
-6.293475409801131161e-03
-6.371190269078417200e-03
-6.444250408243071618e-03
-6.513284609474151096e-03
-6.578930961923835051e-03
-6.641827650825726966e-03
-6.702604184934641413e-03
-6.761872942760017123e-03
-6.820221313051088967e-03
-6.878204372874653638e-03
-6.936338150148132868e-03
-6.995093633204680500e-03
-7.054891501202808189e-03
-7.116097579988208549e-03
-7.179019008138140361e-03
-7.243901245906333129e-03
-7.310925786088841825e-03
-7.380208645334981714e-03
-7.451799560610535694e-03
-7.525681897161565735e-03
-7.601773178065427024e-03
-7.679926230253418008e-03
-7.759930924284534279e-03
-7.841516421398943282e-03
-7.924353883051035372e-03
-8.008059645203170068e-03
-8.092198746430445330e-03
-8.176288818403452952e-03
-8.259804202878357274e-03
-8.342180337884516628e-03
-8.422818352659558125e-03
-8.501089776671666084e-03
-8.576341438197552375e-03
-8.647900398091379337e-03
-8.715078998304450625e-03
-8.777179899546129829e-03
-8.833501201889389434e-03
-8.883341485240297056e-03
-8.926004859974983122e-03
-8.960806006233936957e-03
-8.987075164146351644e-03
-9.004163065529143667e-03
-9.011445794653065444e-03
-9.008329512098265518e-03
-8.994255174910734812e-03
-8.968703089539059939e-03
-8.931197348473514028e-03
-8.881310129993096047e-03
-8.818665833621850206e-03
-8.742945039944778618e-03
-8.653888236707365719e-03
-8.551299347394252306e-03
-8.435048933670818289e-03
-8.305077156007289671e-03
-8.161396366386993242e-03
-8.004093354060432333e-03
-7.833331216087507931e-03
-7.649350782980682967e-03
-7.452471501793502158e-03
-7.243091869598777648e-03
-7.021689313257728146e-03
-6.788819511465104400e-03
-6.545115119392065466e-03
-6.291283837868254757e-03
-6.028105932051343839e-03
-5.756431035610442767e-03
-5.477174346104553455e-03
-5.191312114359374411e-03
-4.899876510569649984e-03
-4.603949901898352418e-03
-4.304658532608753377e-03
-4.003165590301473870e-03
-3.700663808365737932e-03
-3.398367566344244733e-03
-3.097504522951237058e-03
-2.799306977333696281e-03
-2.505002918392719175e-03
-2.215806887313266551e-03
-1.932910650698687564e-03
-1.657473933394701827e-03
-1.390615110502362896e-03
-1.133402120384616489e-03
-8.868436058791501339e-04
-6.518803269775503683e-04
-4.293770533584680810e-04
-2.201149659938149005e-04
-2.478468650511111179e-05
1.560200592000480894e-04
3.218080331891670512e-04
4.721951970754512964e-04
6.069086114832353274e-04
7.257893217564297811e-04
8.287943182836224332e-04
9.159975031753405782e-04
9.875895905067583799e-04
1.043877019580808242e-03
1.085279796228230892e-03
1.112328331437958126e-03
1.125659276011023707e-03
1.126010457514852381e-03
1.114214845940793633e-03
1.091193654191434381e-03
1.057948663143258800e-03
1.015553874496300012e-03
9.651464488099151815e-04
9.079171394281930051e-04
8.451003159546242221e-04
7.779635446702059696e-04
7.077969270400676603e-04
6.359022739391366041e-04
5.635822938985234369e-04
4.921297416220165146e-04
4.228167459514573000e-04
3.568844099319122749e-04
2.955326605620283505e-04
2.399105822312817945e-04
1.911072747042275304e-04
1.501432716232558044e-04
1.179626103459570363e-04
9.542560438808695659e-05
8.330241047516452905e-05
8.226743108976077522e-05
9.289454606145978457e-05
1.156532176669338195e-04
1.509055443805092914e-04
1.989042249885484811e-04
2.597913999022848368e-04
3.335984800019733357e-04
4.202468522148071202e-04
5.195494488917356407e-04
6.312132355811327696e-04
7.548424601772599392e-04
8.899427845603188501e-04
1.035926104383584189e-03
1.192116096744970117e-03
1.357754424104686778e-03
1.532007495959846269e-03
1.713973791899727579e-03
1.902691668719162918e-03
2.097147588985374088e-03
2.296284645865461806e-03
2.499011449437797943e-03
2.704211138259523823e-03
2.910750533696567551e-03
3.117489412797407131e-03
3.323289798345936338e-03
3.527025110269926041e-03
3.727589230116634851e-03
3.923905349543362238e-03
4.114934557585254657e-03
4.299684142900175865e-03
4.477215404765805609e-03
4.646651071280290604e-03
4.807182204242061753e-03
4.958074541327425408e-03
5.098674200498045338e-03
5.228412676419894045e-03
5.346811185405053214e-03
5.453484243557172456e-03
5.548142433903910029e-03
5.630594347855728647e-03
5.700747700336588134e-03
5.758609543497444569e-03
5.804285629464720105e-03
5.837978849208189623e-03
5.859986831408733714e-03
5.870698665505697141e-03
5.870590718902093420e-03
5.860221665067642978e-03
5.840226681868860431e-03
5.811310914052032067e-03
5.774242236748441774e-03
5.729843313732527026e-03
5.678983119939005203e-03
5.622567946735382120e-03
5.561532013740043065e-03
5.496827681128221670e-03
5.429415433600655316e-03
5.360253741213578081e-03
5.290288834331510759e-03
5.220444620388383326e-03
5.151612706941996120e-03
5.084642719787749697e-03
5.020333002666632627e-03
4.959421828960613142e-03
4.902579188297791213e-03
4.850399321807810464e-03
4.803393988112051802e-03
4.761986655936783358e-03
4.726507598116293923e-03
4.697190053490282041e-03
4.674167405327914367e-03
4.657471602219268210e-03
4.647032621400020574e-03
4.642679111501708290e-03
4.644140263356011204e-03
4.651048830332978230e-03
4.662945330191042848e-03
4.679283286121975298e-03
4.699435558155006659e-03
4.722701680379045794e-03
4.748316088051512951e-03
4.775457194970142774e-03
4.803257151175644064e-03
4.830812202809480448e-03
4.857193633070015781e-03
4.881458925728729761e-03
4.902663258984097869e-03
4.919871023340332411e-03
4.932167328866379763e-03
4.938669310278278463e-03
4.938537102688544955e-03
4.930984334291607651e-03
4.915288097124929922e-03
4.890798166726966455e-03
4.856945414568212757e-03
4.813249297802651809e-03
4.759324317462035499e-03
4.694885377029668107e-03
4.619752014323623424e-03
4.533851442290214202e-03
4.437220304671054411e-03
4.330005276543932337e-03
4.212462314122026284e-03
4.084954715171509702e-03
3.947949923658368616e-03
3.802015250394807488e-03
3.647812400664545221e-03
3.486091026562001920e-03
3.317681307846228386e-03
3.143485689447227723e-03
2.964469844882840731e-03
2.781653021176470984e-03
2.596097895923788184e-03
2.408900000043702732e-03
2.221176916680269071e-03
2.034057271762328926e-03
1.848669800679217639e-03
1.666132474787005574e-03
1.487541791003791974e-03
1.313962530966123832e-03
1.146417930270847386e-03
9.858803841970918518e-04
8.332627840142841366e-04
6.894105756724093741e-04
5.550945939575429883e-04
4.310047391051339974e-04
3.177445567303379499e-04
2.158267334994127553e-04
1.256694889925878960e-04
4.759399845112452987e-05
-1.817736161889778559e-05
-7.152172344537781757e-05
-1.124156425901090534e-04
-1.409341153239667690e-04
-1.572487561637057841e-04
-1.616252566586314258e-04
-1.544200525698330646e-04
-1.360763730542404425e-04
-1.071197073624374118e-04
-6.815274672253659495e-05
-1.984987092320193347e-05
3.704873671070763107e-05
1.017432716608513576e-04
1.733808347965124310e-04
2.510620353536798660e-04
3.338477284953553659e-04
4.207658788214158952e-04
5.108183979552594718e-04
6.029880419311388394e-04
6.962451104645379744e-04
7.895540828600037262e-04
8.818801624514704951e-04
9.721956719914445029e-04
1.059486211665605073e-03
1.142756589783060911e-03
1.221036639855445100e-03
1.293386790864824686e-03
1.358903394854149875e-03
1.416723771952390840e-03
1.466031094689491075e-03
1.506059025452127949e-03
1.536096110695737331e-03
1.555489935130929466e-03
1.563650991984256652e-03
1.560056366717675960e-03
1.544253097386401015e-03
1.515861228460486715e-03
1.474576615282551049e-03
1.420173468862677034e-03
1.352506584388647780e-03
1.271513030827631620e-03
1.177213663434328829e-03
1.069714156507465663e-03
9.492056221694709483e-04
8.159647077966645633e-04
6.703533090324599380e-04
5.128176570349069971e-04
3.438869026069814056e-04
1.641711834076971894e-04
-2.564099418568648907e-05
-2.247859290340330771e-04
-4.324285079315495772e-04
-6.476666496721424473e-04
-8.695363957959796131e-04
-1.097017508806817469e-03
-1.329039793021379859e-03
-1.564489915125558952e-03
-1.802218803522790151e-03
-2.041049483432909664e-03
-2.279785445501042191e-03
-2.517219375248717743e-03
-2.752142137127776972e-03
-2.983352035139855314e-03
-3.209664277552678850e-03
-3.429920434104028696e-03
-3.642997927108905954e-03
-3.847819313742550755e-03
-4.043361378502226613e-03
-4.228663928417958524e-03
-4.402838077114144127e-03
-4.565073997182277077e-03
-4.714648069217643005e-03
-4.850929235554345478e-03
-4.973384620367671261e-03
-5.081584112787944883e-03
-5.175204050308353058e-03
-5.254029839145243214e-03
-5.317957478340518129e-03
-5.366993956429376260e-03
-5.401256503655621662e-03
-5.420970680413941117e-03
-5.426467302964583898e-03
-5.418178234205308849e-03
-5.396631103606970049e-03
-5.362442990433203584e-03
-5.316313113165649189e-03
-5.259014642279733094e-03
-5.191385681313432504e-03
-5.114319585395218394e-03
-5.028754720176879800e-03
-4.935663766011725261e-03
-4.836042677220445986e-03
-4.730899575122431665e-03
-4.621243527502346196e-03
-4.508073504429739760e-03
-4.392367522608033557e-03
-4.275072259407694530e-03
-4.157093256138991687e-03
-4.039285741344723554e-03
-3.922446221150878432e-03
-3.807305106870679818e-03
-3.694520275228665995e-03
-3.584671704204777602e-03
-3.478257380465005644e-03
-3.375690299254903177e-03
-3.277296859931441014e-03
-3.183316388868475885e-03
-3.093902023652722946e-03
-3.009122823207744084e-03
-2.928967055081721071e-03
-2.853346691744191102e-03
-2.782102951642009825e-03
-2.715012745992467173e-03
-2.651796057343681987e-03
-2.592124057526077555e-03
-2.535627843296125571e-03
-2.481907638115053195e-03
-2.430542281071251288e-03
-2.381098862818423808e-03
-2.333142407425912741e-03
-2.286245404705801541e-03
-2.239996917813615648e-03
-2.194011334904039882e-03
-2.147936475894486608e-03
-2.101460923745036933e-03
-2.054320508711203908e-03
-2.006303810069593949e-03
-1.957256544762709435e-03
-1.907084806079298658e-03
-1.855757119595605534e-03
-1.803305232988845286e-03
-1.749823689357468421e-03
-1.695468089867114073e-03
-1.640452103982036882e-03
-1.585043353812739262e-03
-1.529558154484183131e-03
-1.474355189951539417e-03
-1.419828318816671996e-03
-1.366398499622469920e-03
-1.314505106262613826e-03
-1.264596723437982255e-03
-1.217121557380160084e-03
-1.172517616734025919e-03
-1.131202974156287960e-03
-1.093566118156505873e-03
-1.059956621883634568e-03
-1.030676298598293562e-03
-1.005971116520418783e-03
-9.860238202765651393e-04
-9.709475327648977357e-04
-9.607805156502314441e-04
-9.554820960062840969e-04
-9.549298677744532922e-04
-9.589182563489747181e-04
-9.671585731517594233e-04
-9.792804498496418195e-04
-9.948347664946229768e-04
-1.013297995171637614e-03
-1.034077934974799622e-03
-1.056520740519134539e-03
-1.079919223687377796e-03
-1.103522229469565755e-03
-1.126545000404829662e-03
-1.148180405127506576e-03
-1.167610774226673790e-03
-1.184020279129320390e-03
-1.196607621343807057e-03
-1.204598682629910581e-03
-1.207259183753762446e-03
-1.203906958264076626e-03
-1.193923716886726577e-03
-1.176766135883005032e-03
-1.151975991564475020e-03
-1.119189186089563498e-03
-1.078143547059536933e-03
-1.028685282303504244e-03
-9.707738080022604472e-04
-9.044850706172004665e-04
-8.300130796657954413e-04
-7.476696910324591872e-04
-6.578826843870158505e-04
-5.611920241277496739e-04
-4.582443784955553853e-04
-3.497859455733751599e-04
-2.366536795259031834e-04
-1.197651039063357139e-04
-1.067394390914148709e-07
1.212786363704180446e-04
2.433057259185833845e-04
3.648612584251031098e-04
4.848191269249474888e-04
6.020558455828283612e-04
7.154661736382152398e-04
8.239785782654523993e-04
9.265703783081193556e-04
1.022282322336251232e-03
1.110232307297429099e-03
1.189628089960446727e-03
1.259778785756946514e-03
1.320104899665126364e-03
1.370146760325233149e-03
1.409571252977147348e-03
1.438176729756012991e-03
1.455895915809844862e-03
1.462796876937030952e-03
1.459081981658654631e-03
1.445084750952825873e-03
1.421264807850109498e-03
1.388200883480000336e-03
1.346581980282050102e-03
1.297196892825357075e-03
1.240922106819754853e-03
1.178708417841444703e-03
1.111566369737843670e-03
1.040550707102908022e-03
9.667441642077192121e-04
8.912407885329670697e-04
8.151290159443142771e-04
7.394748824152585403e-04
6.653055247612894765e-04
5.935932404954381326e-04
5.252404107626489982e-04
4.610654729638333314e-04
4.017901758084975483e-04
3.480282631202157831e-04
3.002759882942748347e-04
2.589042886874936287e-04
2.241529919055039997e-04
1.961270326754718264e-04
1.747947865760130707e-04
1.599885649014242902e-04
1.514071960292007614e-04
1.486207693761316484e-04
1.510773435882678940e-04
1.581116561887256210e-04
1.689555810039935439e-04
1.827502548296776742e-04
1.985596372818432709e-04
2.153852992365155427e-04
2.321823139208571848e-04
2.478758262450534355e-04
2.613781356884663123e-04
2.716061079562757290e-04
2.774985097387933216e-04
2.780331044984936926e-04
2.722431101765727555e-04
2.592329148109963517e-04
2.381927267855841882e-04
2.084119431333333471e-04
1.692910516034984816e-04
1.203519048014596945e-04
6.124607668573812534e-05
-8.238668242473411998e-06
-8.817398862010491307e-05
-1.784886494530116903e-04
-2.789683550355304782e-04
-3.892577209636996602e-04
-5.088643546638070428e-04
-6.371650375477071063e-04
-7.734137596671486611e-04
-9.167515848097186008e-04
-1.066218217187084143e-03
-1.220764972002011482e-03
-1.379269052165354092e-03
-1.540548840207450147e-03
-1.703380056299646800e-03
-1.866512385501058885e-03
-2.028686495288217588e-03
-2.188651085655677220e-03
-2.345179666849157678e-03
-2.497086916403940936e-03
-2.643244288293471449e-03
-2.782594703459461034e-03
-2.914166127696960797e-03
-3.037083774973913484e-03
-3.150580684959485879e-03
-3.254006765458706662e-03
-3.346836030062130471e-03
-3.428671916877026882e-03
-3.499250663741472565e-03
-3.558442753522390520e-03
-3.606252400633069150e-03
-3.642815100326784409e-03
-3.668393314890219196e-03
-3.683370370380284215e-03
-3.688242710460909284e-03
-3.683610646656848217e-03
-3.670167748260863214e-03
-3.648689098087327855e-03
-3.620018555697974202e-03
-3.585055282035835844e-03
-3.544739714893357062e-03
-3.500039265595237137e-03
-3.451933977085882600e-03
-3.401402287120215608e-03
-3.349407142781310638e-03
-3.296882677625291927e-03
-3.244721678187615765e-03
-3.193764107116119338e-03
-3.144786563118644272e-03
-3.098493107561513422e-03
-3.055507434811786244e-03
-3.016366498421721790e-03
-2.981515671291920608e-03
-2.951305473646997912e-03
-2.925989867836427220e-03
-2.905726112722033933e-03
-2.890576184905762746e-03
-2.880509612206997618e-03
-2.875407752620709207e-03
-2.875069306560128039e-03
-2.879216917185852855e-03
-2.887504759481072589e-03
-2.899527058123632043e-03
-2.914827197541778551e-03
-2.932907338529171497e-03
-2.953238381367772822e-03
-2.975269933341267992e-03
-2.998440327509766488e-03
-3.022186322455083958e-03
-3.045952464731276673e-03
-3.069199893279829332e-03
-3.091414332430581120e-03
-3.112113370306775380e-03
-3.130852757404793772e-03
-3.147231643045457061e-03
-3.160896779559014408e-03
-3.171545526777442420e-03
-3.178927677665942687e-03
-3.182846155755002671e-03
-3.183156565726803864e-03
-3.179765579825868070e-03
-3.172628323038998149e-03
-3.161744764902255003e-03
-3.147155284663102123e-03
-3.128935478456987360e-03
-3.107190303227470168e-03
-3.082047803655415304e-03
-3.053652457256305318e-03
-3.022158300611160579e-03
-2.987722101498922495e-03
-2.950496585703684272e-03
-2.910623943200554755e-03
-2.868229777380184014e-03
-2.823417575556769719e-03
-2.776263832963320449e-03
-2.726813989111994373e-03
-2.675079196786097312e-03
-2.621034070476166520e-03
-2.564615473749922662e-03
-2.505722293568743691e-03
-2.444216319694557209e-03
-2.379924205026540725e-03
-2.312640463236165060e-03
-2.242131490029888267e-03
-2.168140529896011876e-03
-2.090393477885287184e-03
-2.008605536746280347e-03
-1.922488472891737028e-03
-1.831758457783552339e-03
-1.736144328225043944e-03
-1.635396100155713265e-03
-1.529293642784530826e-03
-1.417655292677974391e-03
-1.300346372159139844e-03
-1.177287288691699621e-03
-1.048461183778820168e-03
-9.139209928638156091e-04
-7.737957351412075389e-04
-6.282959042045671919e-04
-4.777179518987750883e-04
-3.224476695813097344e-04
-1.629623804829154134e-04
1.680060394836976466e-07
1.662812436820174653e-04
3.346242947682371086e-04
5.043561743296026949e-04
6.745520007493217493e-04
8.442083106144558603e-04
1.012249624688524871e-03
1.177536081767761042e-03
1.338872096403836151e-03
1.495016017850498260e-03
1.644690616100540027e-03
1.786594240541531861e-03
1.919412601700256791e-03
2.041830990300925585e-03
2.152546743629209832e-03
2.250281890162333844e-03
2.333795808111886055e-03
2.401897747580470244e-03
2.453459033597385573e-03
2.487424827685756970e-03
2.502825262228640466e-03
2.498786015283366822e-03
2.474537984540427660e-03
2.429426056818053889e-03
2.362916915155095429e-03
2.274605694631808093e-03
2.164221555206875727e-03
2.031632013928983630e-03
1.876846081119411692e-03
1.700016058924962072e-03
1.501438181772803745e-03
1.281551940871429075e-03
1.040938213555210124e-03
7.803162096169039951e-04
5.005392859285896561e-04
2.025895504806866497e-04
-1.124284449625632704e-04
-4.432949917022747173e-04
-7.886833670008068986e-04
-1.147168736858599587e-03
-1.517237854515879336e-03
-1.897299169423563364e-03
-2.285693532640217622e-03
-2.680705285276997144e-03
-3.080573638731185643e-03
-3.483504276420162048e-03
-3.887680998533875505e-03
-4.291277377814203126e-03
-4.692468460898805219e-03
-5.089442169958601457e-03
-5.480410578386366374e-03
-5.863620872686059644e-03
-6.237365902384051954e-03
-6.599994410393189570e-03
-6.949920756876453061e-03
-7.285634135590051373e-03
-7.605707241049506490e-03
-7.908804399307377275e-03
-8.193689088560487596e-03
-8.459230822946197173e-03
-8.704411423499487654e-03
-8.928330663190507666e-03
-9.130211272590201335e-03
-9.309403259872492398e-03
-9.465387593941141514e-03
-9.597779276788134806e-03
-9.706329716262840357e-03
-9.790928534404837180e-03
-9.851604682188508724e-03
-9.888526961302964227e-03
-9.902003938737930638e-03
-9.892483216391231848e-03
-9.860550174038947360e-03
-9.806926102431499578e-03
-9.732465709622288921e-03
-9.638154079261494409e-03
-9.525103122495102645e-03
-9.394547414144839570e-03
-9.247839466885815485e-03
-9.086444480739063953e-03
-8.911934555922866597e-03
-8.725982367980502155e-03
-8.530354351575697783e-03
-8.326903382640145346e-03
-8.117560903319765570e-03
-7.904328589318210946e-03
-7.689269526719088796e-03
-7.474498989605432749e-03
-7.262174691657299723e-03
-7.054486611448610930e-03
-6.853646534778968201e-03
-6.661877079831967502e-03
-6.481400421294769044e-03
-6.314426708842601522e-03
-6.163142218088429186e-03
-6.029697239780155461e-03
-5.916193735304728710e-03
-5.824672852269612879e-03
-5.757102320625472405e-03
-5.715363804141214768e-03
-5.701240225196550424e-03
-5.716403201602813546e-03
-5.762400558276509210e-03
-5.840644020924381889e-03
-5.952397204582822801e-03
-6.098763914149237311e-03
-6.280676852610782984e-03
-6.498886854442414117e-03
-6.753952662084714877e-03
-7.046231437028931295e-03
-7.375869986135156348e-03
-7.742796832866283459e-03
-8.146715221997682943e-03
-8.587097192093707393e-03
-9.063178751337382794e-03
-9.573956260370398638e-03
-1.011818413927387424e-02
-1.069437395148239468e-02
-1.130079499840444014e-02
-1.193547641895273750e-02
-1.259621092675198943e-02
-1.328056023296771485e-02
-1.398586221552036712e-02
-1.470923985034953453e-02
-1.544761195761610965e-02
-1.619770579002087485e-02
-1.695607144608404782e-02
-1.771909812918897806e-02
-1.848303218684291607e-02
-1.924399694968218291e-02
-1.999801418103226008e-02
-2.074102725152994139e-02
-2.146892571757654661e-02
-2.217757129986165296e-02
-2.286282514583090619e-02
-2.352057616684526120e-02
-2.414677020740644761e-02
-2.473743991154758390e-02
-2.528873508358553401e-02
-2.579695322661876983e-02
-2.625857000526246599e-02
-2.667026941789237687e-02
-2.702897339305340707e-02
-2.733187043176169007e-02
-2.757644301003632156e-02
-2.776049350072029576e-02
-2.788216824448206538e-02
-2.793997944267138239e-02
-2.793282462533018193e-02
-2.786000335917602350e-02
-2.772123093484292825e-02
-2.751664874829220717e-02
-2.724683117712117797e-02
-2.691278861782846199e-02
-2.651596665800941624e-02
-2.605824117812312324e-02
-2.554190915172170270e-02
-2.496967524766878499e-02
-2.434463405523615981e-02
-2.367024802860791949e-02
-2.295032118253773762e-02
-2.218896860684280853e-02
-2.139058204687951242e-02
-2.055979172491109383e-02
-1.970142459032776100e-02
-1.882045943294501436e-02
-1.792197909956131166e-02
-1.701112034289106734e-02
-1.609302162947981799e-02
-1.517276951771100515e-02
-1.425534398538354577e-02
-1.334556337391384385e-02
-1.244802952537995763e-02
-1.156707368177336409e-02
-1.070670374877010465e-02
-9.870553589754695392e-03
-9.061834910052211922e-03
-8.283292412729391721e-03
-7.537162753332359195e-03
-6.825137890282346326e-03
-6.148333428827197460e-03
-5.507262294837581180e-03
-4.901814445799276831e-03
-4.331242720989804222e-03
-3.794155399400602445e-03
-3.288515620437429399e-03
-2.811647868532585279e-03
-2.360251692184963269e-03
-1.930422654372027699e-03
-1.517680435555510046e-03
-1.117004071756420034e-03
-7.228739522113559503e-04
-3.293203972339103953e-04
7.002170326911618650e-05
4.818525802415736547e-04
9.131422778866246604e-04
1.371060802773930564e-03
1.862904551927812994e-03
2.396019894688280593e-03
2.977724491423193974e-03
3.615227516278246220e-03
4.315549440224461172e-03
5.085442469034076249e-03
5.931312504899410691e-03
6.859143634482030120e-03
7.874426077539822127e-03
8.982088586460964044e-03
1.018643602825180725e-02
1.149109317677884587e-02
1.289895535517144101e-02
1.441214673039024549e-02
1.603198689817271136e-02
1.775896625334051279e-02
1.959273065126033650e-02
2.153207561740985709e-02
2.357495037401674889e-02
2.571847185867608826e-02
2.795894852005897935e-02
3.029191390552421481e-02
3.271216965047277214e-02
3.521383759614710174e-02
3.779042032649987393e-02
4.043486961776072974e-02
4.313966194446673674e-02
4.589688019037634070e-02
4.869830066114376466e-02
5.153548423848307997e-02
5.439987057966621381e-02
5.728287428033868034e-02
6.017598167740405984e-02
6.307084712230513757e-02
6.595938736523367096e-02
6.883387286402044281e-02
7.168701491108780965e-02
7.451204710741009263e-02
7.730280038519633801e-02
8.005377035850033685e-02
8.276017615265564287e-02
8.541800981592334585e-02
8.802407566175353415e-02
9.057601889894316416e-02
9.307234317247710387e-02
9.551241677882461867e-02
9.789646739061232117e-02
1.002255653266563018e-01
1.025015956380243703e-01
1.047272193074223617e-01
1.069058242755407256e-01
1.090414668314478169e-01
1.111388042277925425e-01
1.132030195590439103e-01
1.152397400130057703e-01
1.172549496855179590e-01
1.192548981370600142e-01
1.212460062304984154e-01
1.232347705382595415e-01
1.252276678973543445e-01
1.272310613546274727e-01
1.292511090712541166e-01
1.312936775010090373e-01
1.333642601953675400e-01
1.354679034240875435e-01
1.376091397094972857e-01
1.397919303623497977e-01
1.420196177313868824e-01
1.442948879472485124e-01
1.466197445529842935e-01
1.489954934261394914e-01
1.514227391789928490e-01
1.539013927742141352e-01
1.564306902369471119e-01
1.590092219908431359e-01
1.616349721300904818e-01
1.643053668049752336e-01
1.670173308047687155e-01
1.697673511395279833e-01
1.725515463393703652e-01
1.753657401862428467e-01
1.782055383611664545e-01
1.810664065574594805e-01
1.839437485355219781e-01
1.868329826298433527e-01
1.897296151343538240e-01
1.926293093072738993e-01
1.955279485082093982e-01
1.984216924038537389e-01
2.013070251310832559e-01
2.041807945912226530e-01
2.070402421999077980e-01
2.098830225818337225e-01
2.127072130114037452e-01
2.155113126648298127e-01
2.182942318100893064e-01
2.210552715540048396e-01
2.237940947950959603e-01
2.265106893438926239e-01
2.292053244323231931e-01
2.318785019934266889e-01
2.345309041841054931e-01
2.371633389228853250e-01
2.397766851015017131e-01
2.423718395084051569e-01
2.449496671393648628e-01
2.475109569531799836e-01
2.500563847884688662e-01
2.525864851307907388e-01
2.551016333546500814e-01
2.576020397562220898e-01
2.600877565004749981e-01
2.625586983114130968e-01
2.650146774349505518e-01
2.674554530712590084e-01
2.698807950311587489e-01
2.722905610091514439e-01
2.746847864795093352e-01
2.770637856803685461e-01
2.794282619514029120e-01
2.817794250727143623e-01
2.841191129386640424e-01
2.864499145423088367e-01
2.887752909452312444e-01
2.910996904652849993e-01
2.934286543199995934e-01
2.957689085912367788e-01
2.981284383549963057e-01
3.005165398582646530e-01
3.029438465215687493e-01
3.054223247022437304e-01
3.079652355307365696e-01
3.105870592349683768e-01
3.133033789004290859e-01
3.161307210027913817e-01
3.190863506409893913e-01
3.221880200992295329e-01
3.254536698719218690e-01
3.289010823685152851e-01
3.325474891248171305e-01
3.364091332140969337e-01
3.405007896665637190e-01
3.448352474276507595e-01
3.494227572877515731e-01
3.542704513852782955e-01
3.593817405886631788e-01
3.647556969407637628e-01
3.703864292364938970e-01
3.762624603663576872e-01
3.823661158524981341e-01
3.886729335553297804e-01
3.951511047332368354e-01
4.017609571717348782e-01
4.084544911534425116e-01
4.151749789913116162e-01
4.218566386218138842e-01
4.284243916398527419e-01
4.347937155408302390e-01
4.408705991475208585e-01
4.465516095334043367e-01
4.517240777518563566e-01
4.562664094364513589e-01
4.600485250812244575e-01
4.629324333711068440e-01
4.647729393394441910e-01
4.654184875644565844e-01
4.647121387979692431e-01
4.624926765636132586e-01
4.585958385615560018e-01
4.528556656729152419e-01
4.451059596804907148e-01
4.351818389051111402e-01
4.229213791324989424e-01
4.081673256306733166e-01
3.907688605589720310e-01
3.705834084896205693e-01
3.474784616179187879e-01
3.213334051652868006e-01
2.920413227080257967e-01
2.595107602751856035e-01
2.236674279628940443e-01
1.844558176818958672e-01
1.418407155531392350e-01
9.580858815671942919e-02
4.636882233550374682e-02
-6.445200597120020851e-03
-6.257521428752216286e-02
-1.219373768497197669e-01
-1.844217951913463271e-01
-2.498922768362756841e-01
-3.181863197480721550e-01
-3.891153482480472769e-01
-4.624652006101734880e-01
-5.379968711193486852e-01
-6.154475064450470878e-01
-6.945316536811251273e-01
-7.749427540685983606e-01
-8.563548737355806129e-01
-9.384246599444023840e-01
-1.020793508299704166e+00
-1.103089923914531312e+00
-1.184932056801708544e+00
-1.265930389649984056e+00
-1.345690553713722926e+00
-1.423816246975383892e+00
-1.499912226848064245e+00
-1.573587348517266671e+00
-1.644457619162460249e+00
-1.712149237378767230e+00
-1.776301587154871298e+00
-1.836570155633185264e+00
-1.892629344320660323e+00
-1.944175144477638062e+00
-1.990927648230996327e+00
-2.032633368829652287e+00
-2.069067345027541638e+00
-2.100035006928441472e+00
-2.125373782999672390e+00
-2.144954430694396397e+00
-2.158682076154026852e+00
-2.166496951408428462e+00
-2.168374820947593928e+00
-2.164327092819855469e+00
-2.154400612969944007e+00
-2.138677144905169580e+00
-2.117272540404292691e+00
-2.090335610312862524e+00
-2.058046707741602255e+00
-2.020616039181800438e+00
-1.978281722144581867e+00
-1.931307610364624505e+00
-1.879980910446912956e+00
-1.824609615849381417e+00
-1.765519786092996091e+00
-1.703052700377683859e+00
-1.637561916304885568e+00
-1.569410264953016165e+00
-1.498966813992600677e+00
-1.426603830771374204e+00
-1.352693776747517340e+00
-1.277606363956903301e+00
-1.201705703180287133e+00
-1.125347571929308010e+00
-1.048876828738777522e+00
-9.726249980336986178e-01
-8.969080475025354993e-01
-8.220243774794075975e-01
-7.482530388398778154e-01
-6.758521930833931712e-01
-6.050578252228027143e-01
-5.360827167358245271e-01
-4.691156828975677762e-01
-4.043210753933467183e-01
-3.418385480335031645e-01
-2.817830803000048734e-01
-2.242452504913314548e-01
-1.692917475840386710e-01
-1.169661080088972849e-01
-6.728966152904207465e-02
-2.026266801675568816e-02
2.413437473532275765e-02
6.593927361106255436e-02
1.052065558745336749e-01
1.420057815144472879e-01
1.764197764996104922e-01
2.085428111216824365e-01
2.384787478563901442e-01
2.663391825807843172e-01
2.922416022439566219e-01
3.163075812117255303e-01
3.386610370285109139e-01
3.594265651264079153e-01
3.787278698718087866e-01
3.966863077471808885e-01
4.134195561481879277e-01
4.290404191989282690e-01
4.436557797516647028e-01
4.573657040986923716e-01
4.702627038951061045e-01
4.824311571306623692e-01
4.939468878689986520e-01
5.048769022897845460e-01
5.152792763223185135e-01
5.252031881423547821e-01
5.346890872412947138e-01
5.437689898353570417e-01
5.524668892463373560e-01
5.607992685521134835e-01
5.687757018524554065e-01
5.763995297887759550e-01
5.836685944149961891e-01
5.905760183688626430e-01
5.971110133165534739e-01
6.032597026589673339e-01
6.090059442025104186e-01
6.143321390039341301e-01
6.192200135383573167e-01
6.236513631626181553e-01
6.276087463130132216e-01
6.310761199138584798e-01
6.340394079764817281e-01
6.364869968317459215e-01
6.384101519500336996e-01
6.398033528230807621e-01
6.406645440154480342e-01
6.409953018311413953e-01
6.408009176285419661e-01
6.400904002504212986e-01
6.388764012710543838e-01
6.371750678200988061e-01
6.350058290510103287e-01
6.323911230777466974e-01
6.293560720215183313e-01
6.259281133540506303e-01
6.221365962529836757e-01
6.180123519499141072e-01
6.135872470568983772e-01
6.088937289794787988e-01
6.039643722045585639e-01
5.988314338770389655e-01
5.935264266870777794e-01
5.880797164593950521e-01
5.825201510026384311e-01
5.768747261451563357e-01
5.711682938671219789e-01
5.654233165100395198e-01
5.596596701224969550e-01
5.538944988711035355e-01
5.481421216883261005e-01
5.424139910929016706e-01
5.367187031688802623e-01
5.310620569667493518e-01
5.254471606105520776e-01
5.198745805638458339e-01
5.143425300693574842e-01
5.088470918791166975e-01
5.033824701366523824e-01
4.979412657977417833e-01
4.925147698256404638e-01
4.870932680400688608e-01
4.816663517781162862e-01
4.762232283088586038e-01
4.707530253210269189e-01
4.652450839867489640e-01
4.596892356394839951e-01
4.540760573046268567e-01
4.483971021484511321e-01
4.426451012596290258e-01
4.368141339364601805e-01
4.308997643322990401e-01
4.248991429258237029e-01
4.188110721291424809e-01
4.126360358681762652e-01
4.063761936803165220e-01
4.000353406523864952e-01
3.936188350659167723e-01
3.871334959596050007e-01
3.805874737033170252e-01
3.739900967832152645e-01
3.673516984555226239e-01
3.606834272390819773e-01
3.539970453986650556e-01
3.473047195583747193e-01
3.406188077980575879e-01
3.339516474341664987e-01
3.273153475317368555e-01
3.207215900708896283e-01
3.141814434013081581e-01
3.077051911683106877e-01
3.013021797171054339e-01
2.949806863766600284e-01
2.887478106575971926e-01
2.826093898736286025e-01
2.765699402264099049e-01
2.706326238608959822e-01
2.647992418903534761e-01
2.590702528320212861e-01
2.534448155848106898e-01
2.479208554651825269e-01
2.424951516277185637e-01
2.371634435274894981e-01
2.319205540346406247e-01
2.267605265304190043e-01
2.216767729547548804e-01
2.166622297795114394e-01
2.117095188137698425e-01
2.068111095945761868e-01
2.019594803588035115e-01
1.971472745127795523e-01
1.923674498045567505e-01
1.876134175085887035e-01
1.828791692672977476e-01
1.781593895055035848e-01
1.734495516242391677e-01
1.687459965161649533e-01
1.640459924415193227e-01
1.593477754298372739e-01
1.546505700620067203e-01
1.499545906560121600e-01
1.452610232544460922e-01
1.405719892990768272e-01
1.358904920785944659e-01
1.312203473745750248e-01
1.265660999761342720e-01
1.219329280687867778e-01
1.173265374822195090e-01
1.127530480752599179e-01
1.082188745841392574e-01
1.037306044558403556e-01
9.929487489441003734e-02
9.491825142770675405e-02
9.060711039942206946e-02
8.636752749526957484e-02
8.220517420572300005e-02
7.812522399581998955e-02
7.413226981593344644e-02
7.023025413900728375e-02
6.642241263066361867e-02
6.271123219427522655e-02
5.909842383191487442e-02
5.558491051300363389e-02
5.217082986014111995e-02
4.885555131420568631e-02
4.563770715897413205e-02
4.251523650037729307e-02
3.948544090171592774e-02
3.654505057867308421e-02
3.369029953058078758e-02
3.091700801485968569e-02
2.822067070631616159e-02
2.559654862465679873e-02
2.303976310200334110e-02
2.054538997011562396e-02
1.810855218820527079e-02
1.572450913670360786e-02
1.338874107831568294e-02
1.109702720363094607e-02
8.845516046703657750e-03
6.630787042898994219e-03
4.449902401146501804e-03
2.300448352091347039e-03
1.805654139069404771e-04
-1.911032736929454750e-03
-3.975051853034645803e-03
-6.011620949129306037e-03
-8.020307222564268188e-03
-1.000014136837568124e-02
-1.194965261367042855e-02
-1.386691267096449263e-02
-1.574958738447534978e-02
-1.759499512472481597e-02
-1.940017064131158153e-02
-2.116193286615127359e-02
-2.287695560662143801e-02
-2.454183946322148133e-02
-2.615318374343516758e-02
-2.770765705917218463e-02
-2.920206516295539498e-02
-3.063341493856252054e-02
-3.199897346141423321e-02
-3.329632105124326336e-02
-3.452339751624104031e-02
-3.567854087768482230e-02
-3.676051805796882316e-02
-3.776854713805198605e-02
-3.870231085990848835e-02
-3.956196146664150287e-02
-4.034811692074825873e-02
-4.106184880920830949e-02
-4.170466231394655277e-02
-4.227846881010016711e-02
-4.278555172760226122e-02
-4.322852656088344014e-02
-4.361029580162916613e-02
-4.393399974145763970e-02
-4.420296422809446429e-02
-4.442064629253469205e-02
-4.459057871450791688e-02
-4.471631462800648021e-02
-4.480137307994932344e-02
-4.484918649596679463e-02
-4.486305104467132321e-02
-4.484608062054585426e-02
-4.480116526196738919e-02
-4.473093461812775035e-02
-4.463772692734582076e-02
-4.452356392102303773e-02
-4.439013200226979428e-02
-4.423876984886138813e-02
-4.407046248138708766e-02
-4.388584168488537940e-02
-4.368519256902755887e-02
-4.346846608526670069e-02
-4.323529705534814860e-02
-4.298502711076834099e-02
-4.271673214390875328e-02
-4.242925359587066542e-02
-4.212123281981904055e-02
-4.179114790612017266e-02
-4.143735218834450340e-02
-4.105811371071150379e-02
-4.065165489606383659e-02
-4.021619178375381715e-02
-3.974997198601991355e-02
-3.925131087723118112e-02
-3.871862527808955790e-02
-3.815046429845477677e-02
-3.754553676804128076e-02
-3.690273490873290096e-02
-3.622115396047829311e-02
-3.550010756684320035e-02
-3.473913877924542093e-02
-3.393802665932972584e-02
-3.309678851454904425e-02
-3.221567789450021507e-02
-3.129517863759000845e-02
-3.033599512400713197e-02
-2.933903906700884370e-02
-2.830541333417968541e-02
-2.723639316327634841e-02
-2.613340523203888655e-02
-2.499800504647577484e-02
-2.383185318773091768e-02
-2.263669089017381411e-02
-2.141431547765501597e-02
-2.016655609477667824e-02
-1.889525024459221686e-02
-1.760222153631383485e-02
-1.628925901232875645e-02
-1.495809842257690703e-02
-1.361040572283533749e-02
-1.224776302038177445e-02
-1.087165717442874213e-02
-9.483471130259008702e-03
-8.084478150935523605e-03
-6.675838816587787751e-03
-5.258600861018981366e-03
-3.833701680338051209e-03
-2.401973344636541049e-03
-9.641499586125888048e-04
4.791228455146843198e-04
1.927276630871458058e-03
3.379807356791121684e-03
4.836261359044953176e-03
6.296220388790955969e-03
7.759286205529726706e-03
9.225065004162466553e-03
1.069315185798161080e-02
1.216311566204333547e-02
1.363448491747276670e-02
1.510673449983650218e-02
1.657927369124947634e-02
1.805143576108505718e-02
1.952246929625025759e-02
2.099153132966486909e-02
2.245768240747356842e-02
2.391988375641805262e-02
2.537699642487016224e-02
2.682778253150754424e-02
2.827090853394637060e-02
2.970495034674404747e-02
3.112840030711610737e-02
3.253967579020115158e-02
3.393712931041768799e-02
3.531905993994509385e-02
3.668372574593286445e-02
3.802935709416781218e-02
3.935417062644970543e-02
4.065638351081872492e-02
4.193422791221911028e-02
4.318596526227592991e-02
4.440990032175241853e-02
4.560439462078704626e-02
4.676787916029711417e-02
4.789886614223806682e-02
4.899595962380797615e-02
5.005786497212473540e-02
5.108339695781809880e-02
5.207148633251421771e-02
5.302118496267377995e-02
5.393166938226748308e-02
5.480224278210036465e-02
5.563233544316941587e-02
5.642150367959346269e-02
5.716942727975617144e-02
5.787590554740142113e-02
5.854085215981597035e-02
5.916428873339839301e-02
5.974633737061199601e-02
6.028721229348886490e-02
6.078721066848233323e-02
6.124670288956399200e-02
6.166612231200530730e-02
6.204595468407427677e-02
6.238672742043506469e-02
6.268899882754788710e-02
6.295334744829141072e-02
6.318036166455161251e-02
6.337062962343098516e-02
6.352472964269345601e-02
6.364322123378308993e-02
6.372663681726802032e-02
6.377547406100365912e-02
6.379018910208233972e-02
6.377119050563505309e-02
6.371883419349727573e-02
6.363341918024438548e-02
6.351518420373915286e-02
6.336430527681287395e-02
6.318089412715899300e-02
6.296499735549707100e-02
6.271659645294590246e-02
6.243560860143033270e-02
6.212188815456587410e-02
6.177522873251142105e-02
6.139536593470684700e-02
6.098198050431024447e-02
6.053470198310988842e-02
6.005311274763490414e-02
5.953675236824776396e-02
5.898512214877504878e-02
5.839768992424523159e-02
5.777389486213958120e-02
5.711315241369575857e-02
5.641485918043540743e-02
5.567839778302220016e-02
5.490314157799913719e-02
5.408845926232449391e-02
5.323371928690128624e-02
5.233829398246869768e-02
5.140156352888679281e-02
5.042291962003662281e-02
4.940176890353997763e-02
4.833753601870999922e-02
4.722966639461574634e-02
4.607762882472015570e-02
4.488091773000632556e-02
4.363905504838967719e-02
4.235159207125393371e-02
4.101811091183050345e-02
3.963822581955540880e-02
3.821158431115106308e-02
3.673786821925426049e-02
3.521679459045637395e-02
3.364811658564639124e-02
3.203162434174932488e-02
3.036714586608629460e-02
2.865454805415200423e-02
2.689373780176882237e-02
2.508466330708446906e-02
2.322731559499158216e-02
2.132173027849556743e-02
1.936798963421977257e-02
1.736622504537761388e-02
1.531661978193905350e-02
1.321941214211887206e-02
1.107489902765114789e-02
8.883440018615891207e-03
6.645461784440200373e-03
4.361462975350708163e-03
2.032019494241470159e-03
-3.422097764229733888e-04
-2.760476961567598971e-03
-5.221938792373558881e-03
-7.725649957598571850e-03
-1.027055620716140968e-02
-1.285548733043958940e-02
-1.547915007961463141e-02
-1.814012105228048760e-02
-2.083683976707250904e-02
-2.356760187923214594e-02
-2.633055277694199350e-02
-2.912368160446879295e-02
-3.194481578739667704e-02
-3.479161627203299773e-02
-3.766157357041603065e-02
-4.055200467073973719e-02
-4.346005096701673759e-02
-4.638267740014011264e-02
-4.931667276923341892e-02
-5.225865137241884895e-02
-5.520505606154849088e-02
-5.815216280369681773e-02
-6.109608677211855049e-02
-6.403279002787400087e-02
-6.695809080104422883e-02
-6.986767445309775837e-02
-7.275710600471520240e-02
-7.562184421121720401e-02
-7.845725719554011435e-02
-8.125863957219975342e-02
-8.402123089901503139e-02
-8.674023538460216842e-02
-8.941084276692498611e-02
-9.202825011989479442e-02
-9.458768452374081981e-02
-9.708442630151516151e-02
-9.951383281085568466e-02
-1.018713623740502006e-01
-1.041525982266219286e-01
-1.063532723019106757e-01
-1.084692886107193194e-01
-1.104967459355367942e-01
-1.124319596640301344e-01
-1.142714824680333002e-01
-1.160121237407054362e-01
-1.176509674625985241e-01
-1.191853883945855064e-01
-1.206130663840304790e-01
-1.219319985530325917e-01
-1.231405094179739840e-01
-1.242372586303081838e-01
-1.252212463395121766e-01
-1.260918161165284768e-01
-1.268486553702245501e-01
-1.274917932742095084e-01
-1.280215961632366339e-01
-1.284387605136110277e-01
-1.287443035674075142e-01
-1.289395515881558707e-01
-1.290261260301047985e-01
-1.290059276958405166e-01
-1.288811190169438792e-01
-1.286541047156897766e-01
-1.283275110152116982e-01
-1.279041636710595842e-01
-1.273870649523300425e-01
-1.267793699651878769e-01
-1.260843624075916880e-01
-1.253054301505985846e-01
-1.244460408774629712e-01
-1.235097179786726063e-01
-1.225000169445800147e-01
-1.214205025153298340e-01
-1.202747268952394089e-01
-1.190662090865829692e-01
-1.177984156457144022e-01
-1.164747429762425096e-01
-1.150985013296119963e-01
-1.136729006252066854e-01
-1.122010381721342126e-01
-1.106858883882355510e-01
-1.091302945850221723e-01
-1.075369628120672327e-01
-1.059084577571362262e-01
-1.042472005935073942e-01
-1.025554688515966234e-01
-1.008353981228401614e-01
-9.908898562143647615e-02
-9.731809527528517689e-02
-9.552446439734632588e-02
-9.370971168684699704e-02
-9.187534633422059227e-02
-9.002277818948398180e-02
-8.815332870809509946e-02
-8.626824252704065610e-02
-8.436869937337497516e-02
-8.245582624223050938e-02
-8.053070961083837187e-02
-7.859440743014420305e-02
-7.664796074821814131e-02
-7.469240484687586501e-02
-7.272877974338454177e-02
-7.075813986330292682e-02
-6.878156275691635346e-02
-6.680015678396963863e-02
-6.481506770117924365e-02
-6.282748400431381608e-02
-6.083864108405008519e-02
-5.884982406777226893e-02
-5.686236939667943524e-02
-5.487766516821147855e-02
-5.289715022331958200e-02
-5.092231206374746993e-02
-4.895468357224850436e-02
-4.699583874804495048e-02
-4.504738747561782414e-02
-4.311096939837689990e-02
-4.118824704174384177e-02
-3.928089832159716716e-02
-3.739060852730024392e-02
-3.551906187399070380e-02
-3.366793283762174738e-02
-3.183887729396597810e-02
-3.003352369119435816e-02
-2.825346427725566184e-02
-2.650024652060547700e-02
-2.477536488582771090e-02
-2.308025296191276374e-02
-2.141627607092367117e-02
-1.978472445665482166e-02
-1.818680713383792613e-02
-1.662364636555708694e-02
-1.509627287402926649e-02
-1.360562176515971861e-02
-1.215252928297210974e-02
-1.073773030820901996e-02
-9.361856656686155104e-03
-8.025436091307085532e-03
-6.728892090116326934e-03
-5.472544304865569614e-03
-4.256609727571118544e-03
-3.081204493003806763e-03
-1.946346185320807368e-03
-8.519568206740929864e-04
2.021338113921666553e-04
1.216184304517844679e-03
2.190537422177242163e-03
3.125615588599786523e-03
4.021916079136097361e-03
4.880005993316619689e-03
5.700517038934100299e-03
6.484140155237638932e-03
7.231620175196075764e-03
7.943750281842201777e-03
8.621366534606812043e-03
9.265342325860889683e-03
9.876582996498862663e-03
1.045602039721837441e-02
1.100460754660753659e-02
1.152331342304473323e-02
1.201311784302666608e-02
1.247500647436555407e-02
1.290996600742903844e-02
1.331897947439538571e-02
1.370302169722111690e-02
1.406305494144881492e-02
1.440002480478318192e-02
1.471485624200206781e-02
1.500844989147995592e-02
1.528167863215838460e-02
1.553538433208851051e-02
1.577037492850448530e-02
1.598742175716942604e-02
1.618725729765643426e-02
1.637057316411915514e-02
1.653801856624650610e-02
1.669019906301507511e-02
1.682767571355053490e-02
1.695096468938782353e-02
1.706053733990960802e-02
1.715682069392227005e-02
1.724019839311893149e-02
1.731101215566875282e-02
1.736956364257721125e-02
1.741611683582796472e-02
1.745090083034420841e-02
1.747411306738208894e-02
1.748592295021307932e-02
1.748647585612531086e-02
1.747589750275643436e-02
1.745429850038700617e-02
1.742177927032221782e-02
1.737843503414364041e-02
1.732436094257140680e-02
1.725965722830690233e-02
1.718443433872567788e-02
1.709881793358734858e-02
1.700295368774065383e-02
1.689701187593127193e-02
1.678119149483836559e-02
1.665572405387935953e-02
1.652087677798137061e-02
1.637695536012162556e-02
1.622430600976752096e-02
1.606331680496543915e-02
1.589441834903616499e-02
1.571808367143385024e-02
1.553482730155343085e-02
1.534520360492750909e-02
1.514980427880750422e-02
1.494925512061256491e-02
1.474421196159614485e-02
1.453535597511667124e-02
1.432338824226466259e-02
1.410902381602880187e-02
1.389298529041592747e-02
1.367599585077067421e-02
1.345877209370860070e-02
1.324201657090563061e-02
1.302641027278406832e-02
1.281260517952713743e-02
1.260121689729796872e-02
1.239281759654980303e-02
1.218792937376178206e-02
1.198701805264230230e-02
1.179048771789087575e-02
1.159867595908932458e-02
1.141184991396128681e-02
1.123020329392217589e-02
1.105385438799569298e-02
1.088284512772919391e-02
1.071714130465402370e-02
1.055663384735451051e-02
1.040114128637993109e-02
1.025041332243919155e-02
1.010413551995959294e-02
9.961935020504596172e-03
9.823387237028392838e-03
9.688023457728350482e-03
9.555339267606668963e-03
9.424803559460426597e-03
9.295868146965325859e-03
9.167977734634359319e-03
9.040580160392955311e-03
8.913136657307793587e-03
8.785132111225552390e-03
8.656084963067110088e-03
8.525556742229458557e-03
8.393160970008693364e-03
8.258571348160697462e-03
8.121528986032156353e-03
7.981848650586287688e-03
7.839423808144334316e-03
7.694230423993891031e-03
7.546329374231833947e-03
7.395867441628779966e-03
7.243076881625529727e-03
7.088273481153362782e-03
6.931853089868314152e-03
6.774286745544476004e-03
6.616114381471843893e-03
6.457937205320569973e-03
6.300408863149997186e-03
6.144225466698755717e-03
5.990114716074469194e-03
5.838824213086756844e-03
5.691109102588827809e-03
5.547719386433634658e-03
5.409386960531906152e-03
5.276812635603891216e-03
5.150653353729995644e-03
5.031509868390593790e-03
4.919914982693905474e-03
4.816322737854344081e-03
4.721098567181494440e-03
4.634510613954729609e-03
4.556722483804665630e-03
4.487787545511564766e-03
4.427644835449782816e-03
4.376116779124537663e-03
4.332908675624570077e-03
4.297610075474275586e-03
4.269698007764615930e-03
4.248542156452887221e-03
4.233411782197567426e-03
4.223484433351502691e-03
4.217856316392273354e-03
4.215554148198837579e-03
4.215548356756059108e-03
4.216767502186508261e-03
4.218113649321594653e-03
4.218478439988998692e-03
4.216759686269410702e-03
4.211878236132465640e-03
4.202794833699206173e-03
4.188526680486606875e-03
4.168163530276391276e-03
4.140882961652353478e-03
4.105964571462966499e-03
4.062802953171272720e-03
4.010919157442202447e-03
3.949970442136485974e-03
3.879758172186520328e-03
3.800233668498507068e-03
3.711501932320066498e-03
3.613823164922879989e-03
3.507611964626774180e-03
3.393434190088641302e-03
3.272001587461167028e-03
3.144164122450372831e-03
3.010900173951470797e-03
2.873304687298623098e-03
2.732575428886900061e-03
2.589997549240210303e-03
2.446926616675679581e-03
2.304770395241326469e-03
2.164969624686033899e-03
2.028978111276513036e-03
1.898242357253225772e-03
1.774180965152598235e-03
1.658164357048461058e-03
1.551494879129825411e-03
1.455387649705024633e-03
1.370952534314444186e-03
1.299177407685936543e-03
1.240913033641332514e-03
1.196859821808081425e-03
1.167556566429312024e-03
1.153371472695015549e-03
1.154495510905071028e-03
1.170938309250668316e-03
1.202526633431815883e-03
1.248905425961919840e-03
1.309541510612153691e-03
1.383729876353627028e-03
1.470602417933932361e-03
1.569139115414673689e-03
1.678181387966026219e-03
1.796447507881587325e-03
1.922549886987711320e-03
2.055013864562557895e-03
2.192297854438597302e-03
2.332814471475898582e-03
2.474952381328265286e-03
2.617098484499205072e-03
2.757660167404395787e-03
2.895087341723603155e-03
3.027893803196869942e-03
3.154677614415505715e-03
3.274140287039067031e-03
3.385104502770898156e-03
3.486530016348067269e-03
3.577527488090269207e-03
3.657370070862254931e-03
3.725502615064998392e-03
3.781548313697513305e-03
3.825312692636650275e-03
3.856784885850120075e-03
3.876136184300422224e-03
3.883715840491641386e-03
3.880044235139590118e-03
3.865803513208731709e-03
3.841825887062918013e-03
3.809079636357601967e-03
3.768653117119251644e-03
3.721737074505189913e-03
3.669605406629647317e-03
3.613594792919746276e-03
3.555083420487773621e-03
3.495469177491872942e-03
3.436147637764984560e-03
3.378490178260105080e-03
3.323822532746559689e-03
3.273404174545529229e-03
3.228408808916913807e-03
3.189906260674092286e-03
3.158846073940250933e-03
3.136043014440730980e-03
3.122164755904371404e-03
3.117721868907751687e-03
3.123060346413927043e-03
3.138356708807013649e-03
3.163615787452385246e-03
3.198671173718224854e-03
3.243188370998198455e-03
3.296670559322472261e-03
3.358466898683493129e-03
3.427783238048167768e-03
3.503695029704988716e-03
3.585162195653848836e-03
3.671045789757015378e-03
3.760126229073155763e-03
3.851122603438199808e-03
3.942713016781765681e-03
4.033555406048727927e-03
4.122308647699686295e-03
4.207653616542583914e-03
4.288313796745675706e-03
4.363075174868506073e-03
4.430805112032024616e-03
4.490469878536572021e-03
4.541150562414210563e-03
4.582057166559837594e-03
4.612540657281781996e-03
4.632102803110758373e-03
4.640403605609830055e-03
4.637266298181398974e-03
4.622679790206227907e-03
4.596798575488455531e-03
4.559940099079938872e-03
4.512579606238257580e-03
4.455342658824345929e-03
4.388995438124800030e-03
4.314432917961591278e-03
4.232665157912042855e-03
4.144802016802756617e-03
4.052036464927274810e-03
3.955626781761594976e-03
3.856877916615379393e-03
3.757122373466170642e-03
3.657700873255768318e-03
3.559943122324482016e-03
3.465148914596451451e-03
3.374570019637192827e-03
3.289393031535935152e-03
3.210723425603011563e-03
3.139571021590103258e-03
3.076837218134411810e-03
3.023304012905883922e-03
2.979625106427222572e-03
2.946319046733358697e-03
2.923764535479862845e-03
2.912198022080243840e-03
2.911713497818060013e-03
2.922264446868506546e-03
2.943667922295500894e-03
2.975610638194948337e-03
3.017656821525453205e-03
3.069257842531610166e-03
3.129763287214616489e-03
3.198433267251734723e-03
3.274451773093612836e-03
3.356940851436334295e-03
3.444975186922873741e-03
3.537596994087038437e-03
3.633830793941035964e-03
3.732697969575914012e-03
3.833230761705603076e-03
3.934485482196591402e-03
4.035554690957261249e-03
4.135578184243990721e-03
4.233752614046211796e-03
4.329339599949784054e-03
4.421672172498274968e-03
4.510159483740991404e-03
4.594289808578197118e-03
4.673631726385562950e-03
4.747833520470245809e-03
4.816620922165243228e-03
4.879793253741105709e-03
4.937218065929253538e-03
4.988824426237510774e-03
5.034595014955757335e-03
5.074557205866490894e-03
5.108773482930732343e-03
5.137331202473951856e-03
5.160332126754032731e-03
5.177881848266464512e-03
5.190079388877344609e-03
5.197007274964015114e-03
5.198722189315329277e-03
5.195246461621941779e-03
5.186560663524362839e-03
5.172597440809246876e-03
5.153236672997811400e-03
5.128302169046631241e-03
5.097559987933064987e-03
5.060718411620838617e-03
5.017429601949721304e-03
4.967292960094930529e-03
4.909860167272214575e-03
4.844641756946206461e-03
4.771115210252787654e-03
4.688734376761916761e-03
4.596940092118874908e-03
4.495171782350750218e-03
4.382879793464471326e-03
4.259538411008540783e-03
4.124659127642338677e-03
3.977803883677523758e-03
3.818598192773890038e-03
3.646743847078916159e-03
3.462030849079460008e-03
3.264348350468626592e-03
3.053694474416733355e-03
2.830184711994527483e-03
2.594058692241996145e-03
2.345685182537999170e-03
2.085565213808283740e-03
1.814333180712231859e-03
1.532755879804712168e-03
1.241729373887758003e-03
9.422737177941983020e-04
6.355256483748816278e-04
3.227291798239368347e-04
5.224334562662966667e-06
-3.155658694434730735e-04
-6.381501282120605233e-04
-9.609848575913574253e-04
-1.282491447203936829e-03
-1.601074326281063656e-03
-1.915139800543499710e-03
-2.223115160583336025e-03
-2.523467940306050195e-03
-2.814724833117397771e-03
-3.095490163839396264e-03
-3.364463513569147541e-03
-3.620456294594451459e-03
-3.862406851717234586e-03
-4.089393982082851868e-03
-4.300648672560495808e-03
-4.495563725875333962e-03
-4.673701208303555552e-03
-4.834797592452473418e-03
-4.978766418030991688e-03
-5.105698469196254426e-03
-5.215859493403912119e-03
-5.309685372205877850e-03
-5.387774903435424249e-03
-5.450880208925852274e-03
-5.499894975714795381e-03
-5.535840713422481019e-03
-5.559851128476769357e-03
-5.573154941592634894e-03
-5.577057334082716200e-03
-5.572920388465326183e-03
-5.562142687249966092e-03
