8.180118921265691232e-04
1.281045748866481383e-03
1.820873918531279011e-03
2.443614211553166680e-03
3.154883177180542193e-03
3.959733164977651335e-03
4.862594140934178855e-03
5.867221102133090768e-03
6.976647596216659260e-03
8.193146085320835575e-03
9.518195597548143039e-03
1.095245730459167184e-02
1.249575834805063089e-02
1.414708417476886852e-02
1.590457978793668320e-02
1.776556001274351773e-02
1.972652874755737723e-02
2.178320720080775472e-02
2.393057093483151945e-02
2.616289550791147875e-02
2.847381020550727310e-02
3.085635953792506200e-02
3.330307177890041298e-02
3.580603391951493047e-02
3.835697219038063099e-02
4.094733738027988429e-02
4.356839393050122161e-02
4.621131180186126980e-02
4.886725999653548924e-02
5.152750070964160628e-02
5.418348288229999504e-02
5.682693404422885231e-02
5.944994922872970378e-02
6.204507586347058484e-02
6.460539347002502986e-02
6.712458707939794600e-02
6.959701353440241045e-02
7.201775952006934933e-02
7.438269064688854404e-02
7.668849082353572377e-02
7.893269133704489127e-02
8.111368913816263682e-02
8.323075404998443727e-02
8.528402471093798898e-02
8.727449324862761315e-02
8.920397887105062373e-02
9.107509064821278644e-02
9.289117990735215602e-02
9.465628293330989595e-02
9.637505477343262517e-02
9.805269501977960378e-02
9.969486661901591495e-02
1.013076088904944216e-01
1.028972459662326477e-01
1.044702921809906732e-01
1.060333555527180338e-01
1.075930410256388386e-01
1.091558548133897966e-01
1.107281113551681073e-01
1.123158443438994902e-01
1.139247231378935077e-01
1.155599759304060531e-01
1.172263208273402330e-01
1.189279059572243974e-01
1.206682594767768124e-01
1.224502503986718976e-01
1.242760607528415884e-01
1.261471694041594871e-01
1.280643479602376900e-01
1.300276685995115922e-01
1.320365237377473244e-01
1.340896570356603090e-01
1.361852051578475997e-01
1.383207494984682595e-01
1.404933768340320410e-01
1.426997478243460793e-01
1.449361719500785739e-01
1.471986874610421159e-01
1.494831447626724374e-01
1.517852916927780460e-01
1.541008589077197122e-01
1.564256437446022996e-01
1.587555908546388339e-01
1.610868680152691412e-01
1.634159355623231169e-01
1.657396080188091314e-01
1.680551066837936425e-01
1.703601019812852613e-01
1.726527447545914140e-01
1.749316858260175356e-01
1.771960834658592443e-01
1.794455985426382238e-01
1.816803773695727653e-01
1.839010229326005774e-01
1.861085548506744292e-01
1.883043593170777852e-01
1.904901300275975429e-01
1.926678016807202298e-01
1.948394776199401102e-01
1.970073536013498827e-01
1.991736397109689083e-01
2.013404825499931494e-01
2.035098899472601308e-01
2.056836605113302463e-01
2.078633202204686614e-01
2.100500683415151004e-01
2.122447346584737937e-01
2.144477500292086003e-01
2.166591318460127646e-01
2.188784858765830954e-01
2.211050255713893631e-01
2.233376096384769027e-01
2.255747981100504895e-01
2.278149268429130458e-01
2.300561999744131225e-01
2.322967992274009574e-01
2.345350085745373792e-01
2.367693522795523975e-01
2.389987438623979721e-01
2.412226429463539268e-01
2.434412167856132014e-01
2.456555026432714617e-01
2.478675668828467238e-01
2.500806564395013365e-01
2.522993381008527547e-01
2.545296207666827293e-01
2.567790559243717241e-01
2.590568114756636731e-01
2.613737143035093080e-01
2.637422570526036791e-01
2.661765649472978557e-01
2.686923188883188485e-01
2.713066314815062996e-01
2.740378734327117427e-01
2.769054481084312624e-01
2.799295131769756750e-01
2.831306488366995278e-01
2.865294730996261752e-01
2.901462055722890954e-01
2.940001821077065647e-01
2.981093237940606322e-01
3.024895646438412466e-01
3.071542435951190031e-01
3.121134671358768986e-01
3.173734500324463803e-01
3.229358424214781031e-01
3.287970524578801013e-01
3.349475742842446535e-01
3.413713319088894638e-01
3.480450498212786514e-01
3.549376617795296229e-01
3.620097693283089169e-01
3.692131615047615223e-01
3.764904073420903274e-01
3.837745322643082990e-01
3.909887891180342523e-01
3.980465338780188045e-01
4.048512151830448991e-01
4.112964859232879911e-01
4.172664438908793572e-01
4.226360071296822452e-01
4.272714281975327766e-01
4.310309499498250485e-01
4.337656035190585180e-01
4.353201475766993456e-01
4.355341460062513437e-01
4.342431790412441539e-01
4.312801811372150018e-01
4.264768966748514467e-01
4.196654428289308680e-01
4.106799669616998383e-01
3.993583841492944209e-01
3.855441788382576451e-01
3.690882529092542885e-01
3.498508013719625054e-01
3.277031954371949496e-01
3.025298519504994177e-01
2.742300675565789159e-01
2.427197951351819927e-01
2.079333402635550609e-01
1.698249554567884123e-01
1.283703101236561561e-01
8.356781507444090151e-02
3.543978132441339551e-02
-1.596660586653641384e-02
-7.057851527114243628e-02
-1.282969159158006411e-01
-1.889962549799836800e-01
-2.525243786837148563e-01
-3.187027051982018189e-01
-3.873266557323968295e-01
-4.581663472747553034e-01
-5.309675476415448570e-01
-6.054528902762693621e-01
-6.813233433494941815e-01
-7.582599247326941017e-01
-8.359256512341889378e-01
-9.139677076652807930e-01
-9.920198185425449511e-01
-1.069704802407096089e+00
-1.146637286540608258e+00
-1.222426557292944693e+00
-1.296679519464603025e+00
-1.369003736478779043e+00
-1.439010521542850363e+00
-1.506318049127008729e+00
-1.570554455243731384e+00
-1.631360894751799684e+00
-1.688394523929129809e+00
-1.741331376986651192e+00
-1.789869106112307096e+00
-1.833729555522920940e+00
-1.872661141880714197e+00
-1.906441015089557212e+00
-1.934876975822358958e+00
-1.957809128580906055e+00
-1.975111251864246409e+00
-1.986691870194453147e+00
-1.992495015661709612e+00
-1.992500670565070964e+00
-1.986724885600782420e+00
-1.975219572132245638e+00
-1.958071970504323911e+00
-1.935403799898755439e+00
-1.907370098923236279e+00
-1.874157769463936640e+00
-1.835983839665231931e+00
-1.793093464959080841e+00
-1.745757689058526463e+00
-1.694270989180549858e+00
-1.638948632390201832e+00
-1.580123871604103725e+00
-1.518145011844359127e+00
-1.453372377990673980e+00
-1.386175216783171793e+00
-1.316928565728083811e+00
-1.246010122102286344e+00
-1.173797144601488096e+00
-1.100663419524340103e+00
-1.026976322406538911e+00
-9.530940043237334791e-01
-8.793627305184332776e-01
-8.061143966610844203e-01
-7.336642456865012374e-01
-6.623088055346710856e-01
-5.923240652739286682e-01
-5.239639037821502976e-01
-4.574587822156470085e-01
-3.930147081461800584e-01
-3.308124757511031744e-01
-2.710071832503495592e-01
-2.137280254374631372e-01
-1.590783559767217359e-01
-1.071360109833473101e-01
-5.795388238770160516e-02
-1.156072708560899713e-02
3.203780487464607390e-02
7.285794180138624454e-02
1.109363825337789239e-01
1.463287316335488419e-01
1.791078013621529019e-01
2.093618052214997471e-01
2.371924683831813374e-01
2.627130806859608869e-01
2.860465178295849009e-01
3.073232558056635533e-01
3.266794032974322803e-01
3.442547752687992735e-01
3.601910300042986401e-01
3.746298901434375050e-01
3.877114664351055118e-01
3.995727010075817431e-01
4.103459447506329627e-01
4.201576810294185282e-01
4.291274055125429143e-01
4.373666696047942559e-01
4.449782922425830622e-01
4.520557425050516498e-01
4.586826928267755399e-01
4.649327404429360877e-01
4.708692923774646655e-01
4.765456071216797596e-01
4.820049841477521135e-01
4.872810908317561363e-01
4.923984146068363654e-01
4.973728270019844300e-01
5.022122451329766868e-01
5.069173752420790269e-01
5.114825225477601656e-01
5.158964511204456871e-01
5.201432775615971726e-01
5.242033825940014546e-01
5.280543248201662321e-01
5.316717416796463702e-01
5.350302236146565749e-01
5.381041482764149508e-01
5.408684629789136666e-01
5.432994049384651802e-01
5.453751501575753169e-01
5.470763836515573075e-01
5.483867850322423632e-01
5.492934252149027641e-01
5.497870718097653819e-01
5.498624021572966480e-01
5.495181248482706726e-01
5.487570117726704444e-01
5.475858444251370249e-01
5.460152794072470339e-01
5.440596392541701132e-01
5.417366357722132042e-01
5.390670339485907903e-01
5.360742652742147563e-01
5.327839997497376689e-01
5.292236862973856981e-01
5.254220714803725656e-01
5.214087065033943258e-01
5.172134521175771882e-01
5.128659909224441149e-01
5.083953560732041854e-01
5.038294845839033087e-01
4.991948031076423598e-01
4.945158526488537265e-01
4.898149583117838435e-01
4.851119487540935804e-01
4.804239291839793591e-01
4.757651105107575384e-01
4.711466963661584129e-01
4.665768284055241688e-01
4.620605892156367522e-01
4.576000612178851568e-01
4.531944390861991079e-01
4.488401921121267235e-01
4.445312722349441525e-01
4.402593626614784150e-01
4.360141615070428633e-01
4.317836944544624078e-01
4.275546498076210900e-01
4.233127294022305809e-01
4.190430085486633871e-01
4.147302981283972900e-01
4.103595022771002188e-01
4.059159652870869550e-01
4.013858015820880865e-01
3.967562032620552959e-01
3.920157201270925151e-01
3.871545078064510537e-01
3.821645401786649687e-01
3.770397831854608861e-01
3.717763275705152637e-01
3.663724792943625075e-01
3.608288069257709618e-01
3.551481460240286103e-01
3.493355614780349061e-01
3.433982693626114191e-01
3.373455206301143594e-01
3.311884496206476403e-01
3.249398908074214720e-01
3.186141676287078117e-01
3.122268579781584119e-01
3.057945408845637036e-01
2.993345293341696522e-01
2.928645943382605088e-01
2.864026851390756856e-01
2.799666507834764340e-01
2.735739678400809782e-01
2.672414789121665968e-01
2.609851464116285658e-01
2.548198254958356501e-01
2.487590597893133137e-01
2.428149029903420297e-01
2.369977688986925346e-01
2.313163118520694950e-01
2.257773390834878213e-01
2.203857556953350838e-01
2.151445426487352264e-01
2.100547673103940471e-01
2.051156257219355905e-01
2.003245151712944871e-01
1.956771350751241312e-01
1.911676138236844402e-01
1.867886587952097555e-01
1.825317264299804454e-01
1.783872090772187780e-01
1.743446348465552687e-01
1.703928768750051781e-01
1.665203680250659790e-01
1.627153173565569488e-01
1.589659245231965501e-01
1.552605885408963604e-01
1.515881073139897506e-01
1.479378650198621414e-01
1.443000041492699115e-01
1.406655797636625072e-01
1.370266937578632216e-01
1.333766072975982042e-01
1.297098301392257125e-01
1.260221857971108583e-01
1.223108521423855732e-01
1.185743772922317057e-01
1.148126712570729790e-01
1.110269740421286899e-01
1.072198014070177841e-01
1.033948698884576134e-01
9.955700278969105421e-02
9.571201938154269562e-02
9.186660962470145908e-02
8.802819698889487177e-02
8.420479207729059112e-02
8.040483983411336744e-02
7.663706312210065430e-02
7.291030543759202676e-02
6.923337567502951817e-02
6.561489739044266967e-02
6.206316515184980009e-02
5.858601026734040762e-02
5.519067787290325711e-02
5.188371737469023304e-02
4.867088758905654261e-02
4.555707787857131430e-02
4.254624627674220144e-02
3.964137510711931295e-02
3.684444443360876398e-02
3.415642332510952089e-02
3.157727842847318778e-02
2.910599942498675458e-02
2.674064033183504857e-02
2.447837554217868750e-02
2.231556907649174387e-02
2.024785568870949085e-02
1.827023188529177528e-02
1.637715512012521621e-02
1.456264909134328232e-02
1.282041331696752093e-02
1.114393480781847995e-02
9.526599891827912045e-03
7.961804340267962521e-03
6.443059831471816858e-03
4.964095067975869691e-03
3.518949940709365388e-03
2.102061359212526598e-03
7.083394892279196728e-04
-6.667665565081908269e-04
-2.027214459290372934e-03
-3.376326432035788028e-03
-4.716759198197633708e-03
-6.050486507768363699e-03
-7.378793914225409596e-03
-8.702285657617931172e-03
-1.002090304880907078e-02
-1.133395359647280422e-02
-1.264015013602593288e-02
-1.393765887890026367e-02
-1.522415516804801611e-02
-1.649688579672017180e-02
-1.775273658673729230e-02
-1.898830376083032387e-02
-2.019996770434332248e-02
-2.138396786688561910e-02
-2.253647730475410310e-02
-2.365367562598334403e-02
-2.473181911195062449e-02
-2.576730679456680495e-02
-2.675674150125862197e-02
-2.769698498148390198e-02
-2.858520628072613173e-02
-2.941892280322950040e-02
-3.019603354561633743e-02
-3.091484424192229505e-02
-3.157408419135192962e-02
-3.217291493436767041e-02
-3.271093068145188715e-02
-3.318815101192570255e-02
-3.360500610876918093e-02
-3.396231527945475781e-02
-3.426125924320495147e-02
-3.450334696300125931e-02
-3.469037792989124180e-02
-3.482440074189706997e-02
-3.490766885522921664e-02
-3.494259448316518191e-02
-3.493170158627463551e-02
-3.487757893360448475e-02
-3.478283402420107723e-02
-3.465004880024912665e-02
-3.448173785390001855e-02
-3.428031002612746958e-02
-3.404803381518884536e-02
-3.378700726710104352e-02
-3.349913262665129426e-02
-3.318609629859706894e-02
-3.284935413676515203e-02
-3.249012225598392478e-02
-3.210937336780991802e-02
-3.170783849397536269e-02
-3.128601386950180530e-02
-3.084417274997418301e-02
-3.038238167598440731e-02
-2.990052081714103874e-02
-2.939830782636685194e-02
-2.887532457475281214e-02
-2.833104622921520793e-02
-2.776487206695168672e-02
-2.717615718477370962e-02
-2.656424459693291704e-02
-2.592849701023083875e-02
-2.526832773840364393e-02
-2.458323002714764630e-02
-2.387280430884772264e-02
-2.313678291798804479e-02
-2.237505179707035066e-02
-2.158766882595193615e-02
-2.077487853968020340e-02
-1.993712287816455306e-02
-1.907504802292968316e-02
-1.818950708714181519e-02
-1.728155882006878960e-02
-1.635246230661941552e-02
-1.540366795066857447e-02
-1.443680485976323209e-02
-1.345366496990241072e-02
-1.245618432325822610e-02
-1.144642179707599204e-02
-1.042653571706931778e-02
-9.398758918006898042e-03
-8.365372717553856002e-03
-7.328680154207834613e-03
-6.290979093599156566e-03
-5.254535653287791333e-03
-4.221558460346636066e-03
-3.194174131935340836e-03
-2.174404356048999752e-03
-1.164145018752064465e-03
-1.651475774798310538e-04
8.209968786486769804e-04
1.792870775902915929e-03
2.749240316430668143e-03
3.689062584758052207e-03
4.611489510954387173e-03
5.515868774153147129e-03
6.401741625870314631e-03
7.268837828352777211e-03
8.117067779335105510e-03
8.946512138917306692e-03
9.757409116888909884e-03
1.055013973188828960e-02
1.132521140585783168e-02
1.208324013027336531e-02
1.282493166499104956e-02
1.355106204630936693e-02
1.426245773562508611e-02
1.495997578098496109e-02
1.564448432069835693e-02
1.631684380266350959e-02
1.697788915533045978e-02
1.762841312195883442e-02
1.826915103166622950e-02
1.890076728420767016e-02
1.952384359562783431e-02
2.013886911871035426e-02
2.074623262781749231e-02
2.134621670464787249e-02
2.193899394863092767e-02
2.252462518199511640e-02
2.310305954908942541e-02
2.367413643205769705e-02
2.423758906492706061e-02
2.479304965139442901e-02
2.534005576804295584e-02
2.587805791186000709e-02
2.640642800371332394e-02
2.692446857135941465e-02
2.743142236358810104e-02
2.792648232528797958e-02
2.840880153813809400e-02
2.887750313082105419e-02
2.933168979577948157e-02
2.977045282785169278e-02
3.019288057850315690e-02
3.059806615682819989e-02
3.098511435474719106e-02
3.135314759761080594e-02
3.170131100014270120e-02
3.202877649084298617e-02
3.233474599698212687e-02
3.261845379238750148e-02
3.287916800003258533e-02
3.311619127209720903e-02
3.332886091202003076e-02
3.351654843105564274e-02
3.367865870893298891e-02
3.381462887147164420e-02
3.392392701195903748e-02
3.400605084612647044e-02
3.406052651684722543e-02
3.408690760009865789e-02
3.408477440820948529e-02
3.405373372395707754e-02
3.399341900756490398e-02
3.390349112132062803e-02
3.378363961641223795e-02
3.363358456204616764e-02
3.345307894902699308e-02
3.324191159735814111e-02
3.299991052348467957e-02
3.272694653763226491e-02
3.242293724999239374e-02
3.208785111353480712e-02
3.172171148315346828e-02
3.132460047354569677e-02
3.089666251833830465e-02
3.043810743844399883e-02
2.994921287774307550e-02
2.943032589100806271e-02
2.888186352814370653e-02
2.830431243823717732e-02
2.769822712775894119e-02
2.706422691299182129e-02
2.640299146558102578e-02
2.571525489657926905e-02
2.500179833188477876e-02
2.426344095845021573e-02
2.350102970772478470e-02
2.271542749138944287e-02
2.190750023005108571e-02
2.107810266124961196e-02
2.022806334556722860e-02
1.935816878612050748e-02
1.846914709432691259e-02
1.756165140432030397e-02
1.663624329198422347e-02
1.569337652710088224e-02
1.473338148770741984e-02
1.375645041130809515e-02
1.276262403720889241e-02
1.175177968216479032e-02
1.072362131509547491e-02
9.677671796119448680e-03
8.613267436465983987e-03
7.529555307723144984e-03
6.425493390321967459e-03
5.299853765526804476e-03
4.151228989721534625e-03
2.978041710509843516e-03
1.778557541347901673e-03
5.509012437660405727e-04
-7.069239258113476504e-04
-1.997013771340696350e-03
-3.321537832353262977e-03
-4.682711342417748661e-03
-6.082764792426973918e-03
-7.523911454783122933e-03
-9.008313141797518603e-03
-1.053804467183283231e-02
-1.211505740742156029e-02
-1.374114237340513280e-02
-1.541789353473260391e-02
-1.714667152263628022e-02
-1.892856854240144299e-02
-2.076437472802025383e-02
-2.265454661993102775e-02
-2.459917825516258830e-02
-2.659797516853975446e-02
-2.865023188538977014e-02
-3.075481320868047458e-02
-3.291013972142239896e-02
-3.511417771173335617e-02
-3.736443382718745987e-02
-3.965795465183157703e-02
-4.199133122007892710e-02
-4.436070866138053931e-02
-4.676180091774998632e-02
-4.918991040406998916e-02
-5.163995245633546533e-02
-5.410648441392864466e-02
-5.658373905588053726e-02
-5.906566200319018217e-02
-6.154595273645879078e-02
-6.401810879732219850e-02
-6.647547255117584875e-02
-6.891128012697395055e-02
-7.131871198491963881e-02
-7.369094440191364948e-02
-7.602120132824681520e-02
-7.830280603896404290e-02
-8.052923197900813124e-02
-8.269415218230154185e-02
-8.479148664791430479e-02
-8.681544721613862481e-02
-8.876057934085905543e-02
-9.062180031903836752e-02
-9.239443354716227186e-02
-9.407423848353439755e-02
-9.565743592108308380e-02
-9.714072829025395539e-02
-9.852131501055727547e-02
-9.979690248419507970e-02
-1.009657088806359682e-01
-1.020264637444612127e-01
-1.029784024299808115e-01
-1.038212554906352836e-01
-1.045552333690465407e-01
-1.051810066104659908e-01
-1.056996819097117679e-01
-1.061127743872006396e-01
-1.064221766071199171e-01
-1.066301246716446632e-01
-1.067391619501558003e-01
-1.067521010728886000e-01
-1.066719845712371245e-01
-1.065020448126352687e-01
-1.062456636290461387e-01
-1.059063323895355346e-01
-1.054876128806391394e-01
-1.049930994850456628e-01
-1.044263832079707910e-01
-1.037910178834821062e-01
-1.030904890615653713e-01
-1.023281858077340484e-01
-1.015073756398181121e-01
-1.006311831221833875e-01
-9.970257193530017437e-02
-9.872433072635032614e-02
-9.769906281080834032e-02
-9.662917966426802507e-02
-9.551689814147955315e-02
-9.436424136187800127e-02
-9.317304306633950040e-02
-9.194495520262106758e-02
-9.068145850190603707e-02
-8.938387584613402548e-02
-8.805338791736080917e-02
-8.669105091737565327e-02
-8.529781594225172014e-02
-8.387454952275283371e-02
-8.242205513085680557e-02
-8.094109501071670987e-02
-7.943241211069147767e-02
-7.789675168168341823e-02
-7.633488207813794724e-02
-7.474761456221490352e-02
-7.313582164310136746e-02
-7.150045369123760042e-02
-6.984255361559159325e-02
-6.816326935804173370e-02
-6.646386396898468218e-02
-6.474572318949052552e-02
-6.301036037607654627e-02
-6.125941881185215793e-02
-5.949467123612123959e-02
-5.771801678866530366e-02
-5.593147540697432363e-02
-5.413717962467822636e-02
-5.233736417617462777e-02
-5.053435333731449985e-02
-4.873054647751585283e-02
-4.692840186167739763e-02
-4.513041901427659180e-02
-4.333911998983610431e-02
-4.155702975956164502e-02
-3.978665603531917477e-02
-3.803046887811739607e-02
-3.629088033724297419e-02
-3.457022443634222980e-02
-3.287073785778252960e-02
-3.119454148566588175e-02
-2.954362311741023928e-02
-2.791982156734922407e-02
-2.632481249375642762e-02
-2.476009593831092828e-02
-2.322698588264478919e-02
-2.172660188162076067e-02
-2.025986290376802224e-02
-1.882748341050147906e-02
-1.742997179244136149e-02
-1.606763103355128217e-02
-1.474056172769444735e-02
-1.344866732746448357e-02
-1.219166149169030079e-02
-1.096907753069641632e-02
-9.780279656839517902e-03
-8.624476005030417766e-03
-7.500733312475212251e-03
-6.407992909006747853e-03
-5.345087840481011279e-03
-4.310761009721474253e-03
-3.303684000926478820e-03
-2.322476419770952340e-03
-1.365725472876672857e-03
-4.320055386107290508e-04
4.801024264137990650e-04
1.371991957777573320e-03
2.245012784215870416e-03
3.100453420355356836e-03
3.939524818287964102e-03
4.763345253692336662e-03
5.572926605110130154e-03
6.369162244362624146e-03
7.152816546213566773e-03
7.924516256728379379e-03
8.684743693856822669e-03
9.433831880630971084e-03
1.017196169329831305e-02
1.089916104724972246e-02
1.161530601472030369e-02
1.232012403804402106e-02
1.301319897616581844e-02
1.369397809387660862e-02
1.436178078754560446e-02
1.501580901800946694e-02
1.565515924430383246e-02
1.627883578749993870e-02
1.688576547959002444e-02
1.747481330390169771e-02
1.804479902953649503e-02
1.859451441090531620e-02
1.912274093461353852e-02
1.962826783074160183e-02
2.010991013168038008e-02
2.056652655372753075e-02
2.099703694086632252e-02
2.140043919938819025e-02
2.177582532203141408e-02
2.212239646361962436e-02
2.243947680475908563e-02
2.272652602548731748e-02
2.298315018368703860e-02
2.320911088549494974e-02
2.340433261314631488e-02
2.356890814806413686e-02
2.370310195546913509e-02
2.380735137626363226e-02
2.388226575577915775e-02
2.392862337199157946e-02
2.394736628544618176e-02
2.393959302219066110e-02
2.390654925448323573e-02
2.384961657266646343e-02
2.377029937104613647e-02
2.367021016694364696e-02
2.355105333302328838e-02
2.341460764817312329e-02
2.326270767859096172e-02
2.309722438013933274e-02
2.292004510436533235e-02
2.273305327555264627e-02
2.253810793721858913e-02
2.233702366586235930e-02
2.213155089167922335e-02
2.192335698249893439e-02
2.171400840850203073e-02
2.150495416869208434e-02
2.129751076755194775e-02
2.109284890527186526e-02
2.089198225829879199e-02
2.069575830680320250e-02
2.050485147178291931e-02
2.031975870458095287e-02
2.014079749568292721e-02
1.996810652162696320e-02
1.980164876683808070e-02
1.964121722895055197e-02
1.948644306044930788e-02
1.933680609055199104e-02
1.919164755548981652e-02
1.905018493495536785e-02
1.891152860597098209e-02
1.877470012469557858e-02
1.863865182717133404e-02
1.850228747385939537e-02
1.836448371736774249e-02
1.822411194531584760e-02
1.808006021485599954e-02
1.793125497967471699e-02
1.777668220412163130e-02
1.761540753536786422e-02
1.744659528622884842e-02
1.726952585439297042e-02
1.708361131237813232e-02
1.688840891587875537e-02
1.668363227484275305e-02
1.646916007253661565e-02
1.624504207409220233e-02
1.601150238584458929e-02
1.576893987642982026e-02
1.551792569185381568e-02
1.525919797788637296e-02
1.499365380569556670e-02
1.472233839635793927e-02
1.444643187981976135e-02
1.416723371312077727e-02
1.388614497844515433e-02
1.360464901665658921e-02
1.332429042196343720e-02
1.304665295467443732e-02
1.277333664348535500e-02
1.250593437152533460e-02
1.224600847810460719e-02
1.199506763476199979e-02
1.175454440191127554e-02
1.152577387757179432e-02
1.130997370871296252e-02
1.110822581908461545e-02
1.092146022967749146e-02
1.075044115642232075e-02
1.059575568093560141e-02
1.045780505620136358e-02
1.033679898163115257e-02
1.023275277717182463e-02
1.014548763315472474e-02
1.007463378733141832e-02
1.001963668122147003e-02
9.979765962742847066e-03
9.954127205271882939e-03
9.941676086633287335e-03
9.941234814499103761e-03
9.951510559826784105e-03
9.971115447532407847e-03
9.998587960589307502e-03
1.003241523933338583e-02
1.007105590531370658e-02
1.011296312305790673e-02
1.015660734140743857e-02
1.020049855776275841e-02
1.024320748388295871e-02
1.028338538536880190e-02
1.031978227798698196e-02
1.035126317592282956e-02
1.037682196624645399e-02
1.039559288258190550e-02
1.040685930126743555e-02
1.041005981816132617e-02
1.040479135699178166e-02
1.039080944393132484e-02
1.036802556282586350e-02
1.033650177789825937e-02
1.029644263799400945e-02
1.024818459790587458e-02
1.019218321907903319e-02
1.012899830125085429e-02
1.005927731413704118e-02
9.983737501564568864e-03
9.903146977364902376e-03
9.818305127664007231e-03
9.730022832356625961e-03
9.639102794134416299e-03
9.546320410084480762e-03
9.452405520982557971e-03
9.358025477346361073e-03
9.263769757675777844e-03
9.170136580776314800e-03
9.077521619663256325e-03
8.986209122242365746e-03
8.896365683190266341e-03
8.808036666080728758e-03
8.721145467740087573e-03
8.635495540009412163e-03
8.550775207943154058e-03
8.466565150516627489e-03
8.382348531159638377e-03
8.297523388495256155e-03
8.211417192802985751e-03
8.123303245562469785e-03
8.032418539457811257e-03
7.937982832825637991e-03
7.839218480759663210e-03
7.735370660412353369e-03
7.625727583696948093e-03
7.509640181104758512e-03
7.386541068038120217e-03
7.255962192600174006e-03
7.117550861607642269e-03
6.971083756621746473e-03
6.816478704796851903e-03
6.653803874645091397e-03
6.483284172544592945e-03
6.305304634533053995e-03
6.120410751280019705e-03
5.929305574944023979e-03
5.732843630426478002e-03
5.532021734288031234e-03
5.327966756457963061e-03
5.121920528410041709e-03
4.915222181832192005e-03
4.709288002102476889e-03
4.505589357531565066e-03
4.305628883034515880e-03
4.110915501453781852e-03
3.922938554000695091e-03
3.743141529321728552e-03
3.572895878742788148e-03
3.413475505417755840e-03
3.266032067627979481e-03
3.131571922396924126e-03
3.010934940913342298e-03
2.904775633800164326e-03
2.813546988880630262e-03
2.737487317638606643e-03
2.676610379943827108e-03
2.630699046530272488e-03
2.599302664701907181e-03
2.581738209222477539e-03
2.577095259774400942e-03
2.584244777705973269e-03
2.601851518661667077e-03
2.628390112817903003e-03
2.662164455710356887e-03
2.701330041012402726e-03
2.743919066564127953e-03
2.787867824364414701e-03
2.831046017445601210e-03
2.871287479208387092e-03
2.906421899534380755e-03
2.934306833452467005e-03
2.952859725589751429e-03
2.960089279236247355e-03
2.954125652153159320e-03
2.933249086924435717e-03
2.895916327019115027e-03
2.840784562362032219e-03
2.766732391777771728e-03
2.672877464866313130e-03
2.558590497946482568e-03
2.423505478687066391e-03
2.267525814136378375e-03
2.090826419433134548e-03
1.893851608465377473e-03
1.677308852924230560e-03
1.442158465272950184e-03
1.189599545231896692e-03
9.210521506917904297e-04
6.381362879699541742e-04
3.426478179240756514e-04
3.653187860301795582e-05
-2.781458946732687796e-04
-5.992297721315292380e-04
-9.245054166939166212e-04
-1.251732073187239013e-03
-1.578674820324537428e-03
-1.903136344958604800e-03
-2.222987710733172455e-03
-2.536197663182400506e-03
-2.840859975446783509e-03
-3.135218376154107808e-03
-3.417688665233816273e-03
-3.686877642880487856e-03
-3.941598637702016343e-03
-4.180883276429479822e-03
-4.403989456114804427e-03
-4.610405270754075122e-03
-4.799848931056719357e-03
-4.972264832721120902e-03
-5.127815665014730760e-03
-5.266870893284556453e-03
-5.389991793740258642e-03
-5.497913285567212344e-03
-5.591523008817691522e-03
-5.671837964205901639e-03
-5.739979261115951865e-03
-5.797145322440494519e-03
-5.844584119358921075e-03
-5.883564896724156716e-03
-5.915349898988633837e-03
-5.941166731872257571e-03
-5.962181682051367199e-03
-5.979474680553183499e-03
-5.994016177845520876e-03
-6.006646453991590015e-03
-6.018057737426822998e-03
-6.028779358396425120e-03
-6.039166381287313680e-03
-6.049391638367736593e-03
-6.059441688086137159e-03
-6.069116457670187606e-03
-6.078032738663433944e-03
-6.085631344814270219e-03
-6.091187951189768086e-03
-6.093827365359759385e-03
-6.092540950464884336e-03
-6.086206901311872614e-03
-6.073613040532388485e-03
-6.053481714560958460e-03
-6.024496366914111785e-03
-5.985329235162388864e-03
-5.934669826998424658e-03
-5.871253542347603348e-03
-5.793890069047598693e-03
-5.701490829229028355e-03
-5.593095204873601775e-03
-5.467894968002791692e-03
-5.325256565697085095e-03
-5.164740698543163547e-03
-4.986119030852016916e-03
-4.789387584412032640e-03
-4.574776617579309757e-03
-4.342756850183942044e-03
-4.094041808904893241e-03
-3.829586290932864012e-03
-3.550580989479131238e-03
-3.258443230834737366e-03
-2.954804087301381079e-03
-2.641492005605614122e-03
-2.320513173846402294e-03
-1.994028913084427632e-03
-1.664330552464024721e-03
-1.333812116694685357e-03
-1.004941284969419887e-03
-6.802289665919382779e-04
-3.621980999857288340e-04
-5.335213987948954931e-05
2.438563286749037583e-04
5.270563672284400702e-04
7.939882872113080423e-04
1.042531768004410471e-03
1.270731946106541839e-03
1.476823158447247882e-03
1.659249936614784439e-03
1.816685078533329537e-03
1.948044380105848610e-03
2.052497989414593139e-03
2.129478180146125634e-03
2.178683429788086899e-03
2.200078896944985575e-03
2.193893257667041494e-03
2.160612023146389008e-03
2.100967509936658463e-03
2.015925706091865541e-03
1.906670209441828313e-03
1.774583556790125440e-03
1.621226344992011221e-03
1.448314468785591100e-03
1.257694885746536619e-03
1.051320248980810263e-03
8.312229533130277527e-04
5.994888085588701574e-04
3.582310128769177729e-04
1.095646533396259269e-04
-1.444178879469113213e-04
-4.016701818326090501e-04
-6.602133944725123698e-04
-9.181559653656969208e-04
-1.173711138311353715e-03
-1.425212143139298728e-03
-1.671124792600020732e-03
-1.910057514918681205e-03
-2.140768613956217387e-03
-2.362170864044234406e-03
-2.573333435893492005e-03
-2.773481186662891257e-03
-2.961991600224194322e-03
-3.138389395847502022e-03
-3.302339055414262210e-03
-3.453635551065350508e-03
-3.592193490945980519e-03
-3.718035012428143760e-03
-3.831276716948374145e-03
-3.932115924295409223e-03
-4.020816564444863218e-03
-4.097695105385826958e-03
-4.163106746680551341e-03
-4.217432127516380393e-03
-4.261064920972778246e-03
-4.294400487244150709e-03
-4.317825773684944198e-03
-4.331710754665007469e-03
-4.336401422735214166e-03
-4.332214475398657970e-03
-4.319433832459078360e-03
-4.298308952020644426e-03
-4.269054854105197583e-03
-4.231853890419188732e-03
-4.186859215225167789e-03
-4.134199706436801278e-03
-4.073986158512702890e-03
-4.006318645309215817e-03
-3.931294866025294987e-03
-3.849019148579488521e-03
-3.759611852164823458e-03
-3.663218989214494375e-03
-3.560021768642361584e-03
-3.450245785784451617e-03
-3.334169619565412537e-03
-3.212132580610233858e-03
-3.084541373930736741e-03
-2.951875546930781986e-03
-2.814691431404947163e-03
-2.673624599409169748e-03
-2.529390524470078328e-03
-2.382783488361918476e-03
-2.234673670106210926e-03
-2.086002442315697952e-03
-1.937775817239407745e-03
-1.791056225089842019e-03
-1.646952681598564837e-03
-1.506609418183750765e-03
-1.371193303616233868e-03
-1.241880100588427455e-03
-1.119839836701743340e-03
-1.006221609607961401e-03
-9.021379873794199917e-04
-8.086492770333659087e-04
-7.267480147471181741e-04
-6.573438659991477293e-04
-6.012492737679390803e-04
-5.591661203742816612e-04
-5.316735464757763908e-04
-5.192171928825666753e-04
-5.221002002806106237e-04
-5.404759971745778328e-04
-5.743430137109525662e-04
-6.235415193497327330e-04
-6.877526021939253924e-04
-7.664993502253424551e-04
-8.591502366935439275e-04
-9.649246357164683241e-04
-1.082900431353766429e-03
-1.212023616744698721e-03
-1.351119717623695945e-03
-1.498906898970109010e-03
-1.654010495082925422e-03
-1.814978822772121995e-03
-1.980299974188218844e-03
-2.148419356575594508e-03
-2.317757707379517959e-03
-2.486729303706907736e-03
-2.653760148448252188e-03
-2.817305718024586819e-03
-2.975868213252538027e-03
-3.128012879416163048e-03
-3.272383296715763740e-03
-3.407715349521972959e-03
-3.532849702168437776e-03
-3.646742726644283932e-03
-3.748475618577567451e-03
-3.837261620573244499e-03
-3.912451460321207317e-03
-3.973536689589389666e-03
-4.020151211203183868e-03
-4.052070906263642754e-03
-4.069211378249787056e-03
-4.071624003689648663e-03
-4.059490361697616102e-03
-4.033115209572158549e-03
-3.992918189876073012e-03
-3.939424411507653004e-03
-3.873254118826454772e-03
-3.795111691666114458e-03
-3.705774133746719216e-03
-3.606079323176863190e-03
-3.496914182730179784e-03
-3.379202984467673601e-03
-3.253895962098869894e-03
-3.121958448526728977e-03
-2.984360667580579062e-03
-2.842068267286898889e-03
-2.696033857378074810e-03
-2.547189453779184418e-03
-2.396439965976307398e-03
-2.244657816388348145e-03
-2.092678558435698017e-03
-1.941297703821266707e-03
-1.791268522768503339e-03
-1.643300728643711439e-03
-1.498060165801010785e-03
-1.356169209510453858e-03
-1.218207860818035573e-03
-1.084715349354433388e-03
-9.561921080924048414e-04
-8.331020768424748273e-04
-7.158750276165974169e-04
-6.049089452859967523e-04
-5.005721745237828131e-04
-4.032052807889110156e-04
-3.131225380485223907e-04
-2.306129553117546092e-04
-1.559406818098238239e-04
-8.934480678851886286e-05
-3.103852298311996215e-05
1.879240342811948586e-05
5.999186842937812101e-05
9.243614665676514928e-05
1.160372546374307298e-04
1.307467952044035983e-04
1.365601418063376485e-04
1.335208273896141065e-04
1.217251326544436271e-04
1.013265760863818981e-04
7.254028492217734329e-05
3.564688034226360942e-05
-9.004068454086072129e-06
-6.099130647795697832e-05
-1.198200017304675095e-04
-1.849208329493498592e-04
-2.556502123216193318e-04
-3.312917450778566134e-04
-4.110590050714250736e-04
-4.940996778885133490e-04
-5.795011959862052990e-04
-6.662978084800032621e-04
-7.534790203330610139e-04
-8.399994239256481851e-04
-9.247898873150210176e-04
-1.006769843576091382e-03
-1.084860661401526637e-03
-1.157999846976320510e-03
-1.225155981061474154e-03
-1.285343998741863289e-03
-1.337640729180101032e-03
-1.381200443268707726e-03
-1.415269969093011383e-03
-1.439203263878143305e-03
-1.452475079786102151e-03
-1.454693559128816772e-03
-1.445611321537555120e-03
-1.425134933628696265e-03
-1.393332486282287388e-03
-1.350439008752223058e-03
-1.296859680670302706e-03
-1.233170531492960766e-03
-1.160116580378948558e-03
-1.078607484408692285e-03
-9.897103399861143305e-04
-8.946399718031691024e-04
-7.947465905149179262e-04
-6.915010132603798465e-04
-5.864775032066063369e-04
-4.813344739455952090e-04
-3.777932607530254199e-04
-2.776153212782906917e-04
-1.825780229174734737e-04
-9.444949729635679359e-05
-1.496274713996111888e-05
5.421036959695962274e-05
1.114850780876936674e-04
1.553891320072868553e-04
1.845872066322842809e-04
1.979040244525347180e-04
1.943456892356597396e-04
1.731189504610101536e-04
1.336479909687180573e-04
7.558840717295131596e-05
-1.161822653269740129e-06
-9.645465875585303031e-05
-2.098878779923226356e-04
-3.408044724555045674e-04
-4.882958023751215581e-04
-6.512085494483464297e-04
-8.281553029772706744e-04
-1.017528778107841146e-03
-1.217519524154386584e-03
-1.426136970525005571e-03
-1.641233464299226858e-03
-1.860530973164248618e-03
-2.081650282714421311e-03
-2.302142105897650535e-03
-2.519519796385685274e-03
-2.731293040664447593e-03
-2.935002231030828940e-03
-3.128252966072001678e-03
-3.308750096269637720e-03
-3.474330896431722989e-03
-3.622996775974260397e-03
-3.752943103058377274e-03
-3.862586683352326432e-03
-3.950590426254093138e-03
-4.015884776776120803e-03
-4.057685600425946053e-03
-4.075508234026460792e-03
-4.069177446944760058e-03
-4.038832998152715875e-03
-3.984930897612522747e-03
-3.908240081910959243e-03
-3.809834633865635985e-03
-3.691081628047228076e-03
-3.553624645733774630e-03
-3.399363258117682474e-03
-3.230428733013410419e-03
-3.049156214897410979e-03
-2.858053774829307208e-03
-2.659768852456060022e-03
-2.457052488284857793e-03
-2.252721876398496373e-03
-2.049621743713620371e-03
-1.850585100458750770e-03
-1.658393964709720721e-03
-1.475740666131665360e-03
-1.305190161666654582e-03
-1.149144122183181705e-03
-1.009807127055139349e-03
-8.891555295932691751e-04
-7.889094820874549899e-04
-7.105085221645824007e-04
-6.550910434547839402e-04
-6.234780249736616032e-04
-6.161612650433375901e-04
-6.332961887078691985e-04
-6.746994666520676406e-04
-7.398514425551327598e-04
-8.279033440005502181e-04
-9.376890845611841321e-04
-1.067741686978552476e-03
-1.216313913691309144e-03
-1.381402857468985897e-03
-1.560778109733596420e-03
-1.752013244766772353e-03
-1.952519900067405589e-03
-2.159584215078541331e-03
-2.370404914771074428e-03
-2.582132588959821454e-03
-2.791909500478818515e-03
-2.996909443835284789e-03
-3.194377000431093076e-03
-3.381665654312119088e-03
-3.556274246895349111e-03
-3.715881181304681643e-03
-3.858375976471038402e-03
-3.981887625803125393e-03
-4.084809400050203911e-03
-4.165819792545318728e-03
-4.223899292365876877e-03
-4.258342756064255503e-03
-4.268767211054146082e-03
-4.255114986558171039e-03
-4.217652224165788048e-03
-4.156962786265659508e-03
-4.073937698538477627e-03
-3.969760283781034391e-03
-3.845887170174066769e-03
-3.704025631892186258e-03
-3.546107510310512762e-03
-3.374260189588600481e-03
-3.190775053026497551e-03
-2.998073854311268834e-03
-2.798673609512812837e-03
-2.595150483563023018e-03
-2.390103235687542592e-03
-2.186116747970623907e-03
-1.985726178500825390e-03
-1.791382306617945877e-03
-1.605418484859837775e-03
-1.430019797050076152e-03
-1.267194711088223376e-03
-1.118749797385558669e-03
-9.862676806639233181e-04
-8.710886594774490009e-04
-7.742961422428981796e-04
-6.967060959173527893e-04
-6.388606355193732298e-04
-6.010258755512579458e-04
-5.831938951888599679e-04
-5.850888093643066877e-04
-6.061767621899578950e-04
-6.456797235658065775e-04
-7.025927879057771190e-04
-7.757046546818278454e-04
-8.636210108103254714e-04
-9.647903257545662088e-04
-1.077531692469634646e-03
-1.200064288926449207e-03
-1.330537934226051679e-03
-1.467064309779397141e-03
-1.607748278209728465e-03
-1.750718868595269560e-03
-1.894159497493944121e-03
-2.036336882808400736e-03
-2.175628218511144272e-03
-2.310546296669044059e-03
-2.439762099130979300e-03
-2.562124605991345904e-03
-2.676677514635984138e-03
-2.782672582865073838e-03
-2.879579520533214788e-03
-2.967092235612866190e-03
-3.045131368446602187e-03
-3.113843151949911240e-03
-3.173594543728685408e-03
-3.224964830765721276e-03
-3.268733799443257482e-03
-3.305866718583462018e-03
-3.337496328114103721e-03
-3.364902187209318270e-03
-3.389487588834734499e-03
-3.412754576902786441e-03
-3.436277349098091748e-03
-3.461674450520450461e-03
-3.490580179504318165e-03
-3.524615656936503499e-03
-3.565360043111255942e-03
-3.614322229602479498e-03
-3.672913437111079843e-03
-3.742421203177141460e-03
-3.823985073400855070e-03
-3.918574262945247362e-03
-4.026967813795587561e-03
-4.149737379045860368e-03
-4.287232891432154851e-03
-4.439571371509441061e-03
-4.606628924025701205e-03
-4.788036192793238693e-03
-4.983177228451682143e-03
-5.191191761585321231e-03
-5.410980930065078034e-03
-5.641216336285710328e-03
-5.880352305145590368e-03
-6.126641233602066021e-03
-6.378151799978855167e-03
-6.632789795450537082e-03
-6.888321249737157370e-03
-7.142397733145279710e-03
-7.392583291543362682e-03
-7.636382926477294775e-03
-7.871272024728613592e-03
-8.094726492044866661e-03
-8.304253278714776240e-03
-8.497420868370634400e-03
-8.671889385947784482e-03
-8.825439932556876366e-03
-8.956002903197625431e-03
-9.061684868878346413e-03
-9.140793827656997980e-03
-9.191862492149149855e-03
-9.213669245832575502e-03
-9.205256774537916645e-03
-9.165947989777189706e-03
-9.095359225251153576e-03
-8.993410442391689547e-03
-8.860332419852404856e-03
-8.696670832403424062e-03
-8.503287287295333355e-03
-8.281357099928799217e-03
-8.032364051835255009e-03
-7.758092086527582261e-03
-7.460614036270106671e-03
-7.142277467797123781e-03
-6.805687909763586015e-03
-6.453689421103751996e-03
-6.089342875492714975e-03
-5.715901993947989680e-03
-5.336787511274442876e-03
-4.955559557095090550e-03
-4.575888523214525702e-03
-4.201524690249733990e-03
-3.836266907527907926e-03
-3.483930479353612459e-03
-3.148314651888594034e-03
-2.833169824464706974e-03
-2.542164888810205959e-03
-2.278854823777655761e-03
-2.046648891091064956e-03
-1.848779706229495504e-03
-1.688273333312181141e-03
-1.567920717292785489e-03
-1.490250651861392594e-03
-1.457504515088024625e-03
-1.471613006220595090e-03
-1.534175054390554162e-03
-1.646439077720965923e-03
-1.809286723813169784e-03
-2.023219382048589525e-03
-2.288347398250159884e-03
-2.604382379036082606e-03
-2.970632455599043261e-03
-3.386000717607990946e-03
-3.848986858978334629e-03
-4.357692028095875268e-03
-4.909826930260619351e-03
-5.502723273402724234e-03
-6.133348450615344789e-03
-6.798323424525519118e-03
-7.493943640500246028e-03
-8.216203128510759374e-03
-8.960821413472035146e-03
-9.723273271826317690e-03
-1.049882092749384287e-02
-1.128254871107560106e-02
-1.206939989114142776e-02
-1.285421532799960014e-02
-1.363177375207499063e-02
-1.439683340081896780e-02
-1.514417457441735206e-02
-1.586864288037337020e-02
-1.656519268804551581e-02
-1.722893052727015109e-02
-1.785515788964303976e-02
-1.843941330614994392e-02
-1.897751292702843859e-02
-1.946558946391698658e-02
-1.990012896322898572e-02
-2.027800513659200332e-02
-2.059651062222485340e-02
-2.085338497908711605e-02
-2.104683901133475726e-02
-2.117557512185528831e-02
-2.123880318753222987e-02
-2.123625199500138103e-02
-2.116817571754161381e-02
-2.103535538599081087e-02
-2.083909511283238078e-02
-2.058121304462639384e-02
-2.026402688144294389e-02
-1.989033403144632728e-02
-1.946338647899744506e-02
-1.898686039576344062e-02
-1.846482075002794238e-02
-1.790168105833787535e-02
-1.730215859357609604e-02
-1.667122551326618435e-02
-1.601405622617242674e-02
-1.533597135086057876e-02
-1.464237894260872648e-02
-1.393871350549618152e-02
-1.323037338406364734e-02
-1.252265714448995600e-02
-1.182069974219433425e-02
-1.112940892239475468e-02
-1.045340283778276036e-02
-9.796949485731662466e-03
-9.163908720420169823e-03
-8.557677535866897375e-03
-7.981139322218751622e-03
-7.436617848531816392e-03
-6.925836562822428738e-03
-6.449883824048548153e-03
-6.009184581982100412e-03
-5.603479130376820203e-03
-5.231809265321208172e-03
-4.892512238315755921e-03
-4.583222784514355899e-03
-4.300883383533374467e-03
-4.041762837086924041e-03
-3.801483283003255411e-03
-3.575055394854416684e-03
-3.356921700634429937e-03
-3.141007570406488883e-03
-2.920779584883490682e-03
-2.689310714690785597e-03
-2.439351696315744840e-03
-2.163407998226313678e-03
-1.853821481853906673e-03
-1.502855884613145745e-03
-1.102785294615562205e-03
-6.459845501933218380e-04
-1.250204926462504193e-04
4.672570245021874448e-04
1.137625402096995638e-03
1.892402054649382952e-03
2.737360788960059924e-03
3.677652874528955767e-03
4.717733923542541917e-03
5.861297617104137443e-03
7.111217165368132788e-03
8.469495460682336524e-03
9.937224861723535987e-03
1.151455712023754033e-02
1.320068416582712879e-02
1.499383015717052799e-02
1.689125509891776372e-02
1.888927034687255813e-02
2.098326585416390028e-02
2.316774923104605866e-02
2.543639621786601343e-02
2.778211213203228211e-02
3.019710370294139204e-02
3.267296062728983208e-02
3.520074590922256386e-02
3.777109387886175978e-02
4.037431494438031843e-02
4.300050559930146399e-02
4.563966238265308034e-02
4.828179842732376048e-02
5.091706097380415547e-02
5.353584841693052876e-02
5.612892513067450212e-02
5.868753276497522958e-02
6.120349626031656304e-02
6.366932311384075616e-02
6.607829446930124639e-02
6.842454667536751467e-02
7.070314217110039434e-02
7.291012847724502588e-02
7.504258438290058175e-02
7.709865254358262698e-02
7.907755790136632157e-02
8.097961148728752279e-02
8.280619947785923529e-02
8.455975751118804951e-02
8.624373042281770207e-02
8.786251794536242832e-02
8.942140693363603843e-02
9.092649108863934404e-02
9.238457920858346439e-02
9.380309323341583239e-02
9.518995749923322980e-02
9.655348083615773735e-02
9.790223311616995383e-02
9.924491813028851750e-02
1.005902447153148305e-01
1.019467980025502013e-01
1.033229127260246599e-01
1.047265506735491764e-01
1.061651839714693180e-01
1.076456862549538679e-01
1.091742332405920557e-01
1.107562143773206248e-01
1.123961570414724748e-01
1.140976643780285404e-01
1.158633679607329464e-01
1.176948959484567236e-01
1.195928572605620688e-01
1.215568421474234467e-01
1.235854391042769396e-01
1.256762678615284401e-01
1.278260278905174463e-01
1.300305616774786732e-01
1.322849316509174256e-01
1.345835094621432027e-01
1.369200761350542195e-01
1.392879313423658061e-01
1.416800098524273743e-01
1.440890032330837123e-01
1.465074845674974591e-01
1.489280340167124794e-01
1.513433630339658387e-01
1.537464349427909438e-01
1.561305797791007477e-01
1.584896012883094396e-01
1.608178742293852603e-01
1.631104300826615172e-01
1.653630297531530624e-01
1.675722219212900654e-01
1.697353859677947219e-01
1.718507588178189160e-01
1.739174452931026016e-01
1.759354117820157992e-01
1.779054635753143654e-01
1.798292064925657296e-01
1.817089936146878970e-01
1.835478584622833864e-01
1.853494361735176232e-01
1.871178745202349558e-01
1.888577368655678101e-01
1.905738992398875731e-01
1.922714441559858489e-01
1.939555536650513223e-01
1.956314043272241454e-01
1.973040667637604995e-01
1.989784123814398453e-01
2.006590298166262276e-01
2.023501534223481890e-01
2.040556059624168694e-01
2.057787573604861198e-01
2.075225010139739867e-01
2.092892488559590369e-01
2.110809458645229453e-01
2.128991043565965913e-01
2.147448577511507084e-01
2.166190332504378813e-01
2.185222420239105179e-01
2.204549852938046117e-01
2.224177739897171546e-01
2.244112592783858162e-01
2.264363707027772232e-01
2.284944583447960087e-01
2.305874349660599065e-01
2.327179138495866495e-01
2.348893378215964334e-01
2.371060946302284700e-01
2.393736139450755585e-01
2.416984412091089662e-01
2.440882836024436953e-01
2.465520236215723304e-01
2.490996961678927368e-01
2.517424253183121463e-01
2.544923175409821159e-01
2.573623085609331174e-01
2.603659620521598383e-01
2.635172188539705584e-01
2.668300963208389276e-01
2.703183383179170174e-01
2.739950173902306330e-01
2.778720915207379960e-01
2.819599189618290369e-01
2.862667355830516014e-01
2.907981002943254567e-01
2.955563149694726555e-01
3.005398262271901655e-01
3.057426173131335134e-01
3.111535992685159346e-01
3.167560107872315345e-01
3.225268373736386862e-01
3.284362602505342954e-01
3.344471462065742307e-01
3.405145893359336484e-01
3.465855159716014211e-01
3.525983636358605011e-01
3.584828445057970936e-01
3.641598035144872347e-01
3.695411801708313737e-01
3.745300824650004134e-01
3.790209802914250581e-01
3.829000241811382765e-01
3.860454939742103964e-01
3.883283805698683477e-01
3.896131021379053427e-01
3.897583544578810955e-01
3.886180932166629631e-01
3.860426441417411647e-01
3.818799349931447651e-01
3.759768415957575605e-01
3.681806379853845290e-01
3.583405389657590145e-01
3.463093217597177365e-01
3.319450115694558834e-01
3.151126144271709228e-01
2.956858793256120777e-01
2.735490704427684938e-01
2.485987293494912320e-01
2.207454061727932015e-01
1.899153385261510563e-01
1.560520563990697163e-01
1.191178915079255940e-01
7.909536984157354567e-02
3.598846675288415453e-02
-1.017629515432208823e-02
-5.934892391245082111e-02
-1.114552289814147723e-01
-1.663963002582292405e-01
-2.240482088509541947e-01
-2.842619407495584616e-01
-3.468635722522190878e-01
-4.116546934457175344e-01
-4.784130832016731394e-01
-5.468936364130878580e-01
-6.168295411755584379e-01
-6.879337008522229402e-01
-7.599003926909092543e-01
-8.324071519260405339e-01
-9.051168674780760703e-01
-9.776800723868273035e-01
-1.049737409687099721e+00
-1.120922251960751348e+00
-1.190863450585206040e+00
-1.259188188753614046e+00
-1.325524910691891156e+00
-1.389506298136105933e+00
-1.450772263991805477e+00
-1.508972932647831167e+00
-1.563771575863547314e+00
-1.614847473334902084e+00
-1.661898667430190102e+00
-1.704644582357857763e+00
-1.742828479329351365e+00
-1.776219720647108424e+00
-1.804615817524110488e+00
-1.827844238779497088e+00
-1.845763959945232013e+00
-1.858266734999526326e+00
-1.865278076122133921e+00
-1.866757929828678053e+00
-1.862701041332046614e+00
-1.853137002416199053e+00
-1.838129981555456371e+00
-1.817778138623153517e+00
-1.792212730213055272e+00
-1.761596914706623940e+00
-1.726124270016000661e+00
-1.686017039820854491e+00
-1.641524127351274620e+00
-1.592918858499549950e+00
-1.540496538426414874e+00
-1.484571828390018888e+00
-1.425475971061603397e+00
-1.363553894492714802e+00
-1.299161225735627756e+00
-1.232661246241666619e+00
-1.164421821320603678e+00
-1.094812336109810769e+00
-1.024200670077515252e+00
-9.529502412570349801e-01
-8.814171503911107930e-01
-8.099474535417519050e-01
-7.388745898887207897e-01
-6.685169893869600255e-01
-5.991758823985043891e-01
-5.311333308598387148e-01
-4.646504975801914461e-01
-3.999661673356498248e-01
-3.372955299327401457e-01
-2.768292327074997616e-01
-2.187327059208428459e-01
-1.631457618584220837e-01
-1.101824648310089361e-01
-5.993126620887036238e-02
-1.245539558343258628e-02
3.220650379292406412e-02
7.403950959977209645e-02
1.130513419748276627e-01
1.492710910274042402e-01
1.827477712145587074e-01
2.135487249925281938e-01
2.417578994965990380e-01
2.674740207819745197e-01
2.908086908810804116e-01
3.118844329351849187e-01
3.308327097821122109e-01
3.477919407422355724e-01
3.629055407221489782e-01
3.763200045691038609e-01
3.881830583809928736e-01
3.986418978296638604e-01
4.078415317084954084e-01
4.159232469767279450e-01
4.230232093716045916e-01
4.292712112913505407e-01
4.347895763862550944e-01
4.396922276851406020e-01
4.440839237755733748e-01
4.480596649723019853e-01
4.517042691734202142e-01
4.550921145536048762e-01
4.582870441628106306e-01
4.613424256111119393e-01
4.643013567234717254e-01
4.671970067870622745e-01
4.700530811826907907e-01
4.728843962119769762e-01
4.756975496543210391e-01
4.784916720116804689e-01
4.812592427369530301e-01
4.839869557012193013e-01
4.866566176987249803e-01
4.892460645448875045e-01
4.917300792813953936e-01
4.940812980796642218e-01
4.962710899394212061e-01
4.982703974664013380e-01
5.000505273331840028e-01
5.015838800970849887e-01
5.028446107187680703e-01
5.038092124392080651e-01
5.044570184014784964e-01
5.047706169326496850e-01
5.047361779933811077e-01
5.043436899019483333e-01
5.035871070621846801e-01
5.024644105812064998e-01
5.009775854061130351e-01
4.991325187504927485e-01
4.969388254556826867e-01
4.944096071673058646e-01
4.915611531467645179e-01
4.884125909380488961e-01
4.849854957300444025e-01
4.813034675839387710e-01
4.773916859603629104e-01
4.732764508134633674e-01
4.689847194239899486e-01
4.645436478599097030e-01
4.599801455447244392e-01
4.553204506514054728e-01
4.505897335613910926e-01
4.458117346594883124e-01
4.410084419219450491e-01
4.361998128775241845e-01
4.314035444154386001e-01
4.266348930110562820e-01
4.219065467977537454e-01
4.172285499856369095e-01
4.126082791856117704e-01
4.080504701401301282e-01
4.035572925230517805e-01
3.991284697959517347e-01
3.947614401202230727e-01
3.904515538907631367e-01
3.861923030444825988e-01
3.819755764980859447e-01
3.777919361197281112e-01
3.736309073599946573e-01
3.694812784067122990e-01
3.653314020376016158e-01
3.611694943717762563e-01
3.569839249340782117e-01
3.527634928038362316e-01
3.484976841076561360e-01
3.441769065620544632e-01
3.397926973315881782e-01
3.353379011333125770e-01
3.308068161243107319e-01
3.261953058757203761e-01
3.215008762920875673e-01
3.167227170562177951e-01
3.118617080062600078e-01
3.069203913955240171e-01
3.019029114714302797e-01
2.968149236335179131e-01
2.916634758472130273e-01
2.864568652323088438e-01
2.812044734484577257e-01
2.759165846466499761e-01
2.706041899179478794e-01
2.652787823447320115e-01
2.599521469636305593e-01
2.546361497821701958e-01
2.493425298640061516e-01
2.440826984203149363e-01
2.388675486851972452e-01
2.337072797456035966e-01
2.286112375041671751e-01
2.235877753106925714e-01
2.186441364614951088e-01
2.137863602079111691e-01
2.090192125473614715e-01
2.043461424736701393e-01
1.997692638527090170e-01
1.952893627601659243e-01
1.909059294405190677e-01
1.866172136685582128e-01
1.824203019835216877e-01
1.783112147257100710e-01
1.742850206107171007e-01
1.703359662897669657e-01
1.664576180823875706e-01
1.626430128449570245e-01
1.588848149906456619e-01
1.551754765606886688e-01
1.515073972190564278e-01
1.478730812705102426e-01
1.442652887037114695e-01
1.406771775159782190e-01
1.371024351049680567e-01
1.335353962879235745e-01
1.299711460671778840e-01
1.264056057216343676e-01
1.228356008433958840e-01
1.192589105591712190e-01
1.156742974450523653e-01
1.120815179932734412e-01
1.084813139111294039e-01
1.048753848453085336e-01
1.012663434892132758e-01
9.765765434691311975e-02
9.405355764107918570e-02
9.045898011370860636e-02
8.687943474903057905e-02
8.332091148953332804e-02
7.978976126736606056e-02
7.629257556582641486e-02
7.283606387327612453e-02
6.942693146645519120e-02
6.607175969559785089e-02
6.277689094425162319e-02
5.954832033181079592e-02
5.639159592466751192e-02
5.331172924437992122e-02
5.031311739206097144e-02
4.739947803500070556e-02
4.457379803728424988e-02
4.183829651772327796e-02
3.919440254942010288e-02
3.664274766262039934e-02
3.418317291894491794e-02
3.181475001408703984e-02
2.953581574014001870e-02
2.734401881533594231e-02
2.523637801465111394e-02
2.320935014325426968e-02
2.125890634849433164e-02
1.938061524722996254e-02
1.756973109888067264e-02
1.582128529969572053e-02
1.413017943036003719e-02
1.249127801448216175e-02
1.089949935513103395e-02
9.349902852339784035e-03
7.837771178971886243e-03
6.358685969720905343e-03
4.908595681558610736e-03
3.483874779881523595e-03
2.081373123405368467e-03
6.984550711875518996e-04
-6.669722718444724393e-04
-2.016441840491066395e-03
-3.350920623176299479e-03
-4.670814528689950021e-03
-5.975983815757742422e-03
-7.265768556546071955e-03
-8.539023416552930790e-03
-9.794160814530557257e-03
-1.102920141677023874e-02
-1.224183090419111476e-02
-1.342946175607170368e-02
-1.458929871196585314e-02
-1.571840666828260361e-02
-1.681377960394307702e-02
-1.787240923961323086e-02
-1.889135207648099876e-02
-1.986779370186027988e-02
-2.079910910896959689e-02
-2.168291801891706477e-02
-2.251713426912446692e-02
-2.330000844746961744e-02
-2.403016320606047793e-02
-2.470662065370966484e-02
-2.532882152009053450e-02
-2.589663594609734401e-02
-2.641036582442933892e-02
-2.687073887309916406e-02
-2.727889472156495854e-02
-2.763636346979836053e-02
-2.794503717848318899e-02
-2.820713514891972154e-02
-2.842516354471661538e-02
-2.860187043726835493e-02
-2.874019717884857342e-02
-2.884322693912686614e-02
-2.891413155906233726e-02
-2.895611769221687753e-02
-2.897237326177249522e-02
-2.896601522585490543e-02
-2.894003951981900455e-02
-2.889727411299404872e-02
-2.884033594642506151e-02
-2.877159261570062104e-02
-2.869312912348033831e-02
-2.860672040839979877e-02
-2.851380997660821204e-02
-2.841549489543516993e-02
-2.831251729791346705e-02
-2.820526244128629054e-02
-2.809376316013943720e-02
-2.797771054007863398e-02
-2.785647049423661120e-02
-2.772910577105424171e-02
-2.759440296364971262e-02
-2.745090391645648928e-02
-2.729694071994318710e-02
-2.713067383735099508e-02
-2.695013243034248551e-02
-2.675325622723392222e-02
-2.653793804791282351e-02
-2.630206634415754169e-02
-2.604356692201591217e-02
-2.576044317911918916e-02
-2.545081412711077892e-02
-2.511294967011025794e-02
-2.474530244732834477e-02
-2.434653598220164541e-02
-2.391554850958991368e-02
-2.345149236180501390e-02
-2.295378858295878122e-02
-2.242213668457861825e-02
-2.185651949236308914e-02
-2.125720316389101069e-02
-2.062473253070136806e-02
-1.995992187620242858e-02
-1.926384156935447359e-02
-1.853780081040700203e-02
-1.778332697644833399e-02
-1.700214209890548583e-02
-1.619613673407972396e-02
-1.536734210269161301e-02
-1.451790076912156009e-02
-1.365003654962143771e-02
-1.276602420394078348e-02
-1.186815943040542796e-02
-1.095872973499782341e-02
-1.003998667751296661e-02
-9.114119809080044668e-03
-8.183232832465140577e-03
-7.249322319859002016e-03
-6.314259324488171593e-03
-5.379773993753291482e-03
-4.447443464342462627e-03
-3.518683026785759688e-03
-2.594740806101799788e-03
-1.676695714229359648e-03
-7.654586435837543255e-04
1.382231237094409197e-04
1.033758656809706305e-03
1.920703432552612819e-03
2.798747022928022628e-03
3.667698751744030792e-03
4.527471580799695590e-03
5.378064760744303598e-03
6.219545417942654378e-03
7.052029826550653899e-03
7.875664342979669941e-03
8.690606656300186098e-03
9.497007621942965896e-03
1.029499412085755662e-02
1.108465306009756395e-02
1.186601697197518616e-02
1.263905139424135321e-02
1.340364424827951428e-02
1.415959729549070255e-02
1.490661991334791929e-02
1.564432511871948275e-02
1.637222791173738312e-02
1.708974587982544507e-02
1.779620208726562930e-02
1.849082996431744216e-02
1.917278016953286729e-02
1.984112923645264120e-02
2.049488966455691175e-02
2.113302135378692867e-02
2.175444404917925567e-02
2.235805051234905985e-02
2.294272020284612162e-02
2.350733312706886763e-02
2.405078354126877552e-02
2.457199335107896135e-02
2.506992486265379252e-02
2.554359265815813254e-02
2.599207440221743340e-02
2.641452044475603098e-02
2.681016187895610137e-02
2.717831713552759654e-02
2.751839690819377765e-02
2.782990741154874048e-02
2.811245186435659682e-02
2.836573028652876818e-02
2.858953761912956526e-02
2.878376029831560684e-02
2.894837126003821370e-02
2.908342364176241812e-02
2.918904329909758136e-02
2.926542028836072104e-02
2.931279952245673809e-02
2.933147083022253493e-02
2.932175854264419679e-02
2.928401090682340030e-02
2.921858954319516213e-02
2.912585914188602770e-02
2.900617754137712820e-02
2.885988640804446059e-02
2.868730272456162037e-02
2.848871119053001874e-02
2.826435763551231328e-02
2.801444364150854419e-02
2.773912237404032102e-02
2.743849564712047551e-02
2.711261234690643535e-02
2.676146811536479417e-02
2.638500631857922454e-02
2.598312019650863419e-02
2.555565615987938702e-02
2.510241811478467269e-02
2.462317264030821837e-02
2.411765497928511706e-02
2.358557562335244356e-02
2.302662733290807354e-02
2.244049247210615911e-02
2.182685051283010658e-02
2.118538541223380714e-02
2.051579279974606596e-02
1.981778681920319876e-02
1.909110645725554598e-02
1.833552126373460753e-02
1.755083624121326485e-02
1.673689600860311238e-02
1.589358796887587605e-02
1.502084450917690744e-02
1.411864422144763764e-02
1.318701219246576871e-02
1.222601925206743927e-02
1.123578030753203359e-02
1.021645182754252895e-02
9.168228522618823706e-03
8.091339364664273948e-03
6.986043118090706425e-03
5.852623353218088832e-03
4.691383298612859624e-03
3.502640547959189748e-03
2.286721834487630278e-03
1.043958039077820402e-03
-2.253204704535949625e-04
-1.520787902609710505e-03
-2.842126434186359549e-03
-4.189028742692390249e-03
-5.561199655963822500e-03
-6.958356714679434299e-03
-8.380229596997532462e-03
-9.826558344481308924e-03
-1.129709034831066425e-02
-1.279157605765719220e-02
-1.430976347332772389e-02
-1.585139143156387778e-02
-1.741618176048743277e-02
-1.900383034678311545e-02
-2.061399729952321375e-02
-2.224629627186803724e-02
-2.390028313100920482e-02
-2.557544416585138397e-02
-2.727118403147428885e-02
-2.898681359220679071e-02
-3.072153787076789891e-02
-3.247444434352160514e-02
-3.424449177114223530e-02
-3.603049987982130664e-02
-3.783113994235529770e-02
-3.964492668685607596e-02
-4.147021145949901511e-02
-4.330517706683516266e-02
-4.514783424183418936e-02
-4.699601997028140382e-02
-4.884739787799585037e-02
-5.069946060298382434e-02
-5.254953429942585408e-02
-5.439478521493398833e-02
-5.623222845587576985e-02
-5.805873884430901716e-02
-5.987106379427521718e-02
-6.166583812214485733e-02
-6.343960066537039644e-02
-6.518881254201126796e-02
-6.690987693531481872e-02
-6.859916004722940719e-02
-7.025301316977550226e-02
-7.186779559333114631e-02
-7.343989801257119754e-02
-7.496576623831004149e-02
-7.644192494487082878e-02
-7.786500113057302774e-02
-7.923174704764196496e-02
-8.053906230195616300e-02
-8.178401495690132417e-02
-8.296386123692006676e-02
-8.407606376249072977e-02
-8.511830793857545763e-02
-8.608851646340369423e-02
-8.698486162762786300e-02
-8.780577539143816224e-02
-8.854995712415025810e-02
-8.921637891900797979e-02
-8.980428827527006663e-02
-9.031320834643336015e-02
-9.074293569621912081e-02
-9.109353552192243908e-02
-9.136533460031191767e-02
-9.155891188042174222e-02
-9.167508697104576054e-02
-9.171490673324469989e-02
-9.167962997818196458e-02
-9.157071065874775040e-02
-9.138977968153472187e-02
-9.113862565175565034e-02
-9.081917474443849947e-02
-9.043346995056061877e-02
-8.998365002989357209e-02
-8.947192832324876721e-02
-8.890057183823407705e-02
-8.827188071214642218e-02
-8.758816836503285908e-02
-8.685174255474875649e-02
-8.606488759221835039e-02
-8.522984784854419071e-02
-8.434881272190485058e-02
-8.342390332135821152e-02
-8.245716083447512945e-02
-8.145053681440915516e-02
-8.040588529518860605e-02
-7.932495697260508183e-02
-7.820939536157765770e-02
-7.706073487143927370e-02
-7.588040084664482432e-02
-7.466971148435568029e-02
-7.342988153908794335e-02
-7.216202765845587674e-02
-7.086717528914740494e-02
-6.954626693197760168e-02
-6.820017168580895517e-02
-6.682969576773520326e-02
-6.543559394460002343e-02
-6.401858154930609168e-02
-6.257934701175786596e-02
-6.111856461343565666e-02
-5.963690735755745181e-02
-5.813505959607404017e-02
-5.661372938558530826e-02
-5.507366031611100887e-02
-5.351564265692607125e-02
-5.194052366016333605e-02
-5.034921687200029361e-02
-4.874271032036246731e-02
-4.712207349178128279e-02
-4.548846305039105919e-02
-4.384312709308595124e-02
-4.218740794329013666e-02
-4.052274366216996465e-02
-3.885066789578613122e-02
-3.717280839443668633e-02
-3.549088400703390850e-02
-3.380670035192080009e-02
-3.212214409501417539e-02
-3.043917603842159411e-02
-2.875982300214002460e-02
-2.708616865298514934e-02
-2.542034342246086986e-02
-2.376451351976040932e-02
-2.212086925998151682e-02
-2.049161287680539151e-02
-1.887894590383567064e-02
-1.728505619283361716e-02
-1.571210480435022983e-02
-1.416221287619628955e-02
-1.263744856941561613e-02
-1.113981426400633898e-02
-9.671234173236235160e-03
-8.233542315409476259e-03
-6.828471169788612009e-03
-5.457640924942165975e-03
-4.122549508818100159e-03
-2.824563487185900116e-03
-1.564909852109900180e-03
-3.446688119007768210e-04
8.352323938553725662e-04
1.974024603512373327e-03
3.071100752684744611e-03
4.126018817733714469e-03
5.138503529342022466e-03
6.108447026558622844e-03
7.035908287413232542e-03
7.921111496003527958e-03
8.764443262975195673e-03
9.566448796092837450e-03
1.032782694433821008e-02
1.104942427057138861e-02
1.173222815414456423e-02
1.237735891123910650e-02
1.298606104107932410e-02
1.355969364147537048e-02
1.409972010490295226e-02
1.460769707079208161e-02
1.508526271073720032e-02
1.553412448499646298e-02
1.595604642427410694e-02
1.635283592310645198e-02
1.672633027503146741e-02
1.707838292621186374e-02
1.741084955945677165e-02
1.772557413033958376e-02
1.802437490521823643e-02
1.830903064676142264e-02
1.858126698106099192e-02
1.884274314119649060e-02
1.909503917265336151e-02
1.933964351122413258e-02
1.957794138318250457e-02
1.981120383365494661e-02
2.004057760139457342e-02
2.026707597330315580e-02
2.049157061040443942e-02
2.071478456146058633e-02
2.093728645201950109e-02
2.115948598082178361e-02
2.138163072213022237e-02
2.160380441716305139e-02
2.182592669649255357e-02
2.204775435155494762e-02
2.226888410661182274e-02
2.248875695193783622e-02
2.270666403451901752e-02
2.292175412236091558e-02
2.313304251031371092e-02
2.333942145930215442e-02
2.353967194959772150e-02
2.373247684862727150e-02
2.391643522183654891e-02
2.409007776355782948e-02
2.425188324286774860e-02
2.440029569587600158e-02
2.453374236164206773e-02
2.465065210449523050e-02
2.474947416560018335e-02
2.482869698491447716e-02
2.488686706766713580e-02
2.492260749153139832e-02
2.493463596641288388e-02
2.492178224867411598e-02
2.488300465319463403e-02
2.481740551832934544e-02
2.472424535886310823e-02
2.460295565006112226e-02
2.445314992944468482e-02
2.427463314600045510e-02
2.406740913893411563e-02
2.383168608792545634e-02
2.356787989284251164e-02
2.327661524865603029e-02
2.295872467319447219e-02
2.261524513453852178e-02
2.224741245900617101e-02
2.185665351804681397e-02
2.144457629402759385e-02
2.101295783731770700e-02
2.056373025502506238e-02
2.009896484750383489e-02
1.962085458980991973e-02
1.913169511150396990e-02
1.863386435744967054e-02
1.812980124419948449e-02
1.762198338959048219e-02
1.711290430614810162e-02
1.660505022595303720e-02
1.610087687256804220e-02
1.560278641263153007e-02
1.511310487240357173e-02
1.463406029524717648e-02
1.416776183177985600e-02
1.371618006063920515e-02
1.328112881690678322e-02
1.286424866440256075e-02
1.246699221430666929e-02
1.209061147313104587e-02
1.173614743790536361e-02
1.140442191143593506e-02
1.109603181457359533e-02
1.081134589323323736e-02
1.055050397335297561e-02
1.031341867420469682e-02
1.009977965104747258e-02
9.909060252963005494e-03
9.740526424534549227e-03
9.593247926863302313e-03
9.466111584142693561e-03
9.357836407101733853e-03
9.266990412903785071e-03
9.192008988644270392e-03
9.131214461086891235e-03
9.082836702761335618e-03
9.045034443986224929e-03
9.015917206303019835e-03
8.993567291221396878e-03
8.976061859995707048e-03
8.961494615507291372e-03
8.947996968918967356e-03
8.933758361108070506e-03
8.917045540334843021e-03
8.896220571036181704e-03
8.869757320651591032e-03
8.836256311032174640e-03
8.794457828091056112e-03
8.743253025106203016e-03
8.681692999511237199e-03
8.608995776314812276e-03
8.524551059209699647e-03
8.427922884462514530e-03
8.318850050035631050e-03
8.197244420723519623e-03
8.063187156006870054e-03
7.916923046686398860e-03
7.758852911485552076e-03
7.589524291802675175e-03
7.409620620102682319e-03
7.219949039931716599e-03
7.021426934875403536e-03
6.815067555432338317e-03
6.601964819982931477e-03
6.383277585722615076e-03
6.160213532361738346e-03
5.934012994938678981e-03
5.705932789257548571e-03
5.477230416398880253e-03
5.249148733087186797e-03
5.022901300871528835e-03
4.799658595600531617e-03
4.580535167571638151e-03
4.366577968848707816e-03
4.158755952443061142e-03
3.957950980480424291e-03
3.764950148380115033e-03
3.580439676008355561e-03
3.405000155708800061e-03
3.239103421600532818e-03
3.083110934289891129e-03
2.937273515254392765e-03
2.801732539609386174e-03
2.676522490612598913e-03
2.561574699047726444e-03
2.456722321678792269e-03
2.361706243109466027e-03
2.276181948667565895e-03
2.199727122386293220e-03
2.131849945287973662e-03
2.071997816487570598e-03
2.019566453886095358e-03
1.973909202495102537e-03
1.934346439175304178e-03
1.900174837571348132e-03
1.870676551114432021e-03
1.845128041072788749e-03
1.822808522180482211e-03
1.803007934983438029e-03
1.785034244036418690e-03
1.768220209785503890e-03
1.751929426085672981e-03
1.735561575376216772e-03
1.718557009571273358e-03
1.700400509755169197e-03
1.680624252348515701e-03
1.658810054333718876e-03
1.634590920629770986e-03
1.607651858724210318e-03
1.577730021737966740e-03
1.544614306754705981e-03
1.508144362358305578e-03
1.468209138809602101e-03
1.424745018197429722e-03
1.377733588469868663e-03
1.327199173501817124e-03
1.273206111650295380e-03
1.215855862775310024e-03
1.155284036328831565e-03
1.091657400903885394e-03
1.025170920349880018e-03
9.560447770609873568e-04
8.845214904651738834e-04
8.108631670124444475e-04
7.353488489676990184e-04
6.582720255917846614e-04
5.799383157033486660e-04
5.006632734206052085e-04
4.207702726375813461e-04
3.405886349840218648e-04
2.604517600242495668e-04
1.806953936390241853e-04
1.016560079673758135e-04
2.366910956716861098e-05
-5.293238833425845450e-05
-1.278196850010831901e-04
-2.006698633665505603e-04
-2.711675771970632038e-04
-3.390067862430751894e-04
-4.038926292700007869e-04
-4.655433418557374686e-04
-5.236923102276790217e-04
-5.780901517947438376e-04
-6.285069071453149503e-04
-6.747342266712983436e-04
-7.165876247406028667e-04
-7.539086933267462407e-04
-7.865673229814544674e-04
-8.144638351711195158e-04
-8.375309424234505433e-04
-8.557355490660441960e-04
-8.690803651490193590e-04
-8.776052424425582685e-04
-8.813881663022677315e-04
-8.805458894125444205e-04
-8.752341934497307515e-04
-8.656476223846388228e-04
-8.520188166076608999e-04
-8.346172902669320810e-04
-8.137476620658724760e-04
-7.897474022746055937e-04
-7.629840012671177838e-04
-7.338516234072509428e-04
-7.027671968549747874e-04
-6.701661022909284745e-04
-6.364973247576098843e-04
-6.022182931707659431e-04
-5.677893876904396148e-04
-5.336681147718650266e-04
-5.003031604414219860e-04
-4.681282910086932182e-04
-4.375562922206597486e-04
-4.089729970298935013e-04
-3.827314344696908341e-04
-3.591463088494147048e-04
-3.384888473445339641e-04
-3.209821113543307966e-04
-3.067969188354030216e-04
-2.960483469722852493e-04
-2.887929728760280654e-04
-2.850269772473570029e-04
-2.846851040974257910e-04
-2.876404428558698993e-04
-2.937051133990105129e-04
-3.026320179330349385e-04
-3.141174005255451180e-04
-3.278044282563864157e-04
-3.432876167060831276e-04
-3.601181754789638083e-04
-3.778100193830600064e-04
-3.958465662027300372e-04
-4.136881101031360817e-04
-4.307797885959994857e-04
-4.465598778876417232e-04
-4.604683936435113520e-04
-4.719557966063977930e-04
-4.804917249401776487e-04
-4.855736135790147934e-04
-4.867350664765912344e-04
-4.835537336235431094e-04
-4.756587459540297254e-04
-4.627374099362536282e-04
-4.445411689543466187e-04
-4.208906426136449584e-04
-3.916796822349582802e-04
-3.568783991117311120e-04
-3.165349967497652333e-04
-2.707764751303080603e-04
-2.198081490241738810e-04
-1.639119485713315730e-04
-1.034435419915045388e-04
-3.882827792515051269e-05
2.944392324225840655e-05
1.008247660339511517e-04
1.747146476974237924e-04
2.504705780993735803e-04
3.274148109429972082e-04
