5.753089943619274158e-03
3.222522125853106382e-03
7.239683006734257912e-04
-4.331889030756451431e-03
-4.316452791790265434e-03
-3.047713636433427731e-03
-2.970050720399855775e-03
-2.253113184616384844e-03
6.312204272143015233e-04
-7.212360308735846041e-04
-3.101245510284285616e-03
-5.132957779069516856e-03
-8.682827071647947724e-04
1.441201815266543625e-02
2.466547351536488644e-02
4.684945823467142820e-03
-2.069452889348418617e-02
-1.931567382658629442e-02
-9.794705550751727548e-04
8.346912595000754997e-03
8.037249765402600457e-03
-3.854353672406286391e-04
-4.856097778728984266e-03
-4.130527388184279149e-03
-2.293738118909061444e-03
-8.280525910777511087e-04
-4.478662448303578620e-04
-2.629982463895382937e-03
2.999435659505448356e-04
1.036223762567888527e-02
1.583322388062697109e-02
1.123345894212889919e-02
-4.806886676165992786e-03
-1.642183668050269454e-02
-1.629247890669208859e-02
-1.006828429900056589e-02
-9.541052227060480614e-04
1.120437465969233853e-02
1.114927501495494890e-02
1.775940851822603280e-03
1.622093639812941250e-04
2.623737747941187401e-03
-7.904105898424776660e-04
-1.577073544612103044e-03
-2.419499848011844316e-04
3.317291939766158979e-03
4.169676250889382818e-03
-1.235865547896652797e-03
-6.368869930203311172e-03
-1.017824237225028322e-02
-1.037706591767784646e-02
-1.002105104349708007e-03
9.577670945833571120e-03
6.438300637612907884e-03
1.970057593373685575e-03
6.881156957091225101e-03
7.306587375308785590e-03
-2.844194929223872303e-03
-8.153331103898786916e-03
2.317344072107254131e-04
2.628732551469776905e-03
-5.078494438812141375e-03
-8.233309154550597433e-03
-2.396730140916353367e-03
8.542231345437195731e-04
5.511113326327138698e-03
9.922637411976622732e-03
1.060763799102086048e-02
-1.102935121144042697e-03
-1.541533450291913444e-02
-1.582251600953721998e-02
-3.213862429952809522e-03
5.496056782209822120e-03
8.187031084242717832e-03
1.295199684711891529e-02
7.271485473690157686e-03
-2.314605124117223838e-03
-5.922600012462307315e-03
-5.733791814212132847e-03
-5.767583011121936443e-03
-3.485733013743152857e-03
1.207730693018157575e-03
4.137442120198851596e-03
3.419431184309622371e-03
2.972055267129568388e-03
3.515150616201981239e-03
6.234672770377576098e-03
7.314340465383020653e-04
-9.035521088461132000e-03
-1.161240869294427776e-02
-4.070841553589437702e-03
5.148214044027193698e-04
1.445833181023800868e-03
7.808461263585767843e-04
-3.328618551362211623e-04
3.368748720891093316e-03
9.205066319511609474e-03
6.544945687859586927e-03
-5.497321051357492369e-03
-1.302895139026147113e-02
-5.842429219624654946e-03
6.410990804804042945e-03
1.177106885160422549e-02
1.306229604399938328e-02
7.605770056305973317e-03
-1.023099565291647013e-03
-8.324904825215501125e-03
-1.008619984238969328e-02
-1.030469198436477669e-02
-9.433793834265033137e-03
-6.212038133390808403e-03
9.601869508698952175e-04
2.568350372079435465e-03
-2.344249830217768303e-03
-2.680930481257053511e-03
4.857684748673513943e-03
1.118333265494316636e-02
1.296880054797916633e-02
2.378267218143984355e-02
2.175374834292218354e-02
-5.712258200983767395e-03
-2.957052299268372181e-02
-2.947507391683991049e-02
-1.421046465875018712e-02
3.343791279238431894e-03
1.293269193027776244e-02
6.162960492211848849e-03
-3.664580921515447464e-03
-3.839551287393134105e-03
3.406657634367268785e-03
6.538167649371919195e-03
4.085222960984095583e-03
-1.161066132940840072e-03
-3.374660095854276586e-03
-8.694978400831444333e-04
2.373361195749069345e-03
4.030698215740440363e-03
3.592493601987991128e-03
4.808140335994623427e-03
4.401638860721777090e-03
1.082437128930146620e-03
-3.530236348639631885e-03
-1.100259464961152352e-02
-1.326251874684074988e-02
-9.686251125310258586e-03
-2.674344532599776721e-03
5.423279872534782280e-05
1.322409420791711672e-03
5.939214269578036928e-03
1.397491613002670510e-02
1.525874082951873822e-02
7.836444903873652709e-03
2.581272491659072845e-04
-4.134736515225953014e-03
-3.234753801044275984e-03
-4.093866016487998291e-03
-4.450688398319411695e-03
-8.133911142106611813e-03
-1.346063024661559027e-02
-1.338790509504273439e-02
-2.382479178349244508e-03
1.136512170511299810e-02
1.905367130585008256e-02
1.232950024747297632e-02
3.681665117720378457e-04
-5.541970443592291601e-03
-3.292703192853800327e-03
5.035980733995574403e-04
1.352085202383955130e-03
2.527386490013317638e-03
4.857685256281751504e-03
2.460452778438992644e-03
-1.685316308924742846e-03
-9.922299285275005751e-03
-1.358232823408464865e-02
-1.144686497023313099e-02
-5.017818163469733687e-03
8.038953645463855699e-03
1.404953832424025474e-02
7.431835836306880869e-03
7.577651730825976043e-04
1.858349570212934837e-03
1.460014177422320038e-03
-1.944865175493552681e-03
1.565416612462726181e-03
9.083758188111303380e-03
3.048005241594847325e-03
-1.197983550437379217e-02
-1.800580748977614540e-02
-6.335638700532683285e-03
3.658654606498732646e-03
6.041824371890675699e-03
2.666711619646623503e-03
2.712494320241063891e-03
9.405606811211820323e-03
1.223475288223677127e-02
-5.726497349560353417e-03
-2.143330295173240599e-02
-1.459374839556627258e-02
4.407953317969046103e-03
1.816256199372157445e-02
1.917303576608830190e-02
6.498490894055223080e-03
-9.055240477890032225e-03
-1.439189370122703066e-02
-8.768449723585912750e-03
-3.943797988395445105e-03
-2.205110137771124838e-04
5.162282426766763230e-03
4.750984552279599420e-03
-1.884371600328713743e-03
-5.408695062031049390e-03
-6.126986481096136734e-04
5.037095026622589664e-03
2.227779241375370690e-03
-2.197546294532937410e-03
-1.872925692209020682e-03
9.549548529660447163e-03
1.490531002511214648e-02
1.228174995472171814e-02
5.720321542186303232e-03
-8.809549051321871951e-03
-1.898409880768333127e-02
-2.297054691698466669e-02
-2.118194577796586944e-02
-9.411988151185044990e-03
9.254675429039209075e-03
1.100017890761947024e-02
6.339624158495807925e-03
1.156881550612117414e-02
2.006226681673150408e-02
1.645374309621087591e-02
4.861684892508551237e-03
-6.213320885302133292e-03
-9.677307752187164561e-03
-1.081594764343682402e-02
-9.427362690745153678e-03
-7.743656498154461928e-03
-5.233050629766710510e-03
-3.782084886932573619e-03
2.682003521360580654e-03
4.690913234294671018e-03
7.443537256896219645e-03
8.828216590361800953e-03
5.063700991180216000e-03
-7.595828381967851661e-04
-2.649068519724948490e-03
-2.087176508241516629e-03
-4.217344114391744815e-03
-6.858798127630603286e-03
-6.612220161810490604e-03
-4.356487193822824143e-03
8.695573962657605980e-05
4.133639887518118609e-03
4.719356601223385385e-03
1.080837767086587076e-02
1.562135087055572559e-02
8.387346130919232437e-03
-3.829046927767314808e-03
-7.103276883699501977e-03
-3.525870150440256999e-03
2.552705361882981754e-04
-6.037530007655813637e-03
-1.417769572889174094e-02
-1.558826223687407621e-02
-1.034603294383013190e-02
1.354639789556101527e-04
1.095771956411133695e-02
2.058867805828923370e-02
1.680910110026173285e-02
-7.181149172324084642e-04
-1.343911105529121790e-02
-8.787111092827811637e-03
3.945886493321294416e-03
1.008915179471654537e-02
8.975221894304767634e-03
3.569987592152987395e-03
-4.859253297031239024e-03
-7.730522599264518305e-03
-3.784143442798095728e-03
6.231038752567976628e-04
-1.758736301389627775e-03
-5.485497976262823823e-03
-2.485654607999801449e-03
1.308483733649254454e-03
1.491969948514149384e-04
-5.454278807323859144e-04
-9.836928099573641858e-04
-5.788989742837422244e-03
-7.225816382228167009e-03
4.412995682060369407e-03
1.073558338163328914e-02
6.898229825611466859e-03
5.261022476867742090e-03
7.156577467078405370e-03
1.213531074788759935e-03
-4.135919467551793342e-03
-2.008338334773800398e-03
1.499399447159832166e-03
2.277553009853514141e-03
-1.630035696554443846e-03
-6.045969039384066317e-03
-5.836938265393947119e-03
-5.587984650090584496e-03
-7.850696131356575680e-03
-4.448027479933515903e-03
2.919158529926691326e-03
8.296036993168970797e-04
-4.897612485269562353e-03
-2.647188154321736351e-03
4.834217084370250397e-03
1.247731907870900346e-02
1.501454810730981811e-02
9.719561739811219056e-03
2.814796908155202133e-03
-1.052054318444981288e-03
-2.764838889471632564e-03
-6.740881560469410248e-03
-5.960972281088453874e-03
-1.636808951182486737e-03
6.183584323090302124e-04
-2.179643255711747555e-03
-4.427419465382642291e-03
-7.952857585909245408e-03
-1.469313855860773614e-02
-1.190115218046205320e-02
-6.337385450532461231e-03
7.300076445931150473e-03
2.621696748157089848e-02
3.218328354224660875e-02
1.685217396485482952e-02
-5.884369322208574463e-03
-1.393028256537535807e-02
-8.104113481677414563e-03
-5.259881981366746652e-03
-6.077642208894645792e-03
-3.749143183790978450e-03
-2.279593722517525307e-03
-5.496465095661276501e-03
-4.994387507569010565e-03
-4.094836986720922986e-03
-1.831257766250880869e-03
5.820931725452045333e-03
1.006484284661402287e-02
8.193241549862765108e-03
7.090458098700977083e-03
3.086520612673960325e-03
3.776845996332657465e-03
-3.557678336693571234e-04
-1.014751413197757801e-02
-1.087910762408836676e-02
-4.921157143724756711e-03
-1.297201699251325567e-04
8.318187888776282929e-03
1.565209086475853259e-02
1.041172668874111064e-02
-5.102239676767171550e-03
-1.757175119591482607e-02
-1.868195615998517745e-02
-1.473641017413000569e-02
-1.791735989245843907e-03
1.022266874747602278e-02
1.259689692375317617e-02
8.964530439446958057e-03
3.997614811208862265e-03
3.701680372995259840e-03
6.865244069687096752e-03
5.517003060367177761e-03
4.940069100341653880e-04
-6.179528186022859547e-03
-8.534658201300535790e-03
-5.495566010224146522e-03
-1.172713083904234612e-03
-1.953016275597718168e-03
-1.643239106526763328e-04
5.331594465399242845e-03
5.633741912304125743e-03
-1.563788886343056876e-03
-9.835234977746866100e-03
-5.092914386032561420e-03
1.602549074968714600e-03
2.264887982853322750e-03
-3.448298377102986673e-03
-5.651155484159797043e-03
-2.397880631688054098e-03
4.884694745024314132e-03
1.596570095712445195e-02
1.578183525598259376e-02
6.792701831653347264e-04
-9.683696347516498534e-03
-5.901462472787967310e-03
-3.462332506966582252e-03
-2.304061046284357466e-03
1.293320508062788818e-03
7.392014554437571078e-03
5.690693107863733710e-03
-2.953350739783145752e-03
-9.264725706239675812e-03
-6.837198568187804158e-03
-1.897631459994702152e-03
-1.863352266462520212e-03
-1.766619826484119946e-03
-3.488509796988074375e-03
-4.324969847547000153e-03
1.170623300589944404e-03
1.339385668970063947e-02
1.409864480375304548e-02
5.757337188414974119e-03
-1.870765383258056946e-03
-3.793418826593107553e-03
-2.375223061125344027e-03
-1.074485077691637218e-03
-4.671795596495793043e-04
-2.052177200286532666e-03
-3.053895228685833772e-03
-3.809805082195689692e-04
-8.423498865958954900e-04
-9.998254539293545840e-04
1.710777369483363415e-04
-1.158041569949733304e-03
-6.980229661784393032e-04
5.259215797813750204e-03
7.020730502048165393e-03
-4.168038201511545943e-03
-1.629195189534673668e-02
-1.259442643798048232e-02
3.390083404388963186e-03
1.438799793715926818e-02
9.671036326062048064e-03
1.374315687052868893e-03
-2.518242774252316737e-03
-7.713721423773928481e-04
2.627253297077731305e-03
6.709757756136488713e-03
5.904532984917865678e-03
1.336060011445394354e-03
-1.606394571950826465e-03
-3.786492827063236716e-03
-1.337871246881897590e-02
-1.656335917419072407e-02
-6.360959874320762722e-03
4.398413971207200054e-03
6.417881944651166598e-03
3.693393200462962746e-03
1.137033880728791600e-02
1.408035554861763149e-02
1.159925599631530185e-04
-8.359672034870941487e-03
-5.820383939794697079e-03
-2.155552442505128709e-03
-3.901268653517254471e-03
-7.526353192493987279e-03
-4.163469063799548481e-03
8.639817109515191343e-03
1.257556995882791115e-02
5.805108343756066810e-03
-1.619295898243421029e-03
-4.233027075897739799e-03
-5.276742175482507929e-03
-4.791477541159250807e-03
9.948479076954945977e-04
4.411433100380346591e-03
4.199662977900406324e-03
-1.656674750563534191e-03
-5.553921305106087822e-03
-3.390016755628131283e-03
-2.803705542506122143e-03
-1.338452481040488108e-04
7.830785352647895090e-03
1.225422097542306667e-02
8.427502545082883254e-03
-3.315163308559517224e-03
-1.378054441714693205e-02
-1.758031159413869782e-02
-9.622078340987891623e-03
5.885066452436620715e-03
1.191583887345887098e-02
4.256818256741033701e-03
-3.464985388524587356e-03
1.749147857460342688e-03
1.578682842174310846e-02
1.513527363668827792e-02
-2.375131700603008277e-03
-1.726037223622661071e-02
-1.492618453802761584e-02
-3.208688360086215090e-03
1.516704528321791709e-03
4.551126654837991080e-03
5.865503148832356371e-03
1.015794919764863432e-03
-4.057226660274931666e-03
-2.795396917020625573e-03
3.780208140375120019e-04
1.805210485451763658e-03
8.801391794964716657e-04
-2.589262860011298773e-04
1.590287630044775156e-03
3.216178283251406363e-03
1.859583167954468848e-03
-1.275821039833852479e-03
-1.479450775039128788e-03
-1.442773919280131568e-04
2.102641520025527126e-03
9.782404860064343281e-04
-1.621192217699817569e-04
6.472435225573747685e-05
-2.896037510278482406e-03
-8.550668612982875380e-03
-1.212137217079886295e-02
-4.244614780451442040e-03
8.271654181296828057e-03
1.434359822737659752e-02
1.264360892744152351e-02
3.814030676542512922e-03
-8.369980189734634642e-04
-1.154522449897558934e-03
-7.218071210881461981e-03
-1.278729401018846752e-02
-8.420842409879543064e-03
-2.683795447357561256e-03
3.945380608079165213e-03
1.419108377817502979e-02
1.048055930506615850e-02
7.192878824112630774e-04
-5.970260003369887505e-03
-7.639454089006045973e-03
-6.459460562855145506e-03
1.046773857799319614e-03
8.290009300102952131e-03
7.008680196609755157e-03
1.155834801659973545e-03
-2.712484414314755496e-03
-5.506792267621796189e-03
-9.194873378797509961e-03
-6.731650638050389913e-03
3.908510889937954623e-04
2.444666543412286810e-03
5.569669434975238302e-03
1.055862198796735617e-02
6.901960867241997352e-03
-1.427347089427703558e-03
-7.265668027191213990e-03
-3.766647909304641269e-03
-1.148322830027616342e-04
1.366186547445982563e-03
1.708232145913066635e-03
4.234541927868994832e-03
5.103478883331024479e-03
4.842185391064880392e-04
-6.420620429885308053e-03
-1.254411330089462775e-02
-8.393130642495659488e-03
-3.379833808397899025e-03
-1.915120096931691922e-04
4.744871458870153144e-03
1.209959628444326300e-02
1.169827902057757156e-02
3.573578260758846371e-03
-3.588793214452168433e-04
-1.324321777043357224e-03
-1.478542085966928245e-03
-2.377037485319221689e-03
-5.427196011461946426e-03
-7.458160554899729601e-03
-3.311115070821426306e-03
4.295712851866377168e-04
2.220697264460417316e-03
-1.918690785640563478e-03
-5.135483414991314464e-03
3.028710460101272683e-05
9.129757732630555678e-03
1.526344650828379175e-02
1.274328462969928459e-02
2.435904900254793910e-03
-1.067330807313662290e-02
-1.732035258382252571e-02
-7.769800703546820946e-03
4.387537488245659562e-03
4.210671779490188574e-03
-3.686700857280009788e-03
-9.176885080062422914e-03
-4.863065110177909080e-03
4.300526014306638167e-03
7.408926562332138893e-03
3.161875760194567640e-03
3.060710977598204551e-03
1.141412961670419668e-02
7.940946961124644224e-03
-7.368004316836167591e-03
-1.043111699863115242e-02
-1.134922227521674041e-03
1.147439175061910031e-02
1.164008899117056732e-02
-4.482187041623245972e-03
-1.783217305624765214e-02
-1.802715446924578468e-02
-1.221219053261557441e-02
-8.737870538086381020e-03
-2.826133642157819311e-03
1.517786853234960945e-02
3.293764734459523474e-02
3.305248169755799909e-02
6.480212025380986327e-03
-2.136857782789893315e-02
-2.419218227428242621e-02
-9.118433753791191365e-03
4.212639442312952551e-03
8.685090728107974431e-03
6.054828930138725536e-03
3.959824251372586943e-04
-6.471432652115493601e-03
-1.406337807080931292e-02
-1.316169903925004485e-02
-5.960268560192662560e-03
7.049216912547716721e-03
1.836842171330670820e-02
1.256418125655708005e-02
-4.141635327478122158e-03
-1.242732920328531478e-02
-3.987946792897613044e-03
4.574246469196041089e-03
8.216042064510169565e-03
1.192820156916917645e-02
1.410761597638019935e-02
2.292704283975345852e-03
-8.526042305909057803e-03
-1.648167827332894589e-02
-1.801724333013145218e-02
-1.046955425274748684e-02
3.664681964814065374e-03
1.276362453016724116e-02
1.118487700768061935e-02
6.347724842228942305e-04
-7.700522965385604365e-03
-5.062336294556955829e-03
3.125701125916015722e-03
5.339265170678017883e-03
5.800342344949710720e-04
-2.086999005450081764e-03
-6.275505876799549864e-04
-9.568458688402395589e-04
-3.971947635132954887e-03
5.505183808894456923e-04
1.030323873621957417e-02
1.167043920057746036e-02
6.357421567297239385e-04
-7.752278733348025135e-03
-7.297280436026387478e-03
-3.089799465932543693e-03
4.006463984555927384e-04
-6.699497411506917955e-04
-3.261481489362615203e-03
-6.536758557521718613e-04
-1.215995136508731282e-03
-1.708073943180813238e-03
4.475899161384645428e-03
3.345466762353560986e-03
-3.680949265867451085e-03
-5.274411735425019176e-03
3.015542996934790759e-03
1.067074723408256882e-02
1.036115462486831423e-02
5.422662868279168151e-03
-2.193968175438644214e-03
-9.629041194383279947e-03
-9.293122584325524613e-03
-8.850478229785832887e-03
-5.275308841412947383e-03
-1.024688960599369958e-03
9.082960556175500785e-03
1.207777461840168001e-02
2.164630976082835504e-03
-8.293589976490864379e-03
-5.410228616400687002e-03
5.319539410882112920e-03
8.326506298465185738e-03
3.145389446399521685e-03
-3.365134431557825160e-03
-1.749684139352638418e-03
6.686885124032402455e-04
-2.202666771551599779e-03
-4.236927914246365820e-03
-1.124440650921590705e-03
1.396054595986648163e-05
-3.353582242147329882e-03
-9.479413725156621284e-03
-6.696752606989158849e-03
2.616469479843984165e-03
1.103219432832054474e-02
1.369423661784266791e-02
1.334846097925024115e-02
4.319220725900853666e-03
-7.041808979667964902e-03
-8.911414403218418170e-03
-7.485678747207499817e-03
-3.320515979720063768e-03
-2.768140295146553995e-03
-2.864807353927750853e-03
8.914294604823902891e-04
4.319924505443296751e-03
7.071109957578168570e-03
4.845459157196142265e-03
6.859259707515284136e-04
-2.345151299542809573e-03
-6.352927467120443421e-03
-3.198082380867555037e-03
7.802458185147138903e-03
1.868034892452746874e-03
-1.708103816601404257e-02
-2.100714852307300831e-02
-4.607968216809700014e-03
1.772557448742685324e-02
2.837866946743250116e-02
1.688006200239385024e-02
-2.402732212597181918e-03
-8.421735277345280060e-03
-7.929389681618730437e-03
-6.937709671852164417e-03
-4.301520239250923409e-03
-1.781537916361718632e-03
-2.232335194052301251e-04
1.363502597414737632e-03
1.535147513300928615e-03
6.890030381939533065e-04
-3.089733639043479915e-04
9.445335025052754591e-04
1.066290642115978998e-03
1.567894629243219394e-03
5.499094735270698003e-03
3.867785039116889301e-03
-2.234510039584152678e-03
-9.567399133248806822e-03
-1.243766485528811742e-02
-7.737545892755411450e-03
-5.953923897091468239e-04
8.435048960860684966e-03
1.283860900797587426e-02
1.127080454480752086e-02
2.670310446473140534e-03
-3.824520409728245345e-03
-4.590722850401322483e-03
-3.652811789427036059e-03
-9.275996090903077928e-04
1.068777177128528563e-03
1.195286713603590763e-03
2.439644705089315854e-03
3.837870923554711610e-03
1.090727268980665968e-03
-2.292322349879372719e-03
-6.738981663092834772e-03
-9.594080766428364840e-03
-7.257949389844476663e-03
-5.873324886182037553e-03
-6.991403714076609675e-03
2.334239117444185992e-03
1.382856099532810655e-02
1.537711875279431685e-02
1.405659652406746930e-02
6.984780322048089046e-03
-9.795378892906156983e-04
-3.029921655906171480e-03
-5.509441530414967494e-03
-1.096214004874975119e-02
-1.476460023293152228e-02
-5.573733022204529000e-03
7.825092598317397868e-03
9.339838171690411500e-03
2.734347576726432055e-03
-4.259166261491961650e-04
-7.637923025315648037e-04
-4.378269987804779551e-03
-8.656392314942530988e-03
-7.007024832290324919e-03
5.641522290913754401e-03
1.528895567670194612e-02
9.305195799915367064e-03
-8.373187500954179432e-04
1.407841558982465412e-04
-2.090467947523247296e-03
-8.286322430692520322e-03
-8.066741019730146872e-03
-6.007621727000133152e-03
-7.144907260455491196e-03
1.792437053905566883e-03
1.820068178102482101e-02
1.978489846769156818e-02
5.299728476785101061e-03
-7.126951521946683216e-03
-1.584784224058325905e-02
-1.448100447344338737e-02
7.711201346962388934e-04
1.312007869335831030e-02
5.487462717105248688e-03
-5.772963986416521261e-03
-5.513797575854420541e-03
-8.533194052730769859e-04
3.087150473386024674e-05
-2.794791236926569538e-03
-2.398607493535125177e-03
-2.689821020428580494e-03
3.090333203249885034e-03
1.557888456661539467e-02
1.326607739822411453e-02
-1.118707495759870474e-03
-9.760207356028416728e-03
-7.523855849507878404e-03
-3.323254732415258095e-03
2.011159066525237352e-03
2.004723493003387601e-03
5.648275482874477293e-04
-9.855909994771568008e-04
-2.532386015016310863e-03
-5.168981976309207534e-03
-1.125549630153737128e-03
2.120987207708883906e-03
1.986541541958132106e-03
6.880927817877403180e-03
6.298280727235174709e-03
-4.982521277374699336e-04
-5.393207975057249040e-03
-5.915399410873192244e-03
-4.170605782547280420e-03
-6.385185344880686328e-03
-3.377006707037145516e-03
8.537223701423396829e-03
1.838394774225245859e-02
1.014401955407617274e-02
-5.509018464764111819e-03
-1.073819641422680930e-02
-5.869263475599516798e-03
-4.504027333002734619e-03
-1.473677186121974880e-03
2.901729881541241073e-03
2.508774583624140842e-03
-1.894849212930922776e-03
1.438678988645928237e-03
9.001232853101958503e-03
2.180613147881310145e-03
-9.099612007918206000e-03
-3.469882593702604094e-03
4.125516283806361303e-03
-3.401271316204584200e-04
-2.357939975991788558e-03
-8.296829753479731926e-05
-2.809365306352276312e-03
-1.064397118083456337e-03
3.940902393693288507e-03
8.550636459835895403e-03
1.108896785446503858e-02
-8.038401548752566097e-04
-1.644781124174015188e-02
-1.280245967185683273e-02
8.262776845480072994e-04
7.200077061797018931e-03
1.746074930339800010e-03
-2.257710484475322285e-03
2.205830086207010484e-03
5.209168540989363681e-03
1.851050867714884021e-03
-3.471616766524752377e-03
-2.708763766689895481e-03
5.621531702668763376e-03
8.654344245932607191e-03
2.070427255090584624e-03
-5.778773863820324368e-03
-5.309795941828903028e-03
-3.860230268316239537e-03
-5.085909951119932382e-03
-1.330237147709069758e-03
1.960501863937475723e-03
-4.611332904813292104e-03
-6.019252931029837536e-03
-9.669949529518215032e-04
3.291393873017304378e-03
9.864758618439710414e-03
1.680741209589430019e-02
1.559009122435742710e-02
2.086793210539858532e-03
-1.777536167423289515e-02
-1.961717304790398450e-02
-8.054857796359641761e-03
5.126282437013587878e-03
1.196231488211344646e-02
5.718542589298434772e-03
-7.971527316638115854e-03
-1.309111598430642148e-02
-7.809268811015021919e-03
3.297609781073550846e-03
1.519248836876265114e-02
1.474435184778031399e-02
3.766438933471953372e-03
-1.441694579107621324e-03
-1.219711647353209074e-03
-6.286037142928017907e-03
-1.499709266483507247e-02
-8.764926241840711660e-03
5.526702236466037380e-03
1.444483873684761395e-02
1.204562222842174742e-02
-5.009103098854711736e-03
-1.303864053642983870e-02
-7.731521174024585420e-03
-3.079703492005150204e-03
6.611905753258361020e-04
2.928786679574446258e-03
4.068981769176618392e-03
5.025396513762808021e-03
5.504291265466034269e-03
1.378723841830481510e-03
2.236978984222332684e-03
9.718657692408511073e-03
5.161046406474899609e-03
-7.058245449037376176e-03
-1.370374075561789536e-02
-1.281642358259597013e-02
-7.758010215173092965e-03
-1.411368155256701026e-03
2.596194362257414189e-03
4.007015125014039975e-03
6.688317554178306590e-03
1.175770021304233838e-02
5.521729362141665140e-03
-5.281101613562766417e-03
-6.757809841009467834e-03
1.387246910071434844e-03
9.669148750377888971e-03
5.692424771388469341e-03
-5.092397221719942996e-03
-1.220107927759679113e-02
-9.723898069098011951e-03
-1.662554603509916419e-03
7.379630445119288520e-03
4.873706565259202511e-03
1.034235516905008482e-03
7.415549605612485520e-04
-4.270608297519833704e-04
-7.872910054687366505e-04
-1.093611346140223664e-03
1.411017184259249222e-03
9.403434958900844806e-04
-9.661663347650542924e-04
2.115343391688449034e-03
3.640585967483640512e-03
-7.963383063871265575e-04
-6.138501721406081774e-03
-5.648302099680767123e-03
-8.265606502597941992e-04
1.115571367296300215e-04
-6.590299390398083907e-05
2.471003569839639712e-03
2.845523076105983904e-03
3.798910813598042630e-03
6.076548586309524561e-03
4.614139918814872884e-03
5.948707285631869412e-04
-3.734331819299576121e-03
-5.362880168824081875e-03
-8.140926581708781556e-03
-9.195123191060578308e-03
-2.130845135459724735e-03
5.725481611030464220e-03
9.804321636754315464e-03
7.985469105510248355e-03
3.189751927294882158e-03
-4.862275158004383119e-03
-5.612980010377692681e-03
-2.082019292915846150e-03
-7.960180671578883076e-04
-6.508266561775475929e-04
-2.221506378364304125e-03
-4.713650090518214236e-03
-6.424979437113122541e-03
4.384535513747595957e-04
1.236336280409310040e-02
1.788352735081370076e-02
8.108017866483876318e-03
-6.338847721964201848e-03
-8.739488437755340774e-03
2.667788760923827784e-03
3.100962798934606048e-03
-7.640465534795090087e-03
-1.417169622029307643e-02
-8.864991164478879318e-03
-2.073076542498209201e-03
1.060442516567257918e-03
3.035531030144352892e-03
7.425537433474699127e-03
9.407469195217572910e-03
5.366950783937381696e-03
-8.838966230317506841e-05
5.279539549279410344e-04
4.612052944045080989e-03
4.661028150012351719e-03
-1.345331436422310791e-03
-7.038554645512977090e-03
-8.030584730707961486e-03
-8.927175077959682847e-03
-9.591674682430002818e-03
-6.517999402911276406e-03
3.504652708244441420e-03
1.636805905631593880e-02
1.697752544599874513e-02
7.171153960692115692e-03
-5.726269958684837222e-03
-1.180175863465996768e-02
-6.790958058254866793e-03
6.247539935600425129e-03
1.678410066184964425e-02
5.754190548595529420e-03
-1.507034042183586289e-02
-1.940588675432623408e-02
-1.330168449613223190e-02
-8.287888501642552350e-03
3.031162009201928288e-03
1.095586612062570027e-02
1.004215143540875162e-02
9.009382191789037583e-03
1.684808034925738829e-02
2.466040891034662272e-02
5.969721927068140019e-03
-2.162417045868193430e-02
-2.786486379005742239e-02
-1.438118165549453521e-02
-4.604919455612720147e-03
-1.344396692250757674e-03
3.146733911259072623e-03
7.788544033164198493e-03
9.383683479278289233e-03
6.578664622815540153e-03
3.215305316026551615e-03
-6.563015305907351972e-05
-7.505141720980220733e-03
-7.932481110787741735e-03
4.330725733254541833e-03
1.528090711494760508e-02
8.018813280752493805e-03
-5.357618075172676866e-03
-9.843767800899778583e-03
-1.239897110971252374e-02
-1.631256184506936144e-02
-1.373083968852093807e-02
4.875529140542594897e-03
2.369419157401195936e-02
2.002454958038667188e-02
5.316140399181072326e-03
2.886960375933520038e-03
1.537739091295391375e-03
-6.600751872761084944e-03
-9.426826554233581901e-03
-7.511284125762554033e-03
-9.644514134020812975e-04
4.164273251299409687e-03
2.607484724744851563e-03
-3.859123773601625361e-03
-3.057056747809210658e-03
-2.616897884744332891e-03
-2.056470545039106208e-03
-3.160726507238597466e-03
-3.883991596569181474e-03
2.100771628525168952e-03
1.150902040271327940e-02
1.220074773810533343e-02
4.079858541856624249e-03
-2.587098816859494024e-03
-4.871478916102157074e-03
-6.112884442400524920e-03
-2.183770348240818802e-03
-1.781154065063395497e-03
-2.010762567221156469e-03
-3.492449934367783133e-03
-4.104303906136908681e-03
4.220785897809348035e-03
1.016445648697906524e-02
5.147582861198065490e-03
5.734395083410823591e-04
2.117338867691076075e-04
8.131211880301630369e-04
2.185480489222429122e-03
1.096501749049358723e-03
-3.074671352815889092e-03
-6.654236633855745674e-03
-7.622068174352888970e-03
-1.018981583062745708e-02
-1.168247294243938451e-02
-4.099909962223819283e-04
9.684391486969994370e-03
9.071503274253886820e-03
6.967436597033796995e-03
8.740914701311110549e-03
8.736119463134404614e-03
6.599077113788904582e-03
1.106641709749912682e-04
-4.428284863364329027e-03
-4.239134107204041955e-03
-5.850119353813880083e-03
-8.603694237275149453e-03
-6.629196739261539531e-03
-3.483739000555759451e-03
2.108658800977728930e-04
1.579424310787771448e-03
-1.154067478759941137e-03
-1.959776835792459860e-03
1.849943854225691861e-03
6.101071443761544449e-03
4.325761963218396552e-03
1.334040026799043115e-03
8.474892658954134243e-04
1.222532629636045474e-03
2.773000251048871219e-03
3.651141377909633817e-03
-3.018051102429438848e-04
-2.885829856625850027e-03
-4.778403052538358724e-03
-5.440694248596954913e-03
-4.637115738629169794e-03
4.741846560863309870e-03
1.471154541599912352e-02
8.605578614330856163e-03
-8.556224126986266415e-03
-1.922099977875207574e-02
-1.420691551886822841e-02
2.758402347376005749e-04
8.266057571185677147e-03
6.932615462391850981e-03
2.446458759334185253e-03
4.174550568563840935e-03
8.652186079984518219e-03
9.650436057188705244e-03
-1.213935353161920685e-03
-1.082509850947772044e-02
-8.672901438855773124e-03
-1.343810947070249234e-03
1.674354430691148187e-03
5.082218286138688156e-04
3.985704621778341991e-03
5.833509280633865715e-03
-2.810476110880498913e-03
-1.676598486742727004e-02
-1.330299861231701124e-02
1.773124490374554602e-03
9.223069320929906320e-03
8.106800176667150470e-03
1.272800718054201835e-02
1.921641993709264501e-02
1.071884408938126101e-02
-8.566501170619895619e-03
-1.963560134961667494e-02
-1.231798971808797764e-02
-2.050739455428086510e-03
3.625736429344424198e-05
-1.432536705931975731e-03
-2.712065918464405274e-03
-7.504158146446533208e-03
-9.725223898515423376e-03
-5.879071297581741837e-03
5.691048838882822349e-03
2.005726126868442177e-02
2.401595073714735129e-02
1.561099256257867871e-02
1.080270154513169331e-03
-7.733372959380478348e-03
-7.257120040495342039e-03
-9.803720188902558669e-03
-1.090312144813832158e-02
-7.752745433900379290e-03
-5.616750946812612902e-03
-7.292350977151393181e-03
9.290867367271837905e-04
1.507965283987820239e-02
2.052909721229096221e-02
4.949381209426836209e-03
-1.346133625168853716e-02
-1.360081366996893255e-02
-7.626252804287033272e-04
4.347134053673503903e-03
1.311962778402087646e-03
-2.358433031951271980e-03
-3.870434703363047888e-04
3.875151940257851469e-03
3.550913576681141368e-03
3.647956057360494768e-03
7.938196417858136775e-03
6.449443457829986612e-03
-4.845018716132041235e-03
-1.227025654777123484e-02
-8.551594128210401533e-03
-4.381801997574367026e-04
6.085818220431451087e-04
8.367931332149413932e-05
7.533908243337677450e-04
-9.453361315542434002e-05
-1.500242718633016531e-03
-5.157202285181769312e-04
9.230402481435783565e-04
1.636411226095347681e-03
3.332953321258083548e-03
7.402246248697973152e-03
9.268418602533344888e-03
2.664273661095748879e-03
-2.969775858444807012e-03
-7.352023909133423990e-03
-8.824920233596808550e-03
-8.164617426768650682e-03
-4.610500114048936109e-03
9.310704489144336089e-04
3.595990823204657950e-03
3.256057061078490491e-03
5.124512991761127553e-03
5.255511523469512565e-03
3.510372897349854464e-03
4.584429351864603074e-05
-4.076166342046983609e-03
-5.361990835201104963e-03
-3.988140120106193481e-03
1.846404005201833379e-03
4.172991859668597620e-03
4.176401815850999330e-03
5.483480720943779280e-03
1.043539157296162435e-03
-5.506055985376439449e-03
-5.635039187466607882e-03
-3.465455056375872384e-03
-2.343000875422211315e-03
-4.990632510405179981e-03
-3.593408361015323297e-03
2.076987577542282093e-04
3.091911859177735606e-03
5.698437074914947283e-03
1.445262948000747803e-02
1.135090199471186327e-02
1.951355061734566456e-04
-6.679112245856856644e-03
-5.944465419110818438e-03
-5.105943228268640909e-03
-4.794335254918350581e-03
-3.949465404954791148e-03
-6.531882193292462904e-03
-7.485469618820798227e-03
2.986710738090844145e-03
1.073052816594510794e-02
9.067666252465035256e-03
4.130453888022948654e-03
-7.062183552362384219e-04
-1.469809997967872059e-03
1.832731704472842244e-03
1.860537072121163857e-03
1.337785744512544469e-03
-1.437371243693524566e-03
-5.874063229901816882e-03
-5.574966383302517973e-03
-2.829366543361881790e-03
-9.829737483791403923e-04
-1.540195775521286574e-03
-2.031449019034816100e-03
-9.011568238922765218e-04
8.076369918107940060e-04
2.956532758068669900e-03
6.306370403680948422e-03
1.068260141880472171e-02
7.344984199524004671e-03
1.995214874375760635e-04
-2.588618295165388220e-03
-3.235971220933938058e-03
-7.007885269377209063e-03
-8.629812316660354782e-03
-5.097859536346539822e-03
-3.151199315926184446e-03
-3.495399357334759492e-04
6.991422965403337741e-03
6.707493871739806345e-03
6.030274322835467958e-03
9.458440456520106690e-03
5.968203495600569747e-04
-1.542669375995022601e-02
-1.898289090921937913e-02
-5.241895653951786707e-03
8.039346640024374810e-03
8.280930640926029845e-03
2.567993471614661571e-03
4.063205595844901485e-03
4.383134171364151503e-03
3.808272553036806587e-03
4.417492804663150641e-03
2.615412645950444728e-03
-4.299309623871589228e-03
-6.375643901792101345e-03
-3.430548733484195100e-03
1.674847020238013880e-03
3.501917653958712493e-03
-1.380612710279196598e-03
-5.846691807209296148e-03
-5.027801696054337577e-03
-5.010827786276170724e-03
-5.141287155225468357e-03
-2.149540257846653882e-03
2.974095971804700464e-03
9.394458152015760719e-03
8.639683007945797230e-03
2.140409147511889657e-03
-3.019152100058941700e-04
2.239942412896380255e-03
5.024072595844916896e-03
4.662219606766711960e-03
-7.214366970155819663e-04
-8.583326280396610941e-03
-7.679764368894522950e-03
-2.320924142192484167e-03
-1.531459581731952095e-03
-3.788659956696000843e-03
-3.583492268079814178e-03
4.898360504977689479e-04
1.914640256967281226e-03
1.657226525897115494e-03
2.362212697449932262e-03
4.226867253169339263e-03
8.658872888714082977e-03
9.881768065890686112e-03
3.022335403376377131e-03
-6.121258111527212893e-03
-1.038328696100625399e-02
-8.245202995901522794e-03
-9.020426459984067988e-03
-6.760793723780073386e-03
-2.471270453294124587e-04
8.380302196283042834e-03
8.276314876849679564e-03
6.589162204171819179e-03
7.400647179859904529e-03
4.707176696201265456e-03
4.284931341310887283e-04
1.820052856108822894e-03
4.244441824664531922e-04
-4.268032857661072967e-03
-8.472624479014171858e-03
-1.127509195396940445e-02
-1.249243803728004518e-02
-9.927888421856208984e-03
-3.192006602440713037e-03
1.177988921737449859e-02
1.555394369614305876e-02
7.145939742437338628e-03
3.246736794054473716e-03
2.661234061586990451e-03
1.902425368015342390e-04
5.168954671275016819e-04
1.884780710058850004e-03
8.366167694564734594e-04
-4.505356282472585869e-04
1.727402759660569319e-03
4.069632603363131269e-03
-2.496495161482799839e-03
-1.159541002936560934e-02
-1.512920010534419754e-02
-8.157974919228854621e-03
-1.262466796848684325e-03
8.097660641968689160e-04
-1.059648493094308389e-04
1.645464185341596799e-03
3.161565794933512540e-03
2.272994329458212417e-03
3.632623738448220296e-03
1.214431971307415072e-02
2.120976857653837297e-02
2.219218128885650995e-02
1.297197044115308388e-02
-9.207490087703294745e-03
-2.971283409501726189e-02
-3.175724018741728910e-02
-1.850699468230799019e-02
-1.078100194317618658e-02
3.763952745088629346e-03
2.042646451010521336e-02
1.302395301763840073e-02
-2.187786185317445575e-03
-2.082823502329053927e-03
5.632004066624432884e-03
5.294454057623465548e-03
3.034364935936486197e-03
4.798019249862436886e-03
7.652022135093717974e-03
6.350140883390479468e-03
-8.592873453075482084e-04
-8.407257273767574160e-03
-1.208951670245453011e-02
-1.271780028044303817e-02
-7.719587856149890542e-03
-4.421917569481234665e-04
2.898351600309737649e-03
4.199126397289856469e-03
6.444185306539467264e-03
6.219448697124901025e-03
3.164989970051392942e-03
5.783003801938673989e-04
-9.999389913357586198e-04
-2.111347449205600631e-03
-2.551443507419138852e-03
-2.897272372673340320e-03
-2.830138404528565431e-03
-2.204565561584244295e-03
1.392650015154454782e-03
5.471012886661595631e-03
9.198940675956899030e-03
7.303218897093355540e-03
-1.381155321722144598e-03
-5.054114927283903484e-03
-4.424726350017187462e-03
-3.547721767387866567e-03
-1.118639499759006796e-03
5.291306180968578191e-04
-1.825692032614487786e-03
-5.882740999910584037e-03
-3.516579719630911430e-03
3.349920012627384102e-03
3.502130334757063215e-03
-3.585285890169364557e-03
-7.299440340485706391e-03
1.437053073065575060e-03
7.422244061811370842e-03
7.789311132555423386e-03
1.001890681817783381e-02
8.592684380634761296e-03
-1.117831560593363733e-03
-4.381110713677063319e-03
-5.700695025510973957e-03
-3.474737681607678163e-03
-8.192321548791306040e-04
-3.270430376025227834e-03
-8.708077612271006296e-03
-1.070987455614789974e-02
-4.198562348035557272e-03
5.550432603286773944e-03
7.936591494679807318e-03
7.166560697185204304e-03
4.392025439245448096e-03
1.363831261135288334e-03
1.646936958085113952e-03
4.208555199765655515e-03
1.586409472016415316e-03
-6.682170503505991538e-03
-8.564341245522921059e-03
-3.179527444032909100e-03
3.018519705528753799e-03
3.416118561900844102e-03
7.023897220711013568e-04
3.100142101196926990e-04
1.109416776637296145e-03
1.056703186824521764e-03
-1.735902013017898279e-03
-1.978656703289392079e-03
8.960728358524824248e-04
1.209872767429245443e-03
-2.584212904489758926e-03
-3.322994662091890115e-03
6.767413798181107915e-04
9.127850976468700889e-03
7.565557559059935162e-03
-1.525087920012412881e-03
-1.137478416720627376e-02
-1.154184504884691632e-02
-7.141147455537412078e-03
-1.453797269288956097e-03
6.355312778232151578e-03
1.024394098515106488e-02
9.492776519589326070e-03
5.954005247551305904e-03
3.591633471240532598e-03
9.055164562829882350e-05
-5.357127852390789619e-03
-7.315455262088073687e-03
-6.304459240117311555e-03
-3.452702611646044344e-03
-4.916063260286894065e-04
7.420304306209588030e-03
8.354110881104570910e-03
-7.532135205451362652e-04
-5.095482014682248609e-03
-3.430680448329654839e-03
-3.962620524676147178e-03
-1.045861631273228322e-02
-1.157335838838768720e-02
2.664938511849729210e-03
2.284168716319275386e-02
2.365853518763413529e-02
1.312653771470674450e-03
-1.399247838278605376e-02
-9.772340177331586067e-03
1.113856949049541302e-03
5.493524170201168760e-03
3.619808229904318206e-03
-2.877060482646005921e-03
-9.611591517390298198e-03
-8.981825185825588129e-03
5.242784622423752195e-04
3.952077428423637732e-03
-2.351630601092012923e-03
-4.944628159026118186e-03
1.376143103147626969e-03
1.326475160587856257e-02
1.485568349700637503e-02
6.296752791065185657e-03
-2.962968316691432912e-03
-3.781750914779026789e-03
-3.951198306631243350e-03
-8.506174067075499695e-03
-1.376911466900063510e-02
-1.207830744656528295e-02
-2.318079073374312068e-03
8.702776453307730503e-03
1.204163396523058420e-02
5.768649331896861382e-03
1.367609243064232686e-03
6.640495689701939389e-03
9.988396101577470473e-03
-2.192800881123248540e-03
-1.346547179129223629e-02
-9.540910074029901669e-03
5.938525716617350990e-05
6.881568783640079276e-03
5.833660128938152750e-03
8.360247060883793787e-04
-5.725636328009009397e-05
8.639739521141947805e-05
-3.153705889679884588e-03
-8.989188335319855602e-03
-1.188145200002709012e-02
-6.733332029882500847e-03
5.306321267058356460e-03
1.240940990229823411e-02
9.912492823802699846e-03
3.818252055105276956e-03
-1.967828304433851742e-04
-1.363032990326278364e-03
-2.292349281027453861e-03
-2.109543356378070465e-03
-1.026238672254150197e-03
3.173648502141285417e-03
4.153356540511328812e-03
1.372757520599570021e-03
-3.720031525479393451e-03
-9.666367831823339737e-03
-7.515336534752075151e-03
1.479463260123019134e-03
1.120213211545452101e-02
1.067452599609658090e-02
-9.911989048452961217e-04
-1.322114459066076400e-02
-1.695233423246129620e-02
-4.941793745387812985e-03
1.510555526336939194e-02
1.564771576470746703e-02
1.789472927678993153e-03
-7.643719946894434597e-03
-5.438634502087481316e-03
2.326032679079648863e-03
1.535381549271452352e-02
1.136188032903043613e-02
-7.375723468014410908e-03
-1.524376856059125353e-02
-1.088822131221398037e-02
-5.005402593980793312e-03
-4.929085759192096058e-03
2.305683020857053709e-03
1.165986166070300152e-02
1.275108294352039935e-02
1.751747092035745241e-03
-5.948523867819117614e-03
-3.514320808731546172e-03
4.704584195594458209e-04
5.503903649200187626e-03
4.063648598841253061e-03
-1.146261855085339756e-03
-5.475540276387583704e-04
-3.470554911694942891e-03
-9.311507127079999419e-03
-8.446231946231128399e-03
-2.359195999276084209e-04
6.207058835990050295e-03
4.526374758648027755e-03
1.033604826287117103e-03
-2.693641922913215993e-03
-4.782960857122098286e-03
-2.767884425778765513e-03
2.745267959074983947e-03
7.464012119329527933e-03
1.332731241361009844e-02
1.447005124803128935e-02
3.485257371641106629e-03
-8.882632226926309021e-03
-1.127380829090931028e-02
-1.077473436003356135e-02
-1.063031097972853660e-02
-4.133933031301101693e-03
-5.655301590619004389e-04
-1.722547518179994992e-05
1.717376771798727634e-03
7.488410050122194621e-03
1.160800878539066869e-02
6.096643076036478009e-03
-2.998331461083504190e-03
-7.510946615354292810e-03
-6.316435105802787123e-03
-4.876532430690677829e-03
1.695831401257937758e-03
9.257035926709386575e-03
1.165249532710584297e-02
6.975547935565144797e-03
3.193154464842991595e-04
-8.270135408264706403e-03
-1.127247299048005427e-02
-3.907124829507718257e-03
4.583574989888333610e-03
2.232360467070672577e-03
-3.523519169404415105e-03
-3.998372560080665911e-03
-3.449106423173457607e-03
-1.224943487470925210e-03
6.091971218973670638e-03
7.590955192975526976e-03
-3.510613319725264161e-03
-1.080051898082017708e-02
-5.653525275551110965e-03
7.269525685517424715e-03
1.550992208187486864e-02
1.132002247656902980e-02
6.651096304784271610e-04
-6.235125629006251814e-03
-1.463567124226938668e-03
-2.440842246334629269e-03
-1.285726583651277018e-02
-1.595472863559554977e-02
-4.279290270466072979e-03
1.192608037280830542e-02
1.646846407611559857e-02
6.275486078531435953e-03
-2.045702522543886136e-03
1.990599813651225470e-05
1.147056245035710936e-03
-2.513981903299913369e-03
-6.723814129173333320e-03
-6.322385245429659045e-03
-1.635240549637549277e-03
3.358835835078722003e-03
7.131509665512552471e-03
3.127442099415411476e-03
-2.078802156974007397e-03
-5.568607220517307263e-03
-2.892625161063632714e-03
2.579125758505212520e-05
-4.465556319074383317e-04
1.974499492675069797e-03
5.940767487098777555e-03
5.674438584695755752e-03
2.411415827839659323e-03
-2.312336813634004260e-03
-6.049479038264964081e-03
-6.966001327544908174e-03
-7.960379899834675588e-03
-3.369048267657873542e-04
8.574644351950879220e-03
7.318960399541498199e-03
4.550362860982202812e-04
-1.057768360471441705e-03
1.982769435871226810e-03
-3.823529991496185383e-04
-7.198467185653903552e-04
5.200753140885525268e-03
4.831692564964014218e-03
-2.919065286043493346e-03
-8.751105920644456845e-03
-5.785174142799047459e-03
1.436023730023790581e-03
6.092840117112587831e-04
-8.190955051939383114e-03
-1.221364365691049274e-02
-4.502821481279235816e-03
6.936939129754089890e-03
1.454140599698674520e-02
1.651817540571518667e-02
1.150028695871417768e-02
3.122718259369737948e-03
-2.720251887563400733e-03
-4.275399587516735822e-03
-4.377181725108330104e-03
-8.909952747912865817e-03
-1.336959806293492453e-02
-1.201114170569744788e-02
-4.558991050042114634e-03
2.419116523093057820e-03
1.244513653008256886e-02
1.745689921453546720e-02
1.000849093355381594e-02
-5.443697379890387322e-03
-1.086603915701292444e-02
-3.488567577177925389e-03
-3.435125308320842192e-03
-3.980174257228965076e-03
4.341790059904525670e-03
9.169098574806295102e-03
3.015757958191020872e-03
-9.556870715097844353e-05
2.256956726186263532e-03
-7.809466497276035604e-04
-5.107112684328682720e-03
-1.882527457754765458e-03
-3.010428789564174781e-03
-6.344488654120647962e-03
-5.715069897253798308e-04
4.422000947867561933e-03
-2.464233250652225673e-03
-5.892395795949131616e-04
8.713957442358413394e-03
7.627544701168843463e-03
2.979780672267946730e-04
-6.086859740028185452e-03
-7.859820113774633812e-03
-2.280704588905039468e-03
1.477435398903119120e-03
1.707038965087991642e-03
3.250797627197201441e-03
4.990346273230960097e-03
2.899950803993649098e-03
1.036056430985404743e-03
-8.178422358908409798e-04
-2.720720630182164087e-03
-3.042334827895571379e-03
2.152653282723845235e-03
4.613432299566721032e-03
-8.350110043658692978e-04
-7.898320090949775829e-03
-1.193650756940847595e-02
-1.530860949564030564e-02
-6.780509588367903545e-03
1.298300022419214377e-02
2.362494317700033000e-02
1.377196104202724376e-02
5.574951648000296082e-04
-2.425687741706818081e-03
-4.198663271454844761e-03
-6.485175934203647741e-03
-2.026804586022425136e-03
2.231252417461217479e-03
1.322329508262350952e-03
-1.630728504322973699e-03
-4.106427064196743575e-03
-1.737746511476326869e-03
-3.626176784567284347e-04
3.052389950364664648e-04
1.336242990974083680e-03
1.532063059495892329e-03
-1.814029331039027125e-03
-3.918335057003065683e-03
-5.176510985436161977e-03
-5.828935421470775313e-03
-1.847390203972878705e-03
1.002301841832116576e-02
2.203498784851033038e-02
1.314693707064653119e-02
-3.674864874744999867e-03
-1.090257953346570295e-02
-1.024487839042807422e-02
-9.823047007793263979e-03
-5.702099901531846107e-03
2.549115451229968122e-03
6.824149126814633287e-03
4.669384674615325789e-03
-1.632854687386826485e-03
-2.777237825847263513e-03
1.388644540093908692e-03
3.999328033597438978e-03
3.072765765909090795e-03
2.578636952709703698e-03
8.426505016122592343e-04
-1.517285668787560866e-03
-1.284089311041070481e-03
-4.999721213693446124e-03
-7.144772404372624550e-03
-6.008884869279236193e-03
-5.219840572293781705e-03
1.369127247654279502e-04
5.354097334109395034e-03
7.998186389456910309e-03
1.385537926526583634e-02
1.373595072040539877e-02
8.705316325584753438e-04
-9.095953368563896788e-03
-8.156304964994221321e-03
-5.697482748834234445e-03
-3.772453085787297235e-03
-3.654214749890042236e-03
-4.152570757493976791e-03
2.189320076746543932e-04
6.882843757998802214e-03
8.094448557309964418e-03
8.561551812747297558e-04
-6.373144019924281700e-03
-1.062022217460881039e-02
-6.315613345155042871e-03
3.256705153222229972e-03
1.129432192443413641e-02
1.525365080448140218e-02
1.379533828767730633e-02
9.857454138633462652e-04
-1.477967504271606759e-02
-1.702829428778493068e-02
-8.671833275790108084e-03
-1.474994117255061651e-03
2.718212191035751795e-04
-1.775407260125714702e-03
-9.334805751217551111e-04
6.416931338258043821e-03
1.640352347669305974e-02
1.949339549882149122e-02
1.606087201053994426e-02
4.951534111041582670e-03
-1.253890895518439304e-02
-2.883700919245751199e-02
-3.603134821344394778e-02
-2.067826829492866794e-02
6.445220150067666829e-04
2.298685925359120891e-02
3.577122669594043347e-02
2.247363806824543425e-02
4.370315875665365464e-04
-1.346912202328979548e-02
-1.521247598482536149e-02
-1.253097195924388757e-02
-8.758837188942646471e-03
-3.858207372769738362e-04
9.208632542779046984e-03
1.112748422545580852e-02
1.445481734797095762e-02
1.024795639703184914e-02
-8.378094553621350579e-04
-5.640422959417950438e-03
-6.402767731449335309e-03
-5.501492905650566881e-03
-5.588621317664075813e-03
-5.311199367361301056e-03
-5.868984768941523135e-03
-8.421805284557862606e-03
-7.382057028191402366e-03
-6.752450797332030380e-03
1.527337693214357800e-03
1.513468651630532624e-02
2.302791153053976650e-02
2.237250871936448740e-02
1.380562698998814841e-02
-1.766881143851170002e-03
-1.568617351466144658e-02
-2.022651129045027057e-02
-1.758563460099232811e-02
-1.178739718220517090e-02
-7.411654882204432495e-04
5.143635370528627446e-03
3.706482269848398927e-03
6.675965410640341026e-03
1.280821772597109075e-02
1.062868800626654529e-02
3.606991588115602155e-03
2.986418797023207648e-03
-4.560478628340576372e-03
-1.282765866051678930e-02
-1.285326017194714232e-02
-2.221279026603671571e-03
7.923695137341544084e-03
7.679553414579684371e-03
1.356669334398491336e-03
-3.815114765182272671e-03
-4.250497080990265492e-03
-1.996280607685149613e-03
-3.363311014767097172e-03
-6.726001064133183688e-03
-3.140320154176095765e-03
5.642700184350389614e-03
1.235726702287991315e-02
1.321947499408977593e-02
6.703396455868481339e-03
-3.101624216029949446e-03
-7.250009456259923039e-03
-6.886927741275241863e-03
-6.068561000510335791e-03
-1.682993785509715031e-03
4.808150251993770219e-03
9.970261038590609234e-03
4.586496285749666786e-03
-6.501430175953558897e-03
-1.232477740001657919e-02
-9.824704605382447373e-03
-1.107055979711942450e-03
3.043920616468789083e-03
2.232348572690651296e-03
-2.102524913176627343e-03
6.427505910161383784e-03
1.245984379893376980e-02
1.223820543498208924e-03
-1.111119294057479604e-04
3.864664261256631640e-03
7.601923840936683583e-04
-1.534541365492361580e-03
-3.070485272202137968e-03
-1.913888140167185241e-03
-2.684298529809178626e-03
-6.020530351894075143e-03
-5.983413553531679620e-03
-6.076962472685064690e-03
-5.212528358758246327e-03
3.354648402753373625e-03
1.355608965955273047e-02
1.153901024523120919e-02
5.263036369049959445e-03
-5.273442885976341917e-04
-3.845580710398484748e-03
-5.461404119072799795e-03
-5.846044034652300887e-03
-3.185141085533284289e-03
-8.949026298194868924e-05
4.647153943014108862e-03
6.894602790976347463e-03
2.375613796542607858e-03
-4.177635053270039277e-03
-6.194186218590306409e-03
-2.282852474321000590e-03
-3.524797409109249493e-04
-1.744328708551561458e-03
-1.387292095152582033e-03
2.127860848632657283e-03
5.171414646607610383e-03
4.259153505333501503e-03
1.390174827411780030e-03
-1.600474819528189185e-03
-2.126636443778221527e-03
-1.733126730318640613e-03
6.196503107304153751e-04
2.149050789528295178e-03
2.813834817668983603e-03
-1.854904887239279543e-03
-6.255291055233716535e-03
-3.409745824462591998e-03
-3.743425841375051864e-04
7.702674251680002859e-03
1.026885132685601693e-02
1.815429526828515406e-03
-5.304068605851467409e-03
-1.093259611868842469e-02
-1.047719863481945922e-02
-6.964602049553346094e-03
-2.194049291304571176e-03
1.165064322596370307e-02
2.193647379635779368e-02
1.236217601097316585e-02
-2.558330060607960210e-03
-8.012079337410613414e-03
-3.989498742373127557e-03
-3.143395514522452205e-03
-7.896533281415601610e-03
-1.043927043927599281e-02
-8.446505349254689390e-03
-1.419003036087338040e-03
4.885473716941989702e-03
9.583448270268721952e-03
9.028758077725402079e-03
7.335323196916676038e-03
9.660677905562480364e-03
8.321836537870093073e-03
-2.856149665106339896e-03
-1.235750091567463897e-02
-1.217549327578459212e-02
-6.652906775185287586e-03
-4.198644300532451755e-04
1.763516808713420795e-03
2.638059327095217989e-03
1.000061609383286242e-03
-4.335121349505850416e-03
-9.655701090711869480e-03
-5.617046839554121641e-04
1.522156130695493347e-02
1.470332404620525515e-02
1.278666840850777595e-03
-5.802921198404299014e-03
-5.159862233214965004e-03
-7.646304507271008003e-04
6.531559535542937837e-04
-1.997496414941265022e-03
-2.944815828595099150e-03
8.358251912265232241e-04
2.300344900363613266e-03
2.072249374793748845e-04
-1.186024189708411673e-03
1.164463841212637872e-03
6.973287640717697102e-04
-2.579429967754210372e-03
-1.783551695700144168e-03
5.593932811726308349e-05
-8.474907146224241756e-04
1.153424624097130130e-04
1.298485543558976088e-03
3.648405737020468057e-03
4.782135788660984575e-04
-1.782397546741783809e-03
-2.204397160040621681e-03
-6.302222366302675160e-04
1.867883951392499374e-03
3.903280649694436995e-03
1.132251114197397956e-04
-3.428755987896065210e-03
-2.181270990316818911e-03
1.678975532802921443e-03
3.379418727191526965e-03
4.251777920562966120e-03
2.427070762440631819e-03
-4.262221798810554227e-03
-6.987858993863808529e-03
-4.386892695057749078e-03
-1.340117245134025753e-03
2.166146203450062657e-03
2.187743046323445319e-03
-6.357582723538746355e-04
-1.237669011533907995e-03
1.174156778959900907e-03
-9.085722852728143645e-05
1.695440239045873038e-03
6.536385931162111418e-03
7.099722302786715122e-03
-7.525330341142039744e-04
-6.059245511176586732e-03
-2.897499153770852817e-03
-3.347689603736222087e-03
-4.098824987881531721e-04
6.365591167033218291e-03
9.965896196266643692e-03
-1.182866785723444723e-03
-1.620659388902376610e-02
-1.734790056849807097e-02
-5.298885205427443859e-03
3.692114598835122361e-03
1.275490546525184267e-02
1.356540880475237514e-02
2.053635289717163723e-03
-1.155869519397615319e-03
3.323847280994749603e-03
5.239003600950653712e-03
2.622300974955561856e-04
-6.644989728970484254e-03
-8.549621452692975423e-03
-5.084708754214038728e-03
3.508288266215982016e-03
6.161687215378246381e-03
-2.076902658443360427e-03
-8.750051538519175442e-03
2.948671000021438619e-04
1.008386785662622638e-02
9.475468589171873526e-03
1.629241918353439432e-04
-1.156645859961791430e-02
-1.437524323788359586e-02
-9.884212955206255966e-03
1.361020422746081525e-03
1.057592044926400528e-02
1.461570973435743701e-02
1.307028409174098953e-02
4.445913557807658692e-03
-6.205879110831698936e-03
-1.049025613679197520e-02
-4.904439130901872695e-03
9.275797305590539974e-04
1.044265049244052579e-03
-2.272452031150068528e-03
-3.988467198015243839e-03
-4.556963017814092028e-03
-3.510947421516853045e-03
2.823085748946773440e-03
9.267528131069435390e-03
9.725127859714721365e-03
5.111390026605119527e-03
-3.970303308895625771e-03
-9.903568230824926627e-03
2.645149750730368889e-04
5.763251443306097177e-03
-4.259520255338116249e-03
-1.212049975416135648e-02
-7.306361478501893422e-03
2.844082260950482523e-03
9.770102543253106689e-03
1.146908653297152095e-02
7.307555230816959596e-03
3.667784247465186252e-03
-2.397910868171188102e-04
-3.216404777986843315e-03
-6.799497411488877527e-03
-1.022222365705664771e-02
-1.163105588784699856e-02
-9.916798281253151950e-03
3.173638175954995801e-04
1.226983133427179268e-02
1.166239248875734422e-02
5.723309307772063252e-03
7.005846320049381563e-03
4.239391008624915358e-03
-3.645151383217663018e-03
-1.270257433367902832e-02
-1.091927333270469036e-02
-2.929608391219343157e-03
4.482644860217129337e-03
7.574711821577366500e-03
6.257830864604489382e-03
3.032803064504461382e-03
4.215992272509507151e-03
6.671309271428000134e-03
4.380142688988457496e-03
-2.699183626206607799e-03
-1.503130836131257378e-02
-2.174795761442500572e-02
-7.511628366012842659e-03
9.182620597254354325e-03
3.465530857067037653e-03
-7.090136120235302104e-03
8.943788890026912672e-04
8.980081406718019507e-03
1.602342766466752786e-03
-4.341458540363676843e-03
4.486023334929726755e-03
1.099962514110263898e-02
9.804168031309779680e-03
1.726941678937977606e-02
1.264142759043825580e-02
-8.841095428615493995e-03
-1.883734670699251101e-02
-1.173074503301358394e-02
-7.356481217276139573e-03
-9.330525108350152738e-03
-1.282347654063407949e-02
-5.627644809828215994e-03
6.049869981788783338e-03
1.085110245940991251e-02
5.680222412592383398e-03
4.385075333362896746e-03
3.867556585366403645e-03
2.534061487235701651e-03
-9.344888129525564299e-04
-1.026736391138180970e-03
1.170055084507426587e-03
6.822758845856447332e-03
1.264499782402793426e-02
8.923497428516821706e-03
-2.005900597453596276e-03
-1.001613871432608001e-02
-1.472216099048825021e-02
-1.677143330841203081e-02
-1.341145487918930443e-02
-2.608095997063489876e-03
9.930760071175373169e-03
1.089803781936626859e-02
3.483238079638260442e-03
-5.765297574655129428e-04
3.738360602890802094e-04
2.778118366981425277e-03
1.826542384036287806e-03
-3.108292344843954845e-04
3.529498707870018081e-03
9.026058039924256607e-03
7.854268690714020021e-03
-8.606527280303466736e-04
-1.986762788877193594e-03
5.263745412565460323e-03
3.839759623114051123e-03
-8.633971263821775891e-03
-2.289817168563627534e-02
-2.842971231189067235e-02
-2.000434693753275900e-02
1.226300210089659041e-03
1.993742051862282261e-02
1.897154086445064849e-02
1.471988947597026830e-02
1.590865283518975645e-02
1.687714567501521004e-02
1.176914152606995008e-02
-8.802672553966954441e-04
-8.057671978611827615e-03
-6.512520237158257383e-03
-1.387528890086858237e-02
-3.125610381499240031e-02
-3.133230780620435696e-02
-1.434670101562558579e-02
3.481004038290625661e-03
1.892961497187774580e-02
2.924331952223041889e-02
3.012700335576871946e-02
1.801830879551572298e-02
3.015594726865688320e-04
-1.278062560971753199e-02
-1.361460283643199133e-02
-9.107031782305477149e-03
-2.514618773814464910e-03
3.114337808375908863e-04
9.011597357079280466e-05
-4.275401551847369738e-03
-8.675877706098457723e-03
-5.627794411413171959e-03
-1.466706614336408805e-04
-9.040416831635786181e-04
-2.688835762624098517e-03
6.716689482616696252e-03
1.936799439773385922e-02
1.890209587642329228e-02
7.849646905791075879e-03
-5.941640990880210985e-03
-1.357133005416310753e-02
-1.148402852393257990e-02
-5.272522630718032462e-03
-1.427800973102738699e-03
1.453350261463552261e-04
2.928334774451680621e-03
1.277987655728628907e-03
-2.332611602504513788e-03
-5.710216521881243679e-03
-6.184282505876605510e-03
2.590030395287805636e-03
7.582788188591012626e-03
2.626028877758581400e-03
9.185692290463464988e-04
7.249556297034553953e-03
8.382627959964738043e-03
4.641779115834671239e-03
-2.445225255822352107e-03
-6.021704041185982695e-03
-7.781131109120014398e-03
-8.195266352716905692e-03
-4.220517227080712759e-03
2.770062248180018855e-03
3.019560794639459828e-03
-1.778508363720678618e-03
-1.840908726634139618e-03
-4.018620285562814372e-03
-3.725608470230494778e-03
9.105824293415656565e-03
2.164068332341079898e-02
1.400979896480613641e-02
-5.134732934400859997e-03
-1.173659435841226811e-02
-6.763460532538283221e-03
-3.381663178418788020e-03
-6.808025721300728882e-03
-8.049932335903420624e-03
-4.656904953477505188e-03
-1.486693291221386068e-03
2.749132990729514646e-04
5.547454383747384837e-03
1.222480009296707769e-02
1.254124131378914382e-02
3.595538709820045743e-03
-7.481521118135497136e-04
8.268547274836315984e-05
-1.742392904228557424e-03
-2.307375364805748074e-03
-1.505341148977320164e-03
-4.861843623512288916e-03
-1.010147197595047223e-02
-9.891693174541098602e-03
-7.865433863603795914e-03
-4.434923370667149221e-03
4.116314853406972951e-03
1.768979504956107521e-02
2.412362146002038771e-02
1.383466750095893767e-02
-5.077585938748548425e-03
-1.354310348991475711e-02
-1.188130504212869115e-02
-8.961011434234625317e-03
-3.731524024179040232e-03
5.626120758005620157e-03
6.289640576047945443e-03
-2.654198329505137992e-03
-7.922041861193994047e-03
-2.177540228966006689e-03
1.138880671259570425e-02
1.676894215575458133e-02
6.956347603447265993e-03
-6.593183581094992293e-03
-1.471209192085154091e-02
-1.418158120293970016e-02
-6.052633784960311999e-03
-1.140643108399940929e-03
3.164369859173514227e-03
1.236428371769605211e-02
1.470641745750566817e-02
7.883103338202681817e-03
-1.121566905670032732e-03
-5.642493796576280793e-03
-7.110859306337860217e-03
-4.672172158557671810e-03
-2.351886110002881451e-03
-1.115773307869250301e-03
9.810339231029199195e-04
1.776892921501861114e-03
-5.709296060431439139e-04
-2.399168052143255993e-03
-4.153493674762283663e-03
-5.203150027364687909e-03
3.632864076387642277e-03
1.475339762246209198e-02
1.887946191936063986e-02
5.816899565513723031e-03
-1.616339203172215480e-02
-2.047528110657312675e-02
-6.007533747929229631e-03
2.877072782592960103e-03
-1.393180300177982887e-03
-4.720633143954373716e-03
-2.167521973732093165e-03
3.562456446093594225e-03
1.173014738039788833e-02
1.943589144443088820e-02
1.307263974441397365e-02
-3.748375378905786492e-03
-1.232781906124252695e-02
-8.623996116207668580e-03
-4.921381740354443396e-03
-4.491914751498997209e-03
-4.487253058285740025e-03
4.031235496872343925e-04
4.067426205755200926e-03
3.160608759053751791e-03
-9.156346437938988562e-04
-6.748114731185677478e-03
-6.204120519302394089e-03
3.202803659841745639e-03
1.647594349922057444e-02
1.533233109078604127e-02
-1.129880067257815193e-03
-1.276970882284562438e-02
-8.308874030466284824e-03
-1.503205895069537881e-03
2.935557332522318046e-04
-6.632646942683472369e-04
1.694385256979334372e-03
3.210781378638834487e-03
2.477898113316185074e-03
3.431153591000000828e-03
3.907499493155060233e-03
-3.847216931672990908e-04
-5.639738462374485964e-03
-9.717812749100714770e-03
-1.260200839128197865e-02
-3.276334113498249965e-03
1.463703253417550018e-02
2.134823720776919329e-02
8.056646050808486531e-03
-9.166556284916603514e-03
-1.470973210664159106e-02
-1.035928318603217962e-02
-6.756453791100966791e-03
-2.800948630751708395e-03
4.593192444217987437e-04
8.673658191272812581e-03
2.289348317367976074e-02
2.629629372681721589e-02
9.060668095010517703e-03
-1.652003143438668734e-02
-2.564000424759908456e-02
-1.743805038756016806e-02
-4.764759317196940944e-03
3.522908969141755071e-03
7.307515160665056884e-04
-1.655389485598681657e-03
5.403217788864284098e-04
4.936823930898798056e-03
7.468693005918677214e-03
4.665664541229621806e-03
2.343054279924625376e-03
-7.291610779684412538e-04
1.516398605127244068e-03
8.714601933432430947e-03
9.954161963567593335e-03
1.486742336257936741e-03
-7.921800800433040704e-03
-1.483319081760469879e-02
-1.532882036525171944e-02
-8.207724813310453282e-03
-1.851046872682605071e-03
5.611784131946033830e-03
1.119045019365895975e-02
5.041402781471583140e-03
-2.075627263114449960e-03
-1.083962241077697465e-03
6.248009614120083460e-03
8.217928430442708598e-03
4.549917336441595614e-03
-1.336088402030506771e-05
-1.353473134786906248e-03
-8.789187973867854803e-03
-1.623265533763201471e-02
-1.134083069869682749e-02
9.227933737410246376e-03
1.646840257171523075e-02
7.011246101062029897e-03
3.758115801116544978e-04
-2.991436266733706831e-03
-2.032045352170328174e-03
-2.703439946624388007e-03
-3.939502142350982672e-03
-4.516559243116525027e-03
-3.969765752207757119e-03
1.511434180744705637e-04
2.360009728303008331e-03
5.213438445709881906e-04
-1.102361515398724403e-03
2.957739803989737661e-03
7.472974194732868135e-03
8.419337122883200838e-03
8.779061257171117197e-03
5.882128476121007560e-03
-1.260507383675056907e-03
-1.011522688275920574e-02
-8.816796128461623291e-03
-1.049203176884578106e-02
-1.602357337270904000e-02
-9.625131451572408250e-03
4.379103508163440656e-03
1.176738411669402996e-02
9.769130188686433666e-03
1.862379278233909164e-03
-2.560467780245379780e-04
1.252754277152230982e-04
1.509852814416600677e-03
9.836050448847041827e-03
1.650599933433365488e-02
6.936704677381181662e-03
-8.301606086486687172e-03
-1.071437493147483003e-02
-7.589803241114924034e-03
-8.638946589572866000e-03
-6.911102664600596475e-03
-4.543203467911521918e-04
-4.002817028155777608e-04
-4.111081693254263827e-03
1.610354948720650907e-03
1.151971727959150670e-02
5.888149369026848649e-03
-6.173646548459995817e-03
-8.698407715112842220e-03
-1.607143249100312756e-03
5.997002052272487962e-03
1.153957266696397331e-02
8.443215677793918655e-03
1.539437801868467947e-03
-8.618568103162459974e-04
1.896271912673397298e-03
9.968856226016174858e-04
-4.749502480278436009e-03
-9.351276365084882844e-03
-1.244319016664709003e-02
-1.073429117749635613e-02
-2.124171156098672835e-03
1.109274272615242557e-02
1.703647455241710448e-02
1.270047368366706599e-02
-6.302827613423650412e-04
-1.250011256500479541e-02
-1.503506468125918871e-02
-8.744758696459018973e-03
3.423897848002583916e-03
1.135045616505255504e-02
7.347083916745354888e-03
1.410642793055226019e-03
1.228117388756784717e-03
1.644209289574383127e-03
-6.185460350021920566e-03
-1.266970844800842204e-02
-9.770345877106331733e-03
2.743018162372435221e-03
2.492477769044973770e-02
3.514277784731360821e-02
7.175421482721502930e-03
-2.797971504397992956e-02
-2.909019949936660077e-02
-7.847444888617301564e-03
4.712651965077160540e-03
6.738293233457745557e-03
8.433779346005663979e-04
-3.301915183952603468e-03
-5.457422829829326749e-03
-3.836072460630342729e-03
-2.439355393177436177e-03
6.797422610387127790e-04
7.148699264567794434e-03
1.322986689741691146e-02
1.484898657223480793e-02
9.576563486061088690e-03
5.633539259053743642e-03
-1.446746371481063198e-03
-8.360333941295495716e-03
-1.271740275888167369e-02
-1.654036874102326679e-02
-1.923723689850850502e-02
-1.805737238772727946e-02
-5.349158846855203708e-03
1.876558418656695468e-02
3.646068861854821069e-02
2.150096763358942328e-02
-5.987915962519489363e-03
-1.370295212851158941e-02
-2.938242314444653239e-03
9.274471194845966895e-03
1.153816212506455531e-02
-3.728453367901750793e-03
-1.464332360786287958e-02
-1.013216696361500697e-02
-2.736132196826433684e-03
-1.140070397022366995e-03
-4.067773239527614978e-03
-5.015765135505523623e-03
-2.179492060716551032e-03
-1.364064797215836433e-03
2.345587809957326643e-05
5.940034726376207733e-03
1.238455172299994522e-02
1.043778901405456767e-02
5.480725029045903363e-03
8.648041836205185798e-04
-4.072697969804076469e-04
3.580990716616019062e-04
-3.079769897994658122e-04
-3.599363344134752334e-03
-7.658950575268832009e-03
-6.651025315115420382e-03
-4.331680671499915647e-03
-2.445331745576113675e-03
1.262204983728937345e-03
7.358662064251468647e-05
-9.511909593276835677e-04
2.660301413219050455e-03
5.630992852321372796e-03
3.303066199440746371e-03
-2.570787756899929177e-03
-2.918300085080477359e-03
3.107549013946290091e-05
1.439069486522744469e-03
-2.482836964083472760e-03
-3.184231899588160948e-03
5.574928202369953956e-03
1.277161415545497759e-02
5.839278304982855640e-03
-5.675759788062566431e-03
-5.060623183216378905e-03
9.025944006288060071e-04
5.291723263552049888e-03
1.663055654398265266e-03
-8.770590289131565895e-03
-1.789909678221829684e-02
-1.437710117092703098e-02
-5.295733738900529688e-03
1.127469537957465941e-02
1.621317719003437588e-02
5.193133159152845367e-03
-3.700412310705468878e-03
2.648526232389749051e-04
9.170967341250665233e-03
1.079104064621727588e-02
2.324523926788407083e-03
-1.509206609514795972e-03
1.173920357651022034e-03
-2.549132124997860547e-03
-1.338816360494052282e-02
-1.555627294177216145e-02
-6.363735869203636722e-03
6.838091041651039523e-03
7.267428796317074169e-03
2.736049143775999733e-03
3.141594951924706861e-04
-1.916256965084061790e-03
-4.645628930624490401e-03
-4.597983459239744254e-03
1.494217357175384045e-03
1.001683138517159115e-02
9.705819290126399546e-03
4.227310519564952442e-03
-1.250138024851490037e-03
-2.951686322764171099e-03
1.051618579798161129e-03
-7.465293616127869226e-04
-4.287968761947336463e-03
-3.217437677751032454e-03
1.053297381190759644e-03
2.402061802173952303e-03
-5.728726346725155488e-03
-1.614151385784988804e-02
-1.063318828389241306e-02
8.566064860932573466e-03
1.771678935129409813e-02
8.793019344903186749e-03
-3.048850676412034107e-03
-3.584852375752677154e-03
1.705012235594939932e-03
4.878672501604114711e-03
6.520241348424563911e-03
1.858542360714706939e-03
-7.478001766273359614e-03
-1.070834024225569142e-02
-2.693534800792484873e-03
2.335502453952037569e-03
-1.600134969471005445e-03
-9.342741145609630583e-04
3.722306363147071320e-03
4.599504367845182184e-03
4.984757385234561081e-04
-5.194942328279240733e-03
-4.818797732879477255e-03
-2.460583552534277140e-03
-3.890669465928521704e-03
-8.718513424051844041e-05
1.078738281052796927e-02
1.453344197709083817e-02
6.853794537981326880e-03
-2.218912443129471886e-03
-1.744679603443944184e-03
-4.681902576716015052e-04
-4.685457531218272138e-03
-1.564247388951271397e-02
-1.701784115336771666e-02
-4.675498661175052362e-03
9.976652503943889139e-03
1.585119012481367787e-02
1.163531342535611100e-02
2.732835255034812578e-03
-2.097702728797585982e-03
-5.242118285990486105e-03
-6.652159741852304783e-03
-8.729644234220469354e-03
-9.003738990518745863e-03
9.351285072639822522e-04
1.635947695282840772e-02
2.169182609425060471e-02
7.289231213879744826e-03
-9.802509851174607408e-03
-1.269979667975192246e-02
-9.547312708748539531e-03
-5.589027745383957566e-03
1.108035188095262942e-03
-6.388898918320881203e-04
-4.001047715315965078e-03
6.008564379851434687e-04
1.099802050616752701e-02
1.205052822855268158e-02
4.638231606755976663e-03
2.000032361685182784e-03
-1.237748147481421276e-03
-7.998783749610936453e-03
-6.696196334399945847e-03
1.917439204531003845e-03
7.864874330122649266e-04
-8.504039824969842135e-03
-1.107103754311821418e-02
-6.662088323619105509e-03
2.238184342770175358e-03
7.345875524566950615e-03
7.994094160961097081e-03
7.612725675381537029e-03
7.006208174447473708e-03
2.975454209968628628e-03
-1.764583130932422797e-03
-2.091023220896962628e-03
2.362173325139067543e-03
3.551512160361348491e-03
-1.640495409026931201e-04
-4.469426335379077242e-03
-7.322363679428898695e-03
-8.334130536765932407e-03
-8.305691662130588668e-03
-3.121716575627730885e-03
5.109270819588641703e-03
1.094963954744974759e-02
5.320870394032624351e-03
-3.294371386486088290e-03
-5.492095104628284125e-03
-1.177799497103722325e-03
1.799935667027716167e-03
-1.065228229232417865e-03
-5.665962358038533798e-04
5.002094950403663219e-03
1.213367551155975291e-02
1.088737670698991696e-02
-2.290717043810298979e-03
-1.388123638030604005e-02
-1.052739705440236366e-02
-4.815821885599693049e-03
-3.227781385639631653e-03
7.307064942388161264e-04
6.083782687272139625e-03
8.963966017853675430e-03
6.122059114208782196e-03
1.489407064804472653e-03
-3.814156735552737504e-04
4.982207639851567779e-04
-9.017053294364651278e-04
-8.676532967582558167e-03
-1.484722745568370188e-02
-1.187430219842465842e-02
2.302122884105195933e-03
9.148771042060160896e-03
1.011861683138567253e-02
1.062020320546843907e-02
7.650762586795287028e-03
-1.052885153146189889e-03
-5.571322518393450642e-03
-3.789688008179130374e-03
-3.835123850997862634e-03
-3.624899657194536207e-03
5.941403315824135990e-04
7.231951977646531790e-03
3.409593715911592420e-03
5.949494314971603075e-05
-3.927886717415590700e-03
-4.457351398193892811e-03
-7.706046942960911427e-04
4.097745042413671393e-03
7.260922959144756623e-04
-1.006424163083346514e-02
-1.370378763516933232e-02
-5.685066752720524703e-03
8.429177280208657863e-03
1.559081068055599879e-02
1.051644628643812023e-02
4.225834510058897389e-03
1.608245921522435300e-03
4.973425512040776573e-05
-2.475799781979681844e-03
-3.127865138987220676e-03
-5.178293371642333706e-03
-5.644330842343338664e-03
-7.489587318830630974e-03
-6.649930056485776203e-03
6.442123873600790352e-04
1.130653977595149490e-02
1.371521072272152177e-02
3.122866110892250861e-03
-4.611122707404803622e-03
-6.284491709667963839e-03
-3.111349724860033774e-03
6.521147430414832389e-04
-3.142226945998113108e-06
-3.515344551345298517e-03
2.301589455079001653e-04
6.857566032818824750e-03
1.769724943355853583e-03
-1.162707303059666401e-02
-1.528447249088897217e-02
-1.388689569750507216e-03
1.359657643248216551e-02
2.096961666172687810e-02
1.658453151737843481e-02
3.141577314511897426e-03
-9.654933414988346729e-03
-1.195475185101302351e-02
-1.145227695400703391e-02
-1.064216182054635897e-02
-4.829405885466805937e-03
2.309529483037642706e-03
6.508206192092408707e-03
8.552955560710189323e-03
7.564719648469029473e-03
1.910162586072099893e-03
-5.003786440652002385e-03
-5.190689435000000497e-03
-1.498426477286148939e-03
-8.976609447939008779e-04
9.270144399695567569e-04
6.534037560300879179e-04
-5.509538091970304224e-03
-4.124215279540997640e-03
4.498093704269573098e-03
1.117889437945022470e-02
1.084293279998267863e-02
7.251132470605077887e-03
7.987223717221116157e-04
-6.289615646357422582e-03
-1.315610837886101690e-02
-1.557251032099040387e-02
-1.402258644339132894e-02
-1.646580419982879772e-03
1.485160784996652876e-02
1.336793286538219376e-02
3.541283207424031614e-03
1.112732124785017563e-03
2.744379596229250349e-03
1.886666465891965365e-03
-2.349022577832293279e-04
-1.484087929548516321e-03
-4.914293094544172971e-03
-8.084066810712036560e-03
1.370715115635619133e-03
6.523396823667058052e-03
-4.510939066115455393e-03
-1.065302554958478566e-02
-2.417443783303782102e-03
5.724427829098437288e-03
9.520312538222653470e-03
7.914526541986401792e-03
9.094612686643699113e-04
-4.178841595118810981e-03
-4.468646248165316151e-03
4.739103365779395315e-04
4.366081800710326991e-03
5.504182430220582074e-03
-8.615898591854246908e-04
-7.264511928323403797e-03
-7.140978625316886895e-03
-4.747424295927579405e-03
-5.090430472333448350e-03
-2.791120369443041063e-03
4.023946725045879705e-03
1.020658610071031348e-02
6.784539422561394750e-03
7.921702258370567646e-04
-1.060196396438589433e-03
8.985084726516108945e-04
6.406628441429206434e-05
8.025018522407844062e-04
2.127916935120605178e-03
4.549646439611972223e-04
-4.443716374680111922e-03
-3.632649300037685183e-03
-2.811346785339698812e-03
-2.168012138073338330e-03
2.555504654367534659e-03
4.959038353690816033e-03
1.717044884532984220e-03
-2.387297635095538256e-03
-5.145783228010764043e-03
-6.471268521755856908e-03
-4.435669063185425365e-03
-3.363774395993845284e-03
4.774855522489751709e-03
1.670702568931905010e-02
1.586553190762162932e-02
-5.642830551443359446e-03
-1.545357169902965982e-02
-3.352491320248297477e-03
6.214302870879990191e-03
2.208725820611840557e-03
-2.161891289064328450e-03
-3.773075298554490892e-03
-3.322845857846420253e-03
4.710488932841239780e-04
9.502404815970826382e-03
1.300623696312760459e-02
2.822799782021327437e-03
-8.133738449108928598e-03
-1.577728683791401743e-02
-1.340190351155556153e-02
-2.056502473746236234e-03
4.875535855978498437e-03
6.237964568635902610e-03
5.770258261787669998e-03
1.723591830594332257e-03
-6.346524142857013200e-04
2.427678760781458618e-03
3.642190682561628756e-03
-4.620824791409761339e-04
-2.520670589698481806e-04
-9.138771728941657863e-04
-1.546639158749578847e-03
-2.636787274630744606e-03
-2.087776640947612214e-03
2.054810712198397384e-04
2.970223276747068538e-03
2.948797889137223013e-03
1.310821593714631052e-03
1.520636903319211872e-03
6.436375564991675662e-04
-3.325791836501977312e-03
-5.510165973805339346e-03
-2.081322974150502485e-03
3.178973128729968827e-03
2.234929919068268187e-03
-2.099845943346880569e-03
-6.695321190910089558e-03
-8.263535190465361169e-03
-5.044292089615353900e-03
5.628131447365129943e-03
1.236321028539956110e-02
1.061173899480270279e-02
8.764907088392429393e-03
3.891907463932016507e-03
-3.303579138853385017e-03
-9.850585819715649769e-03
-1.004500403026377386e-02
-4.291047926689539431e-03
2.127374694701138647e-03
4.851504835936432461e-03
4.114777235915264772e-03
2.152396068446054377e-03
1.525293005751869298e-03
-6.933031081033784807e-03
-1.466715734094319566e-02
-6.845730918999065606e-03
3.760168897706749145e-03
8.967559983083727218e-03
1.234694425752473103e-02
1.060089561695504515e-02
1.799817581380944035e-03
-3.175708629867741908e-03
-7.795321102685018495e-03
-1.446616556205671325e-02
-1.400305663576214242e-02
2.164821812192212289e-03
2.154633271048978643e-02
2.111562097876646879e-02
1.033250920578600860e-03
-1.474289289193616431e-02
-1.492430166798568332e-02
-6.382858136472595312e-03
1.567055944254356703e-03
4.950403634700079741e-03
3.298912402551667112e-03
2.700568805504952648e-03
-1.292420571524075315e-03
-1.397543691538994457e-05
5.885112668463761409e-03
4.149401125396767233e-03
-2.833615670744695728e-03
-3.217704414469187753e-03
2.181650262502309208e-03
5.385719222370783862e-03
3.617454861161424270e-03
-2.219639211768145368e-03
-1.211563136324536952e-02
-1.566122199496554693e-02
-9.596830476837830276e-03
-1.174372704234136850e-03
7.093652301573093524e-03
1.513568062593647658e-02
1.844506658344159666e-02
1.341315745431588720e-02
-1.148901916182269506e-03
-1.348196112528489941e-02
-1.917055407108390203e-02
-1.045798360742847266e-02
2.089654701930869583e-03
9.727371539153602253e-03
8.431706712323070937e-03
3.174194174639599197e-03
-1.537425367961449537e-03
-1.351153219198654573e-03
1.982502795226988128e-03
1.378649836533296430e-03
5.981088768277582684e-04
2.504055073296367496e-03
1.895878332780185065e-03
-3.652652802579783604e-03
-1.058646585900361453e-02
-1.318398894614116780e-02
-8.748652173275603058e-03
-3.626699340381264454e-04
6.459457314916229424e-03
1.184568937297578520e-02
1.133048532527701838e-02
5.914760107054361712e-03
-9.935356764773030282e-04
-3.430601616593159046e-03
-6.587011241566880036e-04
5.483805522766518241e-04
-9.661915347299863434e-04
-7.345507890305247745e-04
4.325782681936475409e-03
4.019623099732951010e-03
-3.906557288256305716e-03
-7.957328273661678011e-03
-5.006022776772920020e-03
-1.510149244069057843e-03
-2.522588759172029148e-03
-1.010982164654229383e-03
3.675790512901618273e-03
3.055393396534441999e-03
-5.694189332473347138e-03
-7.535786040319167323e-03
5.356885810843877723e-05
1.241530168409022382e-02
1.907608145449756279e-02
6.490287824403605244e-03
-7.323549103132619142e-03
-1.291127653857777370e-02
-6.937328006988760683e-03
9.542914069594371929e-04
5.235357886230728071e-03
5.413966230802116225e-03
3.444942317036774320e-03
-8.439902947232097875e-04
-6.850038696301026520e-03
-1.105739894866985228e-02
-8.563344042522314306e-03
-4.067137834942365429e-03
5.062303967547115979e-03
1.352109092429909336e-02
7.147942009422175724e-03
-2.749356358621655918e-03
3.970359807796640904e-03
7.757862877563120180e-03
-1.178679162107110066e-04
-6.273690270150767377e-03
-1.298634772722421973e-03
3.621019047152507653e-03
2.038151271349904550e-03
-6.528794130593961950e-03
-1.399809019527811435e-02
-1.242127484256824732e-02
-3.293362115385463969e-03
3.814797700733499417e-03
7.880452394401922175e-03
7.722326225618938306e-03
7.638164882104976107e-03
9.922361026821077679e-03
9.065907560371812973e-03
7.933362737852464250e-03
6.796783012100358293e-04
-1.289701878651816451e-02
-1.956296930835560097e-02
-1.491744058763065477e-02
-5.675706286009388896e-03
1.776354307882134021e-03
7.329945557634613001e-03
1.394226870641722925e-02
9.012177529761853864e-03
-1.045173247928998794e-02
-1.586657653059671269e-02
5.803848004665641044e-04
1.616092508411608522e-02
1.651263257508805288e-02
3.115399418364383100e-03
-5.179584244332010451e-03
-4.491934686661039171e-03
-1.045781338926321031e-04
3.007234821573113049e-03
3.391158234848409944e-04
-8.623478669501291605e-03
-1.429450218758139372e-02
-1.010585138160490469e-02
2.762580136347720598e-03
9.428256402156654642e-03
3.424339911437391474e-03
-1.865088265210269316e-03
-6.803791763324042435e-04
5.714938908307037359e-03
9.484083713637958546e-03
4.908553162979398601e-03
-1.392243546723787159e-03
-5.416181219009732171e-03
-7.456785057514129372e-03
-7.372005878922878105e-03
-3.362365424050580646e-03
8.583190267129460569e-04
4.150876416420140082e-03
9.020161216325652334e-03
1.429344022931711665e-02
1.207335893053583867e-02
-1.421165150359783710e-03
-1.592761508209234594e-02
-1.826902043038138371e-02
-9.130000647021206672e-03
-6.095130868245134028e-04
4.075567015385878761e-03
1.165736404887074591e-02
1.241561880679926087e-02
-1.516760726269924869e-03
-1.418651449777206738e-02
-7.798371735333344684e-03
2.488845054383822912e-03
5.634482354622038017e-03
1.423024679381886199e-03
-2.136491177175609598e-03
3.502351120302882683e-04
2.198460108754740627e-03
5.089526480560913578e-03
1.327351332858498628e-02
1.312636431010695895e-02
-1.666364731956212477e-03
-1.819875443849884242e-02
-1.776261367462507457e-02
-4.220266270832932765e-03
4.698812408249042338e-03
-4.744616954003696356e-04
-6.454122563422121962e-03
2.807850426917622103e-03
1.025759175146006598e-02
6.016044395002615591e-03
-1.335720893742632946e-03
-1.851396236726991036e-03
2.501932580283060432e-03
8.936841185813279749e-04
-5.832443164560244860e-04
-1.342021249791910779e-03
-2.637912735071609987e-03
6.366205633091450301e-05
3.814964850442738916e-03
2.003864262284177182e-03
-3.435781572329297401e-03
-1.868210733574650817e-03
5.651443606801752426e-04
1.547595822145739208e-03
1.368344657219221607e-03
-1.806782327196615988e-03
-8.120704107951053768e-03
-8.702116072285910955e-03
-1.638331926354146743e-04
6.238411267646280269e-03
1.130491755551450532e-02
1.171432848577046160e-02
5.057158060728186334e-03
-6.196784665867684228e-03
-9.355874161215896670e-03
-3.476429851393174775e-03
-1.648839298861448860e-03
-6.276828375097829454e-03
-4.347536663022732138e-03
5.405628205355553738e-03
5.022358520914009181e-03
-2.253606591875738970e-03
-6.170294238404002915e-03
-8.170684159184629887e-07
8.771707959160242665e-03
1.142196830298983744e-02
6.069686602865957160e-03
2.763552857129794181e-04
-5.428902782456610995e-03
-6.555705062778034720e-03
-4.426052748042012537e-04
-4.399880217624150473e-04
-7.522322097720293352e-03
-7.232082576865523152e-03
-1.110982816757204129e-03
5.811651721800285483e-03
6.542117324170974857e-03
3.715006720645618130e-03
-7.873648527645319816e-04
-5.381832124390885201e-03
-4.211191317565299991e-03
4.919311668991301805e-04
3.283863338496239865e-03
4.508967968794182907e-03
1.599319644284978538e-03
-1.161309088881277898e-03
4.958628480097926122e-04
1.975715001103391967e-03
5.385648420962597938e-03
1.991441068090664662e-03
-7.331901603181457082e-03
-8.891686022255996732e-03
-5.165770071995062773e-03
-3.051106983198644939e-03
2.006053080267536804e-03
8.156755199848505708e-03
9.894691924911890729e-03
2.632835051213069846e-03
-4.631916178943010394e-03
-3.661101328698950809e-03
1.430281467192788840e-03
3.636120698208501062e-03
-2.056404106543626310e-03
-6.458965927006767027e-03
-5.103347570680531742e-03
-4.804624302953839493e-03
-2.607653085379604135e-03
2.458511508896377758e-03
4.491732189624392593e-03
3.375530967834985182e-03
2.790497911996801285e-03
7.617449890247362902e-03
1.066226879210349296e-02
3.797972435687076414e-03
-8.194128325125086317e-04
-3.091097931303294580e-03
-7.642033984092256801e-03
-1.114764302512434059e-02
-1.087277674469863502e-02
-7.263610701995362219e-03
-6.238911451789352219e-03
-4.701012759304094499e-03
3.655700471903756531e-03
1.948305368194385226e-02
2.510345654607415780e-02
1.059472445036283537e-02
-6.834172032153045320e-03
-1.167985837826695204e-02
-6.006857294241287580e-03
6.583886568653166821e-03
7.690856874502135024e-03
-4.138855694289268750e-03
-1.126362999212437120e-02
-1.050925419199166128e-02
-7.976930275357058467e-03
-6.989015303918271090e-03
-9.219257204428254939e-04
7.559558412753865017e-03
8.017630330040645403e-03
8.628122855935326310e-03
8.857574937328591483e-03
5.102069083303046627e-03
1.443412450346292304e-04
-2.644282075861349290e-03
-3.725652553982811751e-03
-3.727443086655684787e-03
-2.521574184953071038e-03
-1.965005082995301740e-03
-3.453587088165109478e-03
-3.646405070010833634e-03
-1.941125283344918634e-03
4.256039419570942749e-03
7.779580037967174892e-03
4.825010591424666422e-03
-4.595844312532607404e-03
-7.196823670921993071e-03
-3.733051215382361503e-03
-4.585376839703312365e-04
2.467792021078564144e-03
5.181121763874696473e-03
3.378464996751343215e-03
-3.907249940612257037e-04
1.292503965685266746e-03
1.798181819619862690e-03
2.119084957259824605e-03
-1.330644707708134467e-03
-9.922241104811492865e-04
1.245695103889828603e-03
1.683693723032331051e-03
3.363146981289767343e-03
2.338675787020586417e-03
-5.299459108386328846e-03
-1.472737557416292815e-02
-1.635821284311142487e-02
-1.248217251433236287e-02
-7.666217212611128699e-03
3.436291146164395429e-03
1.943492240768664517e-02
2.928546109401011441e-02
2.082161060522978377e-02
6.383605044680150734e-03
-1.288416997424998841e-03
-8.880589595906828587e-03
-1.120853601457921442e-02
-2.794598788377700063e-03
-1.957033044459614759e-03
-9.136099323586154355e-03
-1.298435946711185528e-02
-1.309454175355523504e-02
-4.739147232743120761e-03
6.781942531356364295e-03
1.315130087631737575e-02
7.446769701789228944e-03
2.286264310242595594e-03
3.723003733246788276e-03
3.758590659762881068e-03
-1.964222749028092432e-03
-7.604953099357668160e-03
-4.757014269671284816e-03
2.445943685855909728e-03
9.233610803173053841e-03
8.371549926029685923e-03
4.204868830568048860e-03
6.113095964492248468e-04
-6.466595238234215670e-03
-1.268526238920134226e-02
-1.078481743306315688e-02
-2.026992631590463553e-03
6.249497593109798813e-03
4.901606483707734649e-03
2.510918255613376823e-03
6.604564443026038432e-04
-2.560709341971202212e-03
-1.881748805228729759e-03
-7.249508563716847501e-04
-1.751160469574253266e-03
1.831918034435447637e-03
5.054603402970613002e-03
2.319592890863819007e-03
-1.157248587315297351e-03
1.227889608947218950e-04
1.918686380931325722e-04
5.379362716594108217e-04
9.522680924845575937e-04
1.974888188406559181e-03
1.542602426580875563e-03
-6.073490011419924867e-03
-7.221315372803744324e-03
3.519555116146152757e-03
1.250952817765382634e-02
7.500586656985244911e-03
-4.964456721569068288e-03
-1.084007623249264377e-02
-7.497052446768790075e-03
-3.723005241392617851e-03
-5.535407606517217527e-03
-7.643734022261949347e-03
-1.546656216604918232e-03
1.057047987279160182e-02
1.658620125704495657e-02
6.486339498734955064e-03
-4.145420146628478811e-03
-9.869037264306644488e-04
5.371938395858564391e-03
5.526220417239549425e-03
1.335172831453915621e-03
-2.611688259473900296e-03
-4.017016937406386878e-03
-2.404300395403625046e-03
-2.156742592634531847e-03
-1.520001206702851658e-03
-2.817602621180553824e-03
-4.359539680832381740e-03
-8.682024208095995288e-03
-1.232860245383542684e-02
-6.469376225063616821e-03
5.538842443899594584e-03
1.530932075292865992e-02
1.673449094680655794e-02
9.634852326204207049e-03
-5.556687129541872713e-04
-5.388523239913302863e-03
-2.403500335481193427e-03
9.073862262213587462e-04
-8.397395715775465147e-04
-2.368364647936211601e-03
-1.771890644467554550e-03
-2.947625630431914296e-03
-4.604098809527125066e-03
-5.444266140248165201e-03
-3.399635827500055701e-03
1.471698320485290883e-03
6.069288571608935472e-03
1.233662110931075563e-02
1.200170766111934365e-02
-1.368157110230135620e-03
-1.268116947779778826e-02
-1.278491936546755602e-02
-5.331406642796017274e-03
6.997720714786257335e-04
4.732500323841652007e-03
6.961367285955450714e-03
4.685404227567421288e-03
2.385833845172244329e-04
-2.217907908659666038e-03
-1.580942661252321890e-03
-2.706255390694813166e-03
-1.913604514844888032e-03
9.582301211757424195e-04
4.382393410919689820e-03
2.703022582252028079e-03
1.547875581009830514e-03
2.724272754588973142e-03
5.599373188480828538e-04
-3.139959645837978909e-03
-3.819644220275359662e-03
-5.156391866339249223e-03
-7.157323528298100736e-03
-7.685681347286173540e-03
-2.920772871372695218e-03
6.992784256588786829e-03
2.007749691557149038e-02
2.153393587631292905e-02
7.849219409464402650e-03
-9.538409252925974732e-03
-1.674708765399514354e-02
-1.926622099389913370e-02
-2.013297765672635020e-02
-1.398145675209129697e-02
3.797831584904408104e-03
2.759017468923945574e-02
3.437689002809460326e-02
2.324959566908678735e-02
2.743930810582456085e-03
-1.678609404823075413e-02
-2.636478529713419741e-02
-2.616799484683908494e-02
-1.620853310553685422e-02
5.497409767903164643e-03
2.202359101497472840e-02
1.553354523120363540e-02
1.148350481337127730e-03
-5.102648837888846406e-03
1.660148938954860006e-03
1.058808704383674103e-02
6.397421396963217863e-03
-5.602492916987037233e-03
-1.003261704254418581e-02
-7.836464680071989625e-03
-4.984019251261634885e-03
-4.992227740315519080e-03
-3.797060783834501209e-04
9.173541288149201015e-03
9.498722681487567140e-03
2.452197351086704124e-03
-4.768926802192717355e-03
-6.495649956081809250e-03
-3.013648800600862796e-03
3.555801470279023550e-03
7.882414844760189665e-03
1.302429796703710209e-02
5.557923392543218620e-03
-1.039194347011886815e-02
-2.138873349679044564e-02
-1.093758815502860436e-02
7.403851276495771946e-03
1.443790511617519881e-02
4.091433060471019040e-03
-1.231677924749087667e-02
-1.676281315653485940e-02
-3.291630018894097908e-03
1.495861680010106970e-02
2.238474512857635892e-02
2.075379557713903991e-02
7.080678776960077844e-03
-8.969389058531937464e-03
-2.109157463578215444e-02
-1.564771697844931711e-02
-7.512976454087626210e-03
-2.420644960230367774e-04
6.763219302743185557e-03
3.300284848699258557e-03
-2.493443343965000714e-03
2.896623389918580684e-04
3.805268133454744756e-03
1.132989864161467039e-03
-3.050392768265416856e-03
1.418144374971680530e-03
5.004448549734689944e-03
1.665487769641216210e-03
-1.083253808778809066e-03
5.882194671324085609e-04
4.159903701938998197e-04
-2.391838184121076755e-03
-1.168045425096656377e-03
7.232098005088188723e-03
1.038216517887095500e-02
-6.353403704805217749e-04
-1.016486118692608819e-02
-9.404267336495309923e-03
-5.860085711297940807e-03
-2.897879226151640290e-03
-4.748692507204063602e-05
1.043164059296842030e-03
5.453080847176237922e-03
6.213573428603095736e-03
7.811868389120742596e-04
-3.932855485535185699e-03
-1.027908693750275880e-03
5.548964931816446899e-03
3.442560017485524638e-03
1.796539964682701334e-03
7.372710328316680033e-04
-1.604286509394170848e-03
-2.680030565151697054e-03
-2.692083039566546716e-03
-5.504282777899704819e-03
-5.211182773465265761e-03
5.890020519886106105e-04
7.896373839345096832e-03
9.361555739827101194e-03
2.373114762623549333e-03
-4.838432822988441434e-03
-9.221599080238488191e-03
-2.985054479258147063e-03
3.819429143353540463e-03
5.385623257645731111e-04
-3.332262836701129719e-03
-2.107674413158074946e-03
3.643585553979449953e-03
9.079742409461809965e-03
8.898687511376368944e-03
-6.794729896151166081e-04
-8.942609011616210399e-03
-1.296405563764400741e-02
-7.684302626289189406e-03
2.026863954553229379e-04
7.811528515880216891e-03
1.056976038271133234e-02
7.403715595304742082e-03
3.636964784928614202e-03
-1.368076171344285085e-03
-5.356924857180457578e-03
-4.551934889590434838e-03
-2.192498033569535362e-03
-3.342922202637456635e-03
-1.309231652544073790e-03
1.152402515277252794e-03
5.328408912354722776e-04
-3.464488903758417438e-03
-2.280678053879861469e-03
3.184596894880385113e-03
5.468523965654986836e-03
1.528119402428396037e-03
8.249273215816994593e-04
4.266744623701144816e-03
2.376895283017030781e-03
-1.815881900899139452e-03
-4.523961535072546121e-03
-4.096755740532497837e-03
-1.780502596288496874e-03
-6.475972370992651075e-04
6.612033047153533915e-04
2.902212859460160093e-03
3.940167402152598176e-03
1.189390526498222429e-03
-2.283169406613516552e-03
-3.862170834158175099e-03
-3.216052560733424596e-03
-1.993595219630970444e-03
-1.642714668762668812e-04
-9.041191740458353557e-04
6.924652656752405605e-04
4.182009415696522764e-03
5.906171109633579983e-03
7.688807018717644381e-03
9.208167868576613152e-03
2.965200200129425052e-03
-7.705726694860202779e-03
-1.595508738182947403e-02
-1.629594982723996111e-02
-8.568561482131345844e-03
3.279793739373375056e-03
9.054840897231564850e-03
1.458735029457313044e-02
1.563440658309847922e-02
-1.362671539960054945e-03
-1.350487235550400407e-02
-8.433321820486767637e-03
8.704568088016685721e-04
5.535563484980015637e-03
4.313197558354785535e-03
1.595370305269216407e-03
2.077221872681555680e-03
2.318696220521401026e-04
-1.985760684780262051e-03
-7.037468245539651827e-03
-6.693221394710425001e-03
-4.613372861416544998e-03
-9.383816271691231264e-04
4.198776365772084046e-03
4.564973564515322456e-03
2.928662934671200958e-03
3.274027565490398965e-03
6.373448979035257686e-03
7.650646487262734163e-03
8.114548050042998193e-05
-1.008830876910808173e-02
-1.218622249171160549e-02
-4.998507657101530430e-03
-4.284569405941368310e-04
1.833342017405463530e-03
6.678681357233947832e-03
8.779044069838664102e-03
5.554017193034084879e-03
2.222305638187379727e-04
-7.925425684046614756e-04
-4.645399320696569703e-03
-1.070754876924928482e-02
-1.224542610889774175e-02
-1.076641363398789068e-02
-2.137793678290860356e-03
1.333662620704623158e-02
2.160291491569172120e-02
1.743636471575528077e-02
1.008752221320144589e-02
6.044972740767099589e-03
-3.924828232688288773e-03
-1.943529786178206306e-02
-2.558406762475662691e-02
-1.583109807129214758e-02
-4.353395779137800639e-03
4.013421905141695625e-03
9.648021908953731407e-03
7.298209555275301380e-03
-9.624012997479067157e-04
-2.848176156595180839e-03
9.784507099349085829e-03
2.628165044387685556e-02
1.734168035630724233e-02
-1.310213059922256916e-02
-2.512795394664458018e-02
-7.207341930160232613e-03
7.784085274875311364e-03
6.968788551814954907e-03
-4.203189429016740072e-03
-9.578248125358459000e-03
-8.084131299558011685e-03
-3.659891162621569608e-03
-2.818537104521184975e-03
-9.210555735687882186e-04
1.049055020399794307e-02
1.453967654084456322e-02
5.170229446939677252e-03
-2.483241055363180367e-03
-2.005526487487044752e-03
9.426400906627286410e-04
1.902661613315931397e-03
-8.828316201540960088e-05
-2.796448074935103684e-03
-4.294679244906182171e-03
-2.956408133864409787e-03
-4.466676899641452227e-05
1.206901208820010786e-03
-2.268035211313529018e-03
-6.044395334823860627e-03
-2.022221126823600060e-03
1.733576566154343803e-03
-7.006058948502213524e-04
2.146968749902132545e-03
8.468909049675767131e-03
9.889578074520040743e-03
6.722933949045580351e-03
1.565267344582656423e-03
-6.194389924671560473e-03
-1.151931098353234893e-02
-8.450451095702122759e-03
-3.263280605336783542e-04
1.744072812737573796e-03
-1.131116630317867498e-03
-4.175452473654642054e-03
-4.137981597118688473e-03
-3.684038784038045039e-04
5.785863989442482404e-03
8.226386770396103276e-03
7.542971973658128826e-03
6.586778340905025293e-03
7.878182762041096091e-03
-8.833910442006124349e-04
-1.141015187575078645e-02
-5.801238633937803521e-03
7.305614554896670484e-03
7.545977824205384217e-03
-6.034435998093428538e-03
-1.756782015429102922e-02
-1.755563484969942592e-02
-9.432700888379176238e-03
9.534272654433131270e-04
7.924088615770702795e-03
9.921783877426726753e-03
9.495005769922109512e-03
1.526916978823094836e-02
1.859256903034771716e-02
1.016625896809397571e-02
-4.693303005169322667e-03
-1.611629200458634600e-02
-1.973887254430104279e-02
-1.730221227981651108e-02
-1.069282446636430663e-02
2.334548513153295122e-03
1.503489749823712709e-02
1.640076120263983875e-02
9.011550123325438519e-03
3.332989266873756453e-04
-3.080669835605361669e-03
-3.523516710591134953e-03
-3.130294556358890860e-03
-2.044893942247107913e-03
-5.895724620165460408e-03
-9.164112791014070517e-03
-4.189458430239613972e-03
1.431306904629582643e-03
2.690626383022298555e-03
6.929639793639193017e-03
1.262305374573520836e-02
9.528517038711870751e-03
1.727337458435111934e-03
-1.832548012164441796e-03
-3.657027169396464064e-03
-3.354147956806453543e-03
-1.287280489126695982e-03
-6.043851198772497851e-03
-1.230412000938002973e-02
-9.993464203452899139e-03
-7.623073120083948603e-04
7.808549170052943647e-03
1.028907168886797688e-02
1.209056071251492573e-02
6.571072090906737717e-03
-2.996722317766274939e-03
-8.311234165318112307e-03
-7.640034213247969171e-03
-5.820578321772167801e-03
-2.511761068895947482e-03
3.379776070902753855e-03
1.018862869259313554e-02
1.059034431469934104e-02
2.587717561163745909e-03
-4.689413374922931158e-03
-4.256514829180045242e-03
-3.172758159215962812e-03
-7.736832940231718782e-03
-1.234603271894665552e-02
-9.108972130291572572e-03
4.981466238447277914e-03
2.316310527048323284e-02
2.569838092627272155e-02
7.950772216642892909e-03
-1.213518429984782911e-02
-1.966277876560448140e-02
-1.345722338463866546e-02
-3.923215262021583979e-03
6.917014366917830729e-04
1.164185223040738746e-03
4.851480645802372545e-03
7.224210079536799896e-03
5.289293133455933403e-03
1.094874607058285822e-03
-2.698504946204259482e-03
-2.668138762294397330e-03
3.333911090561628024e-04
-4.413672682897506360e-05
-2.527596493496410412e-03
-3.257639848681358370e-03
-2.157348398503153015e-04
3.648971097323487904e-04
1.239372119703158713e-03
2.094567760197871102e-03
-2.130886734563952872e-03
-3.394402560735268904e-03
4.192507465422593525e-03
1.002331372558063448e-02
1.019410066526521552e-02
4.000424097774232107e-03
-2.239694649104751693e-03
-7.535949720336977686e-03
-1.301217703835867885e-02
-1.259110718512336871e-02
-3.366250880433596573e-03
2.496205211819620910e-03
1.556944907917330720e-03
1.641249254917659362e-04
4.830719055794185056e-03
6.660206070324804252e-03
4.224958776501120360e-03
6.588677785431447127e-04
-1.070850714566537575e-05
1.945669217750514582e-03
-1.776298793701167121e-04
-7.517241685565418264e-04
9.474045724903740065e-04
-1.722532485712687986e-04
-3.111719953112951614e-03
-3.827347349984407381e-03
-1.481675756687673247e-03
4.931285330889852939e-04
1.570826118845366050e-03
3.981688964488010879e-03
2.644247040511083814e-03
-3.693762818567377249e-03
-4.671914641875945726e-03
3.214029568559538291e-04
2.148874818659256541e-03
-1.749987043036118880e-03
-4.004079704746870902e-03
-4.403611002734737767e-03
4.134262909448705239e-03
1.953967280064681719e-02
7.697970263723380099e-03
-2.019157541748119525e-02
-2.333522310087969218e-02
-6.225766711378912573e-04
1.562611575055080151e-02
1.046800346118152529e-02
8.303514310057131132e-04
-5.015594327792258136e-04
3.825318328643730580e-03
7.790370997627030052e-03
6.125986737334995075e-03
-1.095929905801606074e-03
-5.859950004643864341e-03
-9.897520553911217170e-03
-1.155644315959646583e-02
-9.305802332237603919e-03
-6.313443546736617097e-03
8.409628816271835870e-04
8.119126073090678422e-03
7.674721502228072298e-03
-1.783227326256478290e-03
-3.100418355391377969e-03
6.353949236126634967e-03
1.239182083260487351e-02
8.112771736587280277e-03
1.840895094384895460e-03
1.072324159848087217e-02
8.098351412881172121e-03
-1.484399028130949268e-02
-2.326024664640310297e-02
-1.127130142053077780e-02
1.709538743835247116e-03
-1.400480770773442204e-03
-1.002518474988166319e-02
-5.162016084566511953e-03
7.343245757419747562e-03
1.356814323557664452e-02
1.240457465372245792e-02
3.950089086299688260e-03
-5.160524851397687261e-03
-1.455207741809188540e-03
9.129021468577190254e-03
1.192950870953641759e-02
-1.635819803408523681e-03
-1.498776315577144379e-02
-1.750580332667175595e-02
-8.182973577419551045e-03
1.937987910318787971e-03
7.009837792078860499e-03
1.004365259347795615e-02
9.938578469398476681e-03
3.160150952003044997e-03
-2.373521051300663768e-03
-5.142987387630865680e-03
-4.990212306156786501e-03
-4.490615955550739981e-03
-4.070458006190989450e-03
-4.297849223821413947e-03
-2.835311211485252569e-03
8.238748498795242254e-04
4.127759613372219277e-03
6.799055196771709199e-03
7.166925259874373094e-03
3.078656375070959895e-03
-9.295495956858918895e-04
-4.965470528573072504e-04
3.228832839463937222e-03
7.258249420401270691e-03
8.452713232525686793e-03
1.703090340296549389e-03
-8.003938806329135777e-03
-1.625720843602029841e-02
-2.287701209559133211e-02
-2.138588480096790742e-02
-1.320523433773726496e-02
8.964433296506294294e-03
3.335578080257380063e-02
3.262628910421215556e-02
1.145044090570286784e-02
-5.086570414465337378e-03
-5.823839735502763654e-03
-3.286820873888296555e-03
-3.466946879937991225e-03
-6.269252991542025033e-03
-1.038497873464944848e-02
-8.705334594426012221e-03
-3.574463412203316131e-03
-8.359630325405120656e-04
2.068444207257635978e-03
6.788286787405560171e-03
8.567413570974931683e-03
7.532046798925254652e-03
4.721441207440206338e-03
-1.879479678845397952e-03
-7.572635270118553696e-03
-3.537551051257483391e-03
1.810082248233635220e-03
-5.460687584491130068e-04
-5.266810681286710448e-03
-5.473466062996723037e-03
8.049425570616002771e-05
5.787493228232669200e-03
7.576013247818848273e-03
3.213208763313657457e-03
-6.785337198265031355e-04
-2.509306555534795459e-03
-3.129814058247492627e-03
-4.613160195972971188e-03
-1.025819798590050548e-02
-7.351622181812258322e-03
5.360568755841488807e-03
1.141078124264523035e-02
2.238925269565864538e-03
-1.601706058703021010e-03
8.203414194625604713e-03
1.827256519336094287e-02
1.245576964872169810e-02
-6.944511591543234968e-03
-1.809141111669608157e-02
-9.811158536372049585e-03
-8.054914725397486260e-04
-2.562449680713537684e-03
-7.296283478267643133e-03
-8.851655904808046135e-03
-7.286232835659876492e-03
-9.458000574166312412e-04
1.138622496492900683e-02
1.506225305885691354e-02
7.479106256077320061e-03
-8.667950577968400790e-04
-3.631403605498113082e-03
-3.053706828831726557e-03
1.944388279926436217e-03
9.198613547996703152e-03
7.509119664745262171e-03
6.048573511661583125e-04
-1.390854238030178212e-03
-3.310708428822688610e-03
-6.315713144330438802e-03
-8.647684975601033219e-03
-7.605471703988760449e-03
-9.002150195208931047e-03
-8.398209696802048582e-03
-2.246566686935869920e-03
5.688961357364433376e-03
1.088311504732046575e-02
1.459875313975931947e-02
1.868946016640297275e-02
6.520737100656669172e-03
-9.422973425981858581e-03
-1.088001071613058264e-02
-4.321519720065688727e-03
4.199985072323392872e-04
-3.797221493185276293e-04
-3.107997541460522616e-03
-2.912509524352390692e-03
-4.111854715605786181e-04
-7.751036399079433339e-04
-3.658573210186623782e-03
-3.049718309152444403e-03
2.195829582886611644e-03
3.770725353973389173e-03
-1.595571271783983612e-03
1.283616696579156346e-03
6.372767409064001090e-03
6.398005814992013124e-03
-4.423334091628366364e-04
-4.375420360629624777e-03
-2.516332678493578626e-03
9.816752266360378402e-04
8.815475186330547913e-04
1.852954752822707574e-03
3.065602085041931133e-03
-1.348076340951934573e-03
-7.181852113570348292e-03
-7.170359727665234773e-03
2.147937540051477866e-03
8.531240735630026342e-03
4.940215122013612292e-03
-8.485476106159025190e-04
-4.858461963370142023e-03
-6.456094802899889698e-03
-8.353067860783758986e-03
-6.385833264623367103e-03
6.054907134875872621e-03
1.879311266039216180e-02
1.325507943986657493e-02
2.825512890594543704e-06
-8.580360966332656672e-03
-1.049637954126598355e-02
-1.031617312225588216e-02
-4.530066904902820338e-03
2.735971179849273297e-03
1.024824614026899859e-02
1.249274677983931540e-02
3.336901541112440635e-03
-5.201144117236650502e-03
-4.922734482948387669e-03
-3.194461673710898269e-03
-2.802726123897014785e-03
3.385680633808737659e-04
2.389713291893385671e-03
-1.732088876006297132e-04
-3.385661538532548729e-03
-1.287458336493484774e-03
3.701087852682141081e-03
7.492510153828483774e-03
3.873765570151541798e-03
2.221338651741420274e-04
-1.569023107086369622e-03
-9.516614475598672920e-03
-1.469491588935290319e-02
-1.397569364557164732e-02
-3.015968522809954564e-03
1.412031338716540976e-02
2.129108586571424114e-02
1.651377781523938326e-02
7.078600435322286027e-03
-3.267911832339627422e-03
-1.370682816024005463e-02
-9.247629502735176671e-03
3.882614193053560928e-03
5.574849765179123832e-03
-3.666767955667053335e-03
-9.888035704241418533e-03
-7.346156856868051727e-03
2.726663751361155523e-04
5.651568021891244069e-03
1.502232368515762874e-03
-3.418566128152038947e-03
-2.473662087882801033e-03
-3.083589347387905521e-04
4.231647901201641797e-03
8.174818300058268525e-03
5.485919424228664909e-03
1.557829792491269164e-03
-3.422345913261167025e-03
-3.791800940938292678e-03
7.562105815678518174e-04
5.977395066378340255e-04
-1.540580522248621896e-03
-4.311010043156838015e-03
-2.553638249731349751e-03
1.938968419254122962e-04
3.142318716962452362e-03
3.063985762566857288e-03
3.296524262135808181e-03
6.211349693015703975e-04
-2.529515094888482463e-03
-3.716328495158977268e-03
-5.223735830787904801e-03
-2.005761336582591228e-03
2.138206125456629594e-03
1.274980905298228736e-03
1.220303597147999073e-03
4.429911519713026005e-03
3.436098769519448873e-03
-7.999891287945098885e-05
2.864826519735615769e-04
1.321878240933811602e-03
-6.489472788847368973e-04
-2.588831341868328122e-03
-4.664541478168333401e-03
-4.904862983420729683e-03
-4.388286472762878247e-03
-1.598134147408649926e-03
6.202298144202111375e-03
9.539750027608658034e-03
4.734498262031688193e-03
-9.123909760160870807e-04
-1.935631947422212021e-03
7.189639032802190490e-04
1.681549549191576828e-03
1.227526541362904121e-05
-5.525111125211356992e-03
-8.830783914308177815e-03
-5.011992434339031591e-03
4.123844732419310738e-03
9.762319693085068709e-03
2.487748272326784083e-03
-8.647084936681830383e-03
-9.400106750924614243e-03
-1.858908713069972905e-03
9.898678369280650494e-03
1.842818876443736917e-02
1.139103777226243598e-02
-1.284286799995067304e-03
-9.066983355066379757e-03
-1.394245648312971743e-02
-1.606520273950014926e-02
-1.253598455337059762e-02
7.665830314906899815e-04
1.819663571860457782e-02
2.357369122108821102e-02
8.183996887601466957e-03
-1.060580271456191236e-02
-1.330438938760441364e-02
-3.317357757252142880e-03
6.179487256624458663e-03
4.756965216645410097e-03
1.216712247277123475e-03
1.165396717072587256e-03
-6.102827016602852895e-04
-3.507768461410329299e-03
-6.141538718135831389e-03
-4.969208219110029731e-03
-2.685684188882339705e-03
-4.718135252064605337e-03
-6.568185785013961643e-03
8.386360653211903226e-04
9.780890587985670986e-03
1.221160246659537020e-02
1.089023017986574977e-02
5.951533392536039434e-03
-2.652102139085052001e-03
-6.905752820799308973e-03
-1.251940321601276856e-03
3.839776534037922431e-03
6.450995394738302108e-03
-4.474593553388143269e-03
-1.433161648360327736e-02
-1.488970594153919691e-02
-5.969110829621144046e-03
3.794630987567731376e-03
7.473048965402107578e-03
2.428989655708846049e-03
-3.896892157334871151e-03
-1.933165066709841137e-03
2.310423786066213674e-03
7.832416652319078992e-03
1.420767119167243818e-02
1.426019742107583095e-02
5.814103229564694664e-03
-7.689836610306111445e-03
-1.367492114271584396e-02
-1.315267881139000304e-02
-7.741866175827307600e-03
9.507440865415761003e-04
5.537759663346642977e-03
4.755553094991170349e-03
-2.334256220027369853e-03
-7.649505024867104055e-03
-5.230071990044308887e-03
2.653974152385558082e-03
1.358454356048541777e-02
1.446245177907476594e-02
2.256247999414892711e-03
-9.285086798639435521e-03
-9.010108583214450004e-03
-4.079629530770305726e-03
7.872645459285666520e-04
5.145793585966011024e-03
2.755445532264158125e-03
-1.482703050859258791e-03
-4.496468926528041782e-03
-6.111753049610774841e-03
-4.476611109100640112e-03
1.037273717687697697e-03
1.044236808673015653e-02
1.199417572733985256e-02
3.857682339020677715e-03
-1.772085056186892228e-03
-4.760161479350469640e-03
-8.483145235173366119e-03
-6.550280942602347209e-03
-2.942035741650738615e-03
2.334859409249762877e-03
8.975244485864978736e-03
5.693634755274967069e-03
-2.006035002225391942e-03
-7.090580685825817117e-03
-6.034423355745186478e-03
-1.945795492022748120e-04
5.407971301030091611e-03
4.985154381968936836e-03
2.194043387248829154e-04
-9.585785312165100939e-04
-3.922227030398414715e-04
6.679557053947968788e-05
1.916561923110361373e-03
6.988078388799967913e-04
-1.639219085684530570e-03
-3.303469833020144467e-03
-3.616238877816098265e-04
2.730870812459285871e-03
2.593506275330674255e-03
1.958053411402298910e-03
-1.773963436166799221e-03
-7.832710914334796784e-03
-6.434031410368186259e-03
-7.528732742843769355e-04
6.502590892330820278e-03
1.110470036280484726e-02
4.862092143495975669e-03
-3.020433092148303630e-03
-8.069023138819396770e-03
-9.474219860303624216e-03
-4.141808838347006694e-03
5.675395788650856171e-03
7.949536773526940520e-03
7.110946153883197351e-04
-3.681072194668451140e-03
-5.135824251004411254e-04
7.587020396608358877e-03
8.977925327762110302e-03
2.840402529790987673e-03
-2.950869773387383276e-03
-4.485954992749355275e-03
-7.000873665573987756e-03
-8.392389343754412187e-03
-5.623106028314084695e-03
-5.190259090692460938e-04
2.059354641429580243e-03
3.215094737526131684e-03
2.073977839432883732e-03
1.728581470723697085e-03
3.280867097662552769e-03
3.242867307557066158e-03
1.009892402552671183e-03
-5.306921101125101816e-04
1.182364620772793370e-04
3.194348959870454670e-04
3.833983119427306595e-03
5.262755775541174720e-03
-1.402341586883132244e-03
-2.782748422247149824e-03
-2.270459389694550346e-03
-8.274076286010718581e-03
-1.712667357040413910e-02
-1.110296684833192264e-02
3.124443146903901989e-03
1.416214605096980175e-02
1.580617638476768810e-02
1.039177076784265213e-02
6.957748437341074524e-03
6.292002842917062203e-03
-5.916168383861446830e-04
-1.352702338043045883e-02
-2.196893922950024503e-02
-1.475342635331724529e-02
5.408534727649199139e-03
1.323223117365685333e-02
3.579315311443343785e-03
-6.259960092012182772e-03
-6.939096278026499892e-03
2.632383217481286310e-03
1.207862434473140449e-02
1.237086876849342702e-02
4.981666546514404090e-03
-2.079970316958878410e-03
-4.638621612301357076e-03
-8.178763507550659839e-04
3.629419064644330735e-03
1.130167193019235424e-03
-7.323231981705280794e-03
-1.369105226847852456e-02
-1.127402382940701636e-02
-2.647336645345930908e-03
1.861570738176990128e-03
4.154662846089977532e-03
7.977528462009235780e-03
7.312095086788637267e-03
7.100921490366710834e-04
-3.223412994943208594e-04
7.460744390078823465e-03
8.972572463056088105e-03
1.770304393422673451e-03
-5.619515115379059012e-03
-1.139555293790977912e-02
-1.269366771959797545e-02
-3.292906629874324097e-03
3.041986582893665188e-03
1.706356244914352923e-03
7.021308477546579080e-03
1.042412538279729323e-02
4.577009033009248051e-03
-1.373316358666719665e-03
-1.325018504892640789e-03
-3.510287815409400547e-03
-9.130990627707575441e-03
-1.281568973861499199e-02
-1.055553391204319506e-02
1.970564528978926370e-03
1.901445635383336094e-02
1.941204857590473828e-02
5.488041986449155793e-03
-6.560034268726810947e-03
-5.582990899580665516e-03
-3.025758044976092648e-03
-8.205357744803305764e-03
-1.060812277795337294e-02
-7.926576652663205446e-04
1.038441217784108819e-02
8.857687895138167955e-03
2.404008394238926348e-04
-1.619873730913811002e-03
9.455610548119678261e-04
1.177694435169373373e-03
-2.036685815441798171e-03
-3.246336732222167721e-03
-3.506163459372828805e-04
1.893823993783889806e-03
4.202027726883600183e-04
-1.959656356012214875e-04
3.619278412756001873e-04
-1.085775018166425807e-03
-2.366304895488491582e-03
-5.264985012397091838e-03
-6.221385790965533805e-03
-2.743336984322550850e-03
3.687608520710216470e-03
4.252670057684243728e-03
3.847139544156098941e-03
7.038365597232801828e-03
1.013018988931184070e-02
7.421686120915968465e-03
1.131806268514883246e-03
-1.167466130333842520e-04
-2.342727116167938294e-03
-6.815282584599740776e-03
-1.126373420648515110e-02
-1.170112498901269317e-02
-1.157699123081012450e-02
-1.293070011170045427e-02
-4.041215790005080362e-03
1.095656755713501039e-02
1.480130025796339531e-02
1.538757515461664296e-02
1.614953589950185106e-02
7.964493500042810550e-03
-1.858297713086430039e-03
-6.664215031835219599e-03
-8.227016672932640357e-03
-8.802957886430136034e-03
-5.930382041253803860e-03
-4.718164474335076404e-05
3.536035830265167688e-03
7.309414243621934447e-03
7.227512948713601774e-03
6.491938736143123504e-04
-8.623374999277086048e-03
-1.385284919473944547e-02
-9.793343478953079814e-03
-3.071635254722906039e-03
-4.468791954296984811e-04
-1.956209539614125505e-03
3.191428017487746988e-03
1.813871394010709015e-02
2.127906418277470887e-02
9.432232049779947988e-03
-2.919925128389229668e-03
-6.669946300328128200e-03
-7.841641422154025168e-03
-8.200062962477022710e-03
-6.307661185922152670e-03
2.639188921517033899e-03
8.508382267630240983e-03
-2.012554767756170870e-03
-1.489561816235141119e-02
-7.845479903768859051e-03
3.921470445727666398e-03
7.802250741881306545e-03
3.260082382419065249e-03
-3.677576922641119430e-03
-7.904741199366158849e-03
-1.125145283063964767e-03
1.440827065355879816e-02
1.993824324587797556e-02
7.362898464864750525e-03
-3.671533287031290057e-03
-7.115601402083691907e-03
-8.371578201846677572e-03
-1.146663593647309978e-02
-1.034709825511561342e-02
-9.271873511800044539e-04
8.690167759562885189e-03
9.046762520202688077e-03
7.707899676476610232e-04
-4.053499210233622516e-03
-9.634907599479695765e-04
2.757404945870412568e-03
-5.974089593171870265e-03
-1.232418581999427526e-02
-2.081020127908647047e-03
1.087481640280270681e-02
1.462652372835691710e-02
1.325786757113747369e-02
8.849811489367635786e-03
-1.565466158858299294e-03
-9.210866283451071487e-03
-9.727839598268421192e-03
-7.285625764594193081e-03
-7.706408507468509583e-03
-1.113651383762348686e-02
-7.621404350089733271e-03
3.053244919983581166e-03
1.104796317493141923e-02
1.095470860816753593e-02
4.990255807089310179e-03
-2.964285807966915692e-03
-3.097961260168784290e-03
9.034753078403496770e-03
1.374517235078221572e-02
-2.856681526008676415e-04
-1.143490218569292484e-02
-1.060166333215586433e-02
-1.961988048183798978e-03
4.820643893078131736e-03
4.367000554738992811e-03
3.166055141947493015e-04
-5.808792562057688708e-03
-1.017981152745896581e-02
-6.966482250290667935e-03
-9.170629705276710155e-05
6.070398742361004553e-03
8.823333891237218618e-03
5.309791658252968963e-03
3.186709544981572700e-03
3.226355126296321253e-03
6.883392967577813774e-04
-2.624701058172551095e-03
-3.857003731918322732e-03
-4.588272255423353485e-03
-3.504318391943155205e-03
3.150290614715444814e-03
9.064804056169063415e-03
7.174525296712007567e-03
-2.095476802075340369e-03
-1.143738792638928324e-02
-1.215169865497562653e-02
-6.964482718231412850e-03
-1.332382366632374427e-03
3.266177095740970589e-03
9.781838170815270947e-03
9.412558113899875331e-03
2.959411689541549626e-03
2.042913402093676865e-03
3.619214827238759202e-03
1.577942790233860049e-03
-1.352474742983185820e-03
-7.332757445814684291e-03
-1.150549016373126829e-02
-5.042023455239942609e-03
5.634963030937332334e-03
4.499095120544568949e-03
1.321191982050346414e-03
4.050511896359210509e-03
4.013057766270256010e-03
-1.963891290681376699e-03
-5.296457156112744334e-03
-4.566190753511638854e-03
-3.996066198564112576e-03
-1.782500235840905954e-04
3.578656770984350519e-03
4.492280536203224046e-04
-2.213536822158129660e-03
4.851857981974486860e-04
8.384559476208343354e-03
7.263488887264563272e-03
-3.540873540481779495e-03
-3.654010621090221858e-03
5.463150975100474274e-03
4.945336784178859697e-03
-1.949676663978266479e-03
-6.007820875038741640e-03
-6.699982720389563266e-03
-5.919943393150731148e-03
-3.097582181273480801e-03
1.598409070048777180e-03
7.259906455518192608e-03
9.490411196283977599e-03
-8.190805328251100133e-04
-1.155409993112914598e-02
-5.707924171851493610e-03
3.518463319688596661e-03
-7.385547305963964136e-04
-4.830980244221214776e-03
3.504867101138244099e-03
1.668132575829073261e-02
1.580245157191877484e-02
4.234189454443976555e-03
-9.481810190722077258e-03
-1.894664500510509150e-02
-1.867705928267776941e-02
-7.431331990570032905e-04
1.883727568584339998e-02
1.856271190852975053e-02
7.444895618089824533e-04
-1.307228513688937777e-02
-1.857928047368401572e-02
-1.161842869672723502e-02
2.161374747025569744e-04
8.404610951340726541e-03
9.139012484071090681e-03
6.825088173585129765e-03
9.499521604980102826e-03
1.265442781490780551e-02
7.328074444367414786e-03
-3.712549140595028992e-03
-1.130031673658362344e-02
-1.114544109454977151e-02
-5.042183247807315895e-03
-1.009394231414606274e-03
6.037446989974059892e-04
1.019040106534630430e-03
5.886754000926288245e-04
-5.022563780090675070e-03
-9.280017136944519740e-03
-6.690990495254753832e-03
-3.193492069906235780e-03
2.597464903760343755e-03
1.479720805416083126e-02
1.796003419324693900e-02
1.155396499134290524e-02
6.140866506486646059e-03
-1.800271863204060954e-03
-1.476200629317067810e-02
-1.695759541788228325e-02
-7.422860251706880907e-03
-6.889903082706817493e-06
6.390547564728697727e-03
1.226165412649111650e-02
1.032489045626106515e-02
7.897221126976965242e-04
-5.737905655122409188e-03
-3.813239297933624337e-03
-1.539695350795040147e-03
-4.849047117841730724e-03
-1.078744214178434767e-02
-1.438562299172281914e-02
-9.429788569430044495e-03
1.455908755776718884e-03
1.060982394876067332e-02
1.798292243380734956e-02
2.013989073538707472e-02
1.742278153152659534e-02
5.251686996757548229e-03
-7.407548797989257916e-03
-1.573381793804798021e-02
-1.812278982573593822e-02
-1.098658850608977625e-02
-1.880590073807892541e-04
3.695363810825292878e-03
-3.945469286480736762e-03
-5.884125807813500586e-03
6.114338788073798471e-03
1.679205476408695066e-02
9.670919913327155268e-03
-2.586183317615959720e-03
-2.896148666021988293e-03
1.558629919677693553e-03
-6.778720967931784705e-05
-4.733727922449219513e-03
-6.340008309468004449e-03
-5.187433579854431806e-03
-1.413848375934661323e-03
1.649063636308410784e-03
5.103914613297849331e-03
8.839679776155465879e-03
2.221324226323621084e-03
-6.157961909250498668e-03
-6.179156749591374100e-03
-2.068773006036900459e-03
-1.567711181943241784e-03
-5.230119784488554500e-04
4.765480463871053980e-04
8.272198276030468802e-04
5.553245319702756512e-03
7.757806796570382475e-03
4.340072322174515738e-03
1.178435277939072150e-04
-2.696000900748163603e-03
-1.587579999093754980e-03
9.578343101541468159e-06
-1.479429104859144575e-03
-2.439865036258476953e-03
-2.895978352184688971e-03
-6.813402721222528401e-03
-1.202838801744818623e-02
-1.705908300832206055e-03
1.506617887582327626e-02
7.084065823190258647e-03
-5.585834784830106745e-03
-4.715772576061858824e-03
2.119897500225882778e-03
1.007319812301683826e-02
9.542387244344962063e-03
-7.063365308414731088e-04
-5.755101959427295737e-03
-4.742737629124946057e-03
-3.229788190123808987e-03
3.881172713328942471e-04
4.358065690106768114e-03
4.644015519876283984e-03
5.780692073585300432e-04
-3.456270969693536841e-03
-7.023114595990828310e-03
-7.528659380048043429e-03
-7.545604014016048765e-03
-4.592409841415331061e-03
6.878206913573951288e-03
1.456853187031873810e-02
1.198070676094711330e-02
2.989365462118755926e-03
-3.959546189871102767e-03
-3.478716159168935163e-03
6.581592650808676956e-04
-6.007670186167200256e-03
-1.169225875778829790e-02
-7.207793958429564544e-03
1.066044557825917985e-03
6.132703359723703715e-03
8.004199654841897757e-03
5.304939412748371774e-03
3.356223137268558691e-03
1.510765351635051873e-03
1.241403045307831353e-03
-4.166165792712794055e-04
-5.062294687910176907e-03
-7.277481936569600227e-03
-4.997386647886630125e-03
1.888786063500233763e-04
1.143410170603606849e-02
1.313681014705520532e-02
-6.321606461229612242e-03
-2.375338166956912286e-02
-1.015637764722346174e-02
1.007996951523040981e-02
1.242433297730528678e-02
8.209677870718318921e-03
2.056633768264729597e-03
-5.231112785180808827e-03
-8.124532548844468419e-03
-2.169310057363249816e-03
1.822271222673210473e-03
-1.043837163725663629e-04
4.463452847627660575e-04
3.620921608784735766e-03
7.878952549963725432e-03
9.232632482504233781e-03
7.928387651771897585e-04
-7.236793109400480907e-03
-1.166325795288711796e-02
-7.296695034605706065e-03
2.676589015023862848e-03
5.015995104234567681e-03
-7.859289190061251665e-03
-1.483455960161265096e-02
-5.321780387488745864e-03
1.127159876049511032e-02
2.003008876788694992e-02
1.913912521248203186e-02
7.979790802693930915e-03
-4.935694939100650561e-03
-1.187711158420684532e-02
-1.122892033482725434e-02
-5.955638050442173953e-03
-2.068233762574356576e-03
-1.447067829103089584e-03
-3.670325767664479183e-03
-9.786884844083935161e-04
1.580850479790181723e-03
1.715414298481218432e-03
6.596256196941367722e-03
1.515544588506532141e-02
1.198088526104911129e-02
-2.165429551409905114e-03
-1.354910499443818216e-02
-1.239696349728701755e-02
-6.169032909751842944e-03
-2.772622507374953010e-03
-6.138740135006644921e-03
-6.918425921910911075e-03
6.982499051489999414e-03
2.201522852003353140e-02
1.805558902427563048e-02
2.275258184096275605e-03
-9.168566916546869172e-03
-9.592707370186156698e-03
-2.697636777698826129e-03
-1.340083408241970120e-03
-3.417962025686620015e-03
-3.919998870538400106e-03
-1.178774383424879791e-03
2.977950895956707738e-03
4.600226456610781098e-03
4.328339648811153732e-03
2.202705173555182493e-03
-1.880878590286730627e-03
-8.326690055651982461e-03
-1.158644560743128313e-02
-5.199027912821681252e-03
8.591280451473068749e-03
1.272572578322361293e-02
7.217042107202425658e-03
1.516939413060264296e-03
1.850797274282233373e-03
3.862031183587990549e-04
-3.247513110800767048e-03
-5.615210228835616942e-03
-6.030489630192583002e-03
-3.192419305041616692e-03
2.073166912674606881e-03
6.970180618455173657e-03
5.056425689043139195e-03
-2.005624424840452003e-03
-8.720777624739753722e-03
-6.372102402267254377e-03
-5.705822494832329343e-04
1.558645331738635039e-03
6.791476557523261999e-04
3.558906320592709633e-03
2.922833763108618945e-03
-5.797424687578481371e-04
-9.729004190777953195e-04
2.973046700545685286e-03
7.589022973159292688e-03
6.750907815214399026e-03
2.870412878615116997e-03
-2.406324337430159818e-03
-5.597152606879884224e-03
-5.496217008713826825e-03
-5.151426326232336032e-03
-8.503981501163340728e-03
-6.808041099618421070e-03
-2.590899497320921663e-03
-2.488886449745322631e-03
2.426146072050673706e-03
9.321856936556613404e-03
8.324211686620704501e-03
3.717837758385538708e-03
3.716832200184860217e-03
7.035758330906093788e-03
5.029515145961237048e-03
2.758811132219364699e-03
-1.291704539442230541e-03
-3.143918047642236830e-03
-1.244584585263439893e-03
-1.790326885068619809e-03
-3.608344733724534997e-03
-6.387261523135106395e-03
-1.387824837428624190e-02
-2.413302426501162667e-02
-2.524248969945762366e-02
-8.782707027854493725e-03
1.810698530089817695e-02
4.032764135108911352e-02
4.441059288574272096e-02
2.140078983235648574e-02
-6.471371472539907879e-04
