4.571764482975532867e-02
4.809159332680559146e-02
5.048668857634384249e-02
5.288638182949943756e-02
5.527381146742330748e-02
5.763202328284143527e-02
5.994419542035731019e-02
6.219386472152603484e-02
6.436515096929337765e-02
6.644297564803763878e-02
6.841327195692802066e-02
7.026318280242611902e-02
7.198124377206402413e-02
7.355754844242477775e-02
7.498389349328245246e-02
7.625390143041602120e-02
7.736311929278955057e-02
7.830909189794252323e-02
7.909140882092687008e-02
7.971172466673064061e-02
8.017375262499382149e-02
8.048323179183372589e-02
8.064786921859441737e-02
8.067725812861831214e-02
8.058277407413150240e-02
8.037745122592127034e-02
8.007584130692697866e-02
7.969385791909176786e-02
7.924860947143017031e-02
7.875822375726286573e-02
7.824166758500726571e-02
7.771856484867062376e-02
7.720901632482958521e-02
7.673342437871488730e-02
7.631232573614070425e-02
7.596623515011631522e-02
7.571550236933458078e-02
7.558018471197935906e-02
7.557993698783843639e-02
7.573392001718488864e-02
7.606072864064593320e-02
7.657833952406076228e-02
7.730407854539159129e-02
7.825460701099437588e-02
7.944592545245021675e-02
8.089339319700122877e-02
8.261176150689669706e-02
8.461521754094390724e-02
8.691743598969943474e-02
8.953163505978913028e-02
9.247063304584791921e-02
9.574690159181864502e-02
9.937261160751149902e-02
1.033596678820817433e-01
1.077197284778769470e-01
1.124642048677152034e-01
1.176042395933999535e-01
1.231506578778455013e-01
1.291138907091826105e-01
1.355038670013840596e-01
1.423298730480876961e-01
1.496003784051306851e-01
1.573228277471344916e-01
1.655033991793799786e-01
1.741467301778009680e-01
1.832556132694758422e-01
1.928306640960650575e-01
2.028699656317789202e-01
2.133686929330048110e-01
2.243187235187066031e-01
2.357082392541904603e-01
2.475213261242336371e-01
2.597375787781363576e-01
2.723317173741950370e-01
2.852732243208038754e-01
2.985260088285738300e-01
3.120481073229166569e-01
3.257914275449984576e-01
3.397015442129330265e-01
3.537175535320938313e-01
3.677719936594181505e-01
3.817908373509546482e-01
3.956935625392259404e-01
4.093933055163125889e-01
4.227971005813557226e-01
4.358062089765836755e-01
4.483165387180950701e-01
4.602191556025179153e-01
4.714008845648203216e-01
4.817449991986454405e-01
4.911319959279632497e-01
4.994404477883501725e-01
5.065479318886537685e-01
5.123320229308101492e-01
5.166713441391024286e-01
5.194466659130426711e-01
5.205420414144036334e-01
5.198459673158759564e-01
5.172525573989698033e-01
5.126627159268416500e-01
5.059852971901462881e-01
4.971382376009280124e-01
4.860496464842327113e-01
4.726588416890493694e-01
4.569173167106712619e-01
4.387896262758871901e-01
4.182541779851778885e-01
3.953039186971021302e-01
3.699469049864509418e-01
3.422067484872302612e-01
3.121229281125166288e-01
2.797509625635863917e-01
2.451624380846761098e-01
2.084448882023272609e-01
1.697015236369369406e-01
1.290508126907207453e-01
8.662591378692285904e-02
4.257396388973135049e-02
-2.944771904755842835e-03
-4.975788238756353316e-02
-9.768191534404987997e-02
-1.465235954858584988e-01
-1.960811435737062625e-01
-2.461456839898265303e-01
-2.965027268085905776e-01
-3.469337093736454825e-01
-3.972175819102786165e-01
-4.471324210065427684e-01
-4.964570543929909818e-01
-5.449726805416521547e-01
-5.924644664384903781e-01
-6.387231073196333320e-01
-6.835463326544515272e-01
-7.267403432254314621e-01
-7.681211651376675942e-01
-8.075159077090062754e-01
-8.447639131945711144e-01
-8.797177877083395270e-01
-9.122443044274807233e-01
-9.422251714296240310e-01
-9.695576582034627355e-01
-9.941550767209548223e-01
-1.015947114593297007e+00
-1.034880019620252556e+00
-1.050916636760237610e+00
-1.064036300190752460e+00
-1.074234584782103985e+00
-1.081522922907871997e+00
-1.085928093901455505e+00
-1.087491594667421069e+00
-1.086268901415207377e+00
-1.082328633165813070e+00
-1.075751628793370829e+00
-1.066629950070256516e+00
-1.055065823410096915e+00
-1.041170533662124420e+00
-1.025063283220147614e+00
-1.006870029927652510e+00
-9.867223167083707391e-01
-9.647561058894458252e-01
-9.411106303051173239e-01
-9.159272727231453359e-01
-8.893484844177856896e-01
-8.615167526370884898e-01
-8.325736257699462017e-01
-8.026588038233157807e-01
-7.719093007833971454e-01
-7.404586840541245163e-01
-7.084363951711150076e-01
-6.759671543152550033e-01
-6.431704503955082419e-01
-6.101601168929396968e-01
-5.770439927010585501e-01
-5.439236660823173475e-01
-5.108942987334690322e-01
-4.780445261079342978e-01
-4.454564293615129733e-01
-4.132055735370828153e-01
-3.813611058848364044e-01
-3.499859079634641268e-01
-3.191367947214935330e-01
-2.888647534148230944e-01
-2.592152152734634729e-01
-2.302283528688452152e-01
-2.019393961689870953e-01
-1.743789605041402291e-01
-1.475733800725806399e-01
-1.215450409595163483e-01
-9.631270832569296947e-02
-7.189184281028042356e-02
-4.829490182571459511e-02
-2.553162217652164140e-02
-3.609281107060115321e-03
1.746706655024287541e-02
3.769437660560130687e-02
5.707142993722185559e-02
7.559867340490748766e-02
9.327808675958768059e-02
1.101130746597739490e-01
1.261083822258297626e-01
1.412700321319514951e-01
1.556052809707019757e-01
1.691225922490329214e-01
1.818316232016086442e-01
1.937432221364071006e-01
2.048694333896557973e-01
2.152235067039286187e-01
2.248199079631928721e-01
2.336743283773095037e-01
2.418036892570825935e-01
2.492261399951241907e-01
2.559610470513660196e-01
2.620289720060248184e-01
2.674516372076701232e-01
2.722518779685334511e-01
2.764535804526123131e-01
2.800816052307099624e-01
2.831616963844081347e-01
2.857203766315091764e-01
2.877848294751039759e-01
2.893827695371579689e-01
2.905423026058288616e-01
2.912917771551960522e-01
2.916596292504868293e-01
2.916742231675666375e-01
2.913636898829135014e-01
2.907557659225905589e-01
2.898776348500011202e-01
2.887557738093051718e-01
2.874158073686058357e-01
2.858823707697082384e-01
2.841789845857337071e-01
2.823279425687945654e-01
2.803502141638132272e-01
2.782653629290632313e-01
2.760914818372951496e-01
2.738451461492406591e-01
2.715413840954594149e-01
2.691936654976418430e-01
2.668139079555534865e-01
2.644125000571304618e-01
2.619983407697814015e-01
2.595788938202949203e-01
2.571602558103078806e-01
2.547472364334971706e-01
2.523434490756804593e-01
2.499514100464609034e-01
2.475726444544605886e-01
2.452077966619163607e-01
2.428567435352385340e-01
2.405187083201035247e-01
2.381923733639601248e-01
2.358759899396294935e-01
2.335674834379045939e-01
2.312645524505419770e-01
2.289647605382436057e-01
2.266656194981882810e-01
2.243646633240133914e-01
2.220595121469873534e-01
2.197479258988940809e-01
2.174278473935765399e-01
2.150974350280060454e-01
2.127550852919598556e-01
2.103994456576877281e-01
2.080294184855826789e-01
2.056441568317351198e-01
2.032430531816019348e-01
2.008257221198301856e-01
1.983919781646479585e-01
1.959418101070055929e-01
1.934753529485427614e-01
1.909928587639210251e-01
1.884946676978595803e-01
1.859811801746594495e-01
1.834528315327903780e-01
1.809100697517341538e-01
1.783533372964518082e-01
1.757830575409715379e-01
1.731996263996824770e-01
1.706034093455489065e-01
1.679947439522859187e-01
1.653739478597768819e-01
1.627413320125458418e-01
1.600972186675991282e-01
1.574419637577302578e-01
1.547759826971522590e-01
1.520997789842627734e-01
1.494139746248029366e-01
1.467193414015917630e-01
1.440168318864525621e-01
1.413076091750006813e-01
1.385930742812843952e-01
1.358748902589002050e-01
1.331550019239649274e-01
1.304356503161021308e-01
1.277193812773282089e-01
1.250090473090464671e-01
1.223078022540661780e-01
1.196190885333916626e-01
1.169466166195557016e-01
1.142943368360394979e-01
1.116664036359654583e-01
1.090671326946685699e-01
1.065009513357488835e-01
1.039723431377573143e-01
1.014857873105663721e-01
9.904569407272606485e-02
9.665633704152958028e-02
9.432178388370208999e-02
9.204582650898103513e-02
8.983191212680372018e-02
8.768307663199481627e-02
8.560188156961530404e-02
8.359035598729050442e-02
8.164994467235001108e-02
7.978146367916119641e-02
7.798506440824058694e-02
7.626020712267082835e-02
7.460564465980709659e-02
7.301941700304563632e-02
7.149885710702039154e-02
7.004060824763014281e-02
6.864065277466205317e-02
6.729435229888132419e-02
6.599649871225696240e-02
6.474137552459179046e-02
6.352282870917215496e-02
6.233434609657275555e-02
6.116914409308552708e-02
6.002026045227815132e-02
5.888065170297152040e-02
5.774329365218661830e-02
5.660128341469358726e-02
5.544794124491431858e-02
5.427691044985610835e-02
5.308225396979648208e-02
5.185854566248587760e-02
5.060095503809367706e-02
4.930532383702584953e-02
4.796823310456385658e-02
4.658705972351619845e-02
4.516002126650933007e-02
4.368620833226138922e-02
4.216560391547603120e-02
4.059908919150940348e-02
3.898843573266942003e-02
3.733628402395983148e-02
3.564610870217765209e-02
3.392217094264970978e-02
3.216945869397691560e-02
3.039361565936460341e-02
2.860086015246136523e-02
2.679789514348030616e-02
2.499181081586573580e-02
2.318998114025998952e-02
2.139995621349811972e-02
1.962935196283521408e-02
1.788573900178816456e-02
1.617653238347861386e-02
1.450888394729468039e-02
1.288957895561360610e-02
1.132493866990928050e-02
9.820730285560132569e-03
8.382085670227421362e-03
7.013430133627054051e-03
5.718422251363815094e-03
4.499905638631641717e-03
3.359873402904560175e-03
2.299445678919503737e-03
1.318860448444947667e-03
4.174778564494890476e-04
-4.062022535083173501e-04
-1.154510015247064763e-03
-1.830562945211129189e-03
-2.438211852990837709e-03
-2.981976244885185812e-03
-3.466970307884751756e-03
-3.898820737042744435e-03
-4.283577723913854426e-03
-4.627620663367026065e-03
-4.937560040930195557e-03
-5.220137048231001352e-03
-5.482122591822421662e-03
-5.730217095323280642e-03
-5.970952772442875145e-03
-6.210599914644992364e-03
-6.455078345329216122e-03
-6.709875535638984249e-03
-6.979972435036507772e-03
-7.269778007697965706e-03
-7.583073408492982566e-03
-7.922966451522900702e-03
-8.291856879268852398e-03
-8.691412756412683280e-03
-9.122558161993954071e-03
-9.585472109105321395e-03
-1.007959852409265680e-02
-1.060366676753435843e-02
-1.115572236806856507e-02
-1.173316702338217908e-02
-1.233280722948292690e-02
-1.295091047858339117e-02
-1.358326800613918715e-02
-1.422526292160744034e-02
-1.487194252209734537e-02
-1.551809361603716068e-02
-1.615831953610786728e-02
-1.678711758997476072e-02
-1.739895577411158106e-02
-1.798834756935043661e-02
-1.854992362389365837e-02
-1.907849934984469364e-02
-1.956913756613455624e-02
-2.001720517512717637e-02
-2.041842330846976514e-02
-2.076891038317971172e-02
-2.106521752012376417e-02
-2.130435609257142968e-02
-2.148381732036140981e-02
-2.160158372796281215e-02
-2.165613274357225393e-02
-2.164643265239236253e-02
-2.157193133099986546e-02
-2.143253819154936068e-02
-2.122859998121601199e-02
-2.096087111747731505e-02
-2.063047939300605496e-02
-2.023888789307114189e-02
-1.978785380569573343e-02
-1.927938530209002618e-02
-1.871569721877390513e-02
-1.809916649925468607e-02
-1.743228828825914983e-02
-1.671763347740479189e-02
-1.595780856463333702e-02
-1.515541852095191565e-02
-1.431303321557857167e-02
-1.343315807666458153e-02
-1.251820933522683997e-02
-1.157049429571131022e-02
-1.059219681180226247e-02
-9.585368032298013583e-03
-8.551922585578998481e-03
-7.493639931455183673e-03
-6.412170806627190411e-03
-5.309048319867902370e-03
-4.185703356222644951e-03
-3.043483818522025371e-03
-1.883677121105424351e-03
-7.075352389897032659e-04
4.836982569010844606e-04
1.688760105300373543e-03
2.906338707811532106e-03
4.135045850452577672e-03
5.373389521283864281e-03
6.619748542910678171e-03
7.872349723259503343e-03
9.129248126170295963e-03
1.038831121222463620e-02
1.164720725622936902e-02
1.290339843365375522e-02
1.415413902446478918e-02
1.539647901677544846e-02
1.662727317175955594e-02
1.784319563255758190e-02
1.904075999927432733e-02
2.021634475598269379e-02
2.136622373300150340e-02
2.248660129451757542e-02
2.357365160752381353e-02
2.462356161330973847e-02
2.563257696816239467e-02
2.659705028752891096e-02
2.751349084629564970e-02
2.837861500635912443e-02
2.918939646962794704e-02
2.994311550672926550e-02
3.063740625218603492e-02
3.127030125419139051e-02
3.184027247939761468e-02
3.234626786713198227e-02
3.278774277453445907e-02
3.316468556602292228e-02
3.347763687876551680e-02
3.372770188619590714e-02
3.391655532196382467e-02
3.404643885163259609e-02
3.412015066340307740e-02
3.414102715866035309e-02
3.411291689516069564e-02
3.404014684745722968e-02
3.392748135155690403e-02
3.378007410328637272e-02
3.360341381576766734e-02
3.340326418028780053e-02
3.318559875109910323e-02
3.295653166505421033e-02
3.272224503154428504e-02
3.248891413779710774e-02
3.226263127922458784e-02
3.204932934326116395e-02
3.185470625418381635e-02
3.168415126791467723e-02
3.154267418184689142e-02
3.143483862204698304e-02
3.136470022594144841e-02
3.133575075998683290e-02
3.135086892863597763e-02
3.141227870786305471e-02
3.152151576778084580e-02
3.167940262047340416e-02
3.188603294473904559e-02
3.214076516653610605e-02
3.244222573898773720e-02
3.278832186721471892e-02
3.317626374362237646e-02
3.360259602160858144e-02
3.406323801882450708e-02
3.455353219311202428e-02
3.506830026734655131e-02
3.560190620028687303e-02
3.614832512113810153e-02
3.670121723396184421e-02
3.725400572664560456e-02
3.779995759397215133e-02
3.833226615651896818e-02
3.884413416411336417e-02
3.932885616931697942e-02
3.977989917452443014e-02
4.019098026351895780e-02
4.055614018128125831e-02
4.086981176459272141e-02
4.112688234245693436e-02
4.132274909957547177e-02
4.145336673551488355e-02
4.151528670345402960e-02
4.150568750991734390e-02
4.142239577590612482e-02
4.126389773958473450e-02
4.102934103324526460e-02
4.071852697145519895e-02
4.033189342679995709e-02
3.987048869873725809e-02
3.933593688870184318e-02
3.873039529553069793e-02
3.805650474362844843e-02
3.731733361227752149e-02
3.651631647892777249e-02
3.565718855160794620e-02
3.474391695374044742e-02
3.378062995073125019e-02
3.277154539906740327e-02
3.172089952309199018e-02
3.063287730414068072e-02
2.951154551217011549e-02
2.836078967864226127e-02
2.718425585265894437e-02
2.598529825844935262e-02
2.476693365311356462e-02
2.353180304879859408e-02
2.228214154787135776e-02
2.101975671782847430e-02
1.974601580371021861e-02
1.846184201908651623e-02
1.716771992968580199e-02
1.586370968657511635e-02
1.454947004123767484e-02
1.322428947911561369e-02
1.188712509024012973e-02
1.053664829461136744e-02
9.171296682877153050e-03
7.789331031191746267e-03
6.388896433030645874e-03
4.968086392025200526e-03
3.525008693406104718e-03
2.057851953702909045e-03
5.649515816445364142e-04
-9.551461005071091789e-04
-2.503622869987984050e-03
-4.081331700507950799e-03
-5.688745125841427816e-03
-7.325909906475556316e-03
-8.992408902722726777e-03
-1.068733084600396142e-02
-1.240924871722709488e-02
-1.415620728702782910e-02
-1.592572011416521632e-02
-1.771477615129383315e-02
-1.951985606594721853e-02
-2.133695813127674604e-02
-2.316163332417099305e-02
-2.498902919420271582e-02
-2.681394191724159604e-02
-2.863087568182840284e-02
-3.043410859702005630e-02
-3.221776405156133449e-02
-3.397588642543218629e-02
-3.570251992619540016e-02
-3.739178923818807510e-02
-3.903798078301174562e-02
-4.063562309829311242e-02
-4.217956518145206390e-02
-4.366505133247029768e-02
-4.508779119458151269e-02
-4.644402391885789350e-02
-4.773057533119832996e-02
-4.894490692790757352e-02
-5.008515590372134008e-02
-5.115016552698913033e-02
-5.213950515853166268e-02
-5.305347952648235138e-02
-5.389312696325979091e-02
-5.466020657017828938e-02
-5.535717430137863937e-02
-5.598714834644398508e-02
-5.655386420339836989e-02
-5.706162007906920991e-02
-5.751521337878605367e-02
-5.791986914602666875e-02
-5.828116165291741951e-02
-5.860493021070943553e-02
-5.889719051573472086e-02
-5.916404281576231189e-02
-5.941157840556245823e-02
-5.964578584732994210e-02
-5.987245843854520355e-02
-6.009710425577709236e-02
-6.032486026525389622e-02
-6.056041178567982131e-02
-6.080791866799725026e-02
-6.107094931245648367e-02
-6.135242353561818490e-02
-6.165456529279991077e-02
-6.197886595513436153e-02
-6.232605872772561256e-02
-6.269610472231484932e-02
-6.308819078768922173e-02
-6.350073926310699501e-02
-6.393142954167015113e-02
-6.437723106755352531e-02
-6.483444727339092439e-02
-6.529876988758565037e-02
-6.576534270644368574e-02
-6.622883393373760197e-02
-6.668351592398237548e-02
-6.712335112235165435e-02
-6.754208295650225569e-02
-6.793333026364171967e-02
-6.829068374999484881e-02
-6.860780314624989606e-02
-6.887851353863738701e-02
-6.909689940050341150e-02
-6.925739490851111346e-02
-6.935486921228593837e-02
-6.938470540259383812e-02
-6.934287200551289554e-02
-6.922598593417968182e-02
-6.903136602448423087e-02
-6.875707634212294139e-02
-6.840195870329562888e-02
-6.796565396253709257e-02
-6.744861176864126728e-02
-6.685208877214340872e-02
-6.617813533542719895e-02
-6.542957100452513608e-02
-6.460994922224837234e-02
-6.372351185390565109e-02
-6.277513422053460079e-02
-6.177026155221073539e-02
-6.071483791514473843e-02
-5.961522865860537784e-02
-5.847813760701991992e-02
-5.731052022240937238e-02
-5.611949403425748467e-02
-5.491224774328078845e-02
-5.369595024719423654e-02
-5.247766099347364599e-02
-5.126424284622502214e-02
-5.006227878399037434e-02
-4.887799352235430717e-02
-4.771718115799706422e-02
-4.658513984412418485e-02
-4.548661420575986908e-02
-4.442574632013273489e-02
-4.340603578499182408e-02
-4.243030929472228069e-02
-4.150069999636493007e-02
-4.061863683125573055e-02
-3.978484370804971637e-02
-3.899934841768230853e-02
-3.826150092750957299e-02
-3.757000068880256977e-02
-3.692293226262140932e-02
-3.631780864455137064e-02
-3.575162152712153124e-02
-3.522089749519489998e-02
-3.472175937286336306e-02
-3.424999159946470056e-02
-3.380110862559438517e-02
-3.337042531272069179e-02
-3.295312821570098999e-02
-3.254434668953360560e-02
-3.213922282215471438e-02
-3.173297929194111161e-02
-3.132098401001369437e-02
-3.089881088297068146e-02
-3.046229593708692576e-02
-3.000758791788922519e-02
-2.953119304930287847e-02
-2.903001333870139714e-02
-2.850137803864477917e-02
-2.794306805820024123e-02
-2.735333323565039207e-02
-2.673090239571292506e-02
-2.607498623326533552e-02
-2.538527329499027860e-02
-2.466191936865798004e-02
-2.390553057641998241e-02
-2.311714064819024930e-02
-2.229818289776468523e-02
-2.145045759712328748e-02
-2.057609529612857216e-02
-1.967751679115446045e-02
-1.875739047281035909e-02
-1.781858771334548716e-02
-1.686413708913627602e-02
-1.589717814901368820e-02
-1.492091541984920736e-02
-1.393857322997261311e-02
-1.295335211592045857e-02
-1.196838728676983578e-02
-1.098670970777192168e-02
-1.001121033760786483e-02
-9.044607761401280213e-03
-8.089419698244657009e-03
-7.147938598766278261e-03
-6.222211488403544231e-03
-5.314024190109067035e-03
-4.424890107175819334e-03
-3.556043312338321490e-03
-2.708436007212438809e-03
-1.882740249040548318e-03
-1.079353661613227655e-03
-2.984089068613250814e-04
4.602132862973531274e-04
1.196868001182042115e-03
1.912127159743462826e-03
2.606758059944360491e-03
3.281699878574205042e-03
3.938038510882389820e-03
4.576980164868615746e-03
5.199824040736903026e-03
5.807934516708064196e-03
6.402713228770219762e-03
6.985571468309590207e-03
7.557903099318472213e-03
8.121058393949635509e-03
8.676319016638052092e-03
9.224874486512749452e-03
9.767800268191930563e-03
1.030603778083643250e-02
1.084037644932500828e-02
1.137143788997056065e-02
1.189966241957653159e-02
1.242529798411652793e-02
1.294839151361780287e-02
1.346878273123946167e-02
1.398610052132211352e-02
1.449976173453726078e-02
1.500897257483954465e-02
1.551273231424685553e-02
1.600983948929394357e-02
1.649890036061187060e-02
1.697833966072437653e-02
1.744641348819551269e-02
1.790122427407473890e-02
1.834073765093566927e-02
1.876280122154799085e-02
1.916516500586976784e-02
1.954550339068705095e-02
1.990143853202040389e-02
2.023056499883042064e-02
2.053047545542768804e-02
2.079878721428845070e-02
2.103316943239688305e-02
2.123137084494392673e-02
2.139124763896144144e-02
2.151079138668346435e-02
2.158815659283341154e-02
2.162168779362446877e-02
2.160994580243941546e-02
2.155173288537958615e-02
2.144611647774994495e-02
2.129245125493847701e-02
2.109039916685061591e-02
2.083994716569747760e-02
2.054142238344990046e-02
2.019550440629043486e-02
1.980323450470036425e-02
1.936602137283703964e-02
1.888564332364506965e-02
1.836424672523745763e-02
1.780434049648671122e-02
1.720878652408340884e-02
1.658078587664933365e-02
1.592386097969096179e-02
1.524183362166875617e-02
1.453879891891226260e-02
1.381909533192150243e-02
1.308727099409370473e-02
1.234804653141066515e-02
1.160627476918606529e-02
1.086689758886045902e-02
1.013490047730934533e-02
9.415265119835418417e-03
8.712920571240810597e-03
8.032693695740359893e-03
7.379259259339183800e-03
6.757090408536404677e-03
6.170410198115424544e-03
5.623144779900862700e-03
5.118878895263440088e-03
4.660814268849016936e-03
4.251731591274011436e-03
3.893956670963917739e-03
3.589331336809044488e-03
3.339189506728568180e-03
3.144338927804969566e-03
3.005049068338351559e-03
2.921045293244458815e-03
2.891509591475333128e-03
2.915088152464132172e-03
2.989905650341495233e-03
3.113586317801074303e-03
3.283281578168725443e-03
3.495704061968243990e-03
3.747167611795843185e-03
4.033632841785714587e-03
4.350757816619179631e-03
4.693953096246821985e-03
5.058440621436515079e-03
5.439315528293562664e-03
5.831610198744475830e-03
6.230359610384369334e-03
6.630667089036750006e-03
7.027769580425050587e-03
7.417101489375896306e-03
7.794356143141078531e-03
8.155543940855871851e-03
8.497046443611447342e-03
8.815665405099331123e-03
9.108666092932085276e-03
9.373814211556858247e-03
9.609405696534992561e-03
9.814288994626231208e-03
9.987879381539782261e-03
1.013016497043960767e-02
1.024170436705418470e-02
1.032361574649015221e-02
1.037755758793721013e-02
1.040570122613080142e-02
1.041069546576950909e-02
1.039562382810855709e-02
1.036395493095282512e-02
1.031948669407557403e-02
1.026628520707257783e-02
1.020861905908533422e-02
1.015089002405766480e-02
1.009756129063466012e-02
1.005308414234899750e-02
1.002182419123758862e-02
1.000798833792615992e-02
1.001555351390111433e-02
1.004819832183381778e-02
1.010923863425861741e-02
1.020156801902551667e-02
1.032760413164741063e-02
1.048924176557975568e-02
1.068781341445223729e-02
1.092405784280910640e-02
1.119809730706342391e-02
1.150942385644956531e-02
1.185689488604189934e-02
1.223873809176269714e-02
1.265256583363890200e-02
1.309539862136149639e-02
1.356369763543101639e-02
1.405340562407465105e-02
1.455999573337486176e-02
1.507852752212886747e-02
1.560370941869189745e-02
1.612996664363569935e-02
1.665151367906513719e-02
1.716243011932978499e-02
1.765673890208892260e-02
1.812848576464097528e-02
1.857181868249661513e-02
1.898106617543075456e-02
1.935081338374203611e-02
1.967597466362410244e-02
1.995186176708703407e-02
2.017424661306883513e-02
2.033941770234377888e-02
2.044422935724491200e-02
2.048614316612175357e-02
2.046326093799876941e-02
2.037434889206301766e-02
2.021885268393846732e-02
1.999690305655441036e-02
1.970931223201850130e-02
1.935756107370095042e-02
1.894377725602175433e-02
1.847070495636431858e-02
1.794166647519000388e-02
1.736051655441418068e-02
1.673159001010368283e-02
1.605964365453622575e-02
1.534979334273345146e-02
1.460744716512639776e-02
1.383823585630688212e-02
1.304794148201350416e-02
1.224242543904486245e-02
1.142755693706158995e-02
1.060914299208098009e-02
9.792860853048097891e-03
8.984194026979341538e-03
8.188372611511975790e-03
7.410318858362369837e-03
6.654598629014035586e-03
5.925379389148634039e-03
5.226395183154705811e-03
4.560919000690559673e-03
3.931742787700281960e-03
3.341165122331585507e-03
2.790986591169417313e-03
2.282512826793614905e-03
1.816564638046616305e-03
1.393495211939081539e-03
1.013213540216702973e-03
6.752136654792035642e-04
3.786090579407432608e-04
1.221712393933241944e-04
-9.562806896208467277e-05
-2.765721517920418748e-04
-4.226528875687055758e-04
-5.360233775815884463e-04
-6.189507870354619230e-04
-6.737701344040613076e-04
-7.028399305210380685e-04
-7.085004183236516886e-04
-6.930352128232169975e-04
-6.586369115652809282e-04
-6.073773447248119375e-04
-5.411828183642170735e-04
-4.618148416270836248e-04
-3.708564350570729695e-04
-2.697042136649061938e-04
-1.595662819655273258e-04
-4.146578344960363707e-05
8.375009000533096344e-05
2.153959549544520833e-04
3.529294655791321406e-04
4.959283198193861156e-04
6.440637753465905911e-04
7.970713399286734249e-04
9.547193199072697605e-04
1.116776103994235412e-03
1.282976897111576557e-03
1.452990798421946754e-03
1.626389048187037913e-03
1.802615364570601605e-03
1.980958832310248177e-03
2.160530375998092386e-03
2.340243323024247205e-03
2.518798694638991337e-03
2.694675681973936199e-03
2.866127679194691805e-03
3.031184198753958305e-03
3.187658834905557348e-03
3.333163296393925994e-03
3.465127506431152794e-03
3.580825416463010932e-03
3.677406391955744154e-03
3.751931684437985470e-03
3.801415384064579881e-03
3.822869272881892436e-03
3.813350936962674187e-03
3.770014178867870519e-03
3.690160984515901584e-03
3.571294006360234419e-03
3.411168734414734768e-03
3.207844317556344128e-03
2.959732105010192023e-03
2.665640936493842046e-03
2.324818223328542054e-03
1.936986047448717180e-03
1.502371451855426298e-03
1.021730199407325712e-03
4.963633086994287489e-04
-7.187396580255026078e-05
-6.805712985954561270e-04
-1.326770700737165895e-03
-2.006982362357043713e-03
-2.717208954542730918e-03
-3.452978215358994303e-03
-4.209383518997833126e-03
-4.981132019115482729e-03
-5.762599749225149996e-03
-6.547893108246668516e-03
-7.330915860354712300e-03
-8.105440748301193793e-03
-8.865184721031487899e-03
-9.603886836146316094e-03
-1.031538749365126274e-02
-1.099370806249675044e-02
-1.163312958414624947e-02
-1.222826932633454440e-02
-1.277415416182289473e-02
-1.326628950776448206e-02
-1.370072273087114510e-02
-1.407410013792045715e-02
-1.438371647597483718e-02
-1.462755617174408586e-02
-1.480432560303782466e-02
-1.491347581483202719e-02
-1.495521522625933332e-02
-1.493051215322615914e-02
-1.484108679034791198e-02
-1.468939277779842886e-02
-1.447858860387397743e-02
-1.421249907835449126e-02
-1.389556739993643396e-02
-1.353279839328097936e-02
-1.312969372540862510e-02
-1.269218003828706705e-02
-1.222653082462633878e-02
-1.173928330462026097e-02
-1.123715149978116341e-02
-1.072693658991282113e-02
-1.021543592609217878e-02
-9.709352071383778315e-03
-9.215203060258551557e-03
-8.739235283422566378e-03
-8.287340062578585353e-03
-7.864975419966032180e-03
-7.477093908316360255e-03
-7.128077691449529601e-03
-6.821681785472932802e-03
-6.560986235046912043e-03
-6.348357907588557912e-03
-6.185422479630523981e-03
-6.073046919457738592e-03
-6.011332890981054000e-03
-5.999620900400156991e-03
-6.036505261713285761e-03
-6.119859586613931972e-03
-6.246872335277202370e-03
-6.414091942559798677e-03
-6.617480787510127659e-03
-6.852477222838737961e-03
-7.114064727807038399e-03
-7.396847040569701909e-03
-7.695128290548102802e-03
-8.002996885524299789e-03
-8.314411881543175981e-03
-8.623290632495695177e-03
-8.923596328938259228e-03
-9.209424290656628015e-03
-9.475085723544567420e-03
-9.715187788938433808e-03
-9.924708674699552272e-03
-1.009906692457706104e-02
-1.023418378731722617e-02
-1.032653790509020612e-02
-1.037321158577793508e-02
-1.037192809923150397e-02
-1.032107949545812454e-02
-1.021974467141061917e-02
-1.006769748994820919e-02
-9.865404977002837500e-03
-9.614015810491254033e-03
-9.315339227168453057e-03
-8.971814840478247594e-03
-8.586473922716560125e-03
-8.162892840041303597e-03
-7.705139311666444994e-03
-7.217712488061513339e-03
-6.705477661766794627e-03
-6.173596760364854358e-03
-5.627455539115310511e-03
-5.072588717125225792e-03
-4.514604039716348452e-03
-3.959106407422604765e-03
-3.411623138561681139e-03
-2.877531482710916390e-03
-2.361989359760275492e-03
-1.869870211279753064e-03
-1.405702842905704646e-03
-9.736170234785004743e-04
-5.772955588523321626e-04
-2.199333861676931560e-04
9.579591801427826973e-05
3.677658254560297961e-04
5.944146246405016812e-04
7.747550339419159195e-04
9.083757562944644488e-04
9.954351747668338437e-04
1.036647380751373705e-03
1.033260947510049191e-03
9.870308496377629918e-04
9.001841922774895567e-04
7.753802614483189335e-04
6.156656479568149883e-04
4.244252213813882405e-04
2.053296714946360713e-04
-3.771944230689646072e-05
-3.006463813611120225e-04
-5.792588109128603280e-04
-8.693054384328648956e-04
-1.166532869835612465e-03
-1.466740985766675116e-03
-1.765835999684483735e-03
-2.059880624758252555e-03
-2.345140627616534596e-03
-2.618127328013145332e-03
-2.875635551476559814e-03
-3.114776610480213780e-03
-3.333006080929565903e-03
-3.528146071062384509e-03
-3.698401926279838887e-03
-3.842373247298234464e-03
-3.959059312140817549e-03
-4.047859003464839532e-03
-4.108565449655989313e-03
-4.141355604038016863e-03
-4.146775025480214406e-03
-4.125718335221228820e-03
-4.079405709875221463e-03
-4.009355853690445629e-03
-3.917356017051653802e-03
-3.805429421575872231e-03
-3.675800751224085876e-03
-3.530860176323680731e-03
-3.373126405773411128e-03
-3.205209371250690876e-03
-3.029772886178571083e-03
-2.849497900125352173e-03
-2.667046733063677209e-03
-2.485028623774563489e-03
-2.305967079022216201e-03
-2.132269306367437934e-03
-1.966197971661834149e-03
-1.809845607385124214e-03
-1.665111753777875556e-03
-1.533683087460323367e-03
-1.417016562912208708e-03
-1.316325737763792032e-03
-1.232570179196112482e-03
-1.166448037359118020e-03
-1.118391693391152918e-03
-1.088566404505492049e-03
-1.076871855294263009e-03
-1.082946457008092606e-03
-1.106174297927611750e-03
-1.145694537564439196e-03
-1.200413103581281574e-03
-1.269016370054864770e-03
-1.349986828763251236e-03
-1.441620372790008075e-03
-1.542045164148438249e-03
-1.649241693802980854e-03
-1.761063952259690367e-03
-1.875261499500870165e-03
-1.989502288639999686e-03
-2.101395903908983079e-03
-2.208517163064228038e-03
-2.308429858369656466e-03
-2.398710532515923796e-03
-2.476971999507945280e-03
-2.540886497701025371e-03
-2.588208353542043993e-03
-2.616795940676084221e-03
-2.624632836153073870e-03
-2.609847931304408800e-03
-2.570734394496844346e-03
-2.505767357112564236e-03
-2.413620114445028542e-03
-2.293178729297178087e-03
-2.143554903354263127e-03
-1.964096938152135648e-03
-1.754398642635784976e-03
-1.514306221437829213e-03
-1.243922752459559675e-03
-9.436104193729308049e-04
-6.139902475313700975e-04
-2.559394022091481522e-04
1.294141426088904132e-04
5.406994880093310332e-04
9.763132357802224151e-04
1.434432445898607125e-03
1.913030104503915963e-03
2.409892875303785466e-03
2.922641221935824013e-03
3.448751568960828004e-03
3.985580312287084932e-03
4.530389539454294720e-03
5.080374197936696895e-03
5.632690310520841771e-03
6.184484008471229435e-03
6.732921038283108672e-03
7.275216322682686275e-03
7.808663331215366307e-03
8.330662621300421664e-03
8.838749452047737695e-03
9.330619872216984467e-03
9.804154905872613721e-03
1.025744255530832393e-02
1.068879724475443362e-02
1.109677628693417177e-02
1.148019314192421335e-02
1.183812724138579020e-02
1.216993012302667113e-02
1.247522767392943328e-02
1.275391841580570014e-02
1.300616783252600030e-02
1.323239870030991534e-02
1.343327757261396707e-02
1.360969740537150245e-02
1.376275665754327256e-02
1.389373512186272211e-02
1.400406678434074938e-02
1.409531012498179726e-02
1.416911630343079334e-02
1.422719569725727426e-02
1.427128333845992247e-02
1.430310381693362075e-02
1.432433627145048884e-02
1.433657983538411292e-02
1.434132046558973979e-02
1.433989957370554284e-02
1.433348499932569214e-02
1.432304492429744940e-02
1.430932531949931884e-02
1.429283122042674693e-02
1.427381242586611698e-02
1.425225378115460399e-02
1.422787040147493846e-02
1.420010806664021887e-02
1.416814880033165878e-02
1.413092163212251000e-02
1.408711864809225091e-02
1.403521594771773781e-02
1.397349937208664482e-02
1.390009459996198980e-02
1.381300120627588883e-02
1.371013015974556666e-02
1.358934414761788639e-02
1.344850014173136488e-02
1.328549350386774852e-02
1.309830281949619056e-02
1.288503472521526118e-02
1.264396792488114984e-02
1.237359562800226936e-02
1.207266563382886938e-02
1.174021722329581831e-02
1.137561422903432713e-02
1.097857359096441297e-02
1.054918871306537512e-02
1.008794718924740756e-02
9.595742388621467459e-03
9.073878568479402940e-03
8.524069272332658598e-03
7.948428869204595890e-03
7.349457189009315355e-03
6.730017372263212908e-03
6.093307143032996968e-03
5.442823788673836587e-03
4.782323411440922781e-03
4.115774771669960565e-03
3.447308592415710728e-03
2.781162870776401289e-03
2.121625132050490147e-03
1.472972491635934564e-03
8.394103253026996688e-04
2.250106335617647532e-04
-3.663489337735649910e-04
-9.310444812383956081e-04
-1.465762661886286459e-03
-1.967553939183648744e-03
-2.433881416637088697e-03
-2.862664385544613603e-03
-3.252315873471439689e-03
-3.601773449456234771e-03
-3.910522782593722074e-03
-4.178613503777810559e-03
-4.406666938900811320e-03
-4.595875658233036787e-03
-4.747994580183761450e-03
-4.865323848963227366e-03
-4.950683600888744137e-03
-5.007380929324533637e-03
-5.039169555812514530e-03
-5.050202711339500487e-03
-5.044979988261748260e-03
-5.028288792284231826e-03
-5.005141479664966878e-03
-4.980708987887937610e-03
-4.960251847726000231e-03
-4.949049943584013511e-03
-4.952331707487006400e-03
-4.975203971197912980e-03
-5.022583642264606685e-03
-5.099132081325799537e-03
-5.209193150635540483e-03
-5.356735861556024929e-03
-5.545302542601643521e-03
-5.777963135309828122e-03
-6.057276298232925661e-03
-6.385257841058884082e-03
-6.763356895058237478e-03
-7.192440088077638530e-03
-7.672783834625972361e-03
-8.204074676709506575e-03
-8.785417661374014808e-03
-9.415352466009037011e-03
-1.009187687901666637e-02
-1.081247703838345356e-02
-1.157416398849033662e-02
-1.237351577029518861e-02
-1.320672434847782427e-02
-1.406964645396437119e-02
-1.495785751174931628e-02
-1.586670773706663068e-02
-1.679137947607060519e-02
-1.772694492237679789e-02
-1.866842317685801431e-02
-1.961083594932576737e-02
-2.054926099287527827e-02
-2.147888256546067257e-02
-2.239503814723447367e-02
-2.329326103779530421e-02
-2.416931821832717445e-02
-2.501924305972300436e-02
-2.583936272070409129e-02
-2.662632007564961351e-02
-2.737708997199452335e-02
-2.808899008290176649e-02
-2.875968644822206668e-02
-2.938719394723233666e-02
-2.996987208218990575e-02
-3.050641646750074792e-02
-3.099584665501233308e-02
-3.143749071763029396e-02
-3.183096725660588405e-02
-3.217616545867195421e-02
-3.247322382228665788e-02
-3.272250819714351416e-02
-3.292458972367405534e-02
-3.308022323610025628e-02
-3.319032669898363402e-02
-3.325596213151251618e-02
-3.327831839173987782e-02
-3.325869617491371277e-02
-3.319849543305256750e-02
-3.309920532267814075e-02
-3.296239680602450206e-02
-3.278971781600078378e-02
-3.258289083551420273e-02
-3.234371268762974150e-02
-3.207405621522892158e-02
-3.177587348036848419e-02
-3.145120001476071903e-02
-3.110215968678246151e-02
-3.073096959603132186e-02
-3.033994452293652111e-02
-2.993150029120382472e-02
-2.950815555660405570e-02
-2.907253141671440472e-02
-2.862734852099733246e-02
-2.817542108985568450e-02
-2.771964754375605411e-02
-2.726299743826413741e-02
-2.680849458383202655e-02
-2.635919621041125580e-02
-2.591816821204834254e-02
-2.548845651373302448e-02
-2.507305499229624257e-02
-2.467487009584093394e-02
-2.429668284545995205e-02
-2.394110851332258497e-02
-2.361055491973458251e-02
-2.330717990619633057e-02
-2.303284888043590634e-02
-2.278909323678561527e-02
-2.257707063867194983e-02
-2.239752800014693096e-02
-2.225076815604580191e-02
-2.213662109422680213e-02
-2.205442057038888362e-02
-2.200298702118142283e-02
-2.198061735195409178e-02
-2.198508231506005051e-02
-2.201363192965394983e-02
-2.206300936717332101e-02
-2.212947346011943928e-02
-2.220882993807487410e-02
-2.229647131678504091e-02
-2.238742518636516535e-02
-2.247641040430876924e-02
-2.255790068143034149e-02
-2.262619480087693646e-02
-2.267549252120271142e-02
-2.269997516317272257e-02
-2.269388969030582473e-02
-2.265163505782897754e-02
-2.256784939057531608e-02
-2.243749660791473366e-02
-2.225595111604210252e-02
-2.201907899272186747e-02
-2.172331418833235717e-02
-2.136572846109702911e-02
-2.094409361846336776e-02
-2.045693479034971923e-02
-1.990357367404469932e-02
-1.928416070220956291e-02
-1.859969538159008534e-02
-1.785203414389254645e-02
-1.704388517958337415e-02
-1.617879018050056780e-02
-1.526109299346474144e-02
-1.429589526486200156e-02
-1.328899957439718879e-02
-1.224684086267119679e-02
-1.117640685740089491e-02
-1.008514872846223362e-02
-8.980883156246248847e-03
-7.871687285434813414e-03
-6.765788146854588396e-03
-5.671448241809501183e-03
-4.596849097224960795e-03
-3.549974618526824388e-03
-2.538496157834154495e-03
-1.569661081179695968e-03
-6.501867602998264318e-04
2.138383008706464254e-04
1.017044586336032612e-03
1.754861337788183196e-03
2.423584740460846612e-03
3.020433272809934684e-03
3.543589255725718146e-03
3.992225960208605623e-03
4.366519697300588927e-03
4.667646782118315546e-03
4.897765246516720336e-03
5.059981790904219574e-03
5.158304403747997549e-03
5.197581482686310789e-03
5.183428491349935038e-03
5.122143369364897184e-03
5.020612201133830763e-03
4.886206731538002626e-03
4.726675387957520770e-03
4.550029891728317628e-03
4.364429136333534270e-03
4.178062512124451101e-03
3.999034509844907014e-03
3.835252551238469733e-03
3.694319998186092538e-03
3.583436105713697084e-03
3.509304422355535944e-03
3.478051218752658148e-03
3.495155161430109087e-03
3.565389289398661690e-03
3.692776077738407336e-03
3.880556193116080702e-03
4.131171226149962794e-03
4.446260438400416286e-03
4.826671305889200514e-03
5.272483302046110896e-03
5.783044245966634418e-03
6.357018345898120780e-03
6.992444598472932239e-03
7.686804238175257500e-03
8.437095719872113667e-03
9.239915584359638390e-03
1.009154338075740794e-02
1.098802906472258305e-02
1.192528073917584197e-02
1.289915116322495545e-02
1.390552113026029789e-02
1.494037811611181182e-02
1.599988857005937154e-02
1.708046251007210720e-02
1.817880918348027328e-02
1.929198275888542244e-02
2.041741732053368313e-02
2.155295052187413893e-02
2.269683565401221792e-02
2.384774210674019818e-02
2.500474438871568006e-02
2.616730023278017458e-02
2.733521850532708020e-02
2.850861777922990281e-02
2.968787674452439546e-02
3.087357784504067212e-02
3.206644550692971246e-02
3.326728067450465676e-02
3.447689324700338453e-02
3.569603410830938378e-02
3.692532863690613232e-02
3.816521327051879825e-02
3.941587682286730454e-02
4.067720811015668875e-02
4.194875122833537778e-02
4.322966986676114037e-02
4.451872155178012574e-02
4.581424273848320322e-02
4.711414534092277923e-02
4.841592503577132195e-02
4.971668144687566016e-02
5.101314996898657916e-02
5.230174485241006338e-02
5.357861281856136915e-02
5.483969626627878402e-02
5.608080498330730163e-02
5.729769496013945029e-02
5.848615279469163847e-02
5.964208410630393586e-02
6.076160415227642442e-02
6.184112886212236870e-02
6.287746447834342833e-02
6.386789401890523299e-02
6.481025880736039635e-02
6.570303341170280476e-02
6.654539257597640034e-02
6.733726881081152082e-02
6.807939934493335843e-02
6.877336187896020137e-02
6.942159822925411672e-02
7.002742566787166500e-02
7.059503579184450706e-02
7.112948111883334035e-02
7.163664997780209986e-02
7.212323039575704864e-02
7.259666399780756452e-02
7.306509120057734508e-02
7.353728895930429499e-02
7.402260295784804378e-02
7.453087584833407997e-02
7.507237336460484411e-02
7.565771013758011698e-02
7.629777719669487979e-02
7.700367287621449897e-02
7.778663895251665406e-02
7.865800333039067727e-02
7.962913088548682905e-02
8.071138337716704525e-02
8.191608933181983299e-02
8.325452438852076753e-02
8.473790223332791638e-02
8.637737594007384445e-02
8.818404913815329482e-02
9.016899594927836603e-02
9.234328851789068426e-02
9.471803025604334791e-02
9.730439281407865515e-02
1.001136544557417601e-01
1.031572371031486829e-01
1.064467393382875215e-01
1.099939622737155648e-01
1.138109251408442324e-01
1.179098674117448481e-01
1.223032345320001352e-01
1.270036440126657284e-01
1.320238292348163978e-01
1.373765583192406992e-01
1.430745258836920164e-01
1.491302159101336733e-01
1.555557343721847285e-01
1.623626108033656701e-01
1.695615687534823834e-01
1.771622653931761160e-01
1.851730016955038527e-01
1.936004047882606272e-01
2.024490851413823234e-01
2.117212718762537804e-01
2.214164301779039390e-01
2.315308654826088719e-01
2.420573196081292622e-01
2.529845648292752824e-01
2.642970022686212395e-01
2.759742713291143401e-01
2.879908774157424189e-01
3.003158452387064137e-01
3.129124053160143859e-01
3.257377211746461110e-01
3.387426646106597716e-01
3.518716461951467145e-01
3.650625079457862077e-01
3.782464843868634796e-01
3.913482376780393346e-01
4.042859718234919075e-01
4.169716300946966769e-01
4.293111787394260359e-01
4.412049791805090493e-01
4.525482496343624095e-01
4.632316159412860346e-01
4.731417501804778825e-01
4.821620942988018022e-01
4.901736648231930227e-01
4.970559333247380751e-01
5.026877762316734888e-01
5.069484860228251621e-01
5.097188352253783084e-01
5.108821830618771598e-01
5.103256139907658140e-01
5.079410964470830736e-01
5.036266492961568586e-01
4.972875031638217536e-01
4.888372432065932194e-01
4.781989198213542624e-01
4.653061136930793928e-01
4.501039417493546968e-01
4.325499908438785179e-01
4.126151665864738471e-01
3.902844453708431693e-01
3.655575185553643913e-01
3.384493188223037796e-01
3.089904196965365668e-01
2.772273008021179375e-01
2.432224727010575960e-01
2.070544568300834720e-01
1.688176175920582944e-01
1.286218452844845872e-01
8.659209050390774542e-02
4.286775229618951938e-02
-2.398076117480637919e-03
-4.903949809004561761e-02
-9.687883351670716070e-02
-1.457277589946244511e-01
-1.953885578184159089e-01
-2.456554678125801305e-01
-2.963161141464801807e-01
-3.471530129345442028e-01
-3.979451307816021521e-01
-4.484694843412261878e-01
-4.985027638587233301e-01
-5.478229641635081748e-01
-5.962110064895782546e-01
-6.434523346336135097e-01
-6.893384692556487892e-01
-7.336685047629174505e-01
-7.762505337555204443e-01
-8.169029849435169854e-01
-8.554558617281248223e-01
-8.917518695368044090e-01
-9.256474216914574171e-01
-9.570135148902545463e-01
-9.857364669874491003e-01
-1.011718511473137294e+00
-1.034878244763918431e+00
-1.055150924105540344e+00
-1.072488615711937543e+00
-1.086860194399178026e+00
-1.098251197820991232e+00
-1.106663539943744778e+00
-1.112115089811795299e+00
-1.114639123366403473e+00
-1.114283657190817234e+00
-1.111110674233409590e+00
-1.105195252583010657e+00
-1.096624609382616633e+00
-1.085497072305401156e+00
-1.071920991897609143e+00
-1.056013608120793590e+00
-1.037899884633041836e+00
-1.017711324321002309e+00
-9.955847793880353569e-01
-9.716612688080039639e-01
-9.460848154702261592e-01
-9.190013146315738624e-01
-8.905574443131082374e-01
-8.608996275555819144e-01
-8.301730552068969926e-01
-7.985207768525509620e-01
-7.660828661230386638e-01
-7.329956656875707965e-01
-6.993911156591768874e-01
-6.653961680566331527e-01
-6.311322884898192820e-01
-5.967150453274142619e-01
-5.622537850419744299e-01
-5.278513916251110771e-01
-4.936041268146778571e-01
-4.596015468929853243e-01
-4.259264911186769198e-01
-3.926551359637514560e-01
-3.598571089167774129e-01
-3.275956550646250687e-01
-2.959278493346527150e-01
-2.649048471150153850e-01
-2.345721657696471230e-01
-2.049699898725756420e-01
-1.761334928709978043e-01
-1.480931684230345491e-01
-1.208751647465026030e-01
-9.450161609459856171e-02
-6.899096584554959000e-02
-4.435827643756228705e-02
-2.061552181598427444e-02
2.228140919866999393e-03
2.416612342776390532e-02
4.519418360179885269e-02
6.531022982995660087e-02
8.451415254793491483e-02
1.028076829256986541e-01
1.201942777693087022e-01
1.366790293059051420e-01
1.522685977930234580e-01
1.669711646184454668e-01
1.807964029733707956e-01
1.937554630519872367e-01
2.058609682958764120e-01
2.171270192759944262e-01
2.275692016695539943e-01
2.372045947841216751e-01
2.460517772234069034e-01
2.541308264309130038e-01
2.614633092960116367e-01
2.680722610303652442e-01
2.739821500662011355e-01
2.792188271687974233e-01
2.838094573351860328e-01
2.877824335549863388e-01
2.911672720155197847e-01
2.939944887943511942e-01
2.962954585517418860e-01
2.981022563328818986e-01
2.994474838813455109e-01
3.003640823196938592e-01
3.008851335658866977e-01
3.010436529193730726e-01
3.008723757251085540e-01
3.004035411494841989e-01
2.996686761900337337e-01
2.986983832735421451e-01
2.975221345924705107e-01
2.961680764684548883e-01
2.946628468536844347e-01
2.930314087788901123e-01
2.912969025469350770e-01
2.894805189775469523e-01
2.876013956785381520e-01
2.856765382048068735e-01
2.837207672060403363e-01
2.817466924784154947e-01
2.797647142899116202e-01
2.777830519285010569e-01
2.758077989430663401e-01
2.738430041503090440e-01
2.718907770174979754e-01
2.699514157112589130e-01
2.680235555916722912e-01
2.661043357151967048e-01
2.641895807093296300e-01
2.622739949290671668e-01
2.603513658334697944e-01
2.584147732592331215e-01
2.564568013284082570e-01
2.544697495851393487e-01
2.524458402065345441e-01
2.503774179578839298e-01
2.482571399667836409e-01
2.460781525162507588e-01
2.438342523363286884e-01
2.415200300314636062e-01
2.391309938671954127e-01
2.366636723207253545e-01
2.341156941863592744e-01
2.314858454122195874e-01
2.287741024712676152e-01
2.259816421070071635e-01
2.231108280112285569e-01
2.201651752017260988e-01
2.171492932632018702e-01
2.140688100003746708e-01
2.109302773101286999e-01
2.077410613595760402e-01
2.045092194121626017e-01
2.012433657827177591e-01
1.979525295582191535e-01
1.946460067771361713e-01
1.913332100303466177e-01
1.880235179119410516e-01
1.847261273477457666e-01
1.814499111661991293e-01
1.782032835561926376e-01
1.749940755071821841e-01
1.718294223167201040e-01
1.687156650946810554e-01
1.656582675578202046e-01
1.626617494430932509e-01
1.597296374662813823e-01
1.568644342051146723e-01
1.540676052409437891e-01
1.513395845412436880e-01
1.486797975010059336e-01
1.460867009245632175e-01
1.435578390513855274e-01
1.410899142124742711e-01
1.386788706467900756e-01
1.363199897450714237e-01
1.340079947304929908e-01
1.317371629491163876e-01
1.295014433638988494e-01
1.272945772698901024e-01
1.251102199469716070e-01
1.229420610990856061e-01
1.207839418764767442e-01
1.186299666122880986e-01
1.164746072567186541e-01
1.143127987977555771e-01
1.121400241867095693e-01
1.099523875305112725e-01
1.077466743076398031e-01
1.055203978667630105e-01
1.032718316173876771e-01
1.010000266579866302e-01
9.870481476558140566e-02
9.638679703680458344e-02
9.404731858319602400e-02
9.168843006223209580e-02
8.931283705063752798e-02
8.692383827073506264e-02
8.452525417788749051e-02
8.212134728440122211e-02
7.971673584367441889e-02
7.731630262224026273e-02
7.492510064686339066e-02
7.254825749661120149e-02
7.019088007278694030e-02
6.785796159046902920e-02
6.555429247721043795e-02
6.328437670552677918e-02
6.105235514916637629e-02
5.886193713640652803e-02
5.671634148007565629e-02
5.461824786590890185e-02
5.256975935563337754e-02
5.057237664826199491e-02
4.862698431330050863e-02
4.673384903750787966e-02
4.489263002095643385e-02
4.310240086344895721e-02
4.136168263783102095e-02
3.966848728676413555e-02
3.802037037271301795e-02
3.641449227202409045e-02
3.484768638882806274e-02
3.331653308326871371e-02
3.181743795749419901e-02
3.034671293586532412e-02
2.890065856823322010e-02
2.747564603396150662e-02
2.606819723398709140e-02
2.467506160995045633e-02
2.329328810106254255e-02
2.192029101383050418e-02
2.055390861053180140e-02
1.919245319356415250e-02
1.783475189654254792e-02
1.648017738279564104e-02
1.512866786676702116e-02
1.378073614587950121e-02
1.243746740577246143e-02
1.110050585272862392e-02
9.772030375871314234e-03
8.454719696817989891e-03
7.151707483060311572e-03
5.866528366084514459e-03
4.603055683193009104e-03
3.365432102191044054e-03
2.157994296600667522e-03
9.851929101374796733e-04
-1.484906153731667671e-04
-1.238629105527299995e-03
-2.280935012810032109e-03
-3.271344587462840341e-03
-4.206099402703737146e-03
-5.081823804050342001e-03
-5.895596944882890156e-03
-6.645018106666614709e-03
-7.328264123524294224e-03
-7.944137900552051754e-03
-8.492107091190859158e-03
-8.972332316083140094e-03
-9.385684247449734355e-03
-9.733749186339211296e-03
-1.001882307248502975e-02
-1.024389379515707951e-02
-1.041261207930312127e-02
-1.052925130410125969e-02
-1.059865680877892721e-02
-1.062618545355450105e-02
-1.061763624602231858e-02
-1.057917325225699208e-02
-1.051724176697124355e-02
-1.043847909163011720e-02
-1.034962142704568336e-02
-1.025740801455280252e-02
-1.016848430822978565e-02
-1.008930557516678379e-02
-1.002604230138296609e-02
-9.984489011008575166e-03
-9.969977910491657422e-03
-9.987298654601312747e-03
-1.004062549995461164e-02
-1.013345294798854122e-02
-1.026854097446671700e-02
-1.044787063473038603e-02
-1.067261075220232898e-02
-1.094309621034993303e-02
-1.125881820077167215e-02
-1.161842661763585853e-02
-1.201974453583412074e-02
-1.245979455587924341e-02
-1.293483662606559337e-02
-1.344041689583062339e-02
-1.397142664296304945e-02
-1.452217053305343043e-02
-1.508644313470666222e-02
-1.565761257243958662e-02
-1.622871004371461562e-02
-1.679252387131198454e-02
-1.734169662797381897e-02
-1.786882396064225567e-02
-1.836655363709564087e-02
-1.882768329057776108e-02
-1.924525548043365050e-02
-1.961264869959207860e-02
-1.992366305082462694e-02
-2.017259920478508411e-02
-2.035432966968762913e-02
-2.046436137346134554e-02
-2.049888870601410465e-02
-2.045483625440909156e-02
-2.032989084164965252e-02
-2.012252241379911682e-02
-1.983199358378601868e-02
-1.945835784997763940e-02
-1.900244670356661045e-02
-1.846584592285558518e-02
-1.785086154954388521e-02
-1.716047620744242871e-02
-1.639829655290840280e-02
-1.556849287203266458e-02
-1.467573179188697875e-02
-1.372510325546851852e-02
-1.272204298126377968e-02
-1.167225170283315433e-02
-1.058161251198291852e-02
-9.456107522478581287e-03
-8.301735305797251427e-03
-7.124430282759743743e-03
-5.929985369476697098e-03
-4.723979029550722658e-03
-3.511707751062137159e-03
-2.298124984980379724e-03
-1.087787399432620442e-03
1.151908701176411465e-04
1.307175392321675627e-03
2.485039516036207340e-03
3.646183215043137700e-03
4.788542472078302463e-03
5.910589313947821680e-03
7.011322702441142966e-03
8.090250629195721785e-03
9.147363823235957203e-03
1.018310177278261563e-02
1.119831185610689964e-02
1.219420237784027590e-02
1.317229045454032868e-02
1.413434575054290342e-02
1.508233120480523097e-02
1.601834187338408919e-02
1.694454293327746913e-02
1.786310797685876015e-02
1.877615883501827440e-02
1.968570782676136791e-02
2.059360357344239278e-02
2.150148116279756647e-02
2.241071767018189276e-02
2.332239366025474006e-02
2.423726128056574031e-02
2.515571947749989379e-02
2.607779667117605601e-02
2.700314109328909307e-02
2.793101894909840593e-02
2.886032020962358072e-02
2.978957188772332274e-02
3.071695850448693740e-02
3.164034921885245516e-02
3.255733111960982390e-02
3.346524787621074637e-02
3.436124310865121961e-02
3.524230756214698917e-02
3.610532917570011963e-02
3.694714505975311286e-02
3.776459447441402051e-02
3.855457168971478110e-02
3.931407792866675049e-02
4.004027126469656556e-02
4.073051366853247535e-02
4.138241430932446119e-02
4.199386832756062810e-02
4.256309040941942679e-02
4.308864254744745187e-02
4.356945552519881498e-02
4.400484375539488735e-02
4.439451324851158981e-02
4.473856251037012371e-02
4.503747654582811177e-02
4.529211397449771359e-02
4.550368750201887885e-02
4.567373826860254837e-02
4.580410441504875058e-02
4.589688459170371271e-02
4.595439694665180708e-02
4.597913441597566153e-02
4.597371717665865720e-02
4.594084306399109224e-02
4.588323688504063191e-02
4.580359949898754612e-02
4.570455764497576012e-02
4.558861529439873356e-02
4.545810752784956027e-02
4.531515763886235365e-02
4.516163826311262591e-02
4.499913723470840010e-02
4.482892866830458234e-02
4.465194982739519730e-02
4.446878420192940801e-02
4.427965100673805776e-02
4.408440126144791416e-02
4.388252055639717264e-02
4.367313840123248497e-02
4.345504397259714741e-02
4.322670800651487455e-02
4.298631034299273124e-02
4.273177273090368600e-02
4.246079634758163218e-02
4.217090319892929928e-02
4.185948089588611976e-02
4.152382986236510809e-02
4.116121230299346623e-02
4.076890200659100127e-02
4.034423415812999486e-02
3.988465439136422430e-02
3.938776619036818416e-02
3.885137588572557671e-02
3.827353456250325719e-02
3.765257611762812262e-02
3.698715098510756139e-02
3.627625479762017213e-02
3.551925175973875970e-02
3.471589222947966957e-02
3.386632437224034592e-02
3.297109966555418492e-02
3.203117220903244078e-02
3.104789188613702941e-02
3.002299156267921459e-02
2.895856854464550281e-02
2.785706058405752056e-02
2.672121690590705326e-02
2.555406471857921136e-02
2.435887173200856209e-02
2.313910532217010319e-02
2.189838897425872358e-02
2.064045661841335672e-02
1.936910573484670883e-02
1.808814976515462497e-02
1.680137053797988930e-02
1.551247150215325291e-02
1.422503230877810408e-02
1.294246547140655811e-02
1.166797564250490055e-02
1.040452210105626517e-02
9.154784760819363251e-03
7.921134300554194194e-03
6.705606637982974849e-03
5.509882062000146137e-03
4.335269162330996837e-03
3.182693776908779391e-03
2.052692922007254457e-03
9.454136923773355690e-04
-1.393829486635026946e-04
-1.202313693161543781e-03
-2.244359857789334379e-03
-3.266850129953950774e-03
-4.271439405727836883e-03
-5.260084085425126114e-03
-6.235014137327591667e-03
-7.198702490750209099e-03
-8.153832087660494929e-03
-9.103261044261852508e-03
-1.004998642323590152e-02
-1.099710694391128896e-02
-1.194778519971017097e-02
-1.290520977844084212e-02
-1.387255754853102332e-02
-1.485295665365717228e-02
-1.584945053205227133e-02
-1.686496314074784411e-02
-1.790226575368284931e-02
-1.896394563916882492e-02
-2.005237676508806952e-02
-2.116969272353462841e-02
-2.231776197392825248e-02
-2.349816563311115866e-02
-2.471217783217877217e-02
-2.596074870772999837e-02
-2.724449006584948527e-02
-2.856366379509236997e-02
-2.991817295124693521e-02
-3.130755553310886341e-02
-3.273098097045153837e-02
-3.418724922731149890e-02
-3.567479257078929461e-02
-3.719167991089027819e-02
-3.873562367930899475e-02
-4.030398920251501704e-02
-4.189380653987506697e-02
-4.350178468140784155e-02
-4.512432816261633534e-02
-4.675755596452913637e-02
-4.839732268108931645e-02
-5.003924190101661368e-02
-5.167871165339456285e-02
-5.331094194272107539e-02
-5.493098426140451823e-02
-5.653376289279096051e-02
-5.811410791044385737e-02
-5.966678978802712752e-02
-6.118655534691348763e-02
-6.266816491425383773e-02
-6.410643046090994113e-02
-6.549625446419941877e-02
-6.683266909967311431e-02
-6.811087561737384777e-02
-6.932628356025186123e-02
-7.047454935176365731e-02
-7.155161391646014390e-02
-7.255373898419806289e-02
-7.347754164576976443e-02
-7.432002679004250101e-02
-7.507861686990681405e-02
-7.575117873962101955e-02
-7.633604704724573919e-02
-7.683204387706901728e-02
-7.723849419908176972e-02
-7.755523688099519308e-02
-7.778263090366718813e-02
-7.792155654996343883e-02
-7.797341134442996313e-02
-7.794010074727397708e-02
-7.782402332350517316e-02
-7.762805051913074239e-02
-7.735550112540959256e-02
-7.701011049144110276e-02
-7.659599473833973715e-02
-7.611761033604415305e-02
-7.557970932499824546e-02
-7.498729062862848072e-02
-7.434554806071710931e-02
-7.365981550575351200e-02
-7.293550996394398966e-02
-7.217807308501481001e-02
-7.139291199877954852e-02
-7.058534017319365028e-02
-6.976051903024627077e-02
-6.892340112419270692e-02
-6.807867575464082721e-02
-6.723071760630866534e-02
-6.638353936906035702e-02
-6.554074888085852091e-02
-6.470551151801962053e-02
-6.388051841846793810e-02
-6.306796106545520253e-02
-6.226951268876007584e-02
-6.148631672728473163e-02
-6.071898275646251536e-02
-5.996758984128810338e-02
-5.923169750739476491e-02
-5.851036420810383498e-02
-5.780217304455256139e-02
-5.710526452172865614e-02
-5.641737584729283189e-02
-5.573588627713432775e-02
-5.505786789156454086e-02
-5.438014118599814040e-02
-5.369933456390026116e-02
-5.301194689088475909e-02
-5.231441224257507572e-02
-5.160316591348908244e-02
-5.087471064431214191e-02
-5.012568211793454881e-02
-4.935291265340478739e-02
-4.855349218248216497e-02
-4.772482551121958599e-02
-4.686468500849216151e-02
-4.597125785918481505e-02
-4.504318704020660036e-02
-4.407960561033775343e-02
-4.308016341870175153e-02
-4.204504598203166049e-02
-4.097498508700976594e-02
-3.987126092750683387e-02
-3.873569578691579696e-02
-3.757063916136332837e-02
-3.637894459051471685e-02
-3.516393848412859707e-02
-3.392938140950300940e-02
-3.267942233558812637e-02
-3.141854657150947028e-02
-3.015151810136861704e-02
-2.888331723993260367e-02
-2.761907451527659957e-02
-2.636400179997422377e-02
-2.512332173838129762e-02
-2.390219649634127419e-02
-2.270565703725210480e-02
-2.153853386241625853e-02
-2.040539038369816247e-02
-1.931045997794098024e-02
-1.825758757795676798e-02
-1.725017677570062774e-02
-1.629114332056288625e-02
-1.538287557964363936e-02
-1.452720273353981517e-02
-1.372537100290412496e-02
-1.297802848409746433e-02
-1.228521857035440659e-02
-1.164638232668813340e-02
-1.106036957640604487e-02
-1.052545856623888533e-02
-1.003938385518070818e-02
-9.599372040154544733e-03
-9.202184764495129066e-03
-8.844168228003171373e-03
-8.521308469636149421e-03
-8.229291590091921196e-03
-7.963567960107270985e-03
-7.719419267742169515e-03
-7.492027561288461084e-03
-7.276545161606400719e-03
-7.068164283432984592e-03
-6.862185407038529431e-03
-6.654083273764301032e-03
-6.439569583789038834e-03
-6.214651436304791630e-03
-5.975684596684604707e-03
-5.719420881615007793e-03
-5.443048975414278672e-03
-5.144228118393870050e-03
-4.821114232008479744e-03
-4.472378130387458586e-03
-4.097215605340483874e-03
-3.695349432562545795e-03
-3.267023281593087365e-03
-2.812987726294713473e-03
-2.334478692034417692e-03
-1.833188890257987907e-03
-1.311232626334132628e-03
-7.711047305228366624e-04
-2.156343717737304016e-04
3.520655178495908839e-04
9.286522660162409076e-04
1.510609981311997804e-03
2.094307712565616000e-03
2.676058233774313965e-03
3.252176461400007896e-03
3.819036654981061187e-03
4.373127393031596075e-03
4.911103535756635233e-03
5.429834366860709916e-03
5.926447220844036252e-03
6.398365855112674722e-03
6.843343193788755004e-03
7.259487909960485666e-03
7.645284582571241702e-03
7.999607137572013402e-03
8.321725649543745482e-03
8.611306380849569758e-03
8.868405255190578082e-03
9.093455014642721351e-03
9.287246428230755413e-03
9.450904046562819127e-03
9.585856985935527902e-03
9.693805354992778012e-03
9.776683118105256032e-03
9.836617995619233515e-03
9.875889285400060030e-03
9.896884328097640959e-03
9.902054547433066303e-03
9.893871726749261727e-03
9.874785435375737705e-03
9.847182294246217132e-03
9.813347787663909833e-03
9.775431298283752957e-03
9.735415029481745905e-03
9.695087160538812948e-03
9.656019789880567264e-03
9.619551935702621778e-03
9.586777832617597583e-03
9.558540627984337193e-03
9.535431541096572525e-03
9.517794392653777108e-03
9.505735386230068293e-03
9.499137725999851761e-03
9.497680875664974223e-03
9.500863890182264723e-03
9.508032373836215051e-03
9.518408443141205058e-03
9.531123105714741500e-03
9.545250366615845236e-03
9.559842277566595395e-03
9.573964342437839281e-03
9.586730469101972449e-03
9.597336832126527120e-03
9.605093852534496435e-03
9.609455695090708335e-03
9.610046775495735896e-03
9.606684600902651305e-03
9.599398486826081489e-03
9.588443820584633542e-03
9.574311480909727251e-03
9.557732258534998304e-03
9.539676050311892211e-03
9.521345830409123911e-03
9.504166484424638947e-03
9.489768584448601482e-03
9.479967387312321705e-03
9.476737372790949854e-03
9.482182696272004052e-03
9.498504091243835032e-03
9.527962698627830129e-03
9.572841475917468965e-03
9.635404823599294857e-03
9.717857126400252996e-03
9.822300823803521014e-03
9.950694857049276545e-03
1.010481406890749966e-02
1.028621036042664388e-02
1.049617631177874634e-02
1.073571175728258754e-02
1.100549400867823109e-02
1.130585228067610554e-02
1.163674672317126756e-02
1.199775253875591530e-02
1.238804943402602859e-02
1.280641664112736403e-02
1.325123373004601784e-02
1.372048716712936413e-02
1.421178267816495741e-02
1.472236328908753736e-02
1.524913269924729059e-02
1.578868389874128406e-02
1.633733249837683935e-02
1.689115435810135957e-02
1.744602709368867771e-02
1.799767479290745320e-02
1.854171531258915276e-02
1.907370965384900738e-02
1.958921254918793986e-02
2.008382366028271110e-02
2.055323868739737311e-02
2.099329969830333528e-02
2.140004390189220729e-02
2.176975027212418173e-02
2.209898342926099393e-02
2.238463423283787099e-02
2.262395634203423142e-02
2.281459858324874287e-02
2.295463242668328505e-02
2.304257449332714272e-02
2.307740366278678706e-02
2.305857262280745779e-02
2.298601386742669256e-02
2.286014000826134748e-02
2.268183848477651338e-02
2.245246082658238287e-02
2.217380661184824298e-02
2.184810250410301746e-02
2.147797655259874733e-02
2.106642829704887671e-02
2.061679499103452606e-02
2.013271450086033532e-02
1.961808535938393966e-02
1.907702455917906562e-02
1.851382365743576425e-02
1.793290356982421563e-02
1.733876893239207073e-02
1.673596237452273927e-02
1.612901929819249291e-02
1.552242375434555698e-02
1.492056586094551995e-02
1.432770119993923702e-02
1.374791263960794402e-02
1.318507500714647708e-02
1.264282283564091038e-02
1.212452152196469984e-02
1.163324209502872471e-02
1.117173978024986990e-02
1.074243643740983682e-02
1.034740693280012010e-02
9.988369493958782278e-03
9.666679881263153667e-03
9.383329443572308373e-03
9.138946677001288585e-03
8.933802387014581209e-03
8.767818021106632206e-03
8.640576979617614964e-03
8.551338735576747424e-03
8.499055309836928834e-03
8.482389811092734544e-03
8.499736863107754462e-03
8.549244449433368240e-03
8.628836944501621850e-03
8.736238931933610480e-03
8.868999663877647974e-03
9.024517640838560298e-03
9.200065230500984945e-03
9.392813051524907461e-03
9.599853787777947248e-03
9.818225394312277143e-03
1.004493334234118733e-02
1.027697191129701461e-02
1.051134437150709998e-02
1.074508191717641649e-02
1.097526131573027010e-02
1.119902130464402873e-02
1.141357761783199157e-02
1.161623676225637287e-02
1.180440844219001265e-02
1.197561681219691358e-02
1.212751052644688715e-02
1.225787171683530644e-02
1.236462392830009992e-02
1.244583914700013970e-02
1.249974396327832409e-02
1.252472488647633775e-02
1.251933310045251491e-02
1.248228856693069447e-02
1.241248349242358821e-02
1.230898546027819028e-02
1.217103998463858576e-02
1.199807266833604821e-02
1.178969111077733146e-02
1.154568622599791081e-02
1.126603328789558579e-02
1.095089252906674727e-02
1.060060930720435439e-02
1.021571369475460581e-02
9.796919652041529564e-03
9.345123503068151691e-03
8.861401774891742439e-03
8.347008276596267970e-03
7.803370400263122571e-03
7.232084473469107405e-03
6.634910169458386499e-03
6.013763959986501845e-03
5.370711421640173532e-03
4.707958495643719578e-03
4.027841605840627552e-03
3.332816530671820886e-03
2.625446165162731178e-03
1.908387145465084310e-03
1.184375336619599263e-03
4.562102309290726556e-04
-2.732616319024502448e-04
-1.001164107585593779e-03
-1.724609742035186546e-03
-2.440718749872107692e-03
-3.146638502776269181e-03
-3.839563354450986621e-03
-4.516754769917864266e-03
-5.175561336722010047e-03
-5.813438687959889342e-03
-6.427968999196331627e-03
-7.016879913421968443e-03
-7.578062683449474958e-03
-8.109589297749157308e-03
-8.609728364512304541e-03
-9.076959623508375902e-03
-9.509986867515436010e-03
-9.907749116923098356e-03
-1.026942973714608208e-02
-1.059446359673034063e-02
-1.088254201721759740e-02
-1.113361536217920278e-02
-1.134789329780424086e-02
-1.152584258312461252e-02
-1.166818241263046368e-02
-1.177587730371594012e-02
-1.185012756640866499e-02
-1.189235743117306003e-02
-1.190420081813771576e-02
-1.188748498122207779e-02
-1.184421214983691524e-02
-1.177653924074357518e-02
-1.168675594993414529e-02
-1.157726136197580538e-02
-1.145053928574513158e-02
-1.130913266105319781e-02
-1.115561723398977856e-02
-1.099257472978418422e-02
-1.082256589293299591e-02
-1.064810362950716419e-02
-1.047162659619731671e-02
-1.029547343782512628e-02
-1.012185800141852249e-02
-9.952845846567087360e-03
-9.790332214699127081e-03
-9.636021764440583573e-03
-9.491410399326749223e-03
-9.357769211199004622e-03
-9.236130810253321416e-03
-9.127278273973039521e-03
-9.031736746209301225e-03
-8.949767889239006180e-03
-8.881367238075397325e-03
-8.826264453445807276e-03
-8.783926563362383713e-03
-8.753564121197592029e-03
-8.734140271032118236e-03
-8.724382634536327272e-03
-8.722797867777734235e-03
-8.727688875179920661e-03
-8.737174356296520394e-03
-8.749210574801604204e-03
-8.761615137754051597e-03
-8.772092480236590509e-03
-8.778260906251581994e-03
-8.777680812444545178e-03
-8.767883885047874151e-03
-8.746402794723762836e-03
-8.710801285134329996e-03
-8.658704246717070091e-03
-8.587827439648159158e-03
-8.496006583858262476e-03
-8.381225511032867892e-03
-8.241643041584683499e-03
-8.075618323718452771e-03
-7.881734351311873304e-03
-7.658819381728032734e-03
-7.405966098103219063e-03
-7.122548171998649945e-03
-6.808234079760474948e-03
-6.462998096212733273e-03
-6.087128244065070047e-03
-5.681231129372270837e-03
-5.246233476089679285e-03
-4.783380525203401873e-03
-4.294231112261351173e-03
-3.780649518859134552e-03
-3.244794107353196275e-03
-2.689102881622473015e-03
-2.116276065988170491e-03
-1.529255873655883729e-03
-9.312035423345864414e-04
-3.254739762940257177e-04
2.844118494170522508e-04
8.947965072324608974e-04
1.501917360978691999e-03
2.101939312255743115e-03
2.690988595481412071e-03
3.265187350572996972e-03
3.820688615396169822e-03
4.353711515804496897e-03
4.860576181911650806e-03
5.337738098294249334e-03
5.781821520369372081e-03
6.189651665499611155e-03
6.558285341722741753e-03
6.885039688943771739e-03
7.167518682286248659e-03
7.403637233303070678e-03
7.591642589949544953e-03
7.730132664383109961e-03
7.818071261847310549e-03
7.854799970470779241e-03
7.840046549372739829e-03
7.773929664262556154e-03
7.656959931122191143e-03
7.490037212758766938e-03
7.274444125130863706e-03
7.011835867336429357e-03
6.704226336982891006e-03
6.353970562103358234e-03
5.963743853666695141e-03
5.536517567191982965e-03
5.075531813455952217e-03
4.584265400978945054e-03
4.066403151253967369e-03
3.525801039382813265e-03
2.966449372666764110e-03
2.392434426898039628e-03
1.807898929968612808e-03
1.217001789189658392e-03
6.238774292193006218e-04
3.259525852331365955e-05
-5.528804300582357192e-04
-1.128729522013921212e-03
-1.691313836167612642e-03
-2.237213058560723160e-03
-2.763258446646501675e-03
-3.266563910205386861e-03
-3.744554077822131750e-03
-4.194989081658616163e-03
-4.615985565806460245e-03
-5.006033805656299497e-03
-5.364010599606567307e-03
-5.689187766745776309e-03
-5.981236086489189092e-03
-6.240224541390288447e-03
-6.466614870613022516e-03
-6.661251354222040566e-03
-6.825346005181131930e-03
-6.960459130184838174e-03
-7.068475548348566485e-03
-7.151576675662765954e-03
-7.212208714298719466e-03
-7.253047311293087974e-03
-7.276959102800269544e-03
-7.286960551634813661e-03
-7.286174485623791476e-03
-7.277785007501418914e-03
-7.264991199746564932e-03
-7.250960281637775472e-03
-7.238780756595971852e-03
-7.231416159751995545e-03
-7.231660081818107842e-03
-7.242093005743334422e-03
-7.265041652597473316e-03
-7.302541319308802556e-03
-7.356301826099037253e-03
-7.427677551700857458e-03
-7.517642056392965545e-03
-7.626767713533492282e-03
-7.755210718440831361e-03
-7.902701789467947435e-03
-8.068542785177912000e-03
-8.251609304383301577e-03
-8.450359527529521103e-03
-8.662849139777741708e-03
-8.886752269339517202e-03
-9.119388303995900474e-03
-9.357754269993525179e-03
-9.598562516483499785e-03
-9.838283146201337245e-03
-1.007319072027258906e-02
-1.029941472659726305e-02
-1.051299310294052415e-02
-1.070992814571660248e-02
-1.088624396744200876e-02
-1.103804482227895706e-02
-1.116157337809769133e-02
-1.125326817495904234e-02
-1.130981936028623881e-02
-1.132822182838283918e-02
-1.130582508167024026e-02
-1.124037889541359969e-02
-1.113007408115435082e-02
-1.097357760059250106e-02
-1.077006151043830191e-02
-1.051922512319258471e-02
-1.022130991666705610e-02
-9.877106886118590043e-03
-9.487956045127039773e-03
-9.055737885653253327e-03
-8.582856923148847114e-03
-8.072217235760001386e-03
-7.527190336495561893e-03
-6.951575690251092163e-03
-6.349554250961213057e-03
-5.725635657879687111e-03
-5.084599789757822050e-03
-4.431433376245317267e-03
-3.771262591220245122e-03
-3.109282511018469398e-03
-2.450684524985428242e-03
-1.800582723425477732e-03
-1.163940317699954912e-03
-5.454973062834490545e-04
5.029956089212835719e-05
6.193632987824302738e-04
1.158028781970022120e-03
1.663109245672390706e-03
2.131946212094251031e-03
2.562452041083870466e-03
2.953144230575000927e-03
3.303170862079174343e-03
3.612326539051218931e-03
3.881058487805856203e-03
4.110462516018217362e-03
4.302268714706901018e-03
4.458816926264748924e-03
4.583022128790621361e-03
4.678330162700754420e-03
4.748664355141954570e-03
4.798363575032116475e-03
4.832112667151732682e-03
4.854866192650976985e-03
4.871766454248920193e-03
4.888057086369347777e-03
4.908993569865858879e-03
4.939751827386479680e-03
4.985336507386349883e-03
5.050490266529122918e-03
5.139605606501112568e-03
5.256640645630532467e-03
5.405040308213111128e-03
5.587664247233435112e-03
5.806722774220000015e-03
6.063722033996753885e-03
6.359419400964891333e-03
6.693790075321190934e-03
7.066005580620597810e-03
7.474424821534581161e-03
7.916598074548338373e-03
8.389284088412440887e-03
8.888480335675403091e-03
9.409466188703330750e-03
9.946858568127978084e-03
1.049467956221026600e-02
1.104643509945594029e-02
1.159520370568005616e-02
1.213373413070621860e-02
1.265455060836269928e-02
1.315006412720826946e-02
1.361268819247414032e-02
1.403495732677836720e-02
1.440964650946857141e-02
1.472988985018244823e-02
1.498929643066422915e-02
1.518206161456565548e-02
1.530307203753921742e-02
1.534800245989073955e-02
1.531340285113706040e-02
1.519677418344555532e-02
1.499663162600168957e-02
1.471255382781115617e-02
1.434521736432751819e-02
1.389641546446316114e-02
1.336906056641559530e-02
1.276717026089315907e-02
1.209583657452285160e-02
1.136117879355145847e-02
1.057028021719880195e-02
9.731109551503870289e-03
8.852427832619471151e-03
7.943682071157746882e-03
7.014886992055175546e-03
6.076496379140428929e-03
5.139265900213750397e-03
4.214109287518814917e-03
3.311949815834544682e-03
2.443569368038361542e-03
1.619457214369677753e-03
8.496607663403387550e-04
1.436404784394167741e-04
-4.898688299608764665e-04
-1.042988070865754138e-03
-1.508813517709815897e-03
-1.881523907809740104e-03
-2.156473424708570293e-03
-2.330269002526463677e-03
-2.400830616540798948e-03
-2.367433489714539704e-03
-2.230731405212741086e-03
-1.992760634646274873e-03
-1.656924205660833789e-03
-1.227956587838564166e-03
-7.118691547588545596e-04
-1.158769608328713688e-04
5.516921193046489535e-04
1.281504775546882940e-03
2.063344699432100721e-03
2.886248387800376992e-03
3.738652411471365955e-03
4.608550068787074447e-03
5.483655248942440052e-03
6.351570967410542258e-03
7.199960329578811331e-03
8.016717345309880977e-03
8.790135101297445394e-03
9.509068834665007977e-03
1.016309143928794019e-02
1.074263916366879554e-02
1.123914529008737499e-02
1.164515980662588282e-02
1.195445328684424831e-02
1.216210335373003881e-02
1.226456247761967787e-02
1.225970604963480190e-02
1.214685998074723113e-02
1.192680743980020254e-02
1.160177445938443894e-02
1.117539471557178234e-02
1.065265393196387737e-02
1.003981474665892500e-02
9.344323067903569785e-03
8.574697263478292183e-03
7.740401989485033024e-03
6.851708355061282216e-03
5.919542464641128383e-03
4.955324657855799883e-03
3.970801723002306827e-03
2.977874728138169697e-03
1.988424805026924817e-03
1.014139515689889068e-03
6.634239131359869434e-05
-8.441718800695842710e-04
-1.707294192213365926e-03
-2.513747490701185184e-03
-3.255220800509841649e-03
-3.924488769058272208e-03
-4.515515170666598369e-03
-5.023538837503760922e-03
-5.445140809953024144e-03
-5.778291808431963369e-03
-6.022379335450809071e-03
-6.178214195372149463e-03
-6.248016349803166801e-03
-6.235380375916067808e-03
-6.145221180310484616e-03
-5.983700890359527208e-03
-5.758137885298930496e-03
-5.476899566806554299e-03
-5.149280392369100755e-03
-4.785367130376958801e-03
-4.395893194294092643e-03
-3.992084489453272093e-03
-3.585498701072003733e-03
-3.187860594374025951e-03
-2.810895754369185061e-03
-2.466165071577289866e-03
-2.164902345847775997e-03
-1.917857306177267592e-03
-1.735146323393982077e-03
-1.626112815531932654e-03
-1.599199241377415167e-03
-1.661832435466975436e-03
-1.820323854714802183e-03
-2.079785912059804211e-03
-2.444065422994525297e-03
-2.915695029465778607e-03
-3.495863069441874221e-03
-4.184402090059062898e-03
-4.979795973709367878e-03
-5.879205374329025437e-03
-6.878510966738535584e-03
-7.972373556797753349e-03
-9.154310116158711694e-03
-1.041678447183132065e-02
-1.175131116623166425e-02
-1.314857088729281392e-02
-1.459853570876437114e-02
-1.609060227946648713e-02
-1.761373103037273957e-02
-1.915658935401438195e-02
-2.070769676648612223e-02
-2.225556994275118550e-02
-2.378886574147432223e-02
-2.529652026554602903e-02
-2.676788205951661712e-02
-2.819283780092245867e-02
-2.956192892879163855e-02
-3.086645760030649194e-02
-3.209858091339265473e-02
-3.325139227909268413e-02
-3.431898901888554704e-02
-3.529652558607047214e-02
-3.618025192715682015e-02
-3.696753680068012166e-02
-3.765687594527503818e-02
-3.824788531901120170e-02
-3.874127985540608277e-02
-3.913883822741405505e-02
-3.944335438370605296e-02
-3.965857679010875020e-02
-3.978913636631613293e-02
-3.984046445507511552e-02
-3.981870195580132499e-02
-3.973060104655840030e-02
-3.958342092215390989e-02
-3.938481908931371761e-02
-3.914273966107530145e-02
-3.886530027090679545e-02
-3.856067891451137042e-02
-3.823700242434434349e-02
-3.790223771937545338e-02
-3.756408732634713282e-02
-3.722989040148491635e-02
-3.690653033634912206e-02
-3.660034998894003133e-02
-3.631707552809772949e-02
-3.606174959263318963e-02
-3.583867438915518122e-02
-3.565136526106149617e-02
-3.550251515311145939e-02
-3.539397010342283656e-02
-3.532671586907353001e-02
-3.530087570290590254e-02
-3.531571898441412255e-02
-3.536968045251689258e-02
-3.546038959300212151e-02
-3.558470969350976953e-02
-3.573878589517041904e-02
-3.591810147420091553e-02
-3.611754166962125728e-02
-3.633146406804956680e-02
-3.655377465760651506e-02
-3.677800861775150365e-02
-3.699741480862550613e-02
-3.720504295248203142e-02
-3.739383243810844720e-02
-3.755670181434235533e-02
-3.768663782176200766e-02
-3.777678306627605537e-02
-3.782052134113250697e-02
-3.781155957424147535e-02
-3.774400570488231632e-02
-3.761244154104515652e-02
-3.741198980453189216e-02
-3.713837477918299074e-02
-3.678797586290755844e-02
-3.635787350278309876e-02
-3.584588703890364408e-02
-3.525060408652321009e-02
-3.457140123045803620e-02
-3.380845572746575545e-02
-3.296274825307828060e-02
-3.203605660077762235e-02
-3.103094040369778345e-02
-2.995071712367085651e-02
-2.879942949161381008e-02
-2.758180487074448142e-02
-2.630320689424719624e-02
-2.496958000365499114e-02
-2.358738736341026848e-02
-2.216354295728684837e-02
-2.070533853621917691e-02
-1.922036625879094615e-02
-1.771643791771186638e-02
-1.620150157643868161e-02
-1.468355655744561609e-02
-1.317056789715708408e-02
-1.167038104872547902e-02
-1.019063796290291084e-02
-8.738695423382143029e-03
-7.321546632818601297e-03
-5.945747044453378836e-03
-4.617345273960698007e-03
-3.341819937382024212e-03
-2.124023217340184969e-03
-9.681317605072619877e-04
1.223943080816456514e-04
1.144843868189775269e-03
2.097278307539631945e-03
2.978545670517886851e-03
3.788285380320374329e-03
4.526923396321235783e-03
5.195657729059648816e-03
5.796434720798783122e-03
6.331916224382728477e-03
6.805438072147006710e-03
7.220960465024958003e-03
7.583010961874357345e-03
7.896620669295766407e-03
8.167254612974043579e-03
8.400737152885619230e-03
8.603173594404572855e-03
8.780868859927631540e-03
8.940244611725732538e-03
9.087755681150132270e-03
9.229807190617890858e-03
9.372673500942285685e-03
9.522420046162702323e-03
9.684829233715401900e-03
9.865331368232074793e-03
1.006894169606924357e-02
1.030020445186005489e-02
1.056314455304159169e-02
1.086122772861983395e-02
1.119732960853120698e-02
1.157371415027421552e-02
1.199202170283626863e-02
1.245326675863429010e-02
1.295784533876682965e-02
1.350555186163467959e-02
1.409560522159318888e-02
1.472668335769292992e-02
1.539696583224062915e-02
1.610418362406242435e-02
1.684567521516700667e-02
1.761844800637157871e-02
1.841924394113866881e-02
1.924460822074785041e-02
2.009095994690939663e-02
2.095466335308023703e-02
2.183209845054935594e-02
2.271972984965322379e-02
2.361417253859803694e-02
2.451225349462420044e-02
2.541106803810711662e-02
2.630802996602129087e-02
2.720091458810303467e-02
2.808789390642204425e-02
2.896756349638295036e-02
2.983896036289766102e-02
3.070157166450230776e-02
3.155533421089525004e-02
3.240062464481620330e-02
3.323824065313094739e-02
3.406937355420332214e-02
3.489557275976629125e-02
3.571870288280890038e-02
3.654089424934513913e-02
3.736448779261510034e-02
3.819197534750157913e-02
3.902593665186992328e-02
3.986897412157103943e-02
4.072364665952064172e-02
4.159240384815141717e-02
4.247752177166513182e-02
4.338104179062000215e-02
4.430471341264011903e-02
4.524994237818204257e-02
4.621774511059282414e-02
4.720871039988983747e-02
4.822296909209540516e-02
4.926017259288746619e-02
5.031948053170159918e-02
5.139955810173224560e-02
5.249858312683545331e-02
5.361426295357436117e-02
5.474386091374097707e-02
5.588423212429576015e-02
5.703186806187056368e-02
5.818294924556859787e-02
5.933340537894326444e-02
6.047898181587495897e-02
6.161531151648110688e-02
6.273799133539363637e-02
6.384266140123853739e-02
6.492508649197044346e-02
6.598123812127713872e-02
6.700737601024159273e-02
6.800012798935378688e-02
6.895656695561772076e-02
6.987428392598314664e-02
7.075145618272231374e-02
7.158690970555689481e-02
7.238017492205665870e-02
7.313153542688823061e-02
7.384206910291103709e-02
7.451368127744643910e-02
7.514912979700494322e-02
7.575204202638605167e-02
7.632692388322040444e-02
7.687916114767945341e-02
7.741501352483988463e-02
7.794160186727741579e-02
7.846688919309509347e-02
7.899965626385838102e-02
7.954947231095112203e-02
8.012666170012344713e-02
8.074226730331503232e-02
8.140801130460058321e-02
8.213625415716735434e-02
8.293995214032315322e-02
8.383261425088073260e-02
8.482825869483678893e-02
8.594136923361291036e-02
8.718685156360321542e-02
8.857998970236644065e-02
9.013640207339701504e-02
9.187199702955180236e-02
9.380292717685806414e-02
9.594554181254404124e-02
9.831633670450667939e-02
1.009319000703100822e-01
1.038088537201520695e-01
1.069637881961567477e-01
1.104131905628769617e-01
1.141733636047583267e-01
1.182603350290372668e-01
1.226897555573618626e-01
1.274767846790806902e-01
1.326359629610216195e-01
1.381810700664372615e-01
1.441249677747876157e-01
1.504794275767597500e-01
1.572549426433444975e-01
1.644605243323359889e-01
1.721034836934298706e-01
1.801891988042129966e-01
1.887208691610208211e-01
1.976992588250321981e-01
2.071224302546051943e-01
2.169854712947175412e-01
2.272802181849996883e-01
2.379949777303044245e-01
2.491142522607855403e-01
2.606184712381132695e-01
2.724837337068443666e-01
2.846815659972107837e-01
2.971786992403659400e-01
3.099368714830520455e-01
3.229126591702236593e-01
3.360573427589684803e-01
3.493168112092282507e-01
3.626315098192579023e-01
3.759364357062611184e-01
3.891611850767656700e-01
4.022300556773626412e-01
4.150622076180164322e-01
4.275718851858845704e-01
4.396687016394439929e-01
4.512579882205307591e-01
4.622412081097529990e-01
4.725164349396791530e-01
4.819788950562216012e-01
4.905215716158444761e-01
4.980358678814931772e-01
5.044123261551423099e-01
5.095413980173528756e-01
5.133142607212057840e-01
5.156236736371383467e-01
5.163648679941678088e-01
5.154364626285904416e-01
5.127413975251572387e-01
5.081878765635862161e-01
5.016903103784081663e-01
4.931702499544458052e-01
4.825573010471648217e-01
4.697900097343155612e-01
4.548167091123304084e-01
4.375963173418588870e-01
4.180990773775967728e-01
3.963072291623230270e-01
3.722156053616180182e-01
3.458321423489859048e-01
3.171782989756042892e-01
2.862893761631528644e-01
2.532147314828164242e-01
2.180178837429396221e-01
1.807765035975600065e-01
1.415822875976287532e-01
1.005407139078261236e-01
5.777067939536628671e-02
1.340401882228871300e-02
-3.241509160039019594e-02
-7.953084302800259020e-02
-1.277766106280822656e-01
-1.769758721974719617e-01
-2.269432219069935919e-01
-2.774854712189202544e-01
-3.284028279305825082e-01
-3.794901435887418351e-01
-4.305382185228275871e-01
-4.813351532089530926e-01
-5.316677340121583883e-01
-5.813228409506989713e-01
-6.300888649985629808e-01
-6.777571219692446469e-01
-7.241232502837811058e-01
-7.689885799517750531e-01
-8.121614604504572288e-01
-8.534585354175285854e-01
-8.927059528222717200e-01
-9.297404998428389078e-01
-9.644106524913776957e-01
-9.965775308916982045e-01
-1.026115752154602490e+00
-1.052914173863219727e+00
-1.076876522321595475e+00
-1.097921900897147029e+00
-1.115985174959377879e+00
-1.131017231410235580e+00
-1.142985111937177445e+00
-1.151872020311220268e+00
-1.157677205455547531e+00
-1.160415723140897359e+00
-1.160118080340059032e+00
-1.156829767443448675e+00
-1.150610684578318388e+00
-1.141534469037918109e+00
-1.129687731807635487e+00
-1.115169212130548537e+00
-1.098088859191888478e+00
-1.078566850975734015e+00
-1.056732560568558466e+00
-1.032723480405555394e+00
-1.006684115179456551e+00
-9.787648541466731356e-01
-9.491208334592448059e-01
-9.179107989742028018e-01
-8.852959795949635335e-01
-8.514389808578045615e-01
-8.165027078869209198e-01
-7.806493263320847253e-01
-7.440392691237893708e-01
-7.068302961306167642e-01
-6.691766130687348824e-01
-6.312280551371934889e-01
-5.931293399680623857e-01
-5.550193935790702637e-01
-5.170307520142634061e-01
-4.792890407563917821e-01
-4.419125326946628518e-01
-4.050117848907265339e-01
-3.686893534710278808e-01
-3.330395850804122038e-01
-2.981484827595085041e-01
-2.640936433529114669e-01
-2.309442630653648076e-01
-1.987612069608970800e-01
-1.675971382009056876e-01
-1.374967019958136527e-01
-1.084967591505657941e-01
-8.062666397067731749e-02
-5.390858094461595251e-02
-2.835783452999324564e-02
-3.983286641095591489e-03
1.921226369731185435e-02
4.123166394060470696e-02
6.208298001561540075e-02
8.177906160017842097e-02
1.003371052466288937e-01
1.177782197199566255e-01
1.341269974556315581e-01
1.494110955302382915e-01
1.636608294236855110e-01
1.769087822009101640e-01
1.891894313323128352e-01
2.005387949785740753e-01
2.109940992246039371e-01
2.205934672484389791e-01
2.293756311115880686e-01
2.373796664324440142e-01
2.446447499357838617e-01
2.512099394550006415e-01
2.571139760021750598e-01
2.623951068998013336e-01
2.670909290776327105e-01
2.712382513851050447e-01
2.748729746419184550e-01
2.780299881627373293e-01
2.807430812638622708e-01
2.830448684459033193e-01
2.849667268905394235e-01
2.865387449712346601e-01
2.877896804817230980e-01
2.887469274854946311e-01
2.894364907425638345e-01
2.898829667175488733e-01
2.901095304786844853e-01
2.901379277541652479e-01
2.899884715196063278e-01
2.896800429948866440e-01
2.892300965299275939e-01
2.886546682770818051e-01
2.879683886091342071e-01
2.871844983659634920e-01
2.863148689602080244e-01
2.853700265684212534e-01
2.843591805946625306e-01
2.832902566559550861e-01
2.821699342753251072e-01
2.810036896239610504e-01
2.797958433297875747e-01
2.785496136569218795e-01
2.772671751069737400e-01
2.759497223874013971e-01
2.745975396857099349e-01
2.732100751793305471e-01
2.717860203698519994e-01
2.703233940153588200e-01
2.688196300542200490e-01
2.672716690740048473e-01
2.656760525954818264e-01
2.640290193896923099e-01
2.623266030409390770e-01
2.605647298001831369e-01
2.587393158748785837e-01
2.568463629620068023e-01
2.548820511515601517e-01
2.528428281484065288e-01
2.507254936587919314e-01
2.485272780945518289e-01
2.462459145429759522e-01
2.438797031308225505e-01
2.414275669454861717e-01
2.388890988077991273e-01
2.362645982696228442e-01
2.335550983265321789e-01
2.307623815164670522e-01
2.278889851401542932e-01
2.249381955106702080e-01
2.219140313576800083e-01
2.188212165424371913e-01
2.156651424392204419e-01
2.124518205743604338e-01
2.091878260783200105e-01
2.058802327524633657e-01
2.025365407639405091e-01
1.991645978377271642e-01
1.957725150940341496e-01
1.923685787554385573e-01
1.889611589483892462e-01
1.855586168386367252e-01
1.821692114419889152e-01
1.788010075369224905e-01
1.754617857237342482e-01
1.721589560931617302e-01
1.688994766703158512e-01
1.656897777485994983e-01
1.625356931672022887e-01
1.594423994378341147e-01
1.564143636557547845e-01
1.534553007474206698e-01
1.505681406700249414e-01
1.477550060413519994e-01
1.450172003069301330e-01
1.423552066900592716e-01
1.397686977637928041e-01
1.372565555226498701e-01
1.348169014852331205e-01
1.324471363428366688e-01
1.301439886274732560e-01
1.279035714975824412e-01
1.257214468260423323e-01
1.235926955537613864e-01
1.215119933825746373e-01
1.194736905704236740e-01
1.174718946534410446e-01
1.155005549913486473e-01
1.135535478026593464e-01
1.116247606179972124e-01
1.097081748836550991e-01
1.077979456039774714e-01
1.058884769383344748e-01
1.039744928369650268e-01
1.020511016207174826e-01
1.001138539367383423e-01
9.815879321081058539e-02
9.618249813413973226e-02
9.418211669156920096e-02
9.215539139353559617e-02
9.010067563135332191e-02
8.801694108892663126e-02
8.590377625235014192e-02
8.376137635425631722e-02
8.159052498244109830e-02
7.939256793202982554e-02
7.716937992068834129e-02
7.492332466262099921e-02
7.265720925895022275e-02
7.037423362368287749e-02
6.807793591234223562e-02
6.577213492215812363e-02
6.346087018482550468e-02
6.114834103701372731e-02
5.883884537023069405e-02
5.653671922881528533e-02
5.424627798777022225e-02
5.197176003881357614e-02
4.971727373935539568e-02
4.748674837534752613e-02
4.528388974966893882e-02
4.311214093320873270e-02
4.097464865349293578e-02
3.887423568047004147e-02
3.681337930920774992e-02
3.479419622166522730e-02
3.281843361232762019e-02
3.088746657808928708e-02
2.900230153954972551e-02
2.716358540962866136e-02
2.537162013231806373e-02
2.362638210606005443e-02
2.192754609198397514e-02
2.027451284575381568e-02
1.866643999628656361e-02
1.710227544267585442e-02
1.558079256294139965e-02
1.410062661257841660e-02
1.266031152478756111e-02
1.125831654970357691e-02
9.893082039668170749e-03
8.563053716257960218e-03
7.266714938079296172e-03
6.002616463147467975e-03
4.769403211745919594e-03
3.565837704785388990e-03
2.390819832119561814e-03
1.243402859093908431e-03
1.228054160823584555e-04
-9.715805278960008839e-04
-2.040185737195720616e-03
-3.083263607821302987e-03
-4.100893810456324000e-03
-5.092989457674433097e-03
-6.059307469164386048e-03
-6.999461709849119813e-03
-7.912938619635861287e-03
-8.799114791987569517e-03
-9.657276226969088717e-03
-1.048663860946975369e-02
-1.128636820817708469e-02
-1.205560296667500600e-02
-1.279347329971721424e-02
-1.349912219978640325e-02
-1.417172421429091327e-02
-1.481050291063362029e-02
-1.541474671875443098e-02
-1.598382263298176939e-02
-1.651718770625665994e-02
-1.701439819804426157e-02
-1.747511626296507914e-02
-1.789911417312332192e-02
-1.828627609253565683e-02
-1.863659753078969819e-02
-1.895018257826646541e-02
-1.922723911960302901e-02
-1.946807222677915741e-02
-1.967307614145712147e-02
-1.984272499966634531e-02
-1.997756263302754437e-02
-2.007819182335312397e-02
-2.014526337418785090e-02
-2.017946518319363447e-02
-2.018151183476742452e-02
-2.015213490193552490e-02
-2.009207414045835124e-02
-2.000206988246647222e-02
-1.988285693220892200e-02
-1.973515996130513483e-02
-1.955969054429057899e-02
-1.935714588703801170e-02
-1.912820922899569412e-02
-1.887355191251332415e-02
-1.859383696260989358e-02
-1.828972398071417732e-02
-1.796187528146537399e-02
-1.761096292719729547e-02
-1.723767635901919670e-02
-1.684273041077297833e-02
-1.642687337442102352e-02
-1.599089470409761557e-02
-1.553563208453640626e-02
-1.506197760149084568e-02
-1.457088255437848957e-02
-1.406336073045630179e-02
-1.354048984592196893e-02
-1.300341090695631904e-02
-1.245332539159567549e-02
-1.189149009406689252e-02
-1.131920951710477588e-02
-1.073782590051575170e-02
-1.014870690704304176e-02
-9.553231083498061466e-03
-8.952771318410834150e-03
-8.348676499426275696e-03
-7.742251732172445410e-03
-7.134737445988649160e-03
-6.527287734160599174e-03
-5.920948586842732057e-03
-5.316636322545501177e-03
-4.715116683766625884e-03
-4.116985255989889098e-03
-3.522649676326717813e-03
-2.932314131092846748e-03
-2.345966554292872562e-03
-1.763369099509513351e-03
-1.184052228250066091e-03
-6.073127080406652036e-04
-3.221592091646056422e-05
5.423973495528513090e-04
1.117899584043824043e-03
1.695860467780212124e-03
2.278026322756548754e-03
2.866295026160981408e-03
3.462686664286158608e-03
4.069310330933553592e-03
4.688327414853060704e-03
5.321911888857652762e-03
5.972208250292159078e-03
6.641287628640484345e-03
7.331102950997570554e-03
8.043443785171472057e-03
8.779891698233009342e-03
9.541777048330448568e-03
1.033013787391751093e-02
1.114568184025146146e-02
1.198875207516026178e-02
1.285929752802155053e-02
1.375684862505341562e-02
1.468049886289329517e-02
1.562889296836154907e-02
1.660022197282190123e-02
1.759222558259036090e-02
1.860220221270177457e-02
1.962702662195050032e-02
2.066317527211642205e-02
2.170675914016197139e-02
2.275356379979231319e-02
2.379909629074221725e-02
2.483863826983851927e-02
2.586730476859019218e-02
2.688010769601660577e-02
2.787202321817425221e-02
2.883806207340415539e-02
2.977334168583265286e-02
3.067315901666563607e-02
3.153306290006627211e-02
3.234892473986024364e-02
3.311700627983878847e-02
3.383402331337480307e-02
3.449720420451451997e-02
3.510434206997670170e-02
3.565383964901338437e-02
3.614474594126770857e-02
3.657678379044720235e-02
3.695036774188604350e-02
3.726661170137406803e-02
3.752732593502656339e-02
3.773500327980719438e-02
3.789279447928224631e-02
3.800447287073591834e-02
3.807438866240783065e-02
3.810741338711433335e-02
3.810887514317742863e-02
3.808448548186096905e-02
3.804025889653735865e-02
3.798242609713677054e-02
3.791734229673339451e-02
3.785139185337801221e-02
3.779089070767496089e-02
3.774198809269472404e-02
3.771056909190874384e-02
3.770215956065630508e-02
3.772183491895023805e-02
3.777413437775944266e-02
3.786298195304412667e-02
3.799161562028660621e-02
3.816252591813381473e-02
3.837740495949220482e-02
3.863710688447293679e-02
3.894162047565224993e-02
3.929005455512157158e-02
3.968063655533787121e-02
4.011072445715428703e-02
4.057683199886536612e-02
4.107466697846996750e-02
4.159918216572439098e-02
4.214463818571716897e-02
4.270467748381494982e-02
4.327240839961889879e-02
4.384049806998389226e-02
4.440127280573985535e-02
4.494682445632144224e-02
4.546912120935962115e-02
4.596012103141750710e-02
4.641188608729156229e-02
4.681669639275282818e-02
4.716716078740239293e-02
4.745632359548427465e-02
4.767776531679212421e-02
4.782569567117252868e-02
4.789503754472473201e-02
4.788150044212757805e-02
4.778164232039643078e-02
4.759291869020540466e-02
4.731371831007578216e-02
4.694338476663689752e-02
4.648222356210984785e-02
4.593149455256810565e-02
4.529338985096517667e-02
4.457099760082825629e-02
4.376825193783243084e-02
4.288987000869633887e-02
4.194127711718640544e-02
4.092852105695683751e-02
3.985817695470426913e-02
3.873724420496158644e-02
3.757303705421894541e-02
3.637307058022379302e-02
3.514494396562317657e-02
3.389622277944319417e-02
3.263432219407628315e-02
3.136639309369393391e-02
3.009921279485908499e-02
2.883908208895018602e-02
2.759173037041764628e-02
2.636223026219818022e-02
2.515492316030099040e-02
2.397335689590387314e-02
2.282023638412280717e-02
2.169738821986610597e-02
2.060573966523813680e-02
1.954531237239118951e-02
1.851523090855042644e-02
1.751374604680070585e-02
1.653827224213140490e-02
1.558543879299580624e-02
1.465115386643613127e-02
1.373068021171681280e-02
1.281872140418434565e-02
1.190951727156636109e-02
1.099694685048521053e-02
1.007463725062613009e-02
9.136076670835397567e-03
8.174729689193391963e-03
7.184153040190621210e-03
6.158109951390994784e-03
5.090681191589401140e-03
3.976371146071663691e-03
2.810207197766054297e-03
1.587830800461622911e-03
3.055787859487284967e-04
-1.039446316530955603e-03
-2.449318038084210072e-03
-3.925240677998325864e-03
-5.467517673852380009e-03
-7.075534099452485820e-03
-8.747753513903050795e-03
-1.048172903565706277e-02
-1.227412855026091543e-02
-1.412077348704429518e-02
-1.601669047373042651e-02
-1.795617500896658572e-02
-1.993286605736901973e-02
-2.193983029934029258e-02
-2.396965462129283311e-02
-2.601454535654193143e-02
-2.806643256401751552e-02
-3.011707774363581169e-02
-3.215818320448771833e-02
-3.418150125653833526e-02
-3.617894164937669049e-02
-3.814267543536343369e-02
-4.006523365346021520e-02
-4.193959938574408353e-02
-4.375929170988281797e-02
-4.551844031585990796e-02
-4.721184970181081797e-02
-4.883505208976005041e-02
-5.038434831930373170e-02
-5.185683621971096807e-02
-5.325042620824575745e-02
-5.456384406476595672e-02
-5.579662100304733779e-02
-5.694907131235178721e-02
-5.802225832493539820e-02
-5.901794936224412369e-02
-5.993856055655540083e-02
-6.078709270610582749e-02
-6.156705936379503613e-02
-6.228240858396782986e-02
-6.293743966598649986e-02
-6.353671643909433731e-02
-6.408497864521690845e-02
-6.458705294620967208e-02
-6.504776520662847172e-02
-6.547185542762265498e-02
-6.586389682403294421e-02
-6.622822036506463561e-02
-6.656884603660603861e-02
-6.688942194116984097e-02
-6.719317204399032073e-02
-6.748285351665714304e-02
-6.776072414096193097e-02
-6.802852017927933648e-02
-6.828744498863671686e-02
-6.853816833971575206e-02
-6.878083629093070805e-02
-6.901509117879817135e-02
-6.924010123002879991e-02
-6.945459898995449965e-02
-6.965692786383716195e-02
-6.984509548602789442e-02
-7.001683299393060556e-02
-7.016965894120640035e-02
-7.030094647949008957e-02
-7.040799248043984326e-02
-7.048808722661704940e-02
-7.053858327608204803e-02
-7.055696223508402254e-02
-7.054089804977067835e-02
-7.048831560430623977e-02
-7.039744353721653913e-02
-7.026686028869591483e-02
-7.009553247163784195e-02
-6.988284485145389302e-02
-6.962862142696102374e-02
-6.933313716974263963e-02
-6.899712023246053205e-02
-6.862174469438743485e-02
-6.820861389302106115e-02
-6.775973475703744864e-02
-6.727748367380571859e-02
-6.676456447433265495e-02
-6.622395949261405956e-02
-6.565887455643613924e-02
-6.507267908239738885e-02
-6.446884239971292785e-02
-6.385086750672597233e-02
-6.322222361094492760e-02
-6.258627877470371303e-02
-6.194623394868606359e-02
-6.130505978545482820e-02
-6.066543742223169666e-02
-6.002970433750959983e-02
-5.939980650977986359e-02
-5.877725777358032422e-02
-5.816310727948897918e-02
-5.755791564276212247e-02
-5.696174040945219119e-02
-5.637413116538799590e-02
-5.579413458938786707e-02
-5.522030924101609811e-02
-5.465075005305865957e-02
-5.408312217758279999e-02
-5.351470359285339512e-02
-5.294243579523668503e-02
-5.236298171898234877e-02
-5.177278995375528270e-02
-5.116816411780433782e-02
-5.054533607996224143e-02
-4.990054191391415234e-02
-4.923009911197347155e-02
-4.853048371410974282e-02
-4.779840594542376919e-02
-4.703088306593089518e-02
-4.622530800995852673e-02
-4.537951260470064058e-02
-4.449182411394811409e-02
-4.356111417879362374e-02
-4.258683904327773689e-02
-4.156907043547675151e-02
-4.050851628791563713e-02
-3.940653092663163465e-02
-3.826511453110537087e-02
-3.708690164108810472e-02
-3.587513881522083614e-02
-3.463365176208597906e-02
-3.336680237064464788e-02
-3.207943632389681499e-02
-3.077682205865007320e-02
-2.946458202591435704e-02
-2.814861734816572272e-02
-2.683502708724989569e-02
-2.553002342484787801e-02
-2.423984412405569625e-02
-2.297066374103890266e-02
-2.172850500508266905e-02
-2.051915182338828400e-02
-1.934806538600461132e-02
-1.822030468795407879e-02
-1.714045284127146962e-02
-1.611255036699476770e-02
-1.514003657664269795e-02
-1.422570009560295001e-02
-1.337163919065996465e-02
-1.257923270328792364e-02
-1.184912201202577807e-02
-1.118120431430937554e-02
-1.057463731980600591e-02
-1.002785537911499159e-02
-9.538596698385731071e-03
-9.103941206637046826e-03
-8.720358409148741899e-03
-8.383764560627931378e-03
-8.089588153068273321e-03
-7.832842559338078908e-03
-7.608204749071167429e-03
-7.410098807165731334e-03
-7.232782863641595839e-03
-7.070437990752842343e-03
-6.917257648617700788e-03
-6.767536312484123857e-03
-6.615755716736102833e-03
-6.456667519885073495e-03
-6.285371027430815098e-03
-6.097384704947059024e-03
-5.888710383688698126e-03
-5.655889249094330981e-03
-5.396048748780368082e-03
-5.106939681058709005e-03
-4.786963080569428715e-03
-4.435186431468660095e-03
-4.051349130493356668e-03
-3.635857095030823639e-03
-3.189766873324644501e-03
-2.714759459058187479e-03
-2.213104471102306063e-03
-1.687615242247508460e-03
-1.141595750864646741e-03
-5.787802524306677162e-04
-3.266741271773626418e-06
5.805546633166018934e-04
1.168077204324503501e-03
1.754555564370109547e-03
2.335185231422249024e-03
2.905181887565264076e-03
3.459859551680966559e-03
3.994706249045179222e-03
4.505455970099474065e-03
4.988155904126875990e-03
5.439227832494127925e-03
5.855522857547761258e-03
6.234368709864220037e-03
6.573608955702766807e-03
6.871633617620280694e-03
7.127400815427182255e-03
7.340449377172421526e-03
7.510902138945356812e-03
7.639460329296550792e-03
7.727389051219727550e-03
7.776494324842567023e-03
7.789092341152352092e-03
7.767971385796349111e-03
7.716347251926941250e-03
7.637813004094249486e-03
7.536284010892681587e-03
7.415939172886898238e-03
7.281159323186591793e-03
7.136463928993815042e-03
6.986447033034402267e-03
6.835713523924742338e-03
6.688816650006165418e-03
6.550197788678307348e-03
6.424129318173894994e-03
6.314661282568428784e-03
6.225572689615604602e-03
6.160328070901635762e-03
6.122039704313971854e-03
6.113435928588603109e-03
6.136835848035603752e-03
6.194130599958208062e-03
6.286771140163530114e-03
6.415762629468710863e-03
6.581665096440563432e-03
6.784600242808656867e-03
7.024263865766743227e-03
7.299943560381583728e-03
7.610541106959163062e-03
7.954598993787673905e-03
8.330330494887072668e-03
8.735652542987472693e-03
9.168220793137343491e-03
9.625466125695689157e-03
1.010463197962997717e-02
1.060281181661957943e-02
1.111698606082421603e-02
1.164405805585057643e-02
1.218088834874475959e-02
1.272432696604071552e-02
1.327124326853401995e-02
1.381855298138340467e-02
1.436324221574870018e-02
1.490238834739444039e-02
1.543317760049351013e-02
1.595291935736711103e-02
1.645905727304143931e-02
1.694917726610118205e-02
1.742101269114072065e-02
1.787244685087283416e-02
1.830151316956455526e-02
1.870639334031165210e-02
1.908541389833371196e-02
1.943704156107330799e-02
1.975987761045784261e-02
2.005265185328014912e-02
2.031421652111241663e-02
2.054354036642338718e-02
2.073970336902678999e-02
2.090189226277974766e-02
2.102939719129632776e-02
2.112160961455968392e-02
2.117802163843660740e-02
2.119822685908829066e-02
2.118192264879459677e-02
2.112891398884034905e-02
2.103911860557370131e-02
2.091257334350316716e-02
2.074944153926315885e-02
2.055002113958758966e-02
2.031475332479952545e-02
2.004423130074920248e-02
1.973920889920238037e-02
1.940060862870326974e-02
1.902952890400086416e-02
1.862725002506484054e-02
1.819523854457041900e-02
1.773514987147703503e-02
1.724882866063875281e-02
1.673830679839901150e-02
1.620579881899213842e-02
1.565369455503170040e-02
1.508454899013927410e-02
1.450106929448761843e-02
1.390609901151553494e-02
1.330259955943613806e-02
1.269362915542763398e-02
1.208231943114746951e-02
1.147184999928706900e-02
1.086542128640215210e-02
1.026622600374526607e-02
9.677419742685605328e-03
9.102091026127230242e-03
8.543231396720802132e-03
8.003705850085468879e-03
7.486224356655220638e-03
6.993314745051984992e-03
6.527297452517275868e-03
6.090262619762908461e-03
5.684049898914024859e-03
5.310231349368970712e-03
4.970097633149595830e-03
4.664647897999092685e-03
4.394583512756347447e-03
4.160305545221134292e-03
3.961916334160851122e-03
3.799224933500238398e-03
3.671756368527445951e-03
3.578764500034893603e-03
3.519248279675916968e-03
3.491971156994620826e-03
3.495483090575135683e-03
3.528144884901563468e-03
3.588154368684733433e-03
3.673573944970951171e-03
3.782358879179731608e-03
3.912385899724851908e-03
4.061481543325152696e-03
4.227449683846817158e-03
4.408097846187745451e-03
4.601261659594376233e-03
4.804827132342002170e-03
5.016750357618789125e-03
5.235074240022132529e-03
5.457942007444403082e-03
5.683607389832261332e-03
5.910441157960199393e-03
6.136934206664095698e-03
6.361697018358866869e-03
6.583455705068523740e-03
6.801044893399379662e-03
7.013397540494970168e-03
7.219532129499337328e-03
7.418537654852922977e-03
7.609556781099527899e-03
7.791767717628834619e-03
7.964365329619279080e-03
8.126541938871635964e-03
8.277468606835902340e-03
8.416277255813878547e-03
8.542044302802745057e-03
8.653776257035356717e-03
8.750397748623529523e-03
8.830742667525034312e-03
8.893548530699929566e-03
8.937454586124719130e-03
8.961003707276826019e-03
8.962648499020488269e-03
8.940761527307515555e-03
8.893649742154301555e-03
8.819572925547010042e-03
8.716766041209930357e-03
8.583465167839823828e-03
8.417936698476279414e-03
8.218509232639602605e-03
7.983607808219555721e-03
7.711789749097720630e-03
7.401781575874230752e-03
7.052516228808146034e-03
6.663169916248547556e-03
6.233197833928576584e-03
5.762368020180545954e-03
5.250792674194774447e-03
