3.437081748417526120e-03
3.576377344428519935e-03
3.706752218330469379e-03
3.827149036127917240e-03
3.936420629734603376e-03
4.033352671455156697e-03
4.116687168925204504e-03
4.185146428530107064e-03
4.237457021430579562e-03
4.272373525160895122e-03
4.288701635390530786e-03
4.285320459121519897e-03
4.261203666618285611e-03
4.215439242687604900e-03
4.147247590713717263e-03
4.055997938843003761e-03
3.941222752026901123e-03
3.802630044895706496e-03
3.640113587816723624e-03
3.453760825955342478e-03
3.243858572617770979e-03
3.010896434323027514e-03
2.755567949778208771e-03
2.478769462008798864e-03
2.181596804084990054e-03
1.865339867456441460e-03
1.531475185400360452e-03
1.181656545783129524e-03
8.177038031405832550e-04
4.415900006131008300e-04
5.542695551694635576e-05
-3.385506088792545405e-04
-7.380021436105071390e-04
-1.140499490166760593e-03
-1.543545993912817616e-03
-1.944596441859668037e-03
-2.341077596503430853e-03
-2.730409092178487981e-03
-3.110024664514340551e-03
-3.477393409410278313e-03
-3.830040983676717171e-03
-4.165570496261474139e-03
-4.481682877064417474e-03
-4.776196632307608096e-03
-5.047066721205970170e-03
-5.292402475938965192e-03
-5.510484299888986429e-03
-5.699778968885325231e-03
-5.858953382274030217e-03
-5.986886685858914224e-03
-6.082680518600460350e-03
-6.145667288891355773e-03
-6.175416265473240157e-03
-6.171737546615843790e-03
-6.134683746176595488e-03
-6.064549277750301733e-03
-5.961867216561429414e-03
-5.827403796047232569e-03
-5.662150470997408952e-03
-5.467313627908969298e-03
-5.244301965789893195e-03
-4.994711685293934215e-03
-4.720309679610143125e-03
-4.423014729215207601e-03
-4.104877026390612617e-03
-3.768056242679830754e-03
-3.414798305243064037e-03
-3.047411251030098921e-03
-2.668240431674481425e-03
-2.279643317789048582e-03
-1.883964288194423962e-03
-1.483509791007661758e-03
-1.080524136124304127e-03
-6.771663077458353131e-04
-2.754882159017281928e-04
1.225854521192913660e-04
5.152753501633363037e-04
9.009632570378038694e-04
1.278205344898033233e-03
1.645742637115099778e-03
2.002508410515507504e-03
2.347632558574379563e-03
2.680442623494181959e-03
3.000461580560103737e-03
3.307402276342624649e-03
3.601158748609583314e-03
3.881794261214059107e-03
4.149526492035224799e-03
4.404709879617495737e-03
4.647815577655269557e-03
4.879409187746805432e-03
5.100126772996383014e-03
5.310649432780337360e-03
5.511676951818031585e-03
5.703901014122649167e-03
5.887978435470727495e-03
6.064504877841982340e-03
6.233989606120670691e-03
6.396831857052434622e-03
6.553299165384091247e-03
6.703508174034212772e-03
6.847408372258875775e-03
6.984769191374087631e-03
7.115170733676446507e-03
7.237998524992249154e-03
7.352442399674761001e-03
7.457499793124891529e-03
7.551983487377473409e-03
7.634533774634085813e-03
7.703635075515819636e-03
7.757636767883104370e-03
7.794778100402228668e-03
7.813216825936677989e-03
7.811061153355476107e-03
7.786404657726415240e-03
7.737363589179966673e-03
7.662116020954684234e-03
7.558942185474239184e-03
7.426265374087017042e-03
7.262692725687841695e-03
7.067055187258531636e-03
6.838445894718835766e-03
6.576256253796942605e-03
6.280209161373054814e-03
5.950388501420843246e-03
5.587264478896666019e-03
5.191714024692184112e-03
4.765035965031731539e-03
4.308960343814003877e-03
3.825651662249451249e-03
3.317705667661500091e-03
2.788139588848006622e-03
2.240375674269091261e-03
1.678218181859110003e-03
1.105823801416446362e-03
5.276658938395336089e-04
-5.150712966181389884e-05
-6.267189505996922363e-04
-1.192817370182439269e-03
-1.744530561391032832e-03
-2.276526964228677008e-03
-2.783477870454248958e-03
-3.260121976518108068e-03
-3.701330972589966534e-03
-4.102175254151848444e-03
-4.457988795328236831e-03
-4.764432268402578677e-03
-5.017553405362580425e-03
-5.213843770488792682e-03
-5.350290975147916142e-03
-5.424425604361891341e-03
-5.434362008038096971e-03
-5.378832330374384157e-03
-5.257213191907324397e-03
-5.069544490774251580e-03
-4.816539965527747054e-03
-4.499589224242047693e-03
-4.120751191243693379e-03
-3.682738841799452698e-03
-3.188895389744953075e-03
-2.643162090812660892e-03
-2.050038108894003310e-03
-1.414532886830524843e-03
-7.421115708393220432e-04
-3.863418009994726076e-05
6.897106178552171382e-04
1.436476371276006582e-03
2.195033280300024824e-03
2.958645321339750580e-03
3.720548994951202327e-03
4.474032590778853971e-03
5.212514968319184074e-03
5.929622647434383727e-03
6.619264328188607938e-03
7.275701705527415006e-03
7.893615626329194765e-03
8.468166716651792658e-03
8.995049653786404975e-03
9.470540371887508149e-03
9.891535488304665710e-03
1.025558348150371925e-02
1.056090735767378601e-02
1.080641824366642204e-02
1.099171993816273028e-02
1.111710438429972837e-02
1.118353811078451332e-02
1.119263994721029359e-02
1.114665031278128104e-02
1.104839253341740983e-02
1.090122681901929680e-02
1.070899752509024867e-02
1.047597458382167057e-02
1.020678978158066040e-02
9.906368925622913851e-03
9.579860784238574192e-03
9.232563861216416812e-03
8.869852020946554505e-03
8.497099939095703255e-03
8.119609443996325671e-03
7.742537768307558056e-03
7.370828680048372925e-03
7.009147373699386833e-03
6.661819944607317093e-03
6.332778341916547003e-03
6.025511352061458867e-03
5.743022363216988141e-03
5.487794309809070591e-03
5.261762251336521597e-03
5.066293851286419320e-03
4.902177890156137786e-03
4.769620990628913558e-03
4.668252406408851356e-03
4.597136753301811485e-03
4.554794390869666525e-03
4.539229067008587575e-03
4.547962432758532146e-03
4.578074785913717470e-03
4.626251452683163151e-03
4.688834114180159482e-03
4.761876383537457826e-03
4.841202671496506148e-03
4.922469632820249824e-03
5.001229234460310806e-03
5.072992694332745071e-03
5.133294309865059010e-03
5.177754403926212480e-03
5.202140436322758368e-03
5.202425628584582060e-03
5.174844233726190804e-03
5.115942787992139480e-03
5.022626684366195311e-03
4.892201616278658849e-03
4.722409198061892736e-03
4.511456517948197846e-03
4.258039283658608676e-03
3.961358200360807699e-03
3.621128539808576245e-03
3.237582841416560692e-03
2.811466730554557265e-03
2.344027983773405016e-03
1.836999090111218584e-03
1.292573494978205544e-03
7.133759987601202140e-04
1.024276676490335663e-04
-5.368942359958005922e-04
-1.200900811074226198e-03
-1.885639833708135666e-03
-2.586947332808040706e-03
-3.300501677601671343e-03
-4.021879493332093831e-03
-4.746612726303202356e-03
-5.470246094826016620e-03
-6.188394301157675893e-03
-6.896798209937524821e-03
-7.591379304788432002e-03
-8.268291870236227359e-03
-8.923972150015424196e-03
-9.555183994681394621e-03
-1.015906041160723021e-02
-1.073314055431267254e-02
-1.127540167466861525e-02
-1.178428574549320908e-02
-1.225872040700393649e-02
-1.269813402816946830e-02
-1.310246468574089232e-02
-1.347216298879908881e-02
-1.380818872599944534e-02
-1.411200142515436733e-02
-1.438554489771104970e-02
-1.463122595253645887e-02
-1.485188759284605288e-02
-1.505077694626085795e-02
-1.523150833154147434e-02
-1.539802187570885224e-02
-1.555453822723486951e-02
-1.570550976372899615e-02
-1.585556902020063275e-02
-1.600947468088582612e-02
-1.617205597733068628e-02
-1.634815597922788938e-02
-1.654257449898641208e-02
-1.676001120994898008e-02
-1.700500952600706231e-02
-1.728190199267538515e-02
-1.759475771737521038e-02
-1.794733238763394911e-02
-1.834302145493199934e-02
-1.878481694438407373e-02
-1.927526835473431302e-02
-1.981644808473954564e-02
-2.040992164936245370e-02
-2.105672304325134636e-02
-2.175733543346994314e-02
-2.251167734586451141e-02
-2.331909448930561887e-02
-2.417835716917204197e-02
-2.508766334701698422e-02
-2.604464722445031313e-02
-2.704639316573277663e-02
-2.808945472305614602e-02
-2.916987865501238439e-02
-3.028323339465888858e-02
-3.142464181370184517e-02
-3.258881770380765708e-02
-3.377010573446855013e-02
-3.496252431805609018e-02
-3.615981088538135213e-02
-3.735546911023831379e-02
-3.854281768345441811e-02
-3.971504003721920001e-02
-4.086523457059165754e-02
-4.198646490592310848e-02
-4.307180975183651228e-02
-4.411441198045890077e-02
-4.510752644091825525e-02
-4.604456622287231293e-02
-4.691914708279477930e-02
-4.772512971030292567e-02
-4.845665961925290505e-02
-4.910820452205619246e-02
-4.967458895839971245e-02
-5.015102618452249583e-02
-5.053314719446428543e-02
-5.081702682645832664e-02
-5.099920704470866512e-02
-5.107671737391043798e-02
-5.104709255596081435e-02
-5.090838759835084742e-02
-5.065919017056275814e-02
-5.029863050201086733e-02
-4.982638897644835196e-02
-4.924270136560365135e-02
-4.854836192181745391e-02
-4.774472432327834387e-02
-4.683370060290139442e-02
-4.581775800071483107e-02
-4.469991389012685501e-02
-4.348372856518818025e-02
-4.217329600149047342e-02
-4.077323248940112332e-02
-3.928866294484225502e-02
-3.772520492137701464e-02
-3.608895001638687261e-02
-3.438644264074940810e-02
-3.262465590658979869e-02
-3.081096445153465660e-02
-2.895311407823323441e-02
-2.705918800790082374e-02
-2.513756960602089863e-02
-2.319690144963033537e-02
-2.124604065252362617e-02
-1.929401049659539361e-02
-1.734994833532006384e-02
-1.542304977942780299e-02
-1.352250940465287918e-02
-1.165745820335824072e-02
-9.836898050950370828e-03
-8.069633596558751717e-03
-6.364201981758384544e-03
-4.728801049598965051e-03
-3.171216670267860884e-03
-1.698749730214124025e-03
-3.181436667010253396e-04
9.644864901892604607e-04
2.143722786798714537e-03
3.214909777267204762e-03
4.174215764193493425e-03
5.018688748902086494e-03
5.746306228716658096e-03
6.356017790579465872e-03
6.847779632956811982e-03
7.222580028043577155e-03
7.482455092994237146e-03
7.630494003163550837e-03
7.670833113567981573e-03
7.608638461308238170e-03
7.450076349045926631e-03
7.202271898007333965e-03
6.873255356263379030e-03
6.471896532005231954e-03
6.007827610326445938e-03
5.491354799277153517e-03
4.933359684614206479e-03
4.345191032843690425e-03
3.738548268254105519e-03
3.125357802807593888e-03
2.517643529567383832e-03
1.927393196684082984e-03
1.366422206803501356e-03
8.462367269444394250e-04
3.778977824819234168e-04
-2.811168672907472118e-05
-3.620148491884064628e-04
-6.148622443591261234e-04
-7.786444763451221950e-04
-8.463944562550176952e-04
-8.122775615273548086e-04
-6.716682145617043891e-04
-4.212114530844860566e-04
-5.886825689874080513e-05
4.160562546603923176e-04
1.002902512596671666e-03
1.699664556064518902e-03
2.503016599170599255e-03
3.408358176367181930e-03
4.409877365855723735e-03
5.500631479321664574e-03
6.672644253706932344e-03
7.917018314622381592e-03
9.224061481578399099e-03
1.058342512042423009e-02
1.198425260986646368e-02
1.341533574207379523e-02
1.486527680228833317e-02
1.632265391893277656e-02
1.777618705125734444e-02
1.921490205375946114e-02
2.062829033084377650e-02
2.200646144844885591e-02
2.334028628761675508e-02
2.462152835867037134e-02
2.584296109496456162e-02
2.699846924527275413e-02
2.808313253100267956e-02
2.909329020264079732e-02
3.002658527225142426e-02
3.088198759539044491e-02
3.165979545624227759e-02
3.236161540768732470e-02
3.299032067083790959e-02
3.354998867428032189e-02
3.404581879540192341e-02
3.448403159776116528e-02
3.487175121206059769e-02
3.521687280393566433e-02
3.552791740666975256e-02
3.581387655882766613e-02
3.608404941800111981e-02
3.634787521458203441e-02
3.661476390542973969e-02
3.689392802122068438e-02
3.719421865220886442e-02
3.752396851549606033e-02
3.789084484874880726e-02
3.830171487121600965e-02
3.876252610979111224e-02
3.927820387305702710e-02
3.985256772286729227e-02
4.048826846612998270e-02
4.118674680197935423e-02
4.194821457695290662e-02
4.277165881664395791e-02
4.365486859595783808e-02
4.459448438343838195e-02
4.558606883085769557e-02
4.662419786720067155e-02
4.770257036417614727e-02
4.881413442098250788e-02
4.995122791973638510e-02
5.110573083890881246e-02
5.226922644929510309e-02
5.343316845412020982e-02
5.458905098716721610e-02
5.572857829959932535e-02
5.684383092527591635e-02
5.792742546268176557e-02
5.897266479330368766e-02
5.997367608506225939e-02
6.092553412357595843e-02
6.182436764267443957e-02
6.266744680517816191e-02
6.345325045876888670e-02
6.418151197154883802e-02
6.485324302038096567e-02
6.547073521053960177e-02
6.603753975449840052e-02
6.655842603516883005e-02
6.703932022265769730e-02
6.748722554331403056e-02
6.791012626210772563e-02
6.831687773723893464e-02
6.871708532690712357e-02
6.912097491737691224e-02
6.953925841483545034e-02
6.998299744348975004e-02
7.046346849370650756e-02
7.099203280142291073e-02
7.158001435889056741e-02
7.223858892950807409e-02
7.297868695974467357e-02
7.381091287582224048e-02
7.474548276996866025e-02
7.579218233174896124e-02
7.696034612370807049e-02
7.825885875980805040e-02
7.969617820560960519e-02
8.128038068876627942e-02
8.301922605750793049e-02
8.492024189022488734e-02
8.699082409169382746e-02
8.923835118000733591e-02
9.167030881288304456e-02
9.429442079954167277e-02
9.711878239662609380e-02
1.001519912229417025e-01
1.034032710317700915e-01
1.068825834198653957e-01
1.106007224430888419e-01
1.145693871556315302e-01
1.188012272557695120e-01
1.233098572517574432e-01
1.281098350657736418e-01
1.332166012037616087e-01
1.386463755502881923e-01
1.444160091818824099e-01
1.505427894781059817e-01
1.570441977473885364e-01
1.639376192805787336e-01
1.712400069184937812e-01
1.789674998959784324e-01
1.871350009383150048e-01
1.957557155061024345e-01
2.048406580767317131e-01
2.143981312922255966e-01
2.244331845974237294e-01
2.349470599250928493e-01
2.459366326777471801e-01
2.573938567034742553e-01
2.693052228128750003e-01
2.816512404652423696e-01
2.944059524562218089e-01
3.075364927737609388e-01
3.210026974040673386e-01
3.347567778641655223e-01
3.487430666361531206e-01
3.628978431990624864e-01
3.771492484619777819e-01
3.914172947696699101e-01
4.056139773549458094e-01
4.196434920463135154e-01
4.334025626919181251e-01
4.467808804304163606e-01
4.596616553085821621e-01
4.719222793635083901e-01
4.834350985812894130e-01
4.940682895198022506e-01
5.036868348758021252e-01
5.121535905532472732e-01
5.193304353230019377e-01
5.250794928413332618e-01
5.292644142088951398e-01
5.317517082171200338e-01
5.324121052611078264e-01
5.311219400584686889e-01
5.277645374695525415e-01
5.222315853288665988e-01
5.144244777780967448e-01
5.042556125150439161e-01
4.916496254275600775e-01
4.765445466900271598e-01
4.588928626367658747e-01
4.386624686315969135e-01
4.158374993286850230e-01
3.904190237324881574e-01
3.624255939734878917e-01
3.318936382302086208e-01
2.988776900213653276e-01
2.634504479346311268e-01
2.257026617784102518e-01
1.857428432736227542e-01
1.436968013607075323e-01
9.970700444644178817e-02
5.393177393355476357e-02
6.544315644528762160e-03
-4.226840265246664674e-02
-9.230691697804102591e-02
-1.433606639883562572e-01
-1.952094952146017082e-01
-2.476252933103138543e-01
-3.003736736303949661e-01
-3.532157535383737001e-01
-4.059099708484512070e-01
-4.582139322715805818e-01
-5.098862722959199845e-01
-5.606885028761526835e-01
-6.103868343841536426e-01
-6.587539486319942128e-01
-7.055707055756420543e-01
-7.506277659130414781e-01
-7.937271130524373719e-01
-8.346834592215507387e-01
-8.733255218539629494e-01
-9.094971581785472603e-01
-9.430583476545421062e-01
-9.738860137760058100e-01
-1.001874678836100818e+00
-1.026936947318361160e+00
-1.049003815547943974e+00
-1.068024807535132847e+00
-1.083967938841325029e+00
-1.096819512406354002e+00
-1.106583752213704308e+00
-1.113282282446070415e+00
-1.116953461521916546e+00
-1.117651582026584434e+00
-1.115445948764195006e+00
-1.110419848413720656e+00
-1.102669425265654368e+00
-1.092302478356690143e+00
-1.079437195682347417e+00
-1.064200841616763205e+00
-1.046728413787388234e+00
-1.027161285386826162e+00
-1.005645848788922603e+00
-9.823321756537221061e-01
-9.573727078416106595e-01
-9.309209929003894324e-01
-9.031304764826988407e-01
-8.741533629471459621e-01
-8.441395541547872527e-01
-8.132356749321882905e-01
-7.815841922189936675e-01
-7.493226333332402289e-01
-7.165829073033717078e-01
-6.834907314818193802e-01
-6.501651642391018671e-01
-6.167182429507110930e-01
-5.832547252637709789e-01
-5.498719299122848403e-01
-5.166596724193083245e-01
-4.837002897544067648e-01
-4.510687471447753505e-01
-4.188328192990553034e-01
-3.870533376635336142e-01
-3.557844948072078073e-01
-3.250741967153650269e-01
-2.949644534822573050e-01
-2.654917989671625733e-01
-2.366877300808302165e-01
-2.085791565958764471e-01
-1.811888527389468873e-01
-1.545359025432729572e-01
-1.286361314435871261e-01
-1.035025173413781502e-01
-7.914557522873055806e-02
-5.557371050241127763e-02
-3.279353666372650244e-02
-1.081015444614569915e-02
1.037260975806976113e-02
3.075200733095314817e-02
5.032621307477622846e-02
6.909421214029207170e-02
8.705572688242935175e-02
1.042111811657710635e-01
1.205616992799142945e-01
1.361091356856417300e-01
1.508561314189801605e-01
1.648061927203519628e-01
1.779637870010842837e-01
1.903344510143680779e-01
2.019249062472057432e-01
2.127431763141241772e-01
2.227987014828717027e-01
2.321024456615953246e-01
2.406669912985715531e-01
2.485066183291033126e-01
2.556373636402655136e-01
2.620770580227494428e-01
2.678453382367029234e-01
2.729636324751406051e-01
2.774551179761085007e-01
2.813446503537271326e-01
2.846586648750805693e-01
2.874250503649523614e-01
2.896729971870748432e-01
2.914328212598877865e-01
2.927357664893953659e-01
2.936137886034762556e-01
2.940993237071848343e-01
2.942250451213064832e-01
2.940236123607908869e-01
2.935274163295370498e-01
2.927683247025153479e-01
2.917774317483615709e-01
2.905848164589297511e-01
2.892193129438280219e-01
2.877082965349720967e-01
2.860774891828971600e-01
2.843507868514904002e-01
2.825501116501387688e-01
2.806952907505934625e-01
2.788039637209502319e-01
2.768915193983337852e-01
2.749710629514913185e-01
2.730534131815857690e-01
2.711471296189377767e-01
2.692585685500737958e-01
2.673919665467042739e-01
2.655495496415103962e-01
2.637316658436220096e-01
2.619369385238782266e-01
2.601624376885821044e-01
2.584038660411397403e-01
2.566557564900759369e-01
2.549116776820306018e-01
2.531644439829751070e-01
2.514063265576172435e-01
2.496292620526490980e-01
2.478250555770253882e-01
2.459855749695460114e-01
2.441029334150953689e-01
2.421696578537629041e-01
2.401788409369298438e-01
2.381242746240422592e-01
2.360005638963375008e-01
2.338032194690954357e-01
2.315287287875996136e-01
2.291746050062530848e-01
2.267394139764513095e-01
2.242227798558664442e-01
2.216253700430866058e-01
2.189488607633937878e-01
2.161958847868590550e-01
2.133699631254405704e-01
2.104754224947417707e-01
2.075173010245986716e-01
2.045012444146195596e-01
2.014333951105370113e-01
1.983202767662871346e-01
1.951686767728713079e-01
1.919855289985152036e-01
1.887777992837219865e-01
1.855523758106758792e-01
1.823159663751702519e-01
1.790750043343634912e-01
1.758355648992634968e-01
1.726032930211208183e-01
1.693833437747530035e-01
1.661803362279467566e-01
1.629983210665124360e-01
1.598407620976947385e-01
1.567105315838612511e-01
1.536099187965186963e-01
1.505406512627548155e-01
1.475039276286924383e-01
1.445004610330191674e-01
1.415305315916574325e-01
1.385940465094251950e-01
1.356906061314000211e-01
1.328195742840769800e-01
1.299801510311865138e-01
1.271714461676176910e-01
1.243925516460526043e-01
1.216426112151379330e-01
1.189208856550301729e-01
1.162268122127471659e-01
1.135600568182137116e-01
1.109205579826468696e-01
1.083085615091948090e-01
1.057246450514910951e-01
1.031697322831322122e-01
1.006450961801899774e-01
9.815235154377184579e-02
9.569343690952555881e-02
9.327058614523625613e-02
9.088629056059506495e-02
8.854325222976598686e-02
8.624432955322372529e-02
8.399247636437563724e-02
8.179067573184235773e-02
7.964186990671165423e-02
7.754888796281575458e-02
7.551437264635919855e-02
7.354070798372253082e-02
7.162994917227083480e-02
6.978375633927315358e-02
6.800333352502660467e-02
6.628937428846182200e-02
6.464201506380889972e-02
6.306079744661476083e-02
6.154464024880765272e-02
6.009182205530198828e-02
5.869997472863477950e-02
5.736608839853082203e-02
5.608652792113451302e-02
5.485706070660642530e-02
5.367289564416389408e-02
5.252873263870003195e-02
5.141882208023285106e-02
5.033703336822996366e-02
4.927693145571841737e-02
4.823186029015331250e-02
4.719503168879298632e-02
4.615961848849940707e-02
4.511885032253666605e-02
4.406611058200895353e-02
4.299503294795654906e-02
4.189959592549698936e-02
4.077421397615547949e-02
3.961382366003413785e-02
3.841396337865553290e-02
3.717084549598610732e-02
3.588141957889118272e-02
3.454342577809543791e-02
3.315543737205001174e-02
3.171689184549937590e-02
3.022810985619811541e-02
2.869030178073092227e-02
2.710556167325213484e-02
2.547684865403561719e-02
2.380795591638641337e-02
2.210346768922457489e-02
2.036870484172124615e-02
1.860965984276713794e-02
1.683292193517123975e-02
1.504559365822415000e-02
1.325519972931726333e-02
1.146958977514205349e-02
9.696836169505730976e-03
7.945128376768126333e-03
6.222665306064619449e-03
4.537547299701120973e-03
2.897669160577953130e-03
1.310615712011681602e-03
-2.164386135821320196e-04
-1.676824724806834713e-03
-3.064467187422723147e-03
-4.373964537228155341e-03
-5.600660593041663880e-03
-6.740705696315570788e-03
-7.791107116635698736e-03
-8.749767896462059408e-03
-9.615513757987336971e-03
-1.038810748691931622e-02
-1.106825082506737896e-02
-1.165757374027956775e-02
-1.215861121578462947e-02
-1.257476801205322653e-02
-1.291027183430328018e-02
-1.317011546908250161e-02
-1.335998881442213189e-02
-1.348620169114289613e-02
-1.355559838581381696e-02
-1.357546526089925543e-02
-1.355343256298437681e-02
-1.349737174743471414e-02
-1.341528968081209285e-02
-1.331522124646041146e-02
-1.320512168507890181e-02
-1.309276012899842322e-02
-1.298561576641998026e-02
-1.289077802204917529e-02
-1.281485202847215329e-02
-1.276387065463132145e-02
-1.274321428267293291e-02
-1.275753941173412599e-02
-1.281071692387184338e-02
-1.290578097580729645e-02
-1.304488904790948416e-02
-1.322929373503062452e-02
-1.345932666348709922e-02
-1.373439474428757127e-02
-1.405298875744824018e-02
-1.441270414712068904e-02
-1.481027380436878392e-02
-1.524161236741402962e-02
-1.570187142905144634e-02
-1.618550491026485294e-02
-1.668634375815137780e-02
-1.719767889152458776e-02
-1.771235137778909979e-02
-1.822284855757657154e-02
-1.872140485145033437e-02
-1.920010589481891197e-02
-1.965099459502144333e-02
-2.006617769506515575e-02
-2.043793140338485970e-02
-2.075880455024152818e-02
-2.102171813068465928e-02
-2.122005964399389932e-02
-2.134777112541762570e-02
-2.139942954517026416e-02
-2.137031853674575474e-02
-2.125649057168744333e-02
-2.105481861448337336e-02
-2.076303668119907145e-02
-2.037976869292369014e-02
-1.990454524366389727e-02
-1.933780822161334026e-02
-1.868090303782015543e-02
-1.793605878932150177e-02
-1.710635658032670300e-02
-1.619568647816683332e-02
-1.520869381839052605e-02
-1.415071561274896389e-02
-1.302770802442458457e-02
-1.184616594938363299e-02
-1.061303593487502271e-02
-9.335623634443779989e-03
-8.021497228307861160e-03
-6.678388269870989651e-03
-5.314091297884234594e-03
-3.936363744813082752e-03
-2.552827623471593931e-03
-1.170874452590084684e-03
2.024253233237961768e-04
1.560406991601892687e-03
2.896889068291749574e-03
4.206242561938621297e-03
5.483451030687516194e-03
6.724160609573819232e-03
7.924719222030546933e-03
9.082204529533278309e-03
1.019444032244822169e-02
1.126000103771889263e-02
1.227820457858107284e-02
1.324909354472828503e-02
1.417340533309364124e-02
1.505253163395424247e-02
1.588846800495019931e-02
1.668375453126444072e-02
1.744140848554358650e-02
1.816485020570386341e-02
1.885782346330518167e-02
1.952431159875563094e-02
2.016845090707748700e-02
2.079444268126255657e-02
2.140646543830253268e-02
2.200858876876432557e-02
2.260469028962586516e-02
2.319837700011639567e-02
2.379291246921601266e-02
2.439115097980541769e-02
2.499547977914590852e-02
2.560777037153360094e-02
2.622933968333162127e-02
2.686092171696786990e-02
2.750265021383442587e-02
2.815405251357596533e-02
2.881405478226142444e-02
2.948099848112812824e-02
3.015266776081611602e-02
3.082632735730173740e-02
3.149877026030391963e-02
3.216637439358634859e-02
3.282516725938144919e-02
3.347089748065142090e-02
3.409911202640497629e-02
3.470523771269887203e-02
3.528466557446888197e-02
3.583283668202096039e-02
3.634532789791735524e-02
3.681793601176749225e-02
3.724675892942607563e-02
3.762827228221440196e-02
3.795940025636748705e-02
3.823757932844345370e-02
3.846081373945664517e-02
3.862772179877432127e-02
3.873757199522782219e-02
3.879030835216196182e-02
3.878656457300601323e-02
3.872766646748068003e-02
3.861562262728061856e-02
3.845310355308498990e-02
3.824340939284721214e-02
3.799042674211368376e-02
3.769857517926172852e-02
3.737274444731728679e-02
3.701822313420485844e-02
3.664062005561998653e-02
3.624577963405720832e-02
3.583969257035275746e-02
3.542840327044698839e-02
3.501791554897011605e-02
3.461409813873479735e-02
3.422259159100051601e-02
3.384871804397626693e-02
3.349739523113198086e-02
3.317305644690708016e-02
3.287957744502582880e-02
3.262021168169228907e-02
3.239753496817526779e-02
3.221340027093032993e-02
3.206890366846355811e-02
3.196436179759266222e-02
3.189930129296584399e-02
3.187246042108006494e-02
3.188180279217238400e-02
3.192454303581390013e-02
3.199718390336288298e-02
3.209556440570048019e-02
3.221491806652242856e-02
3.234994038786744019e-02
3.249486438219073570e-02
3.264354315241697196e-02
3.278953802476303192e-02
3.292621084276509819e-02
3.304681908033965665e-02
3.314461216197021193e-02
3.321292750425386409e-02
3.324528471264043966e-02
3.323547653482790409e-02
3.317765518640585637e-02
3.306641267200383094e-02
3.289685378861210291e-02
3.266466087891319731e-02
3.236614926156364258e-02
3.199831259516659754e-02
3.155885753631148399e-02
3.104622719529028310e-02
3.045961318964511208e-02
2.979895611321847770e-02
2.906493464885060579e-02
2.825894351495927131e-02
2.738306069647040639e-02
2.644000469140790274e-02
2.543308250409465066e-02
2.436612932241826596e-02
2.324344097065373163e-02
2.206970019674161718e-02
2.084989820232846860e-02
1.958925268795316810e-02
1.829312367753791607e-02
1.696692860708972836e-02
1.561605804752253836e-02
1.424579339599408266e-02
1.286122792446089784e-02
1.146719232800466788e-02
1.006818600680308741e-02
8.668315063617263588e-03
7.271238083392480601e-03
5.880120295751720821e-03
4.497596995297744801e-03
3.125746538510371271e-03
1.766073332403369969e-03
4.195009776507033997e-04
-9.136244126858046165e-04
-2.233520899535331762e-03
-3.540947775795001608e-03
-4.837173385809911963e-03
-6.123934383209961307e-03
-7.403387104749929205e-03
-8.678051997248010727e-03
-9.950752005313265661e-03
-1.122454604901467271e-02
-1.250265862262148024e-02
-1.378840675701248179e-02
-1.508512548416102508e-02
-1.639609308371288432e-02
-1.772445724041156467e-02
-1.907316334338107766e-02
-2.044488598807244623e-02
-2.184196478854121340e-02
-2.326634552532150235e-02
-2.471952740054025530e-02
-2.620251735270268112e-02
-2.771579192951475687e-02
-2.925926734393164211e-02
-3.083227815594045268e-02
-3.243356483996767681e-02
-3.406127033155829931e-02
-3.571294559031576443e-02
-3.738556409389640067e-02
-3.907554493797719963e-02
-4.077878413828436160e-02
-4.249069372812733225e-02
-4.420624788220022666e-02
-4.592003551474500844e-02
-4.762631851360001750e-02
-4.931909468785656420e-02
-5.099216451884996948e-02
-5.263920089397491897e-02
-5.425382067677625431e-02
-5.582965715006343865e-02
-5.736043238255235377e-02
-5.884002847598032715e-02
-6.026255680425356837e-02
-6.162242432871607722e-02
-6.291439613037065615e-02
-6.413365333701569193e-02
-6.527584580359072075e-02
-6.633713890703975269e-02
-6.731425381210939807e-02
-6.820450097938161871e-02
-6.900580643200469877e-02
-6.971673059618871404e-02
-7.033647950332168330e-02
-7.086490843972774456e-02
-7.130251808056006779e-02
-7.165044321549710049e-02
-7.191043441047954843e-02
-7.208483276711558085e-02
-7.217653842385179930e-02
-7.218897319185742234e-02
-7.212603784487030267e-02
-7.199206468751780108e-02
-7.179176611474658021e-02
-7.153017974271090595e-02
-7.121261088370312020e-02
-7.084457306741620553e-02
-7.043172741201386700e-02
-6.997982145429655632e-02
-6.949462827622386596e-02
-6.898188654519965546e-02
-6.844724215215813867e-02
-6.789619209766163677e-02
-6.733403121427683491e-02
-6.676580228064321609e-02
-6.619624998720818887e-02
-6.562977925018102787e-02
-6.507041817276024154e-02
-6.452178607040275071e-02
-6.398706671627414633e-02
-6.346898709377868375e-02
-6.296980165874434265e-02
-6.249128226915436762e-02
-6.203471373048130566e-02
-6.160089484636357277e-02
-6.119014502742534112e-02
-6.080231606298027586e-02
-6.043680891153251078e-02
-6.009259524582109824e-02
-5.976824334847982007e-02
-5.946194804093973829e-02
-5.917156423949557903e-02
-5.889464362857592394e-02
-5.862847409404502858e-02
-5.837012125831543552e-02
-5.811647178593775526e-02
-5.786427787000677364e-02
-5.761020228596064330e-02
-5.735086358900794157e-02
-5.708288094774696675e-02
-5.680291804857686561e-02
-5.650772555365946026e-02
-5.619418173227753305e-02
-5.585933069066303935e-02
-5.550041787295591222e-02
-5.511492243380905487e-02
-5.470058610055842513e-02
-5.425543823476522420e-02
-5.377781690094253497e-02
-5.326638553675866472e-02
-5.272014526749471686e-02
-5.213844267095252977e-02
-5.152097294628761592e-02
-5.086777845417923827e-02
-5.017924270334746251e-02
-4.945607989845356850e-02
-4.869932025391181946e-02
-4.791029123529204348e-02
-4.709059502303510059e-02
-4.624208248971056062e-02
-4.536682408486363005e-02
-4.446707802873051812e-02
-4.354525619682388105e-02
-4.260388828224008495e-02
-4.164558461877259504e-02
-4.067299820058586923e-02
-3.968878651445673783e-02
-3.869557367900735428e-02
-3.769591332993578459e-02
-3.669225290268913336e-02
-3.568689973883811678e-02
-3.468198962442613914e-02
-3.367945810174435145e-02
-3.268101501884974197e-02
-3.168812273578987954e-02
-3.070197829320839636e-02
-2.972349985171140324e-02
-2.875331761835512104e-02
-2.779176938429419458e-02
-2.683890080046411747e-02
-2.589447050018066007e-02
-2.495795986260459717e-02
-2.402858744782077408e-02
-2.310532793012455219e-02
-2.218693515666965779e-02
-2.127196914086022794e-02
-2.035882658785773125e-02
-1.944577453161755801e-02
-1.853098661252883250e-02
-1.761258142620202721e-02
-1.668866242148719578e-02
-1.575735879008469120e-02
-1.481686667368373005e-02
-1.386549012029377609e-02
-1.290168111892140736e-02
-1.192407810658382451e-02
-1.093154243690667125e-02
-9.923192087256069507e-03
-8.898432131862570732e-03
-7.856981487620789961e-03
-6.798895402963258359e-03
-5.724583388650027194e-03
-4.634822220462092406e-03
-3.530763716416063323e-03
-2.413937123822204340e-03
-1.286245984112480622e-03
-1.499594847660089020e-04
9.923017429062214699e-04
2.137585131240436927e-03
3.282630900792015121e-03
4.423901654261665727e-03
5.557616556226882727e-03
6.679789573483547321e-03
7.786271397799821720e-03
8.872794396258102539e-03
9.935020117053695865e-03
1.096858866033884397e-02
1.196916922366465796e-02
1.293251130870861319e-02
1.385449564413933875e-02
1.473118432985095691e-02
1.555886948857753901e-02
1.633411972235544046e-02
1.705382374427204945e-02
1.771523064879079040e-02
1.831598620078768447e-02
1.885416468357966474e-02
1.932829591282897094e-02
1.973738696811332127e-02
2.008093838773902448e-02
2.035895466122729022e-02
2.057194880807332316e-02
2.072094098236978987e-02
2.080745112585631260e-02
2.083348588007497351e-02
2.080151976253869286e-02
2.071447096488625988e-02
2.057567205158700174e-02
2.038883595155787862e-02
2.015801771151220362e-02
1.988757243052994075e-02
1.958211000976523355e-02
1.924644721512163564e-02
1.888555765740603312e-02
1.850452034984793881e-02
1.810846745159269341e-02
1.770253183367282226e-02
1.729179502916298669e-02
1.688123629927631639e-02
1.647568331711129347e-02
1.607976497293221729e-02
1.569786689638199423e-02
1.533409022455803003e-02
1.499221393485691313e-02
1.467566114085078199e-02
1.438746968491006265e-02
1.413026735256664272e-02
1.390625173842814644e-02
1.371717512921699980e-02
1.356433432688671642e-02
1.344856547858206200e-02
1.337024386930456971e-02
1.332928858437845698e-02
1.332517200706329931e-02
1.335693377203383408e-02
1.342319905260891573e-02
1.352220093664509987e-02
1.365180645169995419e-02
1.380954607300997027e-02
1.399264622319903485e-02
1.419806435868589851e-02
1.442252636079896164e-02
1.466256573727381211e-02
1.491456419529894883e-02
1.517479321085370668e-02
1.543945625503605028e-02
1.570473104671074593e-02
1.596681163557344893e-02
1.622194986178861209e-02
1.646649573392161905e-02
1.669693650666301266e-02
1.690993396870089926e-02
1.710235979260891007e-02
1.727132850470148445e-02
1.741422784090082901e-02
1.752874624957525412e-02
1.761289729841574933e-02
1.766504082180737206e-02
1.768390058601428116e-02
1.766857833583912810e-02
1.761856406559625388e-02
1.753374243971715304e-02
1.741439524919310977e-02
1.726119996062597944e-02
1.707522418278055107e-02
1.685791613474634659e-02
1.661109125037047926e-02
1.633691474953162873e-02
1.603788048771127156e-02
1.571678610731621142e-02
1.537670470007928419e-02
1.502095311222204424e-02
1.465305715241323366e-02
1.427671398511941650e-02
1.389575198180885950e-02
1.351408834654574051e-02
1.313568493472459971e-02
1.276450260625162578e-02
1.240445454817719513e-02
1.205935901324818767e-02
1.173289203218460391e-02
1.142854046727951288e-02
1.114955607179435315e-02
1.089891094795722611e-02
1.067925503226095120e-02
1.049287617720994457e-02
1.034166326635328759e-02
1.022707300982824384e-02
1.015010086805413249e-02
1.011125660070662582e-02
1.011054489833032762e-02
1.014745150311685551e-02
1.022093521739833068e-02
1.032942605700245056e-02
1.047082980871964081e-02
1.064253931054209845e-02
1.084145229364614008e-02
1.106399604803492455e-02
1.130615873487688869e-02
1.156352716667314456e-02
1.183133084482206922e-02
1.210449201270574759e-02
1.237768117297159513e-02
1.264537759732251888e-02
1.290193417138961463e-02
1.314164604880616039e-02
1.335882209194996610e-02
1.354785858321471727e-02
1.370331403965055310e-02
1.381998430782895373e-02
1.389297703940700797e-02
1.391778444548971184e-02
1.389035325071871253e-02
1.380715097354763034e-02
1.366522755337778831e-02
1.346227119859008323e-02
1.319665763882105040e-02
1.286749193012893568e-02
1.247464198199193554e-02
1.201876323100644316e-02
1.150131371418770289e-02
1.092455919822033633e-02
1.029156788304162046e-02
9.606194606990282880e-03
8.873054407227192950e-03
8.097485520690542518e-03
7.285502008608613078e-03
6.443736492564667261e-03
5.579373344395926158e-03
4.700073152033142944e-03
3.813889193472209602e-03
2.929176928176738075e-03
2.054497448172345770e-03
1.198516185221342551e-03
3.698980758781519754e-04
-4.227995457918364377e-04
-1.171234676729958259e-03
-1.867387833610761449e-03
-2.503667055329782641e-03
-3.073009351722001594e-03
-3.568977108953915421e-03
-3.985847944727404640e-03
-4.318696887431319742e-03
-4.563469466739301407e-03
-4.717044553754112107e-03
-4.777286074486964719e-03
-4.743082544809797130e-03
-4.614373794869859775e-03
-4.392164238048352348e-03
-4.078522472988618114e-03
-3.676566831190170546e-03
-3.190436954189361258e-03
-2.625251683565325324e-03
-1.987053553731871897e-03
-1.282740608225342582e-03
-5.199861604109262464e-04
2.928523020890938327e-04
1.146834150979901545e-03
2.032545157149233915e-03
2.940214182732705725e-03
3.859835373574206120e-03
4.781294294849644869e-03
5.694496230170192214e-03
6.589494962591013402e-03
7.456620135296724954e-03
8.286601449250155516e-03
9.070687950475289640e-03
9.800760685235694950e-03
1.046943702558427239e-02
1.107016534558219988e-02
1.159730843681949786e-02
1.204621453916715490e-02
1.241327488468501640e-02
1.269596692500927007e-02
1.289288253178440084e-02
1.300374066211681771e-02
1.302938434514419944e-02
1.297176191841976391e-02
1.283389273493316420e-02
1.261981782591236299e-02
1.233453612692998920e-02
1.198392722779581011e-02
1.157466165375476558e-02
1.111410001586786780e-02
1.061018244836592177e-02
1.007130987940332845e-02
9.506218892104583221e-03
8.923851992199565569e-03
8.333225252328334970e-03
7.743295113268298252e-03
7.162826331387012191e-03
6.600263092265037934e-03
6.063605093629855294e-03
5.560290526731635589e-03
5.097087567127731207e-03
4.679995987736874224e-03
4.314160486377918019e-03
4.003796877781505906e-03
3.752132250928575264e-03
3.561360057061217256e-03
3.432610689826414308e-03
3.365938100338201032e-03
3.360322468785590863e-03
3.413689070881102770e-03
3.522942968301249339e-03
3.684019025089469747e-03
3.891946368914081869e-03
4.140926455996399996e-03
4.424423512771373350e-03
4.735266060172458290e-03
5.065757854025762161e-03
5.407796692603225944e-03
5.752999179837215392e-03
6.092829694894648027e-03
6.418731575617203644e-03
6.722258591809013306e-03
6.995204573345814060e-03
7.229729429974933973e-03
7.418479669568449689e-03
7.554701454827048891e-03
7.632344731008332099e-03
7.646156719520846856e-03
7.591763455331058084e-03
7.465738163077825958e-03
7.265655465173690569e-03
6.990130694693435370e-03
6.638843677906710976e-03
6.212546708843673209e-03
5.713056668690654274e-03
5.143231388542683982e-03
4.506930672644788097e-03
3.808962663487308001e-03
3.055016309691489709e-03
2.251581076069243247e-03
1.405855095260869414e-03
5.256431633846274506e-04
-3.807538314592409266e-04
-1.304656379812868614e-03
-2.237128880944545730e-03
-3.169105482901126390e-03
-4.091517277798956825e-03
-4.995418960388730081e-03
-5.872113072903310110e-03
-6.713269949006793295e-03
-7.511041673447357327e-03
-8.258168337880769996e-03
-8.948075114233769792e-03
-9.574958672405986526e-03
-1.013386179002321100e-02
-1.062073507160523657e-02
-1.103248505261745886e-02
-1.136700796175311827e-02
-1.162320879709003926e-02
-1.180100551113328136e-02
-1.190131848790699706e-02
-1.192604542150713445e-02
-1.187802219663437048e-02
-1.176097053182651245e-02
-1.157943320668522805e-02
-1.133869800295485460e-02
-1.104471165148957455e-02
-1.070398513704427616e-02
-1.032349185827952098e-02
-9.910560356448166672e-03
-9.472763258342762477e-03
-9.017804025422977016e-03
-8.553403490160713454e-03
-8.087187719715397544e-03
-7.626579003605554741e-03
-7.178691603101708396e-03
-6.750233721043133635e-03
-6.347417148068229716e-03
-5.975875890753852906e-03
-5.640594924424569521e-03
-5.345850057192852965e-03
-5.095159657015126478e-03
-4.891248852783955381e-03
-4.736026555341672772e-03
-4.630575548221506875e-03
-4.575155600535059201e-03
-4.569219358066265238e-03
-4.611440545544505040e-03
-4.699754010853329951e-03
-4.831406702106377272e-03
-5.003018559531219669e-03
-5.210652345739127944e-03
-5.449891107012271550e-03
-5.715922009609741838e-03
-6.003624967062964370e-03
-6.307664651275370592e-03
-6.622584457652898153e-03
-6.942900678544269497e-03
-7.263195576851895312e-03
-7.578207669531431163e-03
-7.882917935316898286e-03
-8.172630561221002135e-03
-8.443046936509303324e-03
-8.690331863168542642e-03
-8.911170909422129124e-03
-9.102818144059904998e-03
-9.263133546393232526e-03
-9.390609640027877333e-03
-9.484387012513724804e-03
-9.544258603754931375e-03
-9.570662873947193006e-03
-9.564665993416279766e-03
-9.527933627624433910e-03
-9.462692694331241786e-03
-9.371684055740230057e-03
-9.258106856582327959e-03
-9.125555596130456235e-03
-8.977951070498008113e-03
-8.819466379186645388e-03
-8.654449261253032918e-03
-8.487342112663673679e-03
-8.322600980086016995e-03
-8.164614982175551552e-03
-8.017627433596335312e-03
-7.885659959792228058e-03
-7.772440907020298530e-03
-7.681339095267305031e-03
-7.615304092152530221e-03
-7.576813870017328097e-03
-7.567830678346307294e-03
-7.589765821811677790e-03
-7.643453813722620241e-03
-7.729136304215459413e-03
-7.846455954054131279e-03
-7.994460375031165952e-03
-8.171615801525200506e-03
-8.375830442457585234e-03
-8.604486939639952384e-03
-8.854483322173671220e-03
-9.122281750373651549e-03
-9.403964218745682058e-03
-9.695294312683573612e-03
-9.991783855153752239e-03
-1.028876334954336239e-02
-1.058145514291158884e-02
-1.086504795619498871e-02
-1.113477168002443597e-02
-1.138597119382601594e-02
-1.161417793254896497e-02
-1.181517816832551929e-02
-1.198507689452655255e-02
-1.212035626100786516e-02
-1.221792770974139929e-02
-1.227517696514251327e-02
-1.229000130308553762e-02
-1.226083840919543408e-02
-1.218668656720230288e-02
-1.206711583203121108e-02
-1.190227013270661084e-02
-1.169286038617503923e-02
-1.144014871300658501e-02
-1.114592406735029004e-02
-1.081246992664485103e-02
-1.044252449531183138e-02
-1.003923415843883081e-02
-9.606101106405532525e-03
-9.146925800898254161e-03
-8.665745536276638419e-03
-8.166769987745021997e-03
-7.654314841248657277e-03
-7.132734670736553054e-03
-6.606356112283241593e-03
-6.079412411959154473e-03
-5.555980474368709537e-03
-5.039921410950116976e-03
-4.534825546628893332e-03
-4.043962690427677607e-03
-3.570238444014464836e-03
-3.116157333177936237e-03
-2.683793179519941736e-03
-2.274767193510185762e-03
-1.890234072535868339e-03
-1.530876334223948889e-03
-1.196906812611783387e-03
-8.880792222676827264e-04
-6.037065075618220766e-04
-3.426867627281027142e-04
-1.035360837726695394e-04
1.155723089772589366e-04
3.167632416031367646e-04
5.024099887930821287e-04
6.750806665948340130e-04
8.374816376276403036e-04
9.923989789293609885e-04
1.142638895888516658e-03
1.290968211209450297e-03
1.440055935950748959e-03
1.592416884490670086e-03
1.750358440522857594e-03
1.915931228059317799e-03
2.090884677517328583e-03
2.276628147406859880e-03
2.474198360341237253e-03
2.684233680855303839e-03
2.906955706598336828e-03
3.142158478062578170e-03
3.389205548497121155e-03
3.647035042511652912e-03
3.914172566568943287e-03
4.188751834934214754e-03
4.468542596263761282e-03
4.750985576397289377e-03
5.033233788169006427e-03
5.312199630158907782e-03
5.584606906592840501e-03
5.847047077459860756e-03
6.096038648434393657e-03
6.328088874857905680e-03
6.539756731686782211e-03
6.727716101518813226e-03
6.888818110348130484e-03
7.020151594541531107e-03
7.119100741172519793e-03
7.183398824192240191e-03
7.211177211547420245e-03
7.201008664164051942e-03
7.151944281519692463e-03
7.063543365467896649e-03
6.935895625837748026e-03
6.769635342543737708e-03
6.565947110293800931e-03
6.326562871696572547e-03
6.053750392307815677e-03
5.750293057359133139e-03
5.419461250553790806e-03
5.064975693715161910e-03
4.690963151150641733e-03
4.301905139202180997e-03
3.902580215782501787e-03
3.498000835138017576e-03
3.093345516634837724e-03
2.693887317399128525e-03
2.304919656397665280e-03
1.931680640051394770e-03
1.579276873425956677e-03
1.252607985240163958e-03
9.562930094275842426e-04
6.945996546777711503e-04
4.713776716571050252e-04
2.899971956766893245e-04
1.532931124442665012e-04
6.351636297338217872e-05
2.229295453501348962e-05
3.059137130889671437e-05
8.869889602137708668e-05
1.962073858549489040e-04
3.520087452847210445e-04
5.543003027360612379e-04
8.006001069342856980e-04
1.087771985672703143e-03
1.412060222754324889e-03
1.769133362949537385e-03
2.154136666938166224e-03
2.561752526829114661e-03
2.986268062600144942e-03
3.421649050385308036e-03
3.861619149891135690e-03
4.299743405145990509e-03
4.729514859603998859e-03
5.144443136029457943e-03
5.538143698404118971e-03
5.904426598063935994e-03
6.237383466703235943e-03
6.531471452297619128e-03
6.781593092754175690e-03
6.983170738908008046e-03
7.132214592387842340e-03
7.225383421988690671e-03
7.260037027633966730e-03
7.234279605361474200e-03
7.146993435369129559e-03
6.997862319584578078e-03
6.787384457511673984e-03
6.516874414045166833e-03
6.188454265230445596e-03
5.805033789835950357e-03
5.370280130372936250e-03
4.888577132390103941e-03
4.364974933625810974e-03
3.805130471305258159e-03
3.215239689354118871e-03
2.601962311239681361e-03
1.972340142200139194e-03
1.333710150328852335e-03
6.936133418496847778e-04
5.970067554523468203e-05
-5.603626095972281777e-04
-1.158993010324058104e-03
-1.728783918131942881e-03
-2.262598462917057764e-03
-2.753658938921205515e-03
-3.195631516599631121e-03
-3.582705075586514742e-03
-3.909663240383526306e-03
-4.171948508964216235e-03
-4.365717697614481668e-03
-4.487887967382776615e-03
-4.536172907512843293e-03
-4.509108152570468799e-03
-4.406066218464633685e-03
-4.227260463061840653e-03
-3.973738200225968714e-03
-3.647363100484745345e-03
-3.250787119282716724e-03
-2.787412583857834004e-03
-2.261344914549314952e-03
-1.677336652620702463e-03
-1.040723794770705970e-03
-3.573553121647373202e-04
3.664831765211248871e-04
1.124150376632953750e-03
1.908733773500962197e-03
2.713136372126347205e-03
3.530164505217788309e-03
4.352615454476052928e-03
5.173363742422693902e-03
5.985444723292773252e-03
6.782134503830371947e-03
7.557025076221233519e-03
8.304093707117038772e-03
9.017765593300468285e-03
9.692969120836716565e-03
1.032518302666023645e-02
1.091047496681974739e-02
1.144553106928886295e-02
1.192767622592755782e-02
1.235488506508991557e-02
1.272578354150938861e-02
1.303964143400363970e-02
1.329635600459344764e-02
1.349642734700919056e-02
1.364092585792278482e-02
1.373145260565256098e-02
1.377009342367551716e-02
1.375936747053823316e-02
1.370217123348630925e-02
1.360171894072259406e-02
1.346148047721892893e-02
1.328511779370726217e-02
1.307642086528021733e-02
1.283924418410875047e-02
1.257744480630406184e-02
1.229482290091000324e-02
1.199506574768002126e-02
1.168169590619826288e-02
1.135802423328272082e-02
1.102710847024056945e-02
1.069171788306471152e-02
1.035430426522343517e-02
1.001697964758105873e-02
9.681500863115291913e-03
9.349260928850954347e-03
9.021287172941164223e-03
8.698245914463350811e-03
8.380453300252964366e-03
8.067891974190310664e-03
7.760232900751164349e-03
7.456861780177328515e-03
7.156909473636745636e-03
6.859285584042848494e-03
6.562714461648603767e-03
6.265772811966991221e-03
5.966928026214401125e-03
5.664576626153099148e-03
5.357081855870611878e-03
5.042809681580400286e-03
4.720162599432854884e-03
4.387610503634435492e-03
4.043718164872946857e-03
3.687168765375513618e-03
3.316783148984105666e-03
2.931534496490236907e-03
2.530558252391778076e-03
2.113157241562301902e-03
1.678802017916700964e-03
1.227126642549174933e-03
7.579200465417578955e-04
2.711134166110757337e-04
-2.332360781899397398e-04
-7.549645460279341344e-04
-1.293823173108416642e-03
-1.849501854841596521e-03
-2.421654058105027381e-03
-3.009922142890415590e-03
-3.613962421233212884e-03
-4.233469387063480346e-03
-4.868198296411740435e-03
-5.517985444580604526e-03
-6.182765614375634357e-03
-6.862586185477558172e-03
-7.557617287222017852e-03
-8.268157771973051393e-03
-8.994636646903458183e-03
-9.737609767278913517e-03
-1.049775181366686440e-02
-1.127584339795590328e-02
-1.207275362014629920e-02
-1.288941823604490555e-02
-1.372681374812604813e-02
-1.458592793745326112e-02
-1.546772731668483863e-02
-1.637312214759067269e-02
-1.730292967230828705e-02
-1.825783633310185811e-02
-1.923835975357053585e-02
-2.024481122514238188e-02
-2.127725960479238954e-02
-2.233549728166171408e-02
-2.341900917051672332e-02
-2.452694530651414878e-02
-2.565809780386418479e-02
-2.681088277011184351e-02
-2.798332778321834663e-02
-2.917306519147136457e-02
-3.037733170663505650e-02
-3.159297450502505933e-02
-3.281646387526031272e-02
-3.404391236327624498e-02
-3.527110034836337948e-02
-3.649350772272286214e-02
-3.770635137761521594e-02
-3.890462784709003419e-02
-4.008316055018478624e-02
-4.123665099900060416e-02
-4.235973313550868424e-02
-4.344702994960659287e-02
-4.449321151501092753e-02
-4.549305337308667818e-02
-4.644149447725943319e-02
-4.733369364267081547e-02
-4.816508359220540020e-02
-4.893142165938057370e-02
-4.962883636761807743e-02
-5.025386905613285493e-02
-5.080350976852416461e-02
-5.127522703514558050e-02
-5.166699087968628507e-02
-5.197728866963497590e-02
-5.220513371205431907e-02
-5.235006640613627110e-02
-5.241214791121932143e-02
-5.239194661766401195e-02
-5.229051772883992755e-02
-5.210937619819002581e-02
-5.185046372092815686e-02
-5.151611042541405505e-02
-5.110899187089457119e-02
-5.063208241307704666e-02
-5.008860552304451874e-02
-4.948198233259296086e-02
-4.881577910413081173e-02
-4.809365472012257919e-02
-4.731930917807111031e-02
-4.649643400515810626e-02
-4.562866546297952852e-02
-4.471954144388403524e-02
-4.377246274543893090e-02
-4.279065935325254005e-02
-4.177716236451826937e-02
-4.073478189188105281e-02
-3.966609135731866131e-02
-3.857341821668373166e-02
-3.745884110068485595e-02
-3.632419353042166954e-02
-3.517107363017619309e-02
-3.400085963266675365e-02
-3.281473067004053029e-02
-3.161369227213988581e-02
-3.039860576669462661e-02
-2.917022081926910065e-02
-2.792921032785766408e-02
-2.667620674222317967e-02
-2.541183881836233185e-02
-2.413676792399938389e-02
-2.285172300718970109e-02
-2.155753323030688492e-02
-2.025515745960179692e-02
-1.894571001473306648e-02
-1.763048168066396609e-02
-1.631095565300047859e-02
-1.498881785578197109e-02
-1.366596125055731005e-02
-1.234448402494383625e-02
-1.102668156606794250e-02
-9.715032298767418972e-03
-8.412177574220865151e-03
-7.120896036796568219e-03
-5.844072917681965643e-03
-4.584664819491665946e-03
-3.345660829224898249e-03
-2.130040688061107801e-03
-9.407308960085059707e-04
2.194401287760983457e-04
1.347787126090221844e-03
2.441812058374289579e-03
3.499246295860119083e-03
4.518089933851694197e-03
5.496647256554900059e-03
6.433557586098170335e-03
7.327820700023113774e-03
8.178816181659748219e-03
8.986316216680766480e-03
9.750491432040634190e-03
1.047190951636470940e-02
1.115152649641180244e-02
1.179067092360551287e-02
1.239102099775476681e-02
1.295457510752795124e-02
1.348361635266284372e-02
1.398067179973799118e-02
1.444846711287372208e-02
1.488987763050578748e-02
1.530787684847414315e-02
1.570548340625820688e-02
1.608570778019692213e-02
1.645149980359255845e-02
1.680569810476589473e-02
1.715098276778755440e-02
1.748983216376343366e-02
1.782448507598094131e-02
1.815690895563810969e-02
1.848877509077278408e-02
1.882144138754068829e-02
1.915594320751875385e-02
1.949299258897045292e-02
1.983298601538462103e-02
2.017602051234686569e-02
2.052191804123195198e-02
2.087025759562209301e-02
2.122041438606039887e-02
2.157160527270927941e-02
2.192293952045128863e-02
2.227347379194251006e-02
2.262226999754710088e-02
2.296845476824027274e-02
2.331127911208387762e-02
2.365017676109264916e-02
2.398481983664757511e-02
2.431517021268462739e-02
2.464152531443442387e-02
2.496455704096761652e-02
2.528534248427364434e-02
2.560538553266674192e-02
2.592662838199142825e-02
2.625145229545989070e-02
2.658266707853700062e-02
2.692348917086906379e-02
2.727750820852558461e-02
2.764864228119736506e-02
2.804108248703668371e-02
2.845922748428657972e-02
2.890760907311846692e-02
2.939080989775750066e-02
2.991337481027061748e-02
3.047971741734906495e-02
3.109402362823141322e-02
3.176015406329489588e-02
3.248154728190312535e-02
3.326112585553336193e-02
3.410120741230607960e-02
3.500342250316349629e-02
3.596864135384498368e-02
3.699691128455104977e-02
3.808740650508789932e-02
3.923839169638469737e-02
4.044720078089458770e-02
4.171023174629522740e-02
4.302295836591899653e-02
4.437995919992820254e-02
4.577496396759986319e-02
4.720091710866108209e-02
4.865005803360585718e-02
5.011401710600096870e-02
5.158392615425030914e-02
5.305054214052822709e-02
5.450438210233576886e-02
5.593586732292558927e-02
5.733547458839531596e-02
5.869389199291573378e-02
6.000217683785432493e-02
6.125191286516729755e-02
6.243536417847520004e-02
6.354562331747946879e-02
6.457675063564340123e-02
6.552390265612897946e-02
6.638344693251177486e-02
6.715306147875452214e-02
6.783181683591557598e-02
6.842023918719863929e-02
6.892035333936326336e-02
6.933570471833021276e-02
6.967135990646122767e-02
6.993388567750848106e-02
7.013130678788276340e-02
7.027304331848402419e-02
7.036982875559691375e-02
7.043361019592035699e-02
7.047743269905473729e-02
7.051530976522479843e-02
7.056208261464859410e-02
7.063327084891034280e-02
7.074491726827386584e-02
7.091342988590976226e-02
7.115542422376389120e-02
7.148756883954886232e-02
7.192643700239347015e-02
7.248836729982929827e-02
7.318933585699959055e-02
7.404484236526152896e-02
7.506981202477158721e-02
7.627851487391168472e-02
7.768450383811738302e-02
7.930057212875846195e-02
8.113873035116744847e-02
8.321020295209551054e-02
8.552544319441121590e-02
8.809416554418761369e-02
9.092539345297973030e-02
9.402752045017884197e-02
9.740838165891937961e-02
1.010753327039940475e-01
1.050353325793351028e-01
1.092950266377098190e-01
1.138608257909757004e-01
1.187389779083584951e-01
1.239356271817033811e-01
1.294568574482213852e-01
1.353087155740066716e-01
1.414972110919839043e-01
1.480282888753987058e-01
1.549077717044840541e-01
1.621412704702365482e-01
1.697340600525617249e-01
1.776909196109296152e-01
1.860159368638817368e-01
1.947122765003900802e-01
2.037819139413038771e-01
2.132253361959970395e-01
2.230412126188668631e-01
2.332260390582513720e-01
2.437737597435371273e-01
2.546753721305476947e-01
2.659185204822101523e-01
2.774870847300058840e-01
2.893607716435445676e-01
3.015147158651509951e-01
3.139190987857415904e-01
3.265387934347100396e-01
3.393330435263372524e-01
3.522551851703820680e-01
3.652524191326276259e-01
3.782656416141787492e-01
3.912293408873011580e-01
4.040715665107801891e-01
4.167139774001462071e-01
4.290719737413384860e-01
4.410549170945055053e-01
4.525664419155329132e-01
4.635048604049421539e-01
4.737636613785127793e-01
4.832321026711502432e-01
4.917958950563577902e-01
4.993379742482515482e-01
5.057393563232345235e-01
5.108800703735767446e-01
5.146401609652303533e-01
5.169007516313438577e-01
5.175451594087181473e-01
5.164600493869765385e-01
5.135366172737803048e-01
5.086717871158049631e-01
5.017694107473456011e-01
4.927414547500434394e-01
4.815091607763763992e-01
4.680041646447851145e-01
4.521695598517923576e-01
4.339608913528962275e-01
4.133470659137647440e-01
3.903111659351571339e-01
3.648511547702203428e-01
3.369804623216028916e-01
3.067284409176640469e-01
2.741406830653295712e-01
2.392791939794380596e-01
2.022224134478510515e-01
1.630650833568538793e-01
1.219179590186160039e-01
7.890736428334696462e-02
3.417459223797694040e-02
-1.212484471759491499e-02
-5.982210995400525505e-02
-1.087360753136684677e-01
-1.586744823944127025e-01
-2.094352216677117795e-01
-2.608077171717040899e-01
-3.125744033104621566e-01
-3.645122788941168035e-01
-4.163945227405048688e-01
-4.679921542018486980e-01
-5.190757215732432206e-01
-5.694170008547388973e-01
-6.187906871683369614e-01
-6.669760613374213776e-01
-7.137586143423241269e-01
-7.589316129792645915e-01
-8.022975906232709953e-01
-8.436697482472181875e-01
-8.828732516748240000e-01
-9.197464124563859977e-01
-9.541417412883860250e-01
-9.859268644298007089e-01
-1.014985295293356682e+00
-1.041217055200510444e+00
-1.064539138987755873e+00
-1.084885823221684253e+00
-1.102208816613476472e+00
-1.116477253899344380e+00
-1.127677536705859129e+00
-1.135813026160159556e+00
-1.140903593996691834e+00
-1.142985040385922746e+00
-1.142108388021508825e+00
-1.138339063409850027e+00
-1.131755977197542062e+00
-1.122450516438493695e+00
-1.110525462277412556e+00
-1.096093847185066972e+00
-1.079277766089956847e+00
-1.060207155819808733e+00
-1.039018557368503126e+00
-1.015853874986359928e+00
-9.908591457813953340e-01
-9.641833328417073190e-01
-9.359771540342638474e-01
-9.063919578386078202e-01
-8.755786563048973958e-01
-8.436867242498032882e-01
-8.108632722766125900e-01
-7.772522001723140006e-01
-7.429934357781118326e-01
-7.082222628308578738e-01
-6.730687401171229212e-01
-6.376572129206570239e-01
-6.021059161366840717e-01
-5.665266674970150795e-01
-5.310246480033540273e-01
-4.956982655904815793e-01
-4.606390970341224800e-01
-4.259319023773344703e-01
-3.916547052867802026e-01
-3.578789322509346449e-01
-3.246696031192086163e-01
-2.920855650995407560e-01
-2.601797623170926665e-01
-2.289995327655383051e-01
-1.985869250073047099e-01
-1.689790268750235303e-01
-1.402082991406702894e-01
-1.123029072604819351e-01
-8.528704512101489832e-02
-5.918124546570367045e-02
-3.400267211725709060e-02
-9.765390145064356889e-03
1.351938901950679867e-02
3.584308999284152586e-02
5.719958458871101520e-02
7.758503245404210769e-02
9.699775081260983423e-02
1.154381124341834208e-01
1.329084702079294245e-01
1.494131059385661597e-01
1.649582005985996691e-01
1.795518226324343269e-01
1.932039307927974903e-01
2.059263874485323664e-01
2.177329783516665507e-01
2.286394345241277437e-01
2.386634523754259662e-01
2.478247078683101789e-01
2.561448609465791781e-01
2.636475468050099580e-01
2.703583508666890789e-01
2.763047648840121773e-01
2.815161219397797621e-01
2.860235087126005160e-01
2.898596541033853224e-01
2.930587937720627312e-01
2.956565106983496394e-01
2.976895527203333169e-01
2.991956282502409858e-01
3.002131822357872459e-01
3.007811546628632593e-01
3.009387246698524976e-01
3.007250434280810403e-01
3.001789595345046857e-01
2.993387406797217709e-01
2.982417957997363089e-01
2.969244017971557903e-01
2.954214389667234042e-01
2.937661392762749291e-01
2.919898515112254733e-01
2.901218269922807291e-01
2.881890292374737483e-01
2.862159707236024420e-01
2.842245792683362748e-01
2.822340962511951101e-01
2.802610083296611654e-01
2.783190137022870103e-01
2.764190234292446813e-01
2.745691977370861014e-01
2.727750166678345467e-01
2.710393838455161797e-01
2.693627616099606437e-01
2.677433351730893474e-01
2.661772030813256973e-01
2.646585907856215392e-01
2.631800838615749871e-01
2.617328768445738030e-01
2.603070337593551553e-01
2.588917560827138087e-01
2.574756537052338423e-01
2.560470146487123233e-01
2.545940693531866805e-01
2.531052451475379605e-01
2.515694073169570388e-01
2.499760829042823596e-01
2.483156640108493962e-01
2.465795877023864158e-01
2.447604900906475422e-01
2.428523325959867640e-01
2.408504989072820235e-01
2.387518616335749522e-01
2.365548183411187166e-01
2.342592971090983467e-01
2.318667321358826861e-01
2.293800106560588414e-01
2.268033928399053600e-01
2.241424067079933469e-01
2.214037206414964098e-01
2.185949962382610634e-01
2.157247248286038588e-01
2.128020509277446792e-01
2.098365862473209609e-01
2.068382179354980865e-01
2.038169146989435576e-01
2.007825346492973506e-01
1.977446383643954031e-01
1.947123106529802805e-01
1.916939942499475691e-01
1.886973384304351520e-01
1.857290652159747646e-01
1.827948553792074216e-01
1.798992562153043373e-01
1.770456125413004123e-01
1.742360218791704773e-01
1.714713145129120320e-01
1.687510584012672510e-01
1.660735886574920273e-01
1.634360608114099056e-01
1.608345265726816298e-01
1.582640305315030915e-01
1.557187258179658085e-01
1.531920063697650991e-01
1.506766533475401293e-01
1.481649928450541054e-01
1.456490618192833042e-01
1.431207793256363825e-01
1.405721198652667703e-01
1.379952856129605665e-01
1.353828744678836904e-01
1.327280410342954464e-01
1.300246475652966638e-01
1.272674023348935035e-01
1.244519829703334551e-01
1.215751428619308711e-01
1.186347986297024149e-01
1.156300973855958342e-01
1.125614627359865921e-01
1.094306188143358699e-01
1.062405920657129299e-01
1.029956909368793805e-01
9.970146394219357722e-02
9.636463691870505999e-02
9.299303077198919909e-02
8.959546104520298149e-02
8.618162126446862747e-02
8.276195218144094534e-02
7.934749896855414208e-02
7.594975894687319706e-02
7.258052243575549567e-02
6.925170927182047742e-02
6.597520379711221961e-02
6.276269083215563205e-02
5.962549537591415455e-02
5.657442854166756796e-02
5.361964195495963481e-02
5.077049296918615534e-02
4.803542248953448363e-02
4.542184732804190050e-02
4.293606846955512479e-02
4.058319633091735101e-02
3.836709399534068976e-02
3.629033898502911221e-02
3.435420382121066180e-02
3.255865524530217325e-02
3.090237188041930830e-02
2.938277956174235178e-02
2.799610346501403904e-02
2.673743591831682226e-02
2.560081845876480133e-02
2.457933652310070882e-02
2.366522509762115228e-02
2.284998339336233655e-02
2.212449668916033341e-02
2.147916318254700085e-02
2.090402380961066744e-02
2.038889303249312793e-02
1.992348867696217690e-02
1.949755877878176294e-02
1.910100368369247251e-02
1.872399171720597749e-02
1.835706700345197256e-02
1.799124789106344019e-02
1.761811508111151003e-02
1.722988837600828924e-02
1.681949144565786716e-02
1.638060404938700837e-02
1.590770144356766155e-02
1.539608107312731566e-02
1.484187659844238977e-02
1.424205962761024985e-02
1.359442974140905730e-02
1.289759366506583460e-02
1.215093433439738690e-02
1.135457082685907559e-02
1.050931048622851666e-02
9.616594314436134258e-03
8.678436968791483977e-03
7.697362566916218091e-03
6.676337709339015547e-03
5.618702961169699112e-03
4.528104049441643297e-03
3.408424089724867035e-03
2.263717770577935388e-03
1.098148598606739877e-03
-8.406988395459173171e-05
-1.278728030170931968e-03
-2.481668761062869651e-03
-3.688830256385593025e-03
-4.896282331642941472e-03
-6.100256359102454451e-03
-7.297168641351927006e-03
-8.483637260279751346e-03
-9.656492551070880795e-03
-1.081278164296912633e-02
-1.194976737206519986e-02
-1.306492218260358988e-02
-1.415591746665918922e-02
-1.522060913994597968e-02
-1.625702014699252976e-02
-1.726332064464960667e-02
-1.823780660989256230e-02
-1.917887758820369451e-02
-2.008501436533288373e-02
-2.095475733023706086e-02
-2.178668617295323809e-02
-2.257940140397153919e-02
-2.333150838147356188e-02
-2.404160421105310322e-02
-2.470826798945809435e-02
-2.533005451929248864e-02
-2.590549174781248826e-02
-2.643308208708440576e-02
-2.691130750658818002e-02
-2.733863828103400007e-02
-2.771354528472791748e-02
-2.803451552007702949e-02
-2.830007051871075499e-02
-2.850878715484407230e-02
-2.865932043878432686e-02
-2.875042781038607970e-02
-2.878099434286849126e-02
-2.875005826742562179e-02
-2.865683624005245858e-02
-2.850074781252809678e-02
-2.828143853682271031e-02
-2.799880109012923071e-02
-2.765299401225115861e-02
-2.724445762138717406e-02
-2.677392661409483746e-02
-2.624243902537769929e-02
-2.565134139291989565e-02
-2.500228979661058698e-02
-2.429724670865832797e-02
-2.353847366609180050e-02
-2.272851966005070418e-02
-2.187020553882811427e-02
-2.096660438120416872e-02
-2.002101824247807735e-02
-1.903695159397961884e-02
-1.801808168542599203e-02
-1.696822637199052117e-02
-1.589130984313598047e-02
-1.479132666817545641e-02
-1.367230476953994016e-02
-1.253826775898671253e-02
-1.139319723661451345e-02
-1.024099550641209035e-02
-9.085449320806597215e-03
-7.930195044574359087e-03
-6.778685845246533795e-03
-5.634161172742865528e-03
-4.499619076288007002e-03
-3.377791506607067708e-03
-2.271123138063471138e-03
-1.181753801067827753e-03
-1.115046498895296782e-04
9.381316454487595782e-04
1.965996721582286347e-03
2.971268350614955037e-03
3.953458256571596406e-03
4.912406151023757973e-03
5.848269974366225414e-03
6.761512638937783662e-03
7.652885420093645530e-03
8.523408436913798222e-03
9.374348352071218762e-03
1.020719373151360472e-02
1.102362828259874535e-02
1.182550248859715047e-02
1.261480392900585917e-02
1.339362662691635959e-02
1.416413983134932886e-02
1.492855661357703201e-02
1.568910262452898746e-02
1.644798520153732679e-02
1.720736339960448474e-02
1.796931906539067647e-02
1.873582917329520356e-02
1.950873986374724450e-02
2.028974226937626038e-02
2.108035021839976125e-02
2.188188022498934945e-02
2.269543371427090728e-02
2.352188161911460823e-02
2.436185138981514925e-02
2.521571661184129204e-02
2.608358904820951008e-02
2.696531341769449128e-02
2.786046451943026414e-02
2.876834702009271882e-02
2.968799760894833689e-02
3.061818963628087226e-02
3.155744008117576660e-02
3.250401875476307406e-02
3.345595963853852106e-02
3.441107435867905850e-02
3.536696760098618358e-02
3.632105425237241308e-02
3.727057835618571846e-02
3.821263358816786443e-02
3.914418519956313486e-02
4.006209327401157733e-02
4.096313698889618438e-02
4.184403997477453147e-02
4.270149640193038332e-02
4.353219766163196613e-02
4.433285951957752213e-02
4.510024949924754806e-02
4.583121429302835365e-02
4.652270696922226889e-02
4.717181374532441324e-02
4.777578017537989497e-02
4.833203640370030418e-02
4.883822131434484987e-02
4.929220540678973944e-02
4.969211200135117967e-02
5.003633658438709497e-02
5.032356419328129493e-02
5.055278440828318842e-02
5.072330390301668657e-02
5.083475627731651181e-02
5.088710894335751050e-02
5.088066701731736724e-02
5.081607403650528071e-02
5.069430933134278644e-02
5.051668202492660964e-02
5.028482165589034242e-02
5.000066538946339872e-02
4.966644179914856544e-02
4.928465135805770725e-02
4.885804374642858938e-02
4.838959210192855798e-02
4.788246449295081864e-02
4.733999276279232671e-02
4.676563916227412937e-02
4.616296089366975219e-02
4.553557315966187680e-02
4.488711097571619624e-02
4.422119018585534550e-02
4.354136818832557432e-02
4.285110479243758180e-02
4.215372370259259927e-02
4.145237503645043259e-02
4.074999953785875262e-02
4.004929484273586637e-02
3.935268424814698796e-02
3.866228856455479479e-02
3.797990134689813169e-02
3.730696789499379773e-02
3.664456841257199282e-02
3.599340565179203616e-02
3.535379719580188096e-02
3.472567259501565390e-02
3.410857559884905577e-02
3.350167134673358305e-02
3.290375863453395139e-02
3.231328718701457353e-02
3.172837967791515557e-02
3.114685841291220739e-02
3.056627633401400382e-02
2.998395194407880993e-02
2.939700784677359846e-02
2.880241228068220957e-02
2.819702332087068580e-02
2.757763496741873557e-02
2.694102471731069093e-02
2.628400191628904245e-02
2.560345608724099928e-02
2.489640477912899441e-02
2.416004017027100978e-02
2.339177383176937325e-02
2.258927888142743881e-02
2.175052900756877308e-02
2.087383370990566339e-02
1.995786929591420247e-02
1.900170513399955519e-02
1.800482468229776603e-02
1.696714088099622944e-02
1.588900584634204277e-02
1.477121447037255814e-02
1.361500181745009704e-02
1.242203434768287575e-02
1.119439501946628730e-02
9.934562325270386227e-03
8.645383631495699023e-03
7.330042986398651282e-03
5.992023880617826023e-03
4.635067334096606810e-03
3.263126030604746909e-03
1.880314931897059203e-03
4.908591097408587182e-04
-9.009605432890219721e-04
-2.290862960194569534e-03
-3.674623068934597305e-03
-5.048127820766241773e-03
-6.407431154430307842e-03
-7.748807240936289933e-03
-9.068801089856337247e-03
-1.036427592157597617e-02
-1.163245657357555099e-02
-1.287096817932099208e-02
-1.407786965809864656e-02
-1.525168143556242771e-02
-1.639140699288066036e-02
-1.749654778260240420e-02
-1.856711135453968653e-02
-1.960361243593921471e-02
-2.060706693203808934e-02
-2.157897882005229903e-02
-2.252132003723398418e-02
-2.343650359499262203e-02
-2.432735029481503455e-02
-2.519704933890419898e-02
-2.604911334242738033e-02
-2.688732837529493255e-02
-2.771569963523612748e-02
-2.853839341619362688e-02
-2.935967620644278422e-02
-3.018385167023331095e-02
-3.101519640152354193e-02
-3.185789520579148520e-02
-3.271597685305430159e-02
-3.359325127786257081e-02
-3.449324888471234918e-02
-3.541916291153910518e-02
-3.637379554682178967e-02
-3.735950867787259794e-02
-3.837817990087768333e-02
-3.943116439860171185e-02
-4.051926321445855489e-02
-4.164269842184792347e-02
-4.280109556216431937e-02
-4.399347359139968439e-02
-4.521824253711120845e-02
-4.647320884225095844e-02
-4.775558856640944871e-02
-4.906202813326460133e-02
-5.038863246981206689e-02
-5.173100009929075538e-02
-5.308426493326971751e-02
-5.444314418202748918e-02
-5.580199164253044075e-02
-5.715485588101013731e-02
-5.849554249826917351e-02
-5.981767973398192939e-02
-6.111478652659433491e-02
-6.238034217707359025e-02
-6.360785680547652310e-02
-6.479094158690307248e-02
-6.592337799993311376e-02
-6.699918509906233055e-02
-6.801268409432961737e-02
-6.895855933891616163e-02
-6.983191503105846965e-02
-7.062832688967082828e-02
-7.134388813495716464e-02
-7.197524933782202539e-02
-7.251965154895223531e-02
-7.297495245190670221e-02
-7.333964511374969908e-02
-7.361286919300928655e-02
-7.379441460709057488e-02
-7.388471757733414136e-02
-7.388484914934050074e-02
-7.379649645235707156e-02
-7.362193698775319761e-02
-7.336400631194527067e-02
-7.302605963814359780e-02
-7.261192780952342718e-02
-7.212586843488559551e-02
-7.157251269157270668e-02
-7.095680864256492804e-02
-7.028396181429570622e-02
-6.955937383398055895e-02
-6.878857995603972209e-02
-6.797718625565471462e-02
-6.713080742430378722e-02
-6.625500586000601655e-02
-6.535523289919940859e-02
-6.443677290960418691e-02
-6.350469092379151803e-02
-6.256378456879539696e-02
-6.161854072238141106e-02
-6.067309748111901491e-02
-5.973121177882419891e-02
-5.879623310738778946e-02
-5.787108359797973195e-02
-5.695824453175558910e-02
-5.605974928060660639e-02
-5.517718294341564245e-02
-5.431168824918954779e-02
-5.346397765822981374e-02
-5.263435138321848755e-02
-5.182272088868081217e-02
-5.102863745416157809e-02
-5.025132527197271465e-02
-4.948971850226008273e-02
-4.874250164082751663e-02
-4.800815256111886503e-02
-4.728498742740822047e-02
-4.657120681991151756e-02
-4.586494238292525977e-02
-4.516430312930364011e-02
-4.446742070346448861e-02
-4.377249292965550848e-02
-4.307782496243222486e-02
-4.238186740138015496e-02
-4.168325075409982927e-02
-4.098081571700271097e-02
-4.027363887728740988e-02
-3.956105338682831818e-02
-3.884266435825742964e-02
-3.811835864661582141e-02
-3.738830906863163661e-02
-3.665297287370425372e-02
-3.591308456552012862e-02
-3.516964325528993546e-02
-3.442389467711865630e-02
-3.367730818438598173e-02
-3.293154924034707304e-02
-3.218844774749596294e-02
-3.144996276260969559e-02
-3.071814430402999840e-02
-2.999509274287830152e-02
-2.928291646981805857e-02
-2.858368865654101892e-02
-2.789940382286039411e-02
-2.723193487190353479e-02
-2.658299136490492598e-02
-2.595407983528898177e-02
-2.534646669424393470e-02
-2.476114455807961953e-02
-2.419880245965765758e-02
-2.365980062394356861e-02
-2.314415025954464147e-02
-2.265149875756321957e-02
-2.218112060969142443e-02
-2.173191436006468788e-02
-2.130240579079345498e-02
-2.089075730500335876e-02
-2.049478352036742182e-02
-2.011197293288047999e-02
-1.973951547749958069e-02
-1.937433555705884991e-02
-1.901313024701003357e-02
-1.865241215658288571e-02
-1.828855627821122931e-02
-1.791785025772169720e-02
-1.753654746953978855e-02
-1.714092201669888127e-02
-1.672732490282789405e-02
-1.629224057862189295e-02
-1.583234297456840786e-02
-1.534455021438613578e-02
-1.482607715981365364e-02
-1.427448497862441462e-02
-1.368772702296168660e-02
-1.306419014238899973e-02
-1.240273084320018919e-02
-1.170270570301891813e-02
-1.096399544448913715e-02
-1.018702229366631740e-02
-9.372760187880467206e-03
-8.522737673060545513e-03
-7.639033273664848529e-03
-6.724263326791500399e-03
-5.781562377034957581e-03
-4.814556239086153003e-03
-3.827328044288430195e-03
-2.824377648287770999e-03
-1.810574986387220508e-03
-7.911078206768300822e-04
2.285754242641076369e-04
1.242826941206498200e-03
2.245864190807318056e-03
3.231837053983015531e-03
4.194896604013793016e-03
5.129264488351645279e-03
6.029302082071329172e-03
6.889578453201928611e-03
7.704936179240084483e-03
8.470554160534096363e-03
9.182006577663425276e-03
9.835317087547371800e-03
1.042700762879505277e-02
1.095414118849765556e-02
1.141435785452523874e-02
1.180590371284024123e-02
1.212765224202118353e-02
1.237911790536968572e-02
1.256046181949999931e-02
1.267248938106698211e-02
1.271663991703844872e-02
1.269496868441581661e-02
1.261012129189198992e-02
1.246530110722483473e-02
1.226423010359601294e-02
1.201110371116520005e-02
1.171054030304879111e-02
1.136752610371536375e-02
1.098735636775495690e-02
1.057557355882444636e-02
1.013790348442839863e-02
9.680190278342569454e-03
9.208331062009456752e-03
8.728211325908698942e-03
8.245641739273676732e-03
7.766297340880083840e-03
7.295659901696167730e-03
6.838964082986997810e-03
6.401148168485120554e-03
5.986809901020711221e-03
5.600167963548913913e-03
5.245029414550246571e-03
4.924763412364334056e-03
4.642281426928634644e-03
4.400024088864338406e-03
4.199954508681142881e-03
4.043558057786264537e-03
3.931848356821989431e-03
3.865379202833866407e-03
3.844261932924730816e-03
3.868187776831177004e-03
3.936454699034653767e-03
4.047998052781419560e-03
4.201424421920561467e-03
4.395047915753846034e-03
4.626928270682748555e-03
4.894909939927312437e-03
5.196661481563838274e-03
5.529714553593702807e-03
5.891501899386722592e-03
6.279393541146922712e-03
6.690730696472363057e-03
7.122856914411507777e-03
7.573145962634150220e-03
8.039026030052177224e-03
8.518000057443308320e-03
9.007661958447562775e-03
9.505708672795550040e-03
1.000994794846898212e-02
1.051830201087496953e-02
1.102880726706167124e-02
1.153961024061137854e-02
1.204896021508417535e-02
1.255519890826891326e-02
1.305674759496446881e-02
1.355209225288080653e-02
1.403976727623744772e-02
1.451833837052208392e-02
1.498638520245558665e-02
1.544248444056963571e-02
1.588519377983779388e-02
1.631303747073396468e-02
1.672449402723365230e-02
1.711798647974768078e-02
1.749187565230364561e-02
1.784445694657044515e-02
1.817396076651413284e-02
1.847855684649617192e-02
1.875636271515453493e-02
1.900545620646046374e-02
1.922389196572895156e-02
1.940972193331622422e-02
1.956101937072098756e-02
1.967590619444128941e-02
1.975258317515328141e-02
1.978936256226713000e-02
1.978470239164576219e-02
1.973724200046636859e-02
1.964583798648041404e-02
1.950959993724491609e-02
1.932792516941510275e-02
1.910053167050540512e-02
1.882748854872176233e-02
1.850924332623407609e-02
1.814664522266045896e-02
1.774096386467915662e-02
1.729390285092435170e-02
1.680760761797536057e-02
1.628466717279595036e-02
1.572810931876343979e-02
1.514138923114769636e-02
1.452837114213289052e-02
1.389330324127665411e-02
1.324078578457625263e-02
1.257573267642240512e-02
1.190332689659000936e-02
1.122897016345290704e-02
1.055822745117469992e-02
9.896766951865726414e-03
9.250296347750854020e-03
8.624496128953973093e-03
8.024950891413877921e-03
7.457079675044360825e-03
6.926066179423947741e-03
6.436789998137761731e-03
5.993759916321460095e-03
5.601050272895770864e-03
5.262241384960585945e-03
4.980365024858291259e-03
4.757855820310357038e-03
4.596509504724126567e-03
4.497448643375121652e-03
4.461096571771341543e-03
4.487160081330299720e-03
4.574621184543693764e-03
4.721738309988991571e-03
4.926057117002336817e-03
5.184430834223627098e-03
5.493050010234428945e-03
5.847481447326921024e-03
6.242715878933824403e-03
6.673223843553581849e-03
7.133019030795510231e-03
7.615728362163298043e-03
8.114667925784512306e-03
8.622923633213158343e-03
9.133435729806680878e-03
9.639085926795522632e-03
1.013278594258602491e-02
1.060756623631972824e-02
1.105666381024508586e-02
1.147360777765710389e-02
1.185230159200565715e-02
1.218710074934233750e-02
1.247288483750724764e-02
1.270512303313763719e-02
1.287993204535125245e-02
1.299412576139595023e-02
1.304525592635868460e-02
1.303164321428842802e-02
1.295239837365707962e-02
1.280743306168882767e-02
1.259746032380132039e-02
1.232398470446603549e-02
1.198928209658845466e-02
1.159636975756699051e-02
1.114896681568099297e-02
1.065144587430096393e-02
1.010877643843011153e-02
9.526460980413297905e-03
8.910464514120877699e-03
8.267138654835085726e-03
7.603141282484977143e-03
6.925352875080036281e-03
6.240790668168744691e-03
5.556521812102955225e-03
4.879576729968882268e-03
4.216863791676153835e-03
3.575086428034797599e-03
2.960663763894369298e-03
2.379655834652666911e-03
1.837694214933986367e-03
1.339918950488326772e-03
8.909226465312895978e-04
4.947022022363066615e-04
1.546187139213158390e-04
-1.266339316863361456e-04
-3.470515887797399369e-04
-5.053334128090383173e-04
-6.008863926345056573e-04
-6.338208355235689512e-04
-6.049372875373317795e-04
-5.157050349170346328e-04
-3.682328040694289530e-04
-1.652320538174424115e-04
9.002640666111054240e-05
3.937617193696184119e-04
7.417374730393819877e-04
1.129320569259706494e-03
1.551543508032312028e-03
2.003169204393574938e-03
2.478757433003439363e-03
2.972732055841540225e-03
3.479448035180583276e-03
3.993257396215162298e-03
4.508573336116367472e-03
5.019931638618014419e-03
5.522048792904670628e-03
6.009876006554213702e-03
6.478648713214662722e-03
6.923930848675144932e-03
7.341653797854786646e-03
7.728149426598803287e-03
8.080177122634028819e-03
8.394944576827156890e-03
8.670122536429396287e-03
8.903853218311335790e-03
9.094752670941038189e-03
9.241907316405685233e-03
9.344864964898958945e-03
9.403620529482535628e-03
9.418596801313218470e-03
9.390620940455764176e-03
9.320897009924526341e-03
9.210975118645395310e-03
9.062717613968129457e-03
8.878263010137591241e-03
8.659988153118648377e-03
8.410469214787837100e-03
8.132442029868331909e-03
7.828762257403438368e-03
7.502365976360945640e-03
7.156231129345769215e-03
6.793340285632774520e-03
6.416645088176206255e-03
6.029032787871093160e-03
5.633295145903082987e-03
5.232100031500060318e-03
4.827965874507637346e-03
4.423239130621963583e-03
4.020075001218263028e-03
3.620421400600272541e-03
3.226006183991723345e-03
2.838327722169342419e-03
2.458648740224414660e-03
2.087993373035554497e-03
1.727147196341950134e-03
1.376660271515035535e-03
1.036852970603880470e-03
7.078243498881060282e-04
3.894629428974511766e-04
8.145972328239771323e-05
-2.166769681350367487e-04
-5.056048018766768140e-04
-7.861294356402302643e-04
-1.059185170167885239e-03
-1.325814639793821033e-03
-1.587147790452724016e-03
-1.844380369650095971e-03
-2.098752122515787182e-03
-2.351525009254454551e-03
-2.603961583399613897e-03
-2.857303758671326122e-03
-3.112752195112737479e-03
-3.371446464991285658e-03
-3.634446263401723987e-03
-3.902713798747414926e-03
-4.177097468029050686e-03
-4.458317057286650086e-03
-4.746950615118928664e-03
-5.043423075680562515e-03
-5.347996804602865063e-03
-5.660764097647694171e-03
-5.981641796657623765e-03
-6.310368130036461860e-03
-6.646501720834109388e-03
-6.989422893346901138e-03
-7.338337264789869183e-03
-7.692281594903180135e-03
-8.050131913235607228e-03
-8.410613811440228321e-03
-8.772314936884234929e-03
-9.133699435557881760e-03
-9.493124298427213850e-03
-9.848857558172746662e-03
-1.019909788797687851e-02
-1.054199567244228260e-02
-1.087567513736300943e-02
-1.119825733624497770e-02
-1.150788373315942553e-02
-1.180274010826390559e-02
-1.208108035859113867e-02
-1.234124992136928674e-02
-1.258170858647161654e-02
-1.280105223273414125e-02
-1.299803316209592781e-02
-1.317157876891904798e-02
-1.332080817535516611e-02
-1.344504652395117975e-02
-1.354383666692695470e-02
-1.361694798636463137e-02
-1.366438212785707484e-02
-1.368637550932503590e-02
-1.368339834730832212e-02
-1.365615025207848020e-02
-1.360555230164843359e-02
-1.353273553831520898e-02
-1.343902610180081926e-02
-1.332592708049016965e-02
-1.319509711724690254e-02
-1.304832631524154019e-02
-1.288750945705280544e-02
-1.271461712333987401e-02
-1.253166488861508568e-02
-1.234068130441645997e-02
-1.214367490841950122e-02
-1.194260107768773012e-02
-1.173932895337557666e-02
-1.153560923243085110e-02
-1.133304328031221712e-02
-1.113305421285177600e-02
-1.093686044242437629e-02
-1.074545223738459371e-02
-1.055957177490711441e-02
-1.037969722820990780e-02
-1.020603122017847350e-02
-1.003849393051492629e-02
-9.876721273679911831e-03
-9.720068273366194375e-03
-9.567617689256792748e-03
-9.418194106180683561e-03
-9.270383179779684291e-03
-9.122556033980133358e-03
-8.972898576157385675e-03
-8.819445272078695053e-03
-8.660117041727050796e-03
-8.492762721747280918e-03
-8.315203511997576458e-03
-8.125279707528441225e-03
-7.920898925341103222e-03
-7.700085214683523305e-03
-7.461027977700772189e-03
-7.202130057042307673e-03
-6.922054032124976691e-03
-6.619765821315209096e-03
-6.294574726681147377e-03
-5.946169200024918784e-03
-5.574647418859390163e-03
-5.180542069568291885e-03
-4.764838582394324146e-03
-4.328986328379761696e-03
-3.874902388571352992e-03
-3.404967376334608505e-03
-2.922013178151224456e-03
-2.429302521822681356e-03
-1.930500456749238833e-03
-1.429637822971351752e-03
-9.310670676485967344e-04
-4.394108464039669297e-04
4.049600139420013066e-05
5.036704056007607760e-04
9.450501038499609791e-04
1.359566853089801478e-03
1.742222680143551807e-03
2.088168259284356194e-03
2.392781979891764159e-03
2.651748660925522857e-03
2.861136587116040048e-03
3.017471554407779970e-03
3.117806693054300891e-03
3.159786856022150665e-03
3.141706406722584183e-03
3.062559228833885722e-03
2.922079978455946643e-03
2.720775719939400126e-03
2.459947113600508863e-03
2.141698541787986909e-03
1.768936743492978804e-03
1.345357628819338763e-03
8.754211021794344348e-04
3.643139869097028927e-04
-1.820985599018258886e-04
-7.573329783185775085e-04
-1.354357741316504320e-03
-1.965673615663058541e-03
-2.583402701546502582e-03
-3.199385121664348203e-03
-3.805282181724204370e-03
-4.392684551630893740e-03
-4.953223944103505097e-03
-5.478686719777027016e-03
-5.961127711213149230e-03
-6.392982748060253677e-03
-6.767177974159458917e-03
-7.077234498190125393e-03
-7.317366584587844773e-03
-7.482571794681596930e-03
-7.568711765656022626e-03
-7.572582126094488594e-03
-7.491970488282599823e-03
-7.325701274219675180e-03
-7.073666708840332072e-03
-6.736843132639052691e-03
-6.317292343631164715e-03
-5.818147720937071402e-03
-5.243584995370528107e-03
-4.598777993804448530e-03
-3.889839912178976421e-03
-3.123750627628334078e-03
-2.308271047573496552e-03
-1.451845642521948842e-03
-5.634944403937811172e-04
3.473040969899321927e-04
1.270737492449546067e-03
2.196789447017945870e-03
3.115373709413117500e-03
4.016469900805530804e-03
4.890259072071806955e-03
5.727257155143225878e-03
6.518444265743590302e-03
7.255387884429676491e-03
7.930358164492650602e-03
8.536433503023622277e-03
9.067594810594707677e-03
9.518806946043527686e-03
9.886086247304495117e-03
1.016655281442464462e-02
1.035846699277222747e-02
1.046124933473561482e-02
1.047548362488563700e-02
1.040290303078518844e-02
1.024635949007831302e-02
1.000977677394275858e-02
9.698087925260450923e-03
9.317158008799571178e-03
8.873693335132692636e-03
8.375138555769798959e-03
7.829563175998820873e-03
7.245539277303379537e-03
6.632012231066272516e-03
5.998166518286874443e-03
5.353288669811000385e-03
4.706629420903638700e-03
4.067267283580226420e-03
3.443975577788971343e-03
2.845095046627507153e-03
2.278414018179147297e-03
1.751057938064584868e-03
1.269390022423059951e-03
8.389245124320516590e-04
4.642538808558165390e-04
1.489911489211103173e-04
-1.042718758420786501e-04
-2.939898466930707241e-04
-4.196722561606528053e-04
-4.818748319248762385e-04
-4.821741815386304097e-04
-4.231261012909249349e-04
-3.082084344616245822e-04
-1.417492938409657612e-04
7.115802499722602176e-05
3.247520652842671249e-04
6.127105100377985966e-04
9.282658873969506846e-04
1.264327973165353626e-03
1.613610653449151690e-03
1.968761199953456432e-03
2.322489783343532899e-03
2.667697170460498271e-03
2.997598460433159671e-03
3.305840707752796034e-03
3.586612614373147715e-03
3.834744444192204459e-03
4.045796499235114127e-03
4.216134739588628909e-03
4.342992262279967222e-03
4.424515649692759185e-03
4.459795432366790713e-03
4.448880203338627728e-03
4.392774086653611701e-03
4.293417752012742769e-03
4.153653167758711642e-03
3.977172824467024338e-03
3.768454207811046657e-03
3.532680624915295140e-03
3.275649769834052243e-03
3.003671541426321170e-03
2.723456820023519975e-03
2.441999138997230645e-03
2.166451085156070357e-03
1.903997675380301536e-03
1.661728789261149395e-03
1.446512703119523817e-03
1.264872946610247871e-03
1.122870538430821184e-03
1.025993575640417495e-03
9.790559980172857269e-04
9.861072569201970953e-04
1.050354466552780872e-03
1.174098303788585589e-03
1.358683723965616258e-03
1.604466341600282271e-03
1.910795165586824489e-03
2.276011899560965307e-03
2.697466853209800914e-03
3.171551301789085359e-03
3.693745697323060420e-03
4.258682967190952941e-03
4.860225970149043700e-03
5.491557764451742568e-03
6.145283320849155920e-03
6.813540921981500569e-03
7.488121490586169271e-03
8.160593807829434262e-03
8.822433755205371514e-03
9.465155394524261620e-03
1.008044171392590178e-02
1.066027283668858835e-02
1.119704982828043441e-02
1.168371189815566209e-02
1.211384512494913593e-02
1.248178098340602636e-02
1.278268308643870817e-02
1.301262056672763262e-02
1.316862716508820051e-02
1.324874493470140288e-02
1.325205180186913440e-02
1.317867270935310989e-02
1.302977399347259035e-02
1.280754116861822396e-02
1.251514055573685162e-02
1.215666531330335774e-02
1.173706669916539484e-02
1.126207178951540294e-02
1.073808891027621878e-02
1.017210236115738235e-02
9.571558094393653460e-03
8.944242165157264418e-03
8.298154010156688284e-03
7.641376482508385748e-03
6.981944693363004509e-03
6.327715838294238962e-03
5.686242067928782597e-03
5.064648363624024707e-03
4.469517345288795927e-03
3.906782854541917399e-03
3.381633955995030309e-03
2.898430841604345259e-03
2.460634001594407070e-03
2.070747591335758957e-03
1.730277980398403420e-03
1.439708138923739313e-03
1.198488056206759890e-03
1.005041370088913212e-03
8.567881137156451192e-04
7.501831578739901092e-04
6.807696135919026701e-04
6.432463817116561939e-04
6.315488595769671188e-04
6.389413471999904042e-04
6.581198302921984714e-04
6.813233952578576485e-04
7.004526767398708016e-04
7.071934483199711569e-04
6.931434937106725107e-04
6.499406905854714046e-04
5.693905243665761153e-04
4.435911316410254073e-04
2.650538901610755590e-04
2.681788142699260285e-05
-2.774435022552528972e-04
-6.533252987119864174e-04
-1.105604467818700493e-03
-1.638165287019185566e-03
-2.253937675768660342e-03
-2.954849311499046019e-03
-3.741792072170462176e-03
-4.614603144890348091e-03
-5.572060998753033609e-03
-6.611896130767655304e-03
-7.730816248055257488e-03
-8.924545424950748942e-03
-1.018787651132981552e-02
-1.151473592517664700e-02
-1.289825968087105618e-02
-1.433087952933108887e-02
-1.580441777684304244e-02
-1.731018945590889757e-02
-1.883911019130977624e-02
-2.038180820484364331e-02
-2.192873883291980228e-02
-2.347029991999058374e-02
-2.499694644728840676e-02
-2.649930282886204386e-02
-2.796827132177184816e-02
-2.939513514912940606e-02
-3.077165494436728821e-02
-3.209015736233854221e-02
-3.334361475016566628e-02
-3.452571488220845808e-02
-3.563092010053455633e-02
-3.665451517131707720e-02
-3.759264349604080763e-02
-3.844233137484378421e-02
-3.920150027153203320e-02
-3.986896711416503675e-02
-4.044443294891021667e-02
-4.092846036790692699e-02
-4.132244022648136339e-02
-4.162854843188723564e-02
-4.184969356696498916e-02
-4.198945630292205689e-02
-4.205202161988109283e-02
-4.204210500019413266e-02
-4.196487372307223379e-02
-4.182586443291079481e-02
-4.163089822499882464e-02
-4.138599450942175018e-02
-4.109728486463523622e-02
-4.077092805539610926e-02
-4.041302735972995136e-02
-4.002955121683694772e-02
-3.962625833036040324e-02
-3.920862806745302465e-02
-3.878179696637946289e-02
-3.835050214159538978e-02
-3.791903211051211170e-02
-3.749118558183060085e-02
-3.707023854119192996e-02
-3.665891996820584003e-02
-3.625939614400645189e-02
-3.587326370879101445e-02
-3.550155121842590161e-02
-3.514472907609745428e-02
-3.480272745025576875e-02
-3.447496174312876527e-02
-3.416036503340846159e-02
-3.385742694136562037e-02
-3.356423815697773955e-02
-3.327853991990149113e-02
-3.299777762891858979e-02
-3.271915776395366293e-02
-3.243970714861660332e-02
-3.215633367386944164e-02
-3.186588765159886066e-02
-3.156522289340350090e-02
-3.125125652349321215e-02
-3.092102672762429144e-02
-3.057174764176832579e-02
-3.020086065340164480e-02
-2.980608127249364039e-02
-2.938544099315913705e-02
-2.893732356588725116e-02
-2.846049515647007186e-02
-2.795412805467904771e-02
-2.741781752993284818e-02
-2.685159164620088551e-02
-2.625591388365172002e-02
-2.563167851622369375e-02
-2.498019883682562475e-02
-2.430318848212153701e-02
-2.360273594273791867e-02
-2.288127274075064249e-02
-2.214153571661038253e-02
-2.138652389317171471e-02
-2.061945063657056113e-02
-1.984369169313198941e-02
-1.906272993704162533e-02
-1.828009762146321285e-02
-1.749931693792197707e-02
-1.672383986986167997e-02
-1.595698818420055939e-02
-1.520189447525414905e-02
-1.446144531599034659e-02
-1.373822734330953574e-02
-1.303447715133252381e-02
-1.235203589251573225e-02
-1.169230933769493247e-02
-1.105623421415690387e-02
-1.044425142104982857e-02
-9.856286724629514939e-03
-9.291739455722902372e-03
-8.749479397794442462e-03
-8.227852327407294761e-03
-7.724694223167721981e-03
-7.237354201610724305e-03
-6.762725985899185888e-03
-6.297287692993367055e-03
-5.837149411615706607e-03
-5.378108217021036058e-03
-4.915709840532482902e-03
-4.445316200489856859e-03
-3.962177923112308701e-03
-3.461510884281384769e-03
-2.938575566244162798e-03
-2.388758109512221714e-03
-1.807651914236562503e-03
-1.191138282052137945e-03
-5.354649923946648528e-04
1.626785215103477677e-04
9.060908069976177310e-04
1.696993980902769322e-03
2.536976592530401729e-03
3.426944786762297149e-03
4.367082791808927882e-03
5.356823707081265207e-03
6.394831309820326638e-03
7.478993509467287554e-03
8.606427865177871880e-03
9.773499473324813100e-03
1.097585135526286081e-02
1.220844700055193598e-02
1.346562498821343365e-02
1.474116501439535348e-02
1.602836461454665296e-02
1.732012573039035802e-02
1.860904989179085894e-02
1.988754084315735166e-02
2.114791308580052723e-02
2.238250485971065434e-02
2.358379379250852281e-02
2.474451351770142263e-02
2.585776936880464227e-02
2.691715125954096191e-02
2.791684200629826473e-02
2.885171909295457249e-02
2.971744815115649752e-02
3.051056644081464805e-02
3.122855486399428449e-02
3.186989694334908113e-02
3.243412362353257500e-02
3.292184274645281600e-02
3.333475248203331132e-02
3.367563805011651590e-02
3.394835150467271495e-02
3.415777448507484326e-02
3.430976421601508730e-02
3.441108316817369922e-02
3.446931328257634569e-02
3.449275572871173673e-02
3.449031761442589161e-02
3.447138711128436978e-02
3.444569886961182381e-02
3.442319160836809777e-02
3.441386009978396332e-02
3.442760382573843009e-02
3.447407462847965759e-02
3.456252576190405046e-02
3.470166491487450267e-02
3.489951351755588710e-02
3.516327478905970083e-02
3.549921273261336802e-02
3.591254418919416491e-02
3.640734595391561385e-02
3.698647862327442831e-02
3.765152865295562368e-02
3.840276982472753953e-02
3.923914505883439874e-02
4.015826907933053164e-02
4.115645217709715947e-02
4.222874500102596906e-02
4.336900393739545612e-02
4.456997626125153850e-02
4.582340393086675040e-02
4.712014462505046547e-02
4.845030826594776130e-02
4.980340709760949780e-02
5.116851701125899737e-02
5.253444776987128279e-02
5.388991953558141396e-02
5.522374297610947724e-02
5.652500023585600719e-02
5.778322400244387258e-02
5.898857188685651537e-02
6.013199346112906019e-02
6.120538751409042300e-02
6.220174702432375996e-02
6.311528969518982735e-02
6.394157226763917679e-02
6.467758692280801969e-02
6.532183843201851137e-02
6.587440117119847116e-02
6.633695533872623062e-02
6.671280216863741119e-02
6.700685820199250853e-02
6.722562915935698102e-02
6.737716428153107950e-02
6.747099222753293046e-02
6.751804001461290949e-02
6.753053694691624198e-02
6.752190532491866848e-02
6.750664020974220247e-02
6.750018064677497376e-02
6.751877476205649098e-02
6.757934131060859551e-02
6.769933007177336703e-02
6.789658361831309163e-02
6.818920283907287105e-02
6.859541825300975726e-02
6.913346913652147763e-02
6.982149220262214018e-02
7.067742113918196178e-02
7.171889814784490613e-02
7.296319809699682024e-02
7.442716556016110152e-02
7.612716473130407002e-02
7.807904164163004257e-02
8.029809789396866182e-02
8.279907439873628039e-02
8.559614368836207521e-02
8.870290869072938733e-02
9.213240577589434932e-02
9.589710936609248393e-02
1.000089356240566607e-01
1.044792421585922781e-01
1.093188209808363537e-01
1.145378815839062647e-01
1.201460215157439948e-01
1.261521816010734987e-01
1.325645833094636628e-01
1.393906460674912418e-01
1.466368826994576269e-01
1.543087716586866720e-01
1.624106048371884159e-01
1.709453107575045483e-01
1.799142532121848492e-01
1.893170061481692645e-01
1.991511062262255605e-01
2.094117849957976285e-01
2.200916834475429018e-01
2.311805522072012398e-01
2.426649413979834746e-01
2.545278845685198243e-01
2.667485817414645966e-01
2.793020871405217931e-01
2.921590073664466769e-01
3.052852162667296088e-01
3.186415929108160072e-01
3.321837892373022405e-01
3.458620338390633320e-01
3.596209783930216508e-01
3.733995929674850389e-01
3.871311161036929960e-01
4.007430652390627790e-01
4.141573122695348386e-01
4.272902286914595504e-01
4.400529037397171717e-01
4.523514383228174895e-01
4.640873164480901480e-01
4.751578549214313663e-01
4.854567311214374459e-01
4.948745872990207850e-01
5.032997090693085429e-01
5.106187743851888783e-01
5.167176682802727683e-01
5.214823575491990271e-01
5.247998183520875548e-01
5.265590089014714481e-01
5.266518783470973686e-01
5.249744022380339326e-01
5.214276340547078226e-01
5.159187618894136573e-01
5.083621586523968672e-01
4.986804140566050703e-01
4.868053362018890384e-01
4.726789108133929718e-01
4.562542061067325072e-01
4.374962117000694706e-01
4.163826002144961347e-01
3.929044010372485518e-01
3.670665763884445321e-01
3.388884907518155409e-01
3.084042656482826605e-01
2.756630130736432149e-01
2.407289420672766300e-01
2.036813343602049686e-01
1.646143862325029072e-01
1.236369154930677394e-01
8.087193380540273757e-02
3.645608632574785096e-02
-9.461038101364329864e-03
-5.671772122005484806e-02
-1.051410476786100584e-01
-1.545479477765540344e-01
-2.047463414045403163e-01
-2.555363728810665092e-01
-3.067117254820885264e-01
-3.580610030311442982e-01
-4.093691656554406255e-01
-4.604190057597143948e-01
-5.109926499659392940e-01
-5.608730723055282974e-01
-6.098456042209878802e-01
-6.576994264027341552e-01
-7.042290281541607744e-01
-7.492356202139359711e-01
-7.925284876262576050e-01
-8.339262698102819504e-01
-8.732581560585694902e-01
-9.103649856389550710e-01
-9.451002427914434456e-01
-9.773309381961150510e-01
-1.006938369797344857e+00
-1.033818757351274487e+00
-1.057883746470009045e+00
-1.079060779396112668e+00
-1.097293331256135929e+00
-1.112541012106978089e+00
-1.124779536528445867e+00
-1.134000563807190165e+00
-1.140211413330847856e+00
-1.143434660793958280e+00
-1.143707622363324905e+00
-1.141081734456659502e+00
-1.135621838365008296e+00
-1.127405379163369803e+00
-1.116521529484832742e+00
-1.103070248853483148e+00
-1.087161289895871796e+00
-1.068913162844539633e+00
-1.048452069772719986e+00
-1.025910820111194610e+00
-1.001427738451406979e+00
-9.751455755075723042e-01
-9.472104326538615116e-01
-9.177707096505619555e-01
-8.869760846189463921e-01
-8.549765345529148908e-01
-8.219214036588572414e-01
-7.879585260090142818e-01
-7.532334081153904126e-01
-7.178884756734412731e-01
-6.820623882220391287e-01
-6.458894241239824252e-01
-6.094989372721247856e-01
-5.730148862687609590e-01
-5.365554356158788174e-01
-5.002326277247699515e-01
-4.641521238468435673e-01
-4.284130111415230258e-01
-3.931076726747052552e-01
-3.583217162793382871e-01
-3.241339582983956413e-01
-2.906164572398170498e-01
-2.578345926460889337e-01
-2.258471840118744522e-01
-1.947066446389821848e-01
-1.644591652657505787e-01
-1.351449225058463099e-01
-1.067983071488894514e-01
-7.944816777486603254e-02
-5.311806531849217611e-02
-2.782653455278117499e-02
-3.587349141023093903e-03
1.959021311063340390e-02
4.170110745010498915e-02
6.274426414674250108e-02
8.272233690478179857e-02
1.016414591933481187e-01
1.195110093975409460e-01
1.363433853224299830e-01
1.521537881800436864e-01
1.669600159921033333e-01
1.807822658191960974e-01
1.936429442399245637e-01
2.055664850982077130e-01
2.165791735488718783e-01
2.267089752359305044e-01
2.359853694656030010e-01
2.444391852244648666e-01
2.521024389949244049e-01
2.590081732999530151e-01
2.651902951706091582e-01
2.706834138635223486e-01
2.755226773899169257e-01
2.797436074920972016e-01
2.833819330899989275e-01
2.864734224120791262e-01
2.890537142604651666e-01
2.911581490375765857e-01
2.928216005093034480e-01
2.940783094021123256e-01
2.949617199629743225e-01
2.955043211293625349e-01
2.957374936740725380e-01
2.956913651134753240e-01
2.953946738550768392e-01
2.948746443312351695e-01
2.941568748547332413e-01
2.932652395944710388e-01
2.922218061982361781e-01
2.910467702613592222e-01
2.897584077527453617e-01
2.883730463586346993e-01
2.869050562569915863e-01
2.853668607762288589e-01
2.837689669758965971e-01
2.821200158822061987e-01
2.804268520011009014e-01
2.786946111541160898e-01
2.769268257425479551e-01
2.751255458352437344e-01
2.732914746505704651e-01
2.714241164139273854e-01
2.695219346746983158e-01
2.675825187664594429e-01
2.656027560492780215e-01
2.635790074556609297e-01
2.615072838375020470e-01
2.593834204880726135e-01
2.572032473915328854e-01
2.549627527881379030e-01
2.526582375804290459e-01
2.502864584512851653e-01
2.478447577679795399e-01
2.453311783277878355e-01
2.427445615428419079e-01
2.400846276117901690e-01
2.373520369301052313e-01
2.345484319132900286e-01
2.316764588813753356e-01
2.287397701015733420e-01
2.257430061067484395e-01
2.226917589518385143e-01
2.195925173762248439e-01
2.164525950306653290e-01
2.132800430785562196e-01
2.100835491063801352e-01
2.068723239607707376e-01
2.036559786721361953e-01
2.004443937512679075e-01
1.972475829759229304e-01
1.940755540637232879e-01
1.909381686401821487e-01
1.878450037770921788e-01
1.848052173792101016e-01
1.818274196471714732e-01
1.789195525916336127e-01
1.760887795685139035e-01
1.733413863957296852e-01
1.706826956574627741e-01
1.681169953881171686e-01
1.656474830687916788e-01
1.632762257432462394e-01
1.610041365818040693e-01
1.588309681972807641e-01
1.567553225463090005e-01
1.547746770130439264e-01
1.528854261307906193e-01
1.510829380579215842e-01
1.493616247159596788e-01
1.477150243767576254e-01
1.461358952004110090e-01
1.446163181634315398e-01
1.431478077543454352e-01
1.417214285705570564e-01
1.403279159696420308e-01
1.389577990458267798e-01
1.376015239852186878e-01
1.362495761289324037e-01
1.348925988694408828e-01
1.335215078921955512e-01
1.321275991222052026e-01
1.307026491186367156e-01
1.292390066697147732e-01
1.277296744305717879e-01
1.261683799153573982e-01
1.245496351312309624e-01
1.228687843173583705e-01
1.211220395962473440e-01
1.193065043693506272e-01
1.174201846076576988e-01
1.154619884120857837e-01
1.134317141046177757e-01
1.113300276495287761e-01
1.091584299735590818e-01
1.069192151630158349e-01
1.046154204632551155e-01
1.022507690921688750e-01
9.982960696781384424e-02
9.735683454877776255e-02
9.483783482039549739e-02
9.227839865593095992e-02
8.968464862494639200e-02
8.706296242503164251e-02
8.441989686988246588e-02
8.176211340039907238e-02
7.909630606077150405e-02
7.642913273825337195e-02
7.376715022925055265e-02
7.111675390097202398e-02
6.848412232392932231e-02
6.587516721540727371e-02
6.329548912585476750e-02
6.075033885771176367e-02
5.824458481127125359e-02
5.578268616219222292e-02
5.336867183722445590e-02
5.100612503547539284e-02
4.869817310227609469e-02
4.644748246865813140e-02
4.425625831517535774e-02
4.212624858120572052e-02
4.005875191148971365e-02
3.805462916398786449e-02
3.611431807925846726e-02
3.423785071134465008e-02
3.242487321489782859e-02
3.067466769932758464e-02
2.898617568719960569e-02
2.735802296768576405e-02
2.578854552920778823e-02
2.427581635310836067e-02
2.281767281344395867e-02
2.141174456869245762e-02
2.005548175286648097e-02
1.874618327696998474e-02
1.748102520951492003e-02
1.625708923323385471e-02
1.507139092899605244e-02
1.392090789130086791e-02
1.280260763250916714e-02
1.171347524299512326e-02
1.065054057176589679e-02
9.610905075002972031e-03
8.591767938132981175e-03
7.590451559609438445e-03
6.604426223157483858e-03
5.631333639735827332e-03
4.669009340498382968e-03
3.715503658848122101e-03
2.769101036472622606e-03
1.828337350753615580e-03
8.920151463918750932e-04
-4.078357809755738574e-05
-9.706872642614038007e-04
-1.898027667476471928e-03
-2.822835873272254957e-03
-3.744841712966705261e-03
-4.663476804360982067e-03
-5.577881353806273153e-03
-6.486914694924512774e-03
-7.389169841921379087e-03
-8.282991918533204323e-03
-9.166500456265300883e-03
-1.003761538107099220e-02
-1.089408651434750110e-02
-1.173352636357104933e-02
-1.255344586990961298e-02
-1.335129270858509236e-02
-1.412449156290986746e-02
-1.487048604236705825e-02
-1.558678156885778820e-02
-1.627098857729567666e-02
-1.692086544356537908e-02
-1.753436038219946189e-02
-1.810965170180665190e-02
-1.864518556369178931e-02
-1.913971067670534876e-02
-1.959230921716170401e-02
-2.000242327178078719e-02
-2.036987628005110587e-02
-2.069488882286473277e-02
-2.097808840900934613e-02
-2.122051282763389238e-02
-2.142360677688361081e-02
-2.158921151025604279e-02
-2.171954747553603293e-02
-2.181719004772273915e-02
-2.188503834362235181e-02
-2.192627748922698280e-02
-2.194433471259494423e-02
-2.194282971181673800e-02
-2.192551995733956968e-02
-2.189624164953042629e-02
-2.185884712122504459e-02
-2.181713956525679898e-02
-2.177480608587790620e-02
-2.173535006344988127e-02
-2.170202394298387932e-02
-2.167776350233916252e-02
-2.166512474233607544e-02
-2.166622441917948408e-02
-2.168268537217238681e-02
-2.171558756357101078e-02
-2.176542590478102238e-02
-2.183207563052615152e-02
-2.191476607453612599e-02
-2.201206343381474292e-02
-2.212186310273882642e-02
-2.224139200536743091e-02
-2.236722112424984962e-02
-2.249528832410126536e-02
-2.262093144655354104e-02
-2.273893142257103761e-02
-2.284356509122469417e-02
-2.292866706648417560e-02
-2.298770006936702928e-02
-2.301383285217134880e-02
-2.300002475603329238e-02
-2.293911581347623380e-02
-2.282392118989089863e-02
-2.264732876004290837e-02
-2.240239838973226427e-02
-2.208246150467097629e-02
-2.168121963155932377e-02
-2.119284040244847830e-02
-2.061204967071384592e-02
-1.993421829797089109e-02
-1.915544228927014772e-02
-1.827261503707078641e-02
-1.728349065277402438e-02
-1.618673721692657011e-02
-1.498197911666584309e-02
-1.366982769636658664e-02
-1.225189969138396062e-02
-1.073082304533335730e-02
-9.110229856391812570e-03
-7.394736402622520237e-03
-5.589910384428181146e-03
-3.702225800674289850e-03
-1.739005783008366109e-03
2.916456965411992749e-04
2.380922563674359085e-03
4.519404773327358182e-03
6.697154681270513395e-03
8.903820408216038887e-03
1.112874483181071177e-02
1.336107875786544247e-02
1.558989668874151413e-02
1.780431381145334765e-02
1.999360242265593376e-02
2.214730635117401203e-02
2.425535182476350540e-02
2.630815331063417195e-02
2.829671284988066055e-02
3.021271168377423835e-02
3.204859283053024949e-02
3.379763367896310849e-02
3.545400757220108778e-02
3.701283363406342175e-02
3.847021427858509507e-02
3.982325998854133187e-02
4.107010104392017774e-02
4.220988624216588658e-02
4.324276866259361973e-02
4.416987891738105576e-02
4.499328622714109799e-02
4.571594804405001294e-02
4.634164909685643124e-02
4.687493078667167440e-02
4.732101199477010273e-02
4.768570252926448289e-02
4.797531041581466066e-02
4.819654451988004268e-02
4.835641390707345888e-02
4.846212534966726909e-02
4.852098043141057221e-02
4.854027368599279912e-02
4.852719318540556909e-02
4.848872492728594635e-02
4.843156243769974195e-02
4.836202249825036908e-02
4.828596833974786728e-02
4.820874111696774045e-02
4.813510047149681392e-02
4.806917500212713745e-02
4.801442298002268211e-02
4.797360382979521526e-02
4.794876045040348533e-02
4.794121242714453196e-02
4.795156012613117219e-02
4.797969925518006523e-02
4.802484546872673454e-02
4.808556853366900002e-02
4.815983528608865777e-02
4.824506054387488196e-02
4.833816509868053835e-02
4.843563973265383599e-02
4.853361418288615337e-02
4.862792996505150428e-02
4.871421582341246143e-02
4.878796469282164344e-02
4.884461085309386996e-02
4.887960624167991819e-02
4.888849481192109742e-02
4.886698380008416831e-02
4.881101084290240255e-02
4.871680620869424383e-02
4.858094908040964249e-02
4.840041731699134403e-02
4.817263015101250906e-02
4.789548319144634747e-02
4.756737539606737536e-02
4.718722793491461620e-02
4.675449467867956455e-02
4.626916438326261066e-02
4.573175484153534781e-02
4.514329909928104650e-02
4.450532424701137552e-02
4.381982330708009132e-02
4.308922071295589323e-02
4.231633208097181770e-02
4.150431898993281465e-02
4.065663967188001826e-02
3.977699634425931052e-02
3.886928007745017732e-02
3.793751412314677607e-02
3.698579657985007901e-02
3.601824322492311325e-02
3.503893138104673816e-02
3.405184558436478298e-02
3.306082593460357710e-02
3.206951968324786573e-02
3.108133671203142795e-02
3.009940950474619334e-02
2.912655797886184311e-02
2.816525964406605201e-02
2.721762530551815815e-02
2.628538051739206377e-02
2.536985287033428210e-02
2.447196507111191674e-02
2.359223382755360615e-02
2.273077422719107024e-02
2.188730948012617208e-02
2.106118554468185827e-02
2.025139046250385572e-02
1.945657776876979703e-02
1.867509359168820215e-02
1.790500676422937532e-02
1.714414157221970034e-02
1.639011247705329799e-02
1.564036028251972535e-02
1.489218907337755589e-02
1.414280351053899890e-02
1.338934579773981559e-02
1.262893196337644929e-02
1.185868683371076385e-02
1.107577739240138241e-02
1.027744410473892256e-02
9.461029928071367293e-03
8.624006701896377858e-03
7.763998725047253392e-03
6.878803388797484833e-03
5.966408741519869247e-03
5.025008044326246745e-03
4.053011182892207048e-03
3.049053226226312776e-03
2.012000120098040787e-03
9.409516739101089072e-04
-1.647578977068913752e-04
-1.305561672422898400e-03
-2.481663697142529306e-03
-3.693044375974460260e-03
-4.939467334426516330e-03
-6.220487441644745319e-03
-7.535459648977216145e-03
-8.883548475436819913e-03
-1.026373792047596649e-02
-1.167484145295054170e-02
-1.311551195666058392e-02
-1.458425143532829024e-02
-1.607942035982451445e-02
-1.759924652484527730e-02
-1.914183343208831350e-02
-2.070516799882702805e-02
-2.228712768944546632e-02
-2.388548717916861089e-02
-2.549792447084236677e-02
-2.712202668217454302e-02
-2.875529551431783154e-02
-3.039515259661252147e-02
-3.203894486693684845e-02
-3.368395006592336122e-02
-3.532738262241064131e-02
-3.696640000488648353e-02
-3.859810978184292224e-02
-4.021957742019002802e-02
-4.182783495255416178e-02
-4.341989076779296380e-02
-4.499274045351311924e-02
-4.654337874312038104e-02
-4.806881271837237096e-02
-4.956607608410688176e-02
-5.103224452188647592e-02
-5.246445201517112300e-02
-5.385990807643030454e-02
-5.521591567609676621e-02
-5.652988965076936184e-02
-5.779937533886992523e-02
-5.902206736313075214e-02
-6.019582807442857425e-02
-6.131870550291055461e-02
-6.238895046148511953e-02
-6.340503250254737877e-02
-6.436565447099203141e-02
-6.526976526632918829e-02
-6.611657059934232528e-02
-6.690554151991665033e-02
-6.763642038449567406e-02
-6.830922408699154069e-02
-6.892424443172018300e-02
-6.948204545453287584e-02
-6.998345769055970556e-02
-7.042956933266544817e-02
-7.082171417786392587e-02
-7.116145656093797456e-02
-7.145057341354052460e-02
-7.169103357485738515e-02
-7.188497450568955005e-02
-7.203467672894341145e-02
-7.214253639813161811e-02
-7.221103624052102599e-02
-7.224271520158476179e-02
-7.224013742074882061e-02
-7.220586070598515593e-02
-7.214240517384942764e-02
-7.205222239182904054e-02
-7.193766554722438866e-02
-7.180096101392949293e-02
-7.164418177180829905e-02
-7.146922314615129779e-02
-7.127778117096573995e-02
-7.107133400672772938e-02
-7.085112652225962482e-02
-7.061815848665627116e-02
-7.037317649254025420e-02
-7.011666964967443183e-02
-6.984886933367315254e-02
-6.956975279696676895e-02
-6.927905070131441800e-02
-6.897625838699514289e-02
-6.866065079378723401e-02
-6.833130075451054886e-02
-6.798710035430256815e-02
-6.762678508422712009e-02
-6.724896035661719063e-02
-6.685212996087325221e-02
-6.643472602244573921e-02
-6.599514008098426865e-02
-6.553175467890591521e-02
-6.504297502607706005e-02
-6.452726024569084562e-02
-6.398315369737066216e-02
-6.340931200339566809e-02
-6.280453216428527607e-02
-6.216777651095110185e-02
-6.149819509442650683e-02
-6.079514514658475310e-02
-6.005820741065434620e-02
-5.928719905918520411e-02
-5.848218311662632674e-02
-5.764347415428679178e-02
-5.677164039123466094e-02
-5.586750213562213102e-02
-5.493212666530806337e-02
-5.396681967261908464e-02
-5.297311352983168770e-02
-5.195275256442770384e-02
-5.090767562472648528e-02
-4.983999636987186677e-02
-4.875198155867695171e-02
-4.764602775009918467e-02
-4.652463682921825772e-02
-4.539039082588853385e-02
-4.424592629719382303e-02
-4.309390884569529873e-02
-4.193700809331690066e-02
-4.077787356242197625e-02
-3.961911172762087180e-02
-3.846326463235660159e-02
-3.731279023983189586e-02
-3.617004495243036910e-02
-3.503726828537519211e-02
-3.391656992763441431e-02
-3.280991928578291805e-02
-3.171913752567506045e-02
-3.064589208018092883e-02
-2.959169358415049411e-02
-2.855789501697302696e-02
-2.754569308387232532e-02
-2.655613148428803000e-02
-2.559010583570831346e-02
-2.464837012296371144e-02
-2.373154417616209211e-02
-2.284012205909512899e-02
-2.197448102356024460e-02
-2.113489058767300047e-02
-2.032152163496056541e-02
-1.953445511959965575e-02
-1.877369009376290629e-02
-1.803915088218564777e-02
-1.733069326473124852e-02
-1.664810925414954984e-02
-1.599113061356809834e-02
-1.535943087680320326e-02
-1.475262589139244782e-02
-1.417027291072877476e-02
-1.361186822055134027e-02
-1.307684355525429165e-02
-1.256456133899571878e-02
-1.207430899626596790e-02
-1.160529257081466779e-02
-1.115662999551608747e-02
-1.072734419602660617e-02
-1.031635635240422261e-02
-9.922479759288664602e-03
-9.544414574936366941e-03
-9.180743804734813399e-03
-8.829930765384168961e-03
-8.490318422483456376e-03
-8.160130861876736461e-03
-7.837477108624530189e-03
-7.520357440890589745e-03
-7.206672556411701340e-03
-6.894235438958409845e-03
-6.580786168209032568e-03
-6.264009483330087828e-03
-5.941555093591634716e-03
-5.611060632680489775e-03
-5.270176959857129223e-03
-4.916595641964037651e-03
-4.548078070021897672e-03
-4.162486065996392343e-03
-3.757813410889115739e-03
-3.332217727187500051e-03
-2.884052357215617125e-03
-2.411897619768101075e-03
-1.914590842981600625e-03
-1.391254670657205957e-03
-8.413230244279259855e-04
-2.645640872521686621e-04
3.389000107143216802e-04
9.685774943358214971e-04
1.623595635743148909e-03
2.302694167001752799e-03
3.004223833169981667e-03
3.726150248040018768e-03
4.466063289595308822e-03
5.221192188028371019e-03
5.988426186226367479e-03
6.764340776147691886e-03
7.545229220117096944e-03
8.327139285801652205e-03
9.105914549073054060e-03
9.877240045097461160e-03
1.063669158069637660e-02
1.137978816165183607e-02
1.210204686696770941e-02
1.279903937529193805e-02
1.346644939331767890e-02
1.410013014681309185e-02
1.469616104306118408e-02
1.525090267826416726e-02
1.576104944183444323e-02
1.622367874426450945e-02
1.663629608299231274e-02
1.699687522394671690e-02
1.730389280722728629e-02
1.755635671315178281e-02
1.775382773802353098e-02
1.789643400798217321e-02
1.798487788588627734e-02
1.802043502812261319e-02
1.800494555093775165e-02
1.794079727798422730e-02
1.783090113187420916e-02
1.767865901180470586e-02
1.748792447431128314e-02
1.726295655585306787e-02
1.700836751805262503e-02
1.672906502692467906e-02
1.643018966319970131e-02
1.611704855141944670e-02
1.579504601146671655e-02
1.546961224088235463e-02
1.514613100692316708e-02
1.482986743705193289e-02
1.452589694633196413e-02
1.423903631949305186e-02
1.397377792380707397e-02
1.373422811099877724e-02
1.352405068969446053e-02
1.334641633014681944e-02
1.320395862583254899e-02
1.309873757361512334e-02
1.303221091290535268e-02
1.300521391866057627e-02
1.301794788259890562e-02
1.306997743642816616e-02
1.316023689329627253e-02
1.328704544917602530e-02
1.344813110061639227e-02
1.364066294227692967e-02
1.386129130202731069e-02
1.410619522887289305e-02
1.437113659534225082e-02
1.465152003482595583e-02
1.494245789343045736e-02
1.523883914007194244e-02
1.553540137533488200e-02
1.582680466315824694e-02
1.610770637195982000e-02
1.637283576114948250e-02
1.661706731952639418e-02
1.683549172142684638e-02
1.702348347629701816e-02
1.717676420650403324e-02
1.729146075006883151e-02
1.736415719584331885e-02
1.739194025974106009e-02
1.737243723818629806e-02
1.730384614397497550e-02
1.718495765057856395e-02
1.701516859049082009e-02
1.679448681438847762e-02
1.652352753502762256e-02
1.620350123738242137e-02
1.583619347225245430e-02
1.542393682055860638e-02
1.496957565955311063e-02
1.447642422517178562e-02
1.394821873538620860e-02
1.338906431651595147e-02
1.280337766076467855e-02
1.219582622907062867e-02
1.157126492121665802e-02
1.093467129747770564e-02
1.029108021644218121e-02
9.645518924864031340e-03
9.002943565692898137e-03
8.368177857344463733e-03
7.745855008918980412e-03
7.140363558393411636e-03
6.555797862968220681e-03
5.995913861549362518e-03
5.464090742808893827e-03
4.963298780005296132e-03
4.496073884980369972e-03
4.064498883384961257e-03
3.670191801809107989e-03
3.314301090963554797e-03
2.997507590146565679e-03
2.720033222730643130e-03
2.481655871408470267e-03
2.281730227100695497e-03
2.119213986566079698e-03
1.992698854470449470e-03
1.900445798498922537e-03
1.840423787542337652e-03
1.810351288058135695e-03
1.807739873252498354e-03
1.829939075690868331e-03
1.874181753067903546e-03
1.937629280378362412e-03
2.017415730545397013e-03
2.110690468070416763e-03
2.214658556294963210e-03
2.326618264559771575e-03
2.443995150618560180e-03
2.564372423666552020e-03
2.685517165712871922e-03
2.805402089377777991e-03
2.922222714136391442e-03
3.034409785685444286e-03
3.140636950973711271e-03
3.239823841465603108e-03
3.331134595635619738e-03
3.413972004775426075e-03
3.487967795043182134e-03
3.552969200696903113e-03
3.609022350844608498e-03
3.656352944437483380e-03
3.695344563284667320e-03
3.726515356623954448e-03
3.750493473541478742e-03
3.767991895087127729e-03
3.779783136662080191e-03
3.786674384589116486e-03
3.789483532390525503e-03
3.789016668206659361e-03
3.786047273987390785e-03
3.781297668773180368e-03
3.775422963960045099e-03
3.768997750135045285e-03
3.762505694954922791e-03
3.756332263863286936e-03
3.750760629991672663e-03
3.745970650801973018e-03
3.742040895211958245e-03
3.738953605810660039e-03
3.736602384510047392e-03
3.734802371898993112e-03
3.733302564991866634e-03
3.731799959961654926e-03
3.729955180507814067e-03
3.727409127907907460e-03
3.723800266965992915e-03
3.718782106278184073e-03
3.712040504181783346e-03
3.703310321733873072e-03
3.692390952719239259e-03
3.679160454774944595e-03
3.663587953791672645e-03
3.645743942093934015e-03
3.625808209741614597e-03
3.604075233541515540e-03
3.580956801939096015e-03
3.556981864891683304e-03
3.532793476857188503e-03
3.509142910555725255e-03
3.486880954429453366e-03
3.466946559201909001e-03
3.450352976608840952e-03
3.438171692100660051e-03
3.431514368453016453e-03
3.431513112696541520e-03
3.439299502387697244e-03
3.455982690439098060e-03
3.482626942842542272e-03
3.520229144757944933e-03
3.569696597599354357e-03
3.631825591687052636e-03
3.707281080007088399e-03
3.796577921460685730e-03
3.900063988277208821e-03
4.017905637177195122e-03
4.150075586695287436e-03
4.296343649757643733e-03
4.456270486214958075e-03
4.629204471123867827e-03
4.814281825915796807e-03
5.010430056343660385e-03
5.216374722339517378e-03
5.430649444604013394e-03
5.651609012408059969e-03
5.877445439357236595e-03
6.106206788412873489e-03
6.335818427070697388e-03
6.564106429913985595e-03
6.788822845729408292e-03
7.007672445214651984e-03
7.218340407391798420e-03
7.418520763587317136e-03
7.605944981690620187e-03
7.778410453408334674e-03
7.933808296105919824e-03
8.070150114716840087e-03
8.185593336976612969e-03
8.278464797000201214e-03
8.347282184552752560e-03
8.390772971183194096e-03
8.407890742735707468e-03
8.397828520744084549e-03
8.360028962328333590e-03
8.294191374218912172e-03
8.200275291726663585e-03
8.078500789012918112e-03
7.929345354354980224e-03
7.753537525858817878e-03
7.552047316914923224e-03
7.326073600783391572e-03
7.077028707946055909e-03
6.806520356352772742e-03
6.516331298188095082e-03
6.208396895337839165e-03
5.884781023038569703e-03
5.547650599591677847e-03
5.199249017357646108e-03
4.841869021661874065e-03
4.477825237154147396e-03
4.109426760834967302e-03
3.738950203365698412e-03
3.368613486945475598e-03
3.000550738230208132e-03
2.636788593122835721e-03
2.279224187327470643e-03
1.929605079089359880e-03
1.589511351641778461e-03
1.260340016744175909e-03
9.432919933592664443e-04
6.393616631729427419e-04
3.493291733621369313e-04
7.375547880363693062e-05
-1.870198176106007706e-04
-4.328779240515089445e-04
-6.639175255394367094e-04
-8.804488738914485009e-04
-1.082985399914972733e-03
-1.272232911849688949e-03
-1.449076657093069723e-03
-1.614566310922243902e-03
-1.769899196514895844e-03
-1.916401938270266472e-03
-2.055510710042909861e-03
-2.188750419890896082e-03
-2.317712974870111704e-03
-2.444034991167829112e-03
-2.569375145741798015e-03
-2.695391412352190260e-03
-2.823718441857579406e-03
-2.955945349852646606e-03
-3.093594122870486213e-03
-3.238098864001877873e-03
-3.390786074205549925e-03
-3.552856266871949088e-03
-3.725366941803546529e-03
-3.909217303404840735e-03
-4.105134585060912777e-03
-4.313662336465456416e-03
-4.535150813757155355e-03
-4.769749437093807540e-03
-5.017401394096194372e-03
-5.277840576267798026e-03
-5.550590833981513400e-03
-5.834967562339100564e-03
-6.130081623569415619e-03
-6.434845570328087509e-03
-6.747982192943458545e-03
-7.068035283034243901e-03
-7.393382586319940941e-03
-7.722250732682712192e-03
-8.052732269818311736e-03
-8.382804333644062675e-03
-8.710349109410972512e-03
-9.033175728448143010e-03
-9.349043509638733582e-03
-9.655686249754198355e-03
-9.950837461811485457e-03
-1.023225618408826233e-02
-1.049775318433856207e-02
-1.074521731177388237e-02
-1.097264170010287844e-02
-1.117814951650113880e-02
-1.136001907177454189e-02
-1.151670785130144703e-02
-1.164687530016691487e-02
-1.174940405331408033e-02
-1.182341922079750175e-02
-1.186830567351834613e-02
-1.188372288629948106e-02
-1.186961712243359175e-02
-1.182623083360975248e-02
-1.175410901186902703e-02
-1.165410231892538215e-02
-1.152736691306961887e-02
-1.137536078794959896e-02
-1.119983662083607126e-02
-1.100283102967384435e-02
-1.078665033350627647e-02
-1.055385279276025400e-02
-1.030722748529803307e-02
-1.004976992353795451e-02
-9.784654618870068307e-03
-9.515204747143478359e-03
-9.244859226124885546e-03
-8.977137570847329093e-03
-8.715602817061792601e-03
-8.463822911818980749e-03
-8.225330953005531576e-03
-8.003584714196480820e-03
-7.801925928341770129e-03
-7.623539912558052918e-03
-7.471415780658595407e-03
-7.348307993415228653e-03
-7.256699581471690377e-03
-7.198767528610240662e-03
-7.176350843799809281e-03
-7.190921747433344675e-03
-7.243560390862997800e-03
-7.334933463911956671e-03
-7.465277007812139154e-03
-7.634383868586028417e-03
-7.841595902239621371e-03
-8.085801131636446634e-03
-8.365436031254221833e-03
-8.678493039093779227e-03
-9.022533205178425580e-03
-9.394703980316576955e-03
-9.791762062950810225e-03
-1.021010094454540169e-02
-1.064578308581494090e-02
-1.109457630236627100e-02
-1.155199400040398706e-02
-1.201333881912511857e-02
-1.247374919675598576e-02
-1.292824843720224645e-02
-1.337179552951087320e-02
-1.379933724078648977e-02
-1.420586091892975591e-02
-1.458644727012936917e-02
-1.493632245348561031e-02
-1.525090903816161969e-02
-1.552587503667044594e-02
-1.575718042415577211e-02
-1.594112072493838669e-02
-1.607436694479887074e-02
-1.615400142007752254e-02
-1.617754921269855609e-02
-1.614300460567200113e-02
-1.604885230031661766e-02
-1.589408320919062992e-02
-1.567820456840077550e-02
-1.540124422880959423e-02
-1.506374917876675268e-02
-1.466677828449705276e-02
-1.421188931557420751e-02
-1.370112047560844738e-02
-1.313696669097180574e-02
-1.252235107683364809e-02
-1.186059173084991029e-02
-1.115536450227325518e-02
-1.041066208928143402e-02
-9.630750095237753869e-03
-8.820120560996340398e-03
-7.983443530923027553e-03
-7.125517302506827362e-03
-6.251218030424758425e-03
-5.365449219275783728e-03
-4.473091812990844136e-03
-3.578955390159903500e-03
-2.687731122829045607e-03
-1.803947015028910597e-03
-9.319259856180949582e-04
-7.574713883595589337e-05
7.607891974858035315e-04
1.574192440220641273e-03
2.361308326879759268e-03
3.119340883199249806e-03
3.845869587564472360e-03
4.538861777925815716e-03
5.196680015880477017e-03
5.818084529850026977e-03
6.402230827561069225e-03
6.948662716460889295e-03
7.457300723695586137e-03
7.928426358855739098e-03
8.362662429598178085e-03
8.760949797345516515e-03
9.124520954989943575e-03
9.454870867080050756e-03
9.753725456944412411e-03
1.002300820389836165e-02
1.026480543988393841e-02
1.048133068934299292e-02
1.067488863194602892e-02
1.084783904380068505e-02
1.100256134629503703e-02
1.114142002067711711e-02
1.126673138029591660e-02
1.138073207151183222e-02
1.148554967047818454e-02
1.158317563462074248e-02
1.167544091455638422e-02
1.176399447499544906e-02
1.185028487288113282e-02
1.193554505689355637e-02
1.202078037342560121e-02
1.210676003533372493e-02
1.219401196132140555e-02
1.228282092057297534e-02
1.237322993790990547e-02
