-7.019039999999999828e-03
-6.866459999999999578e-03
-6.408689999999999873e-03
-5.340580000000000153e-03
-4.882809999999999581e-03
-4.425049999999999817e-03
-4.730220000000000258e-03
-4.425049999999999817e-03
-4.425049999999999817e-03
-4.425049999999999817e-03
-4.577640000000000008e-03
-4.730220000000000258e-03
-4.272459999999999626e-03
-4.272459999999999626e-03
-4.272459999999999626e-03
-4.425049999999999817e-03
-4.425049999999999817e-03
-4.730220000000000258e-03
-4.425049999999999817e-03
-4.272459999999999626e-03
-4.577640000000000008e-03
-4.425049999999999817e-03
-4.730220000000000258e-03
-4.730220000000000258e-03
-4.425049999999999817e-03
-4.425049999999999817e-03
-4.425049999999999817e-03
-4.577640000000000008e-03
-4.272459999999999626e-03
-4.119870000000000303e-03
-2.746580000000000202e-03
-2.288820000000000004e-03
-1.983640000000000056e-03
-2.288820000000000004e-03
-2.136229999999999813e-03
-1.983640000000000056e-03
-1.831050000000000082e-03
-2.136229999999999813e-03
-1.983640000000000056e-03
-2.136229999999999813e-03
-2.136229999999999813e-03
-1.983640000000000056e-03
-2.136229999999999813e-03
-1.983640000000000056e-03
-1.983640000000000056e-03
-1.983640000000000056e-03
-2.136229999999999813e-03
-2.746580000000000202e-03
-3.662110000000000105e-03
-4.272459999999999626e-03
-4.730220000000000258e-03
-4.577640000000000008e-03
-4.730220000000000258e-03
-6.561280000000000064e-03
-6.408689999999999873e-03
-7.171630000000000019e-03
-7.019039999999999828e-03
-6.866459999999999578e-03
-6.713870000000000254e-03
-7.171630000000000019e-03
-6.866459999999999578e-03
-9.155270000000000075e-03
-9.613039999999999780e-03
-9.002690000000000692e-03
-9.460450000000000456e-03
-9.155270000000000075e-03
-9.002690000000000692e-03
-7.781979999999999974e-03
-7.171630000000000019e-03
-7.019039999999999828e-03
-6.866459999999999578e-03
-6.866459999999999578e-03
-7.019039999999999828e-03
-6.408689999999999873e-03
-6.866459999999999578e-03
-7.476810000000000400e-03
-8.697510000000000310e-03
-9.155270000000000075e-03
-9.307859999999999398e-03
-9.307859999999999398e-03
-9.002690000000000692e-03
-9.307859999999999398e-03
-9.765619999999999162e-03
-9.460450000000000456e-03
-9.765619999999999162e-03
-9.613039999999999780e-03
-9.765619999999999162e-03
-9.155270000000000075e-03
-9.460450000000000456e-03
-9.460450000000000456e-03
-9.613039999999999780e-03
-9.460450000000000456e-03
-9.307859999999999398e-03
-9.613039999999999780e-03
-9.307859999999999398e-03
-9.002690000000000692e-03
-7.781979999999999974e-03
-7.171630000000000019e-03
-7.171630000000000019e-03
-7.324220000000000209e-03
-6.866459999999999578e-03
-7.476810000000000400e-03
-8.697510000000000310e-03
-9.307859999999999398e-03
-9.307859999999999398e-03
-9.155270000000000075e-03
-9.460450000000000456e-03
-9.460450000000000456e-03
-9.155270000000000075e-03
-9.307859999999999398e-03
-9.307859999999999398e-03
-9.460450000000000456e-03
-9.613039999999999780e-03
-1.083369999999999993e-02
-1.159669999999999972e-02
-1.190189999999999998e-02
-1.190189999999999998e-02
-1.190189999999999998e-02
-1.144410000000000045e-02
-1.022340000000000054e-02
-9.613039999999999780e-03
-9.613039999999999780e-03
-9.307859999999999398e-03
-9.765619999999999162e-03
-9.155270000000000075e-03
-9.765619999999999162e-03
-1.007079999999999954e-02
-1.159669999999999972e-02
-1.190189999999999998e-02
-1.205439999999999984e-02
-1.174930000000000072e-02
-1.174930000000000072e-02
-1.174930000000000072e-02
-1.190189999999999998e-02
-1.205439999999999984e-02
-1.220700000000000084e-02
-1.312259999999999989e-02
-1.419070000000000054e-02
-1.434329999999999980e-02
-1.403809999999999954e-02
-1.449579999999999966e-02
-1.449579999999999966e-02
-1.617429999999999909e-02
-1.647950000000000109e-02
-1.693729999999999888e-02
-1.693729999999999888e-02
-1.693729999999999888e-02
-1.678469999999999962e-02
-1.647950000000000109e-02
-1.724240000000000148e-02
-1.831050000000000039e-02
-1.937869999999999870e-02
-1.922609999999999944e-02
-1.922609999999999944e-02
-1.937869999999999870e-02
-1.907350000000000018e-02
-1.922609999999999944e-02
-1.922609999999999944e-02
-1.922609999999999944e-02
-1.907350000000000018e-02
-1.922609999999999944e-02
-1.892090000000000091e-02
-1.907350000000000018e-02
-1.922609999999999944e-02
-1.922609999999999944e-02
-1.907350000000000018e-02
-1.937869999999999870e-02
-1.922609999999999944e-02
-1.937869999999999870e-02
-1.937869999999999870e-02
-1.907350000000000018e-02
-1.907350000000000018e-02
-1.922609999999999944e-02
-1.937869999999999870e-02
-1.922609999999999944e-02
-1.937869999999999870e-02
-1.907350000000000018e-02
-1.907350000000000018e-02
-1.907350000000000018e-02
-1.922609999999999944e-02
-1.892090000000000091e-02
-1.937869999999999870e-02
-1.922609999999999944e-02
-1.922609999999999944e-02
-1.907350000000000018e-02
-1.937869999999999870e-02
-1.953119999999999856e-02
-1.907350000000000018e-02
-1.922609999999999944e-02
-1.907350000000000018e-02
-1.907350000000000018e-02
-1.922609999999999944e-02
-1.876830000000000165e-02
-1.739500000000000074e-02
-1.678469999999999962e-02
-1.663210000000000036e-02
-1.663210000000000036e-02
-1.708979999999999874e-02
-1.663210000000000036e-02
-1.663210000000000036e-02
-1.678469999999999962e-02
-1.663210000000000036e-02
-1.632689999999999836e-02
-1.480099999999999992e-02
-1.449579999999999966e-02
-1.403809999999999954e-02
-1.419070000000000054e-02
-1.464840000000000066e-02
-1.419070000000000054e-02
-1.358030000000000001e-02
-1.281739999999999963e-02
-1.190189999999999998e-02
-1.205439999999999984e-02
-1.205439999999999984e-02
-1.235960000000000010e-02
-1.205439999999999984e-02
-1.220700000000000084e-02
-1.144410000000000045e-02
-1.007079999999999954e-02
-9.765619999999999162e-03
-9.613039999999999780e-03
-9.307859999999999398e-03
-9.307859999999999398e-03
-9.460450000000000456e-03
-9.155270000000000075e-03
-9.460450000000000456e-03
-9.460450000000000456e-03
-9.460450000000000456e-03
-9.460450000000000456e-03
-9.613039999999999780e-03
-9.765619999999999162e-03
-9.613039999999999780e-03
-8.850099999999999634e-03
-7.781979999999999974e-03
-7.171630000000000019e-03
-7.019039999999999828e-03
-6.866459999999999578e-03
-7.019039999999999828e-03
-7.019039999999999828e-03
-6.866459999999999578e-03
-7.171630000000000019e-03
-6.713870000000000254e-03
-7.171630000000000019e-03
-6.713870000000000254e-03
-7.171630000000000019e-03
-6.713870000000000254e-03
-6.866459999999999578e-03
-6.713870000000000254e-03
-6.103520000000000299e-03
-4.882809999999999581e-03
-4.730220000000000258e-03
-4.577640000000000008e-03
-4.425049999999999817e-03
-4.425049999999999817e-03
-4.730220000000000258e-03
-4.577640000000000008e-03
-4.425049999999999817e-03
-4.425049999999999817e-03
-4.425049999999999817e-03
-5.035399999999999772e-03
-4.577640000000000008e-03
-4.272459999999999626e-03
-4.425049999999999817e-03
-4.730220000000000258e-03
-4.577640000000000008e-03
-4.577640000000000008e-03
-3.967290000000000053e-03
-2.746580000000000202e-03
-1.983640000000000056e-03
-2.288820000000000004e-03
-1.525880000000000075e-03
-7.629390000000000217e-04
3.051759999999999933e-04
1.831050000000000082e-03
3.051760000000000150e-03
5.035399999999999772e-03
7.171630000000000019e-03
9.460450000000000456e-03
1.190189999999999998e-02
1.449579999999999966e-02
1.663210000000000036e-02
1.892090000000000091e-02
2.227780000000000038e-02
2.593989999999999838e-02
2.929690000000000072e-02
3.372189999999999910e-02
3.799439999999999762e-02
4.104610000000000203e-02
4.577640000000000181e-02
5.004879999999999746e-02
5.462650000000000144e-02
5.813600000000000018e-02
6.240840000000000276e-02
6.729129999999999834e-02
7.217410000000000492e-02
7.598879999999999524e-02
8.010860000000000203e-02
8.422849999999999782e-02
8.850099999999999634e-02
9.185790000000000621e-02
9.597780000000000200e-02
9.948730000000000073e-02
1.029970000000000052e-01
1.063540000000000041e-01
1.089480000000000032e-01
1.113890000000000019e-01
1.139830000000000010e-01
1.161190000000000000e-01
1.181029999999999996e-01
1.193239999999999995e-01
1.208499999999999991e-01
1.217649999999999982e-01
1.231379999999999975e-01
1.237489999999999979e-01
1.234439999999999982e-01
1.217649999999999982e-01
1.193239999999999995e-01
1.164250000000000007e-01
1.124570000000000014e-01
1.074220000000000036e-01
1.002500000000000058e-01
9.124759999999999815e-02
8.148189999999999600e-02
6.973269999999999469e-02
5.783080000000000165e-02
4.531860000000000055e-02
3.097530000000000075e-02
1.556399999999999971e-02
0.000000000000000000e+00
-1.678469999999999962e-02
-3.356930000000000330e-02
-5.096439999999999998e-02
-6.912229999999999763e-02
-8.712770000000000237e-02
-1.062010000000000037e-01
-1.272580000000000100e-01
-1.478579999999999894e-01
-1.689150000000000096e-01
-1.893620000000000025e-01
-2.122499999999999942e-01
-2.343750000000000000e-01
-2.569580000000000197e-01
-2.804570000000000118e-01
-3.036499999999999755e-01
-3.266910000000000092e-01
-3.500369999999999870e-01
-3.726200000000000068e-01
-3.936769999999999992e-01
-4.147339999999999915e-01
-4.348750000000000115e-01
-4.541020000000000056e-01
-4.722600000000000131e-01
-4.878230000000000066e-01
-5.024720000000000297e-01
-5.157469999999999555e-01
-5.267330000000000068e-01
-5.363459999999999894e-01
-5.436710000000000154e-01
-5.473329999999999584e-01
-5.496220000000000550e-01
-5.497739999999999849e-01
-5.485529999999999573e-01
-5.453489999999999727e-01
-5.392460000000000031e-01
-5.322270000000000056e-01
-5.245969999999999800e-01
-5.157469999999999555e-01
-5.053710000000000147e-01
-4.939270000000000049e-01
-4.817199999999999815e-01
-4.678340000000000276e-01
-4.554750000000000187e-01
-4.432679999999999954e-01
-4.302980000000000138e-01
-4.170229999999999770e-01
-4.040529999999999955e-01
-3.915409999999999724e-01
-3.796390000000000042e-01
-3.668210000000000082e-01
-3.538510000000000266e-01
-3.408809999999999896e-01
-3.279110000000000080e-01
-3.146360000000000268e-01
-3.018190000000000039e-01
-2.890010000000000079e-01
-2.754210000000000269e-01
-2.624509999999999899e-01
-2.502440000000000220e-01
-2.374269999999999992e-01
-2.241519999999999901e-01
-2.114870000000000083e-01
-1.995850000000000124e-01
-1.889039999999999886e-01
-1.773069999999999924e-01
-1.647949999999999970e-01
-1.538090000000000013e-01
-1.422120000000000051e-01
-1.310729999999999951e-01
-1.208499999999999991e-01
-1.106260000000000021e-01
-9.918209999999999527e-02
-8.880620000000000180e-02
-7.873539999999999706e-02
-6.759640000000000093e-02
-5.722050000000000053e-02
-4.699709999999999999e-02
-3.601069999999999965e-02
-2.563479999999999925e-02
-1.571660000000000071e-02
-6.103520000000000299e-03
3.356930000000000157e-03
1.312259999999999989e-02
2.304080000000000017e-02
3.265379999999999672e-02
4.150390000000000329e-02
4.974370000000000180e-02
5.950930000000000109e-02
6.805419999999999525e-02
7.644650000000000056e-02
8.422849999999999782e-02
9.307859999999999745e-02
1.007080000000000058e-01
1.080320000000000030e-01
1.153560000000000002e-01
1.220699999999999980e-01
1.281740000000000101e-01
1.347349999999999937e-01
1.403810000000000058e-01
1.470950000000000035e-01
1.522830000000000017e-01
1.571660000000000001e-01
1.622010000000000118e-01
1.669309999999999961e-01
1.716610000000000080e-01
1.768490000000000062e-01
1.809689999999999910e-01
1.837159999999999904e-01
1.872250000000000025e-01
1.910399999999999876e-01
1.939390000000000003e-01
1.962280000000000135e-01
1.986690000000000123e-01
2.000429999999999986e-01
2.017210000000000114e-01
2.033999999999999975e-01
2.044680000000000109e-01
2.059940000000000104e-01
2.072140000000000093e-01
2.085879999999999956e-01
2.091979999999999951e-01
2.093510000000000093e-01
2.099610000000000087e-01
2.111820000000000086e-01
2.114870000000000083e-01
2.117920000000000080e-01
2.116389999999999938e-01
2.111820000000000086e-01
2.119449999999999945e-01
2.116389999999999938e-01
2.114870000000000083e-01
2.116389999999999938e-01
2.117920000000000080e-01
2.116389999999999938e-01
2.119449999999999945e-01
2.113339999999999941e-01
2.102660000000000085e-01
2.095029999999999948e-01
2.095029999999999948e-01
2.091979999999999951e-01
2.090450000000000086e-01
2.075200000000000100e-01
2.069090000000000096e-01
2.067569999999999963e-01
2.067569999999999963e-01
2.059940000000000104e-01
2.050780000000000103e-01
2.044680000000000109e-01
2.037049999999999972e-01
2.027889999999999970e-01
2.021789999999999976e-01
2.021789999999999976e-01
2.011110000000000120e-01
2.003479999999999983e-01
1.995850000000000124e-01
1.997379999999999989e-01
1.986690000000000123e-01
1.972959999999999992e-01
1.972959999999999992e-01
1.974490000000000134e-01
1.963810000000000000e-01
1.951600000000000001e-01
1.947019999999999862e-01
1.945500000000000007e-01
1.945500000000000007e-01
1.942440000000000000e-01
1.928709999999999869e-01
1.924130000000000007e-01
1.921080000000000010e-01
1.919559999999999877e-01
1.901249999999999885e-01
1.899720000000000020e-01
1.896670000000000023e-01
1.892089999999999883e-01
1.879879999999999884e-01
1.873779999999999890e-01
1.867679999999999896e-01
1.855469999999999897e-01
1.849369999999999903e-01
1.846309999999999896e-01
1.832580000000000042e-01
1.827999999999999903e-01
1.817320000000000046e-01
1.805110000000000048e-01
1.799010000000000054e-01
1.797489999999999921e-01
1.779169999999999918e-01
1.777650000000000063e-01
1.777650000000000063e-01
1.771550000000000069e-01
1.759340000000000070e-01
1.754759999999999931e-01
1.747130000000000072e-01
1.733399999999999941e-01
1.731870000000000076e-01
1.722720000000000085e-01
1.705929999999999946e-01
1.698300000000000087e-01
1.684569999999999956e-01
1.678469999999999962e-01
1.672359999999999958e-01
1.660159999999999969e-01
1.654049999999999965e-01
1.646420000000000106e-01
1.637270000000000114e-01
1.626589999999999980e-01
1.612850000000000117e-01
1.608279999999999987e-01
1.600650000000000128e-01
1.586909999999999987e-01
1.582340000000000135e-01
1.573180000000000134e-01
1.562500000000000000e-01
1.556400000000000006e-01
1.551819999999999866e-01
1.541140000000000010e-01
1.533509999999999873e-01
1.536559999999999870e-01
1.527399999999999869e-01
1.512149999999999883e-01
1.509089999999999876e-01
1.507570000000000021e-01
1.506039999999999879e-01
1.506039999999999879e-01
1.489260000000000028e-01
1.486210000000000031e-01
1.487729999999999886e-01
1.484679999999999889e-01
1.484679999999999889e-01
1.480100000000000027e-01
1.466369999999999896e-01
1.458740000000000037e-01
1.460269999999999901e-01
1.458740000000000037e-01
1.461790000000000034e-01
1.460269999999999901e-01
1.454159999999999897e-01
1.441959999999999908e-01
1.440430000000000044e-01
1.437380000000000047e-01
1.437380000000000047e-01
1.435849999999999904e-01
1.428220000000000045e-01
1.432799999999999907e-01
1.437380000000000047e-01
1.434330000000000049e-01
1.435849999999999904e-01
1.429749999999999910e-01
1.419070000000000054e-01
1.414489999999999914e-01
1.412960000000000049e-01
1.412960000000000049e-01
1.409910000000000052e-01
1.409910000000000052e-01
1.411439999999999917e-01
1.412960000000000049e-01
1.408389999999999920e-01
1.405329999999999913e-01
1.393129999999999924e-01
1.387019999999999920e-01
1.387019999999999920e-01
1.385500000000000065e-01
1.383969999999999922e-01
1.382450000000000068e-01
1.367190000000000072e-01
1.365659999999999930e-01
1.364140000000000075e-01
1.364140000000000075e-01
1.362609999999999932e-01
1.362609999999999932e-01
1.359559999999999935e-01
1.356509999999999938e-01
1.342770000000000075e-01
1.339720000000000077e-01
1.335139999999999938e-01
1.333620000000000083e-01
1.335139999999999938e-01
1.338199999999999945e-01
1.336670000000000080e-01
1.335139999999999938e-01
1.335139999999999938e-01
1.342770000000000075e-01
1.338199999999999945e-01
1.336670000000000080e-01
1.338199999999999945e-01
1.330570000000000086e-01
1.319889999999999952e-01
1.315310000000000090e-01
1.313779999999999948e-01
1.312260000000000093e-01
1.310729999999999951e-01
1.315310000000000090e-01
1.313779999999999948e-01
1.312260000000000093e-01
1.313779999999999948e-01
1.313779999999999948e-01
1.310729999999999951e-01
1.315310000000000090e-01
1.312260000000000093e-01
1.315310000000000090e-01
1.309200000000000086e-01
1.310729999999999951e-01
1.310729999999999951e-01
1.312260000000000093e-01
1.315310000000000090e-01
1.312260000000000093e-01
1.313779999999999948e-01
1.312260000000000093e-01
1.312260000000000093e-01
1.312260000000000093e-01
1.313779999999999948e-01
1.309200000000000086e-01
1.310729999999999951e-01
1.309200000000000086e-01
1.298519999999999952e-01
1.292419999999999958e-01
1.289369999999999961e-01
1.289369999999999961e-01
1.289369999999999961e-01
1.290890000000000093e-01
1.287840000000000096e-01
1.293950000000000100e-01
1.307679999999999954e-01
1.309200000000000086e-01
1.312260000000000093e-01
1.312260000000000093e-01
1.313779999999999948e-01
1.313779999999999948e-01
1.312260000000000093e-01
1.313779999999999948e-01
1.310729999999999951e-01
1.313779999999999948e-01
1.312260000000000093e-01
1.313779999999999948e-01
1.312260000000000093e-01
1.312260000000000093e-01
1.313779999999999948e-01
1.310729999999999951e-01
1.315310000000000090e-01
1.310729999999999951e-01
1.313779999999999948e-01
1.312260000000000093e-01
1.312260000000000093e-01
1.313779999999999948e-01
1.313779999999999948e-01
1.313779999999999948e-01
1.312260000000000093e-01
1.318360000000000087e-01
1.329039999999999944e-01
1.335139999999999938e-01
1.333620000000000083e-01
1.336670000000000080e-01
1.338199999999999945e-01
1.335139999999999938e-01
1.336670000000000080e-01
1.341249999999999942e-01
1.351930000000000076e-01
1.358030000000000070e-01
1.359559999999999935e-01
1.364140000000000075e-01
1.361080000000000068e-01
1.361080000000000068e-01
1.361080000000000068e-01
1.362609999999999932e-01
1.361080000000000068e-01
1.362609999999999932e-01
1.361080000000000068e-01
1.362609999999999932e-01
1.361080000000000068e-01
1.362609999999999932e-01
1.361080000000000068e-01
1.361080000000000068e-01
1.364140000000000075e-01
1.361080000000000068e-01
1.362609999999999932e-01
1.358030000000000070e-01
1.354980000000000073e-01
1.342770000000000075e-01
1.336670000000000080e-01
1.336670000000000080e-01
1.339720000000000077e-01
1.339720000000000077e-01
1.338199999999999945e-01
1.336670000000000080e-01
1.333620000000000083e-01
1.338199999999999945e-01
1.341249999999999942e-01
1.333620000000000083e-01
1.319889999999999952e-01
1.312260000000000093e-01
1.312260000000000093e-01
1.313779999999999948e-01
1.309200000000000086e-01
1.293950000000000100e-01
1.287840000000000096e-01
1.289369999999999961e-01
1.284790000000000099e-01
1.269530000000000103e-01
1.269530000000000103e-01
1.264949999999999963e-01
1.260380000000000111e-01
1.246639999999999970e-01
1.245119999999999977e-01
1.239009999999999972e-01
1.239009999999999972e-01
1.242069999999999980e-01
1.235959999999999975e-01
1.222229999999999983e-01
1.214599999999999985e-01
1.216129999999999989e-01
1.210019999999999984e-01
1.199339999999999989e-01
1.191709999999999992e-01
1.191709999999999992e-01
1.185609999999999997e-01
1.171880000000000005e-01
1.168819999999999998e-01
1.165770000000000001e-01
1.161190000000000000e-01
1.153560000000000002e-01
1.142880000000000007e-01
1.147460000000000008e-01
1.138310000000000016e-01
1.127620000000000011e-01
1.120000000000000023e-01
1.113890000000000019e-01
1.101680000000000020e-01
1.095580000000000026e-01
1.089480000000000032e-01
1.074220000000000036e-01
1.065060000000000034e-01
1.051330000000000042e-01
1.048280000000000045e-01
1.040650000000000047e-01
1.028440000000000049e-01
1.019290000000000057e-01
1.005550000000000055e-01
9.979250000000000620e-02
9.948730000000000073e-02
9.811400000000000676e-02
9.704590000000000438e-02
9.567259999999999653e-02
9.460449999999999415e-02
9.323120000000000018e-02
9.201049999999999507e-02
9.033199999999999563e-02
8.972170000000000145e-02
8.804320000000000201e-02
8.712770000000000237e-02
8.575439999999999452e-02
8.438110000000000055e-02
8.331299999999999817e-02
8.209230000000000693e-02
8.087160000000000182e-02
7.980349999999999944e-02
7.873539999999999706e-02
7.736210000000000309e-02
7.568360000000000365e-02
7.385250000000000148e-02
7.263179999999999636e-02
7.141110000000000513e-02
7.034300000000000275e-02
6.805419999999999525e-02
6.637569999999999582e-02
6.546019999999999617e-02
6.347659999999999414e-02
6.179810000000000164e-02
6.057740000000000347e-02
5.889889999999999709e-02
5.676269999999999927e-02
5.432130000000000292e-02
5.310059999999999780e-02
5.096439999999999998e-02
4.974370000000000180e-02
4.821779999999999816e-02
4.623410000000000020e-02
4.394529999999999964e-02
4.226680000000000020e-02
4.089360000000000217e-02
3.967289999999999706e-02
3.707889999999999797e-02
3.524780000000000274e-02
3.417970000000000036e-02
3.219600000000000239e-02
2.990719999999999837e-02
2.716060000000000002e-02
2.532960000000000073e-02
2.304080000000000017e-02
2.182009999999999852e-02
2.014159999999999909e-02
1.770019999999999927e-02
1.525879999999999945e-02
1.251219999999999936e-02
1.022340000000000054e-02
8.239750000000000546e-03
5.798339999999999918e-03
4.577640000000000008e-03
3.204349999999999907e-03
6.103519999999999866e-04
-1.831050000000000082e-03
-4.119870000000000303e-03
-6.713870000000000254e-03
-9.155270000000000075e-03
-1.129149999999999945e-02
-1.403809999999999954e-02
-1.602169999999999983e-02
-1.861569999999999891e-02
-2.120970000000000147e-02
-2.380370000000000055e-02
-2.609250000000000111e-02
-2.868650000000000019e-02
-3.097530000000000075e-02
-3.356930000000000330e-02
-3.601069999999999965e-02
-3.845210000000000294e-02
-4.104610000000000203e-02
-4.333499999999999852e-02
-4.547120000000000328e-02
-4.806520000000000237e-02
-5.050659999999999872e-02
-5.264279999999999654e-02
-5.523680000000000256e-02
-5.767819999999999891e-02
-5.981449999999999961e-02
-6.271359999999999435e-02
-6.500240000000000185e-02
-6.729129999999999834e-02
-6.988529999999999742e-02
-7.263179999999999636e-02
-7.476810000000000400e-02
-7.736210000000000309e-02
-7.934570000000000511e-02
-8.209230000000000693e-02
-8.438110000000000055e-02
-8.712770000000000237e-02
-8.895870000000000166e-02
-9.017940000000000678e-02
-9.216309999999999780e-02
-9.414669999999999983e-02
-9.674069999999999891e-02
-9.918209999999999527e-02
-1.011660000000000059e-01
-1.022340000000000054e-01
-1.043700000000000044e-01
-1.065060000000000034e-01
-1.092530000000000029e-01
-1.109310000000000018e-01
-1.118470000000000020e-01
-1.139830000000000010e-01
-1.158140000000000003e-01
-1.173399999999999999e-01
-1.188659999999999994e-01
-1.206969999999999987e-01
-1.220699999999999980e-01
-1.231379999999999975e-01
-1.243589999999999973e-01
-1.261899999999999966e-01
-1.280209999999999959e-01
-1.293950000000000100e-01
-1.303100000000000092e-01
-1.310729999999999951e-01
-1.316829999999999945e-01
-1.329039999999999944e-01
-1.341249999999999942e-01
-1.354980000000000073e-01
-1.359559999999999935e-01
-1.368709999999999927e-01
-1.382450000000000068e-01
-1.385500000000000065e-01
-1.382450000000000068e-01
-1.390079999999999927e-01
-1.402279999999999915e-01
-1.408389999999999920e-01
-1.406860000000000055e-01
-1.416020000000000056e-01
-1.429749999999999910e-01
-1.431270000000000042e-01
-1.437380000000000047e-01
-1.432799999999999907e-01
-1.438899999999999901e-01
-1.452640000000000042e-01
-1.452640000000000042e-01
-1.460269999999999901e-01
-1.460269999999999901e-01
-1.454159999999999897e-01
-1.461790000000000034e-01
-1.477050000000000030e-01
-1.480100000000000027e-01
-1.486210000000000031e-01
-1.481629999999999892e-01
-1.484679999999999889e-01
-1.487729999999999886e-01
-1.483150000000000024e-01
-1.484679999999999889e-01
-1.484679999999999889e-01
-1.484679999999999889e-01
-1.483150000000000024e-01
-1.486210000000000031e-01
-1.484679999999999889e-01
-1.483150000000000024e-01
-1.483150000000000024e-01
-1.483150000000000024e-01
-1.484679999999999889e-01
-1.484679999999999889e-01
-1.483150000000000024e-01
-1.486210000000000031e-01
-1.481629999999999892e-01
-1.484679999999999889e-01
-1.483150000000000024e-01
-1.483150000000000024e-01
-1.484679999999999889e-01
-1.481629999999999892e-01
-1.480100000000000027e-01
-1.469419999999999893e-01
-1.463319999999999899e-01
-1.463319999999999899e-01
-1.461790000000000034e-01
-1.460269999999999901e-01
-1.458740000000000037e-01
-1.458740000000000037e-01
-1.458740000000000037e-01
-1.440430000000000044e-01
-1.431270000000000042e-01
-1.435849999999999904e-01
-1.434330000000000049e-01
-1.431270000000000042e-01
-1.428220000000000045e-01
-1.419070000000000054e-01
-1.414489999999999914e-01
-1.411439999999999917e-01
-1.409910000000000052e-01
-1.405329999999999913e-01
-1.391600000000000059e-01
-1.390079999999999927e-01
-1.383969999999999922e-01
-1.387019999999999920e-01
-1.379390000000000061e-01
-1.367190000000000072e-01
-1.361080000000000068e-01
-1.361080000000000068e-01
-1.361080000000000068e-01
-1.356509999999999938e-01
-1.344299999999999939e-01
-1.339720000000000077e-01
-1.333620000000000083e-01
-1.339720000000000077e-01
-1.336670000000000080e-01
-1.330570000000000086e-01
-1.319889999999999952e-01
-1.307679999999999954e-01
-1.313779999999999948e-01
-1.312260000000000093e-01
-1.313779999999999948e-01
-1.309200000000000086e-01
-1.295469999999999955e-01
-1.289369999999999961e-01
-1.287840000000000096e-01
-1.286319999999999963e-01
-1.281740000000000101e-01
-1.269530000000000103e-01
-1.268009999999999970e-01
-1.258849999999999969e-01
-1.260380000000000111e-01
-1.249689999999999968e-01
-1.242069999999999980e-01
-1.234439999999999982e-01
-1.219179999999999986e-01
-1.213069999999999982e-01
-1.217649999999999982e-01
-1.208499999999999991e-01
-1.194759999999999989e-01
-1.191709999999999992e-01
-1.184079999999999994e-01
-1.174930000000000002e-01
-1.168819999999999998e-01
-1.161190000000000000e-01
-1.147460000000000008e-01
-1.141360000000000013e-01
-1.141360000000000013e-01
-1.135250000000000009e-01
-1.123050000000000020e-01
-1.120000000000000023e-01
-1.118470000000000020e-01
-1.109310000000000018e-01
-1.100160000000000027e-01
-1.094060000000000032e-01
-1.091000000000000025e-01
-1.089480000000000032e-01
-1.078800000000000037e-01
-1.069640000000000035e-01
-1.063540000000000041e-01
-1.052860000000000046e-01
-1.045230000000000048e-01
-1.037600000000000050e-01
-1.025390000000000051e-01
-1.020810000000000051e-01
-1.017760000000000054e-01
-1.000980000000000064e-01
-9.963990000000000347e-02
-9.948730000000000073e-02
-9.902950000000000641e-02
-9.780880000000000130e-02
-9.735109999999999597e-02
-9.674069999999999891e-02
-9.521480000000000221e-02
-9.506230000000000235e-02
-9.414669999999999983e-02
-9.277340000000000586e-02
-9.201049999999999507e-02
-9.170530000000000348e-02
-9.063720000000000110e-02
-8.987430000000000418e-02
-8.911130000000000440e-02
-8.804320000000000201e-02
-8.728030000000000510e-02
-8.728030000000000510e-02
-8.697509999999999963e-02
-8.560180000000000566e-02
-8.499149999999999761e-02
-8.468630000000000602e-02
-8.438110000000000055e-02
-8.331299999999999817e-02
-8.270260000000000111e-02
-8.163449999999999873e-02
-8.087160000000000182e-02
-8.026120000000000476e-02
-7.995610000000000217e-02
-7.965089999999999670e-02
-7.843020000000000547e-02
-7.766720000000000568e-02
-7.781979999999999453e-02
-7.705689999999999762e-02
-7.583620000000000638e-02
-7.537839999999999818e-02
-7.492070000000000674e-02
-7.354739999999999889e-02
-7.324219999999999342e-02
-7.278439999999999910e-02
-7.247919999999999363e-02
-7.110600000000000254e-02
-7.095339999999999980e-02
-6.958010000000000583e-02
-6.866460000000000619e-02
-6.820679999999999799e-02
-6.805419999999999525e-02
-6.744379999999999820e-02
-6.637569999999999582e-02
-6.576540000000000163e-02
-6.546019999999999617e-02
-6.469729999999999925e-02
-6.362919999999999687e-02
-6.301879999999999982e-02
-6.317140000000000255e-02
-6.301879999999999982e-02
-6.271359999999999435e-02
-6.149290000000000311e-02
-6.072999999999999926e-02
-6.057740000000000347e-02
-6.027219999999999800e-02
-5.889889999999999709e-02
-5.828860000000000291e-02
-5.828860000000000291e-02
-5.752560000000000312e-02
-5.691530000000000200e-02
-5.584719999999999962e-02
-5.554200000000000109e-02
-5.615230000000000221e-02
-5.523680000000000256e-02
-5.401609999999999745e-02
-5.340580000000000327e-02
-5.325320000000000054e-02
-5.325320000000000054e-02
-5.264279999999999654e-02
-5.126950000000000257e-02
-5.081179999999999725e-02
-5.096439999999999998e-02
-5.065920000000000145e-02
-4.913329999999999781e-02
-4.852290000000000075e-02
-4.821779999999999816e-02
-4.806520000000000237e-02
-4.653929999999999872e-02
-4.608149999999999746e-02
-4.577640000000000181e-02
-4.562379999999999908e-02
-4.425049999999999817e-02
-4.379269999999999691e-02
-4.364010000000000111e-02
-4.333499999999999852e-02
-4.348749999999999838e-02
-4.287719999999999726e-02
-4.180910000000000182e-02
-4.119869999999999782e-02
-4.135130000000000056e-02
-4.119869999999999782e-02
-4.043580000000000091e-02
-3.921510000000000273e-02
-3.890989999999999727e-02
-3.860469999999999874e-02
-3.829960000000000309e-02
-3.799439999999999762e-02
-3.677369999999999944e-02
-3.646850000000000092e-02
-3.631589999999999818e-02
-3.631589999999999818e-02
-3.555300000000000127e-02
-3.448489999999999889e-02
-3.402709999999999763e-02
-3.402709999999999763e-02
-3.295900000000000218e-02
-3.173829999999999707e-02
-3.143309999999999854e-02
-3.158570000000000128e-02
-3.097530000000000075e-02
-2.960209999999999925e-02
-2.929690000000000072e-02
-2.883909999999999946e-02
-2.838130000000000167e-02
-2.731319999999999928e-02
-2.655029999999999890e-02
-2.655029999999999890e-02
-2.655029999999999890e-02
-2.655029999999999890e-02
-2.578739999999999852e-02
-2.502439999999999873e-02
-2.426149999999999834e-02
-2.426149999999999834e-02
-2.410889999999999908e-02
-2.395629999999999982e-02
-2.441410000000000108e-02
-2.456670000000000034e-02
-2.349849999999999856e-02
-2.243039999999999964e-02
-2.182009999999999852e-02
-2.136230000000000073e-02
-2.151490000000000000e-02
-2.151490000000000000e-02
-2.136230000000000073e-02
-2.166749999999999926e-02
-2.090449999999999947e-02
-1.953119999999999856e-02
-1.907350000000000018e-02
-1.953119999999999856e-02
-1.922609999999999944e-02
-1.907350000000000018e-02
-1.937869999999999870e-02
-1.876830000000000165e-02
-1.739500000000000074e-02
-1.663210000000000036e-02
-1.663210000000000036e-02
-1.663210000000000036e-02
-1.647950000000000109e-02
-1.693729999999999888e-02
-1.678469999999999962e-02
-1.663210000000000036e-02
-1.647950000000000109e-02
-1.678469999999999962e-02
-1.708979999999999874e-02
-1.708979999999999874e-02
-1.663210000000000036e-02
-1.663210000000000036e-02
-1.693729999999999888e-02
-1.678469999999999962e-02
-1.663210000000000036e-02
-1.693729999999999888e-02
-1.663210000000000036e-02
-1.678469999999999962e-02
-1.693729999999999888e-02
-1.647950000000000109e-02
-1.663210000000000036e-02
-1.663210000000000036e-02
-1.663210000000000036e-02
-1.693729999999999888e-02
-1.663210000000000036e-02
-1.678469999999999962e-02
-1.663210000000000036e-02
-1.663210000000000036e-02
-1.663210000000000036e-02
-1.663210000000000036e-02
-1.724240000000000148e-02
-1.663210000000000036e-02
-1.678469999999999962e-02
-1.678469999999999962e-02
-1.708979999999999874e-02
-1.678469999999999962e-02
-1.678469999999999962e-02
-1.678469999999999962e-02
-1.663210000000000036e-02
-1.678469999999999962e-02
-1.663210000000000036e-02
-1.678469999999999962e-02
-1.693729999999999888e-02
-1.678469999999999962e-02
-1.647950000000000109e-02
-1.693729999999999888e-02
-1.693729999999999888e-02
-1.678469999999999962e-02
-1.663210000000000036e-02
-1.693729999999999888e-02
-1.663210000000000036e-02
-1.693729999999999888e-02
-1.678469999999999962e-02
-1.693729999999999888e-02
-1.678469999999999962e-02
-1.708979999999999874e-02
-1.708979999999999874e-02
-1.663210000000000036e-02
-1.647950000000000109e-02
-1.663210000000000036e-02
-1.663210000000000036e-02
-1.678469999999999962e-02
-1.693729999999999888e-02
-1.663210000000000036e-02
-1.693729999999999888e-02
-1.663210000000000036e-02
-1.678469999999999962e-02
-1.708979999999999874e-02
-1.678469999999999962e-02
-1.663210000000000036e-02
-1.632689999999999836e-02
-1.678469999999999962e-02
-1.632689999999999836e-02
-1.586910000000000057e-02
-1.480099999999999992e-02
-1.434329999999999980e-02
-1.434329999999999980e-02
-1.434329999999999980e-02
-1.449579999999999966e-02
-1.495359999999999918e-02
-1.419070000000000054e-02
-1.449579999999999966e-02
-1.449579999999999966e-02
-1.403809999999999954e-02
-1.449579999999999966e-02
-1.434329999999999980e-02
-1.419070000000000054e-02
-1.434329999999999980e-02
-1.419070000000000054e-02
-1.434329999999999980e-02
-1.419070000000000054e-02
-1.449579999999999966e-02
-1.449579999999999966e-02
-1.434329999999999980e-02
-1.419070000000000054e-02
-1.449579999999999966e-02
-1.464840000000000066e-02
-1.464840000000000066e-02
-1.464840000000000066e-02
-1.419070000000000054e-02
-1.464840000000000066e-02
-1.449579999999999966e-02
-1.434329999999999980e-02
-1.464840000000000066e-02
-1.434329999999999980e-02
-1.449579999999999966e-02
-1.495359999999999918e-02
-1.602169999999999983e-02
-1.632689999999999836e-02
-1.678469999999999962e-02
-1.647950000000000109e-02
-1.663210000000000036e-02
-1.693729999999999888e-02
-1.663210000000000036e-02
-1.663210000000000036e-02
-1.739500000000000074e-02
-1.861569999999999891e-02
-1.907350000000000018e-02
-1.937869999999999870e-02
-1.953119999999999856e-02
-1.907350000000000018e-02
-1.907350000000000018e-02
-1.907350000000000018e-02
-1.968380000000000130e-02
-2.120970000000000147e-02
-2.136230000000000073e-02
-2.182009999999999852e-02
-2.151490000000000000e-02
-2.166749999999999926e-02
-2.166749999999999926e-02
-2.166749999999999926e-02
-2.182009999999999852e-02
-2.151490000000000000e-02
-2.151490000000000000e-02
-2.182009999999999852e-02
-2.151490000000000000e-02
-2.182009999999999852e-02
-2.151490000000000000e-02
-2.182009999999999852e-02
-2.182009999999999852e-02
-2.151490000000000000e-02
-2.166749999999999926e-02
-2.166749999999999926e-02
-2.166749999999999926e-02
-2.166749999999999926e-02
-2.151490000000000000e-02
-2.166749999999999926e-02
-2.182009999999999852e-02
-2.166749999999999926e-02
-2.105709999999999874e-02
-2.151490000000000000e-02
-2.151490000000000000e-02
-2.166749999999999926e-02
-2.166749999999999926e-02
-2.197270000000000126e-02
-2.151490000000000000e-02
-2.136230000000000073e-02
-2.151490000000000000e-02
-2.151490000000000000e-02
-2.166749999999999926e-02
-2.151490000000000000e-02
-2.166749999999999926e-02
-2.151490000000000000e-02
-2.166749999999999926e-02
-2.151490000000000000e-02
-2.151490000000000000e-02
-2.136230000000000073e-02
-2.166749999999999926e-02
-2.151490000000000000e-02
-2.182009999999999852e-02
-2.197270000000000126e-02
-2.151490000000000000e-02
-2.151490000000000000e-02
-2.151490000000000000e-02
-2.151490000000000000e-02
-2.136230000000000073e-02
-2.166749999999999926e-02
-2.182009999999999852e-02
-2.136230000000000073e-02
-2.151490000000000000e-02
-2.136230000000000073e-02
-2.182009999999999852e-02
-2.197270000000000126e-02
-2.334589999999999929e-02
-2.365110000000000129e-02
-2.441410000000000108e-02
-2.395629999999999982e-02
-2.395629999999999982e-02
-2.395629999999999982e-02
-2.410889999999999908e-02
-2.395629999999999982e-02
-2.395629999999999982e-02
-2.380370000000000055e-02
-2.380370000000000055e-02
-2.395629999999999982e-02
-2.441410000000000108e-02
-2.410889999999999908e-02
-2.426149999999999834e-02
-2.395629999999999982e-02
-2.441410000000000108e-02
-2.365110000000000129e-02
-2.395629999999999982e-02
-2.410889999999999908e-02
-2.410889999999999908e-02
-2.395629999999999982e-02
-2.426149999999999834e-02
-2.426149999999999834e-02
-2.410889999999999908e-02
-2.410889999999999908e-02
-2.426149999999999834e-02
-2.349849999999999856e-02
-2.197270000000000126e-02
-2.166749999999999926e-02
-2.166749999999999926e-02
-2.166749999999999926e-02
-2.136230000000000073e-02
-2.166749999999999926e-02
-2.166749999999999926e-02
-2.166749999999999926e-02
-2.151490000000000000e-02
-2.151490000000000000e-02
-2.151490000000000000e-02
-2.151490000000000000e-02
-2.151490000000000000e-02
-2.151490000000000000e-02
-2.090449999999999947e-02
-1.998899999999999982e-02
-1.983640000000000056e-02
-1.922609999999999944e-02
-1.892090000000000091e-02
-1.892090000000000091e-02
-1.937869999999999870e-02
-1.937869999999999870e-02
-1.892090000000000091e-02
-1.922609999999999944e-02
-1.937869999999999870e-02
-1.922609999999999944e-02
-1.937869999999999870e-02
-1.892090000000000091e-02
-1.922609999999999944e-02
-1.953119999999999856e-02
-2.090449999999999947e-02
-2.105709999999999874e-02
-2.151490000000000000e-02
-2.151490000000000000e-02
-2.151490000000000000e-02
-2.136230000000000073e-02
-2.166749999999999926e-02
-2.136230000000000073e-02
-2.166749999999999926e-02
-2.166749999999999926e-02
-2.182009999999999852e-02
-2.105709999999999874e-02
-1.983640000000000056e-02
-1.907350000000000018e-02
-1.953119999999999856e-02
-1.892090000000000091e-02
-1.922609999999999944e-02
-1.937869999999999870e-02
-1.937869999999999870e-02
-1.892090000000000091e-02
-1.922609999999999944e-02
-1.953119999999999856e-02
-1.953119999999999856e-02
-1.892090000000000091e-02
-1.922609999999999944e-02
-1.937869999999999870e-02
-1.922609999999999944e-02
-1.876830000000000165e-02
-1.754760000000000000e-02
-1.663210000000000036e-02
-1.647950000000000109e-02
-1.663210000000000036e-02
-1.678469999999999962e-02
-1.678469999999999962e-02
-1.647950000000000109e-02
-1.678469999999999962e-02
-1.678469999999999962e-02
-1.693729999999999888e-02
-1.693729999999999888e-02
-1.678469999999999962e-02
-1.663210000000000036e-02
-1.663210000000000036e-02
-1.663210000000000036e-02
-1.678469999999999962e-02
-1.678469999999999962e-02
-1.663210000000000036e-02
-1.678469999999999962e-02
-1.678469999999999962e-02
-1.708979999999999874e-02
-1.647950000000000109e-02
-1.693729999999999888e-02
-1.663210000000000036e-02
-1.663210000000000036e-02
-1.678469999999999962e-02
-1.663210000000000036e-02
-1.632689999999999836e-02
-1.693729999999999888e-02
-1.678469999999999962e-02
-1.693729999999999888e-02
-1.678469999999999962e-02
-1.693729999999999888e-02
-1.678469999999999962e-02
-1.678469999999999962e-02
-1.663210000000000036e-02
-1.693729999999999888e-02
-1.663210000000000036e-02
-1.678469999999999962e-02
-1.678469999999999962e-02
-1.678469999999999962e-02
-1.693729999999999888e-02
-1.708979999999999874e-02
-1.678469999999999962e-02
-1.663210000000000036e-02
-1.678469999999999962e-02
-1.678469999999999962e-02
-1.663210000000000036e-02
-1.724240000000000148e-02
-1.693729999999999888e-02
-1.693729999999999888e-02
-1.708979999999999874e-02
-1.678469999999999962e-02
-1.663210000000000036e-02
-1.632689999999999836e-02
-1.510620000000000018e-02
-1.449579999999999966e-02
-1.480099999999999992e-02
-1.434329999999999980e-02
-1.419070000000000054e-02
-1.434329999999999980e-02
-1.419070000000000054e-02
-1.419070000000000054e-02
-1.419070000000000054e-02
-1.403809999999999954e-02
-1.434329999999999980e-02
-1.419070000000000054e-02
-1.449579999999999966e-02
-1.434329999999999980e-02
-1.434329999999999980e-02
-1.449579999999999966e-02
-1.419070000000000054e-02
-1.434329999999999980e-02
-1.419070000000000054e-02
-1.434329999999999980e-02
-1.419070000000000054e-02
-1.449579999999999966e-02
-1.449579999999999966e-02
-1.419070000000000054e-02
-1.449579999999999966e-02
-1.419070000000000054e-02
-1.434329999999999980e-02
-1.403809999999999954e-02
-1.434329999999999980e-02
-1.419070000000000054e-02
-1.480099999999999992e-02
-1.434329999999999980e-02
-1.358030000000000001e-02
-1.251219999999999936e-02
-1.205439999999999984e-02
-1.174930000000000072e-02
-1.190189999999999998e-02
-1.174930000000000072e-02
-1.235960000000000010e-02
-1.388550000000000027e-02
-1.419070000000000054e-02
-1.403809999999999954e-02
-1.434329999999999980e-02
-1.434329999999999980e-02
-1.449579999999999966e-02
-1.403809999999999954e-02
-1.419070000000000054e-02
-1.419070000000000054e-02
-1.419070000000000054e-02
-1.434329999999999980e-02
-1.419070000000000054e-02
-1.419070000000000054e-02
-1.434329999999999980e-02
-1.419070000000000054e-02
-1.434329999999999980e-02
-1.434329999999999980e-02
-1.419070000000000054e-02
-1.434329999999999980e-02
-1.434329999999999980e-02
-1.449579999999999966e-02
-1.419070000000000054e-02
-1.434329999999999980e-02
-1.464840000000000066e-02
-1.434329999999999980e-02
-1.434329999999999980e-02
-1.449579999999999966e-02
-1.449579999999999966e-02
-1.419070000000000054e-02
-1.434329999999999980e-02
-1.449579999999999966e-02
-1.434329999999999980e-02
-1.403809999999999954e-02
-1.403809999999999954e-02
-1.403809999999999954e-02
-1.434329999999999980e-02
-1.449579999999999966e-02
-1.419070000000000054e-02
-1.419070000000000054e-02
-1.373289999999999927e-02
-1.281739999999999963e-02
-1.205439999999999984e-02
-1.205439999999999984e-02
-1.190189999999999998e-02
-1.205439999999999984e-02
-1.174930000000000072e-02
-1.205439999999999984e-02
-1.174930000000000072e-02
-1.190189999999999998e-02
-1.205439999999999984e-02
-1.205439999999999984e-02
-1.190189999999999998e-02
-1.144410000000000045e-02
-1.037599999999999981e-02
-9.460450000000000456e-03
-9.765619999999999162e-03
-9.918210000000000220e-03
-9.460450000000000456e-03
-9.613039999999999780e-03
-9.460450000000000456e-03
-9.460450000000000456e-03
-1.007079999999999954e-02
-1.113890000000000019e-02
-1.174930000000000072e-02
-1.205439999999999984e-02
-1.174930000000000072e-02
-1.159669999999999972e-02
-1.159669999999999972e-02
-1.205439999999999984e-02
-1.190189999999999998e-02
-1.144410000000000045e-02
-1.190189999999999998e-02
-1.190189999999999998e-02
-1.190189999999999998e-02
-1.190189999999999998e-02
-1.190189999999999998e-02
-1.190189999999999998e-02
-1.190189999999999998e-02
-1.190189999999999998e-02
-1.205439999999999984e-02
-1.159669999999999972e-02
-1.190189999999999998e-02
-1.129149999999999945e-02
-1.007079999999999954e-02
-9.460450000000000456e-03
-9.765619999999999162e-03
-9.613039999999999780e-03
-8.850099999999999634e-03
-7.324220000000000209e-03
-7.171630000000000019e-03
-7.171630000000000019e-03
-7.171630000000000019e-03
-6.408689999999999873e-03
-5.340580000000000153e-03
-4.730220000000000258e-03
-4.577640000000000008e-03
-4.425049999999999817e-03
-3.967290000000000053e-03
-2.899169999999999959e-03
-2.441410000000000195e-03
-2.288820000000000004e-03
-1.831050000000000082e-03
-3.051759999999999933e-04
0.000000000000000000e+00
7.629390000000000217e-04
2.136229999999999813e-03
2.441410000000000195e-03
3.509519999999999914e-03
4.577640000000000008e-03
4.882809999999999581e-03
5.187989999999999963e-03
6.713870000000000254e-03
7.629389999999999783e-03
7.476810000000000400e-03
7.324220000000000209e-03
7.629389999999999783e-03
7.629389999999999783e-03
7.629389999999999783e-03
7.934570000000000164e-03
9.155270000000000075e-03
9.918210000000000220e-03
1.022340000000000054e-02
9.765619999999999162e-03
1.007079999999999954e-02
9.918210000000000220e-03
9.155270000000000075e-03
8.239750000000000546e-03
7.934570000000000164e-03
7.629389999999999783e-03
7.171630000000000019e-03
7.476810000000000400e-03
7.629389999999999783e-03
7.781979999999999974e-03
7.629389999999999783e-03
7.476810000000000400e-03
7.476810000000000400e-03
7.324220000000000209e-03
8.087159999999999488e-03
9.155270000000000075e-03
9.765619999999999162e-03
9.613039999999999780e-03
1.007079999999999954e-02
9.613039999999999780e-03
9.918210000000000220e-03
9.460450000000000456e-03
8.087159999999999488e-03
7.781979999999999974e-03
7.476810000000000400e-03
7.476810000000000400e-03
7.476810000000000400e-03
7.934570000000000164e-03
7.476810000000000400e-03
7.476810000000000400e-03
7.019039999999999828e-03
5.950930000000000109e-03
5.645749999999999727e-03
4.730220000000000258e-03
5.340580000000000153e-03
5.340580000000000153e-03
4.272459999999999626e-03
3.509519999999999914e-03
2.746580000000000202e-03
2.441410000000000195e-03
2.593990000000000011e-03
2.746580000000000202e-03
2.899169999999999959e-03
2.746580000000000202e-03
2.136229999999999813e-03
6.103519999999999866e-04
3.051759999999999933e-04
3.051759999999999933e-04
4.577639999999999899e-04
0.000000000000000000e+00
0.000000000000000000e+00
0.000000000000000000e+00
4.577639999999999899e-04
4.577639999999999899e-04
1.525879999999999966e-04
1.525879999999999966e-04
1.525879999999999966e-04
1.525879999999999966e-04
3.051759999999999933e-04
4.577639999999999899e-04
3.051759999999999933e-04
4.577639999999999899e-04
3.051759999999999933e-04
0.000000000000000000e+00
4.577639999999999899e-04
1.525879999999999966e-04
3.051759999999999933e-04
0.000000000000000000e+00
1.525879999999999966e-04
0.000000000000000000e+00
3.051759999999999933e-04
1.525879999999999966e-04
4.577639999999999899e-04
4.577639999999999899e-04
0.000000000000000000e+00
3.051759999999999933e-04
3.051759999999999933e-04
3.051759999999999933e-04
-1.525879999999999966e-04
0.000000000000000000e+00
0.000000000000000000e+00
0.000000000000000000e+00
3.051759999999999933e-04
3.051759999999999933e-04
3.051759999999999933e-04
0.000000000000000000e+00
4.577639999999999899e-04
7.629390000000000217e-04
1.678470000000000049e-03
2.288820000000000004e-03
2.746580000000000202e-03
2.288820000000000004e-03
2.593990000000000011e-03
2.593990000000000011e-03
2.593990000000000011e-03
2.441410000000000195e-03
2.899169999999999959e-03
2.593990000000000011e-03
2.593990000000000011e-03
2.746580000000000202e-03
2.441410000000000195e-03
2.288820000000000004e-03
2.746580000000000202e-03
2.746580000000000202e-03
2.593990000000000011e-03
2.899169999999999959e-03
2.136229999999999813e-03
1.220699999999999910e-03
4.577639999999999899e-04
0.000000000000000000e+00
1.525879999999999966e-04
1.525879999999999966e-04
1.525879999999999966e-04
0.000000000000000000e+00
4.577639999999999899e-04
3.051759999999999933e-04
4.577639999999999899e-04
3.051759999999999933e-04
3.051759999999999933e-04
3.051759999999999933e-04
3.051759999999999933e-04
3.051759999999999933e-04
3.051759999999999933e-04
1.525879999999999966e-04
3.051759999999999933e-04
1.525879999999999966e-04
0.000000000000000000e+00
3.051759999999999933e-04
3.051759999999999933e-04
3.051759999999999933e-04
0.000000000000000000e+00
-3.051759999999999933e-04
3.051759999999999933e-04
1.525879999999999966e-04
4.577639999999999899e-04
4.577639999999999899e-04
1.983640000000000056e-03
2.593990000000000011e-03
2.593990000000000011e-03
2.593990000000000011e-03
2.593990000000000011e-03
2.746580000000000202e-03
2.746580000000000202e-03
2.441410000000000195e-03
2.593990000000000011e-03
2.746580000000000202e-03
2.746580000000000202e-03
2.746580000000000202e-03
2.593990000000000011e-03
2.593990000000000011e-03
2.441410000000000195e-03
2.593990000000000011e-03
2.746580000000000202e-03
2.593990000000000011e-03
2.899169999999999959e-03
2.746580000000000202e-03
2.288820000000000004e-03
2.593990000000000011e-03
2.593990000000000011e-03
3.204349999999999907e-03
4.577640000000000008e-03
4.882809999999999581e-03
5.035399999999999772e-03
5.340580000000000153e-03
5.035399999999999772e-03
5.798339999999999918e-03
6.866459999999999578e-03
7.476810000000000400e-03
8.087159999999999488e-03
9.765619999999999162e-03
1.144410000000000045e-02
1.251219999999999936e-02
1.480099999999999992e-02
1.693729999999999888e-02
1.968380000000000130e-02
2.166749999999999926e-02
2.487179999999999946e-02
2.853390000000000093e-02
3.143309999999999854e-02
3.448489999999999889e-02
3.845210000000000294e-02
4.135130000000000056e-02
4.562379999999999908e-02
5.050659999999999872e-02
5.523680000000000256e-02
5.813600000000000018e-02
6.271359999999999435e-02
6.744379999999999820e-02
7.186889999999999945e-02
7.553100000000000092e-02
7.995610000000000217e-02
8.377080000000000637e-02
8.758539999999999381e-02
9.185790000000000621e-02
9.628299999999999359e-02
9.933469999999999800e-02
1.025390000000000051e-01
1.062010000000000037e-01
1.086430000000000035e-01
1.118470000000000020e-01
1.139830000000000010e-01
1.167300000000000004e-01
1.188659999999999994e-01
1.211549999999999988e-01
1.235959999999999975e-01
1.261899999999999966e-01
1.280209999999999959e-01
1.289369999999999961e-01
1.295469999999999955e-01
1.297000000000000097e-01
1.292419999999999958e-01
1.283259999999999956e-01
1.258849999999999969e-01
1.216129999999999989e-01
1.170350000000000001e-01
1.116940000000000016e-01
1.043700000000000044e-01
9.551999999999999380e-02
8.529660000000000020e-02
7.415769999999999307e-02
6.210330000000000017e-02
4.898070000000000201e-02
3.570559999999999706e-02
2.075199999999999961e-02
4.119870000000000303e-03
-1.297000000000000063e-02
-3.005980000000000110e-02
-4.638670000000000293e-02
-6.439209999999999379e-02
-8.331299999999999817e-02
-1.028440000000000049e-01
-1.222229999999999983e-01
-1.420589999999999908e-01
-1.638789999999999969e-01
-1.852419999999999900e-01
-2.070619999999999961e-01
-2.297970000000000013e-01
-2.528380000000000072e-01
-2.757260000000000266e-01
-2.995300000000000185e-01
-3.222659999999999969e-01
-3.453060000000000018e-01
-3.662110000000000087e-01
-3.880310000000000148e-01
-4.081730000000000080e-01
-4.272460000000000147e-01
-4.457090000000000218e-01
-4.632569999999999744e-01
-4.782100000000000239e-01
-4.927059999999999773e-01
-5.050660000000000149e-01
-5.146789999999999976e-01
-5.223079999999999945e-01
-5.274959999999999649e-01
-5.310059999999999780e-01
-5.325320000000000054e-01
-5.310059999999999780e-01
-5.281069999999999931e-01
-5.241390000000000216e-01
-5.189510000000000511e-01
-5.114750000000000130e-01
-5.029299999999999882e-01
-4.930109999999999770e-01
-4.827879999999999949e-01
-4.710389999999999855e-01
-4.591370000000000173e-01
-4.472349999999999937e-01
-4.342650000000000121e-01
-4.209899999999999753e-01
-4.081730000000000080e-01
-3.958130000000000259e-01
-3.839110000000000023e-01
-3.712460000000000204e-01
-3.590389999999999970e-01
-3.468319999999999736e-01
-3.350830000000000197e-01
-3.227229999999999821e-01
-3.097530000000000006e-01
-2.964780000000000193e-01
-2.838129999999999820e-01
-2.711489999999999734e-01
-2.592470000000000052e-01
-2.467350000000000099e-01
-2.346799999999999997e-01
-2.226259999999999906e-01
-2.101139999999999952e-01
-1.980590000000000128e-01
-1.863100000000000034e-01
-1.736449999999999938e-01
-1.623539999999999983e-01
-1.512149999999999883e-01
-1.400760000000000061e-01
-1.292419999999999958e-01
-1.182560000000000000e-01
-1.072690000000000032e-01
-9.597780000000000200e-02
-8.590699999999999725e-02
-7.537839999999999818e-02
-6.484990000000000199e-02
-5.416870000000000018e-02
-4.379269999999999691e-02
-3.311159999999999798e-02
-2.258299999999999891e-02
-1.266480000000000036e-02
-2.899169999999999959e-03
6.713870000000000254e-03
1.632689999999999836e-02
2.593989999999999838e-02
3.585819999999999980e-02
4.486079999999999929e-02
5.294800000000000201e-02
6.240840000000000276e-02
7.141110000000000513e-02
8.010860000000000203e-02
8.865359999999999907e-02
9.628299999999999359e-02
1.036070000000000046e-01
1.110840000000000022e-01
1.184079999999999994e-01
1.257320000000000104e-01
1.322939999999999949e-01
1.388550000000000062e-01
1.448059999999999903e-01
1.502989999999999882e-01
1.551819999999999866e-01
1.600650000000000128e-01
1.649480000000000113e-01
1.696779999999999955e-01
1.741030000000000078e-01
1.771550000000000069e-01
1.803589999999999915e-01
1.841740000000000044e-01
1.872250000000000025e-01
1.896670000000000023e-01
1.913449999999999873e-01
1.925659999999999872e-01
1.943969999999999865e-01
1.962280000000000135e-01
1.977540000000000131e-01
1.986690000000000123e-01
1.995850000000000124e-01
1.992800000000000127e-01
2.001950000000000118e-01
2.015689999999999982e-01
2.015689999999999982e-01
2.018739999999999979e-01
2.017210000000000114e-01
2.023320000000000118e-01
2.018739999999999979e-01
2.017210000000000114e-01
2.020260000000000111e-01
2.020260000000000111e-01
2.020260000000000111e-01
2.020260000000000111e-01
2.020260000000000111e-01
2.018739999999999979e-01
2.011110000000000120e-01
2.001950000000000118e-01
1.994319999999999982e-01
1.997379999999999989e-01
1.994319999999999982e-01
1.995850000000000124e-01
1.988219999999999987e-01
1.979059999999999986e-01
1.972959999999999992e-01
1.972959999999999992e-01
1.962280000000000135e-01
1.953120000000000134e-01
1.945500000000000007e-01
1.947019999999999862e-01
1.939390000000000003e-01
1.927190000000000014e-01
1.922609999999999875e-01
1.919559999999999877e-01
1.907349999999999879e-01
1.899720000000000020e-01
1.892089999999999883e-01
1.879879999999999884e-01
1.870729999999999893e-01
1.866150000000000031e-01
1.858519999999999894e-01
1.849369999999999903e-01
1.846309999999999896e-01
1.829530000000000045e-01
1.824949999999999906e-01
1.817320000000000046e-01
1.805110000000000048e-01
1.802060000000000051e-01
1.794429999999999914e-01
1.780700000000000061e-01
1.777650000000000063e-01
1.765440000000000065e-01
1.757809999999999928e-01
1.750180000000000069e-01
1.744080000000000075e-01
1.730349999999999944e-01
1.727289999999999937e-01
1.719670000000000087e-01
1.707460000000000089e-01
1.702879999999999949e-01
1.698300000000000087e-01
1.684569999999999956e-01
1.675419999999999965e-01
1.673890000000000100e-01
1.657099999999999962e-01
1.655580000000000107e-01
1.655580000000000107e-01
1.649480000000000113e-01
1.635739999999999972e-01
1.629639999999999977e-01
1.628110000000000113e-01
1.618960000000000121e-01
1.608279999999999987e-01
1.608279999999999987e-01
1.602169999999999983e-01
1.588440000000000130e-01
1.580809999999999993e-01
1.579280000000000128e-01
1.576230000000000131e-01
1.560970000000000135e-01
1.557920000000000138e-01
1.554869999999999863e-01
1.556400000000000006e-01
1.559450000000000003e-01
1.551819999999999866e-01
1.538090000000000013e-01
1.533509999999999873e-01
1.533509999999999873e-01
1.531980000000000008e-01
1.533509999999999873e-01
1.525880000000000014e-01
1.513670000000000015e-01
1.509089999999999876e-01
1.507570000000000021e-01
1.507570000000000021e-01
1.501460000000000017e-01
1.493839999999999890e-01
1.486210000000000031e-01
1.484679999999999889e-01
1.481629999999999892e-01
1.477050000000000030e-01
1.467900000000000038e-01
1.461790000000000034e-01
1.461790000000000034e-01
1.460269999999999901e-01
1.458740000000000037e-01
1.455690000000000039e-01
1.441959999999999908e-01
1.437380000000000047e-01
1.435849999999999904e-01
1.432799999999999907e-01
1.428220000000000045e-01
1.416020000000000056e-01
1.414489999999999914e-01
1.408389999999999920e-01
1.412960000000000049e-01
1.403810000000000058e-01
1.394650000000000056e-01
1.385500000000000065e-01
1.385500000000000065e-01
1.383969999999999922e-01
1.385500000000000065e-01
1.382450000000000068e-01
1.371769999999999934e-01
1.368709999999999927e-01
1.362609999999999932e-01
1.364140000000000075e-01
1.364140000000000075e-01
1.364140000000000075e-01
1.364140000000000075e-01
1.356509999999999938e-01
1.342770000000000075e-01
1.336670000000000080e-01
1.336670000000000080e-01
1.335139999999999938e-01
1.336670000000000080e-01
1.336670000000000080e-01
1.330570000000000086e-01
1.316829999999999945e-01
1.316829999999999945e-01
1.315310000000000090e-01
1.312260000000000093e-01
1.312260000000000093e-01
1.313779999999999948e-01
1.312260000000000093e-01
1.312260000000000093e-01
1.310729999999999951e-01
1.312260000000000093e-01
1.307679999999999954e-01
1.297000000000000097e-01
1.287840000000000096e-01
1.289369999999999961e-01
1.289369999999999961e-01
1.287840000000000096e-01
1.284790000000000099e-01
1.289369999999999961e-01
1.286319999999999963e-01
1.287840000000000096e-01
1.287840000000000096e-01
1.287840000000000096e-01
1.287840000000000096e-01
1.289369999999999961e-01
1.290890000000000093e-01
1.286319999999999963e-01
1.289369999999999961e-01
1.281740000000000101e-01
1.268009999999999970e-01
1.264949999999999963e-01
1.263430000000000109e-01
1.264949999999999963e-01
1.261899999999999966e-01
1.264949999999999963e-01
1.263430000000000109e-01
1.264949999999999963e-01
1.263430000000000109e-01
1.264949999999999963e-01
1.261899999999999966e-01
1.264949999999999963e-01
1.264949999999999963e-01
1.264949999999999963e-01
1.261899999999999966e-01
1.261899999999999966e-01
1.263430000000000109e-01
1.263430000000000109e-01
1.266480000000000106e-01
1.268009999999999970e-01
1.263430000000000109e-01
1.263430000000000109e-01
1.263430000000000109e-01
1.261899999999999966e-01
1.264949999999999963e-01
1.264949999999999963e-01
1.263430000000000109e-01
1.263430000000000109e-01
1.264949999999999963e-01
1.264949999999999963e-01
1.264949999999999963e-01
1.264949999999999963e-01
1.263430000000000109e-01
1.268009999999999970e-01
1.261899999999999966e-01
1.263430000000000109e-01
1.263430000000000109e-01
1.263430000000000109e-01
1.263430000000000109e-01
1.266480000000000106e-01
1.264949999999999963e-01
1.263430000000000109e-01
1.266480000000000106e-01
1.266480000000000106e-01
1.269530000000000103e-01
1.283259999999999956e-01
1.284790000000000099e-01
1.286319999999999963e-01
1.289369999999999961e-01
1.287840000000000096e-01
1.287840000000000096e-01
1.286319999999999963e-01
1.290890000000000093e-01
1.287840000000000096e-01
1.287840000000000096e-01
1.289369999999999961e-01
1.290890000000000093e-01
1.289369999999999961e-01
1.286319999999999963e-01
1.287840000000000096e-01
1.286319999999999963e-01
1.286319999999999963e-01
1.286319999999999963e-01
1.287840000000000096e-01
1.286319999999999963e-01
1.286319999999999963e-01
1.287840000000000096e-01
1.287840000000000096e-01
1.287840000000000096e-01
1.287840000000000096e-01
1.287840000000000096e-01
1.287840000000000096e-01
1.289369999999999961e-01
1.287840000000000096e-01
1.289369999999999961e-01
1.284790000000000099e-01
1.286319999999999963e-01
1.287840000000000096e-01
1.289369999999999961e-01
1.287840000000000096e-01
1.286319999999999963e-01
1.287840000000000096e-01
1.289369999999999961e-01
1.283259999999999956e-01
1.269530000000000103e-01
1.266480000000000106e-01
1.266480000000000106e-01
1.266480000000000106e-01
1.263430000000000109e-01
1.266480000000000106e-01
1.264949999999999963e-01
1.263430000000000109e-01
1.266480000000000106e-01
1.264949999999999963e-01
1.263430000000000109e-01
1.260380000000000111e-01
1.258849999999999969e-01
1.251220000000000110e-01
1.243589999999999973e-01
1.242069999999999980e-01
1.242069999999999980e-01
1.240539999999999976e-01
1.237489999999999979e-01
1.239009999999999972e-01
1.232909999999999978e-01
1.223749999999999977e-01
1.217649999999999982e-01
1.216129999999999989e-01
1.214599999999999985e-01
1.216129999999999989e-01
1.216129999999999989e-01
1.211549999999999988e-01
1.206969999999999987e-01
1.194759999999999989e-01
1.193239999999999995e-01
1.194759999999999989e-01
1.191709999999999992e-01
1.191709999999999992e-01
1.185609999999999997e-01
1.174930000000000002e-01
1.168819999999999998e-01
1.167300000000000004e-01
1.165770000000000001e-01
1.161190000000000000e-01
1.152040000000000008e-01
1.142880000000000007e-01
1.136780000000000013e-01
1.123050000000000020e-01
1.118470000000000020e-01
1.112370000000000025e-01
1.103210000000000024e-01
1.094060000000000032e-01
1.089480000000000032e-01
1.071170000000000039e-01
1.069640000000000035e-01
1.065060000000000034e-01
1.052860000000000046e-01
1.040650000000000047e-01
1.028440000000000049e-01
1.020810000000000051e-01
1.013180000000000053e-01
1.004030000000000061e-01
9.979250000000000620e-02
9.872440000000000382e-02
9.765619999999999856e-02
9.719849999999999324e-02
9.643549999999999345e-02
9.536740000000000494e-02
9.429930000000000256e-02
9.307859999999999745e-02
9.231570000000000054e-02
9.216309999999999780e-02
9.063720000000000110e-02
8.941649999999999598e-02
8.834839999999999360e-02
8.743289999999999396e-02
8.697509999999999963e-02
8.590699999999999725e-02
8.422849999999999782e-02
8.300780000000000658e-02
8.254999999999999838e-02
8.193970000000000420e-02
8.087160000000000182e-02
7.934570000000000511e-02
7.858279999999999432e-02
7.736210000000000309e-02
7.629389999999999783e-02
7.537839999999999818e-02
7.385250000000000148e-02
7.232669999999999377e-02
7.110600000000000254e-02
6.988529999999999742e-02
6.896969999999999490e-02
6.835940000000000072e-02
6.744379999999999820e-02
6.591800000000000437e-02
6.408690000000000220e-02
6.240840000000000276e-02
6.134030000000000038e-02
5.996699999999999947e-02
5.874630000000000130e-02
5.813600000000000018e-02
5.645750000000000074e-02
5.523680000000000256e-02
5.310059999999999780e-02
5.142209999999999837e-02
5.050659999999999872e-02
4.943850000000000328e-02
4.837040000000000090e-02
4.638670000000000293e-02
4.379269999999999691e-02
4.165649999999999908e-02
4.058839999999999670e-02
3.921510000000000273e-02
3.753660000000000330e-02
3.631589999999999818e-02
3.448489999999999889e-02
3.234859999999999819e-02
3.158570000000000128e-02
2.944949999999999998e-02
2.777100000000000055e-02
2.685550000000000090e-02
2.471920000000000020e-02
2.319339999999999943e-02
2.166749999999999926e-02
1.968380000000000130e-02
1.754760000000000000e-02
1.541140000000000045e-02
1.449579999999999966e-02
1.235960000000000010e-02
1.007079999999999954e-02
7.629389999999999783e-03
5.798339999999999918e-03
4.272459999999999626e-03
2.593990000000000011e-03
4.577639999999999899e-04
-1.983640000000000056e-03
-4.119870000000000303e-03
-6.713870000000000254e-03
-9.307859999999999398e-03
-1.098629999999999919e-02
-1.220700000000000084e-02
-1.403809999999999954e-02
-1.678469999999999962e-02
-1.907350000000000018e-02
-2.166749999999999926e-02
-2.395629999999999982e-02
-2.639769999999999964e-02
-2.883909999999999946e-02
-3.173829999999999707e-02
-3.570559999999999706e-02
-3.829960000000000309e-02
-4.089360000000000217e-02
-4.348749999999999838e-02
-4.592899999999999761e-02
-4.806520000000000237e-02
-5.065920000000000145e-02
-5.294800000000000201e-02
-5.584719999999999962e-02
-5.813600000000000018e-02
-6.027219999999999800e-02
-6.286619999999999708e-02
-6.500240000000000185e-02
-6.790160000000000640e-02
-7.019040000000000001e-02
-7.263179999999999636e-02
-7.492070000000000674e-02
-7.690429999999999489e-02
-7.797239999999999727e-02
-7.995610000000000217e-02
-8.239749999999999852e-02
-8.453370000000000328e-02
-8.697509999999999963e-02
-8.941649999999999598e-02
-9.140009999999999801e-02
-9.292599999999999472e-02
-9.460449999999999415e-02
-9.658809999999999618e-02
-9.872440000000000382e-02
-1.000980000000000064e-01
-1.020810000000000051e-01
-1.045230000000000048e-01
-1.063540000000000041e-01
-1.072690000000000032e-01
-1.089480000000000032e-01
-1.098630000000000023e-01
-1.116940000000000016e-01
-1.132200000000000012e-01
-1.144410000000000011e-01
-1.158140000000000003e-01
-1.173399999999999999e-01
-1.182560000000000000e-01
-1.197809999999999986e-01
-1.213069999999999982e-01
-1.223749999999999977e-01
-1.232909999999999978e-01
-1.243589999999999973e-01
-1.257320000000000104e-01
-1.260380000000000111e-01
-1.268009999999999970e-01
-1.283259999999999956e-01
-1.284790000000000099e-01
-1.292419999999999958e-01
-1.307679999999999954e-01
-1.309200000000000086e-01
-1.310729999999999951e-01
-1.318360000000000087e-01
-1.327510000000000079e-01
-1.335139999999999938e-01
-1.335139999999999938e-01
-1.341249999999999942e-01
-1.344299999999999939e-01
-1.356509999999999938e-01
-1.361080000000000068e-01
-1.362609999999999932e-01
-1.364140000000000075e-01
-1.361080000000000068e-01
-1.367190000000000072e-01
-1.377869999999999928e-01
-1.385500000000000065e-01
-1.385500000000000065e-01
-1.382450000000000068e-01
-1.390079999999999927e-01
-1.385500000000000065e-01
-1.387019999999999920e-01
-1.385500000000000065e-01
-1.383969999999999922e-01
-1.383969999999999922e-01
-1.390079999999999927e-01
-1.406860000000000055e-01
-1.409910000000000052e-01
-1.411439999999999917e-01
-1.409910000000000052e-01
-1.411439999999999917e-01
-1.409910000000000052e-01
-1.411439999999999917e-01
-1.409910000000000052e-01
-1.411439999999999917e-01
-1.406860000000000055e-01
-1.409910000000000052e-01
-1.412960000000000049e-01
-1.408389999999999920e-01
-1.406860000000000055e-01
-1.408389999999999920e-01
-1.409910000000000052e-01
-1.411439999999999917e-01
-1.411439999999999917e-01
-1.409910000000000052e-01
-1.405329999999999913e-01
-1.391600000000000059e-01
-1.388550000000000062e-01
-1.388550000000000062e-01
-1.387019999999999920e-01
-1.383969999999999922e-01
-1.377869999999999928e-01
-1.368709999999999927e-01
-1.362609999999999932e-01
-1.358030000000000070e-01
-1.354980000000000073e-01
-1.344299999999999939e-01
-1.335139999999999938e-01
-1.336670000000000080e-01
-1.332089999999999941e-01
-1.319889999999999952e-01
-1.312260000000000093e-01
-1.303100000000000092e-01
-1.295469999999999955e-01
-1.287840000000000096e-01
-1.280209999999999959e-01
-1.272580000000000100e-01
-1.264949999999999963e-01
-1.261899999999999966e-01
-1.257320000000000104e-01
-1.249689999999999968e-01
-1.242069999999999980e-01
-1.234439999999999982e-01
-1.220699999999999980e-01
-1.213069999999999982e-01
-1.216129999999999989e-01
-1.213069999999999982e-01
-1.206969999999999987e-01
-1.196289999999999992e-01
-1.191709999999999992e-01
-1.188659999999999994e-01
-1.193239999999999995e-01
-1.184079999999999994e-01
-1.171880000000000005e-01
-1.167300000000000004e-01
-1.167300000000000004e-01
-1.167300000000000004e-01
-1.159670000000000006e-01
-1.148990000000000011e-01
-1.142880000000000007e-01
-1.141360000000000013e-01
-1.141360000000000013e-01
-1.132200000000000012e-01
-1.120000000000000023e-01
-1.121520000000000017e-01
-1.116940000000000016e-01
-1.115420000000000023e-01
-1.109310000000000018e-01
-1.098630000000000023e-01
-1.094060000000000032e-01
-1.094060000000000032e-01
-1.094060000000000032e-01
-1.084900000000000031e-01
-1.075740000000000030e-01
-1.068120000000000042e-01
-1.068120000000000042e-01
-1.071170000000000039e-01
-1.063540000000000041e-01
-1.052860000000000046e-01
-1.048280000000000045e-01
-1.046750000000000042e-01
-1.043700000000000044e-01
-1.037600000000000050e-01
-1.029970000000000052e-01
-1.020810000000000051e-01
-1.017760000000000054e-01
-1.017760000000000054e-01
-1.010130000000000056e-01
-1.002500000000000058e-01
-9.979250000000000620e-02
-9.918209999999999527e-02
-9.933469999999999800e-02
-9.872440000000000382e-02
-9.811400000000000676e-02
-9.704590000000000438e-02
-9.704590000000000438e-02
-9.704590000000000438e-02
-9.704590000000000438e-02
-9.719849999999999324e-02
-9.658809999999999618e-02
-9.521480000000000221e-02
-9.475709999999999689e-02
-9.460449999999999415e-02
-9.475709999999999689e-02
-9.429930000000000256e-02
-9.506230000000000235e-02
-9.368899999999999451e-02
-9.323120000000000018e-02
-9.246830000000000327e-02
-9.201049999999999507e-02
-9.246830000000000327e-02
-9.140009999999999801e-02
-9.063720000000000110e-02
-9.002690000000000692e-02
-8.987430000000000418e-02
-8.911130000000000440e-02
-8.789059999999999928e-02
-8.773799999999999655e-02
-8.728030000000000510e-02
-8.666989999999999417e-02
-8.544920000000000293e-02
-8.499149999999999761e-02
-8.422849999999999782e-02
-8.300780000000000658e-02
-8.239749999999999852e-02
-8.239749999999999852e-02
-8.148189999999999600e-02
-8.056639999999999635e-02
-8.010860000000000203e-02
-7.934570000000000511e-02
-7.843020000000000547e-02
-7.797239999999999727e-02
-7.751460000000000294e-02
-7.705689999999999762e-02
-7.568360000000000365e-02
-7.522579999999999545e-02
-7.522579999999999545e-02
-7.446289999999999853e-02
-7.385250000000000148e-02
-7.308960000000000456e-02
-7.278439999999999910e-02
-7.217410000000000492e-02
-7.095339999999999980e-02
-7.049560000000000548e-02
-7.064819999999999434e-02
-6.973269999999999469e-02
-6.866460000000000619e-02
-6.820679999999999799e-02
-6.805419999999999525e-02
-6.698610000000000675e-02
-6.622309999999999308e-02
-6.576540000000000163e-02
-6.530759999999999343e-02
-6.469729999999999925e-02
-6.362919999999999687e-02
-6.271359999999999435e-02
-6.317140000000000255e-02
-6.240840000000000276e-02
-6.134030000000000038e-02
-6.103519999999999779e-02
-6.057740000000000347e-02
-6.072999999999999926e-02
-5.981449999999999961e-02
-5.889889999999999709e-02
-5.813600000000000018e-02
-5.813600000000000018e-02
-5.844119999999999870e-02
-5.783080000000000165e-02
-5.615230000000000221e-02
-5.584719999999999962e-02
-5.569459999999999689e-02
-5.508419999999999983e-02
-5.416870000000000018e-02
-5.340580000000000327e-02
-5.340580000000000327e-02
-5.355830000000000313e-02
-5.279539999999999927e-02
-5.142209999999999837e-02
-5.081179999999999725e-02
-5.111689999999999984e-02
-5.035400000000000292e-02
-4.913329999999999781e-02
-4.852290000000000075e-02
-4.852290000000000075e-02
-4.867549999999999655e-02
-4.775999999999999690e-02
-4.684449999999999725e-02
-4.592899999999999761e-02
-4.608149999999999746e-02
-4.608149999999999746e-02
-4.562379999999999908e-02
-4.394529999999999964e-02
-4.364010000000000111e-02
-4.364010000000000111e-02
-4.348749999999999838e-02
-4.287719999999999726e-02
-4.196169999999999761e-02
-4.119869999999999782e-02
-4.104610000000000203e-02
-4.104610000000000203e-02
-4.119869999999999782e-02
-4.119869999999999782e-02
-4.028319999999999818e-02
-3.936769999999999853e-02
-3.875730000000000147e-02
-3.845210000000000294e-02
-3.875730000000000147e-02
-3.875730000000000147e-02
-3.875730000000000147e-02
-3.845210000000000294e-02
-3.860469999999999874e-02
-3.799439999999999762e-02
-3.707889999999999797e-02
-3.631589999999999818e-02
-3.616330000000000239e-02
-3.631589999999999818e-02
-3.616330000000000239e-02
-3.631589999999999818e-02
-3.601069999999999965e-02
-3.646850000000000092e-02
-3.631589999999999818e-02
-3.646850000000000092e-02
-3.646850000000000092e-02
-3.662109999999999671e-02
-3.631589999999999818e-02
-3.631589999999999818e-02
-3.631589999999999818e-02
-3.631589999999999818e-02
-3.585819999999999980e-02
-3.616330000000000239e-02
-3.631589999999999818e-02
-3.616330000000000239e-02
-3.631589999999999818e-02
-3.631589999999999818e-02
-3.616330000000000239e-02
-3.601069999999999965e-02
-3.616330000000000239e-02
-3.631589999999999818e-02
-3.616330000000000239e-02
-3.631589999999999818e-02
-3.631589999999999818e-02
-3.662109999999999671e-02
-3.631589999999999818e-02
-3.616330000000000239e-02
-3.631589999999999818e-02
-3.662109999999999671e-02
-3.616330000000000239e-02
-3.616330000000000239e-02
-3.631589999999999818e-02
-3.616330000000000239e-02
-3.631589999999999818e-02
-3.631589999999999818e-02
-3.662109999999999671e-02
-3.646850000000000092e-02
-3.631589999999999818e-02
-3.616330000000000239e-02
-3.616330000000000239e-02
-3.601069999999999965e-02
-3.601069999999999965e-02
-3.616330000000000239e-02
-3.601069999999999965e-02
-3.646850000000000092e-02
-3.631589999999999818e-02
-3.646850000000000092e-02
-3.616330000000000239e-02
-3.631589999999999818e-02
-3.616330000000000239e-02
-3.585819999999999980e-02
-3.631589999999999818e-02
-3.646850000000000092e-02
-3.646850000000000092e-02
-3.631589999999999818e-02
-3.662109999999999671e-02
-3.646850000000000092e-02
-3.646850000000000092e-02
-3.616330000000000239e-02
-3.616330000000000239e-02
-3.631589999999999818e-02
-3.631589999999999818e-02
-3.601069999999999965e-02
-3.417970000000000036e-02
-3.402709999999999763e-02
-3.402709999999999763e-02
-3.387450000000000183e-02
-3.387450000000000183e-02
-3.372189999999999910e-02
-3.326420000000000071e-02
-3.387450000000000183e-02
-3.402709999999999763e-02
-3.402709999999999763e-02
-3.417970000000000036e-02
-3.402709999999999763e-02
-3.387450000000000183e-02
-3.402709999999999763e-02
-3.372189999999999910e-02
-3.372189999999999910e-02
-3.372189999999999910e-02
-3.387450000000000183e-02
-3.372189999999999910e-02
-3.402709999999999763e-02
-3.402709999999999763e-02
-3.402709999999999763e-02
-3.387450000000000183e-02
-3.311159999999999798e-02
-3.204350000000000254e-02
-3.143309999999999854e-02
-3.143309999999999854e-02
-3.128050000000000275e-02
-3.128050000000000275e-02
-3.128050000000000275e-02
-3.143309999999999854e-02
-3.143309999999999854e-02
-3.158570000000000128e-02
-3.128050000000000275e-02
-3.112790000000000001e-02
-3.128050000000000275e-02
-3.112790000000000001e-02
-3.128050000000000275e-02
-3.158570000000000128e-02
-3.128050000000000275e-02
-3.143309999999999854e-02
-3.158570000000000128e-02
-3.143309999999999854e-02
-3.128050000000000275e-02
-3.143309999999999854e-02
-3.128050000000000275e-02
-3.158570000000000128e-02
-3.112790000000000001e-02
-3.143309999999999854e-02
-3.128050000000000275e-02
-3.158570000000000128e-02
-3.143309999999999854e-02
-3.158570000000000128e-02
-3.158570000000000128e-02
-3.158570000000000128e-02
-3.128050000000000275e-02
-3.204350000000000254e-02
-3.311159999999999798e-02
-3.372189999999999910e-02
-3.402709999999999763e-02
-3.402709999999999763e-02
-3.356930000000000330e-02
-3.356930000000000330e-02
-3.372189999999999910e-02
-3.402709999999999763e-02
-3.311159999999999798e-02
-3.189089999999999980e-02
-3.128050000000000275e-02
-3.128050000000000275e-02
-3.158570000000000128e-02
-3.143309999999999854e-02
-3.097530000000000075e-02
-3.158570000000000128e-02
-3.128050000000000275e-02
-3.143309999999999854e-02
-3.128050000000000275e-02
-3.158570000000000128e-02
-3.112790000000000001e-02
-3.143309999999999854e-02
-3.143309999999999854e-02
-3.158570000000000128e-02
-3.143309999999999854e-02
-3.128050000000000275e-02
-3.112790000000000001e-02
-3.128050000000000275e-02
-3.158570000000000128e-02
-3.112790000000000001e-02
-3.158570000000000128e-02
-3.204350000000000254e-02
-3.341670000000000057e-02
-3.387450000000000183e-02
-3.372189999999999910e-02
-3.402709999999999763e-02
-3.372189999999999910e-02
-3.387450000000000183e-02
-3.387450000000000183e-02
-3.372189999999999910e-02
-3.372189999999999910e-02
-3.372189999999999910e-02
-3.387450000000000183e-02
-3.356930000000000330e-02
-3.372189999999999910e-02
-3.387450000000000183e-02
-3.387450000000000183e-02
-3.372189999999999910e-02
-3.387450000000000183e-02
-3.448489999999999889e-02
-3.555300000000000127e-02
-3.631589999999999818e-02
-3.540039999999999853e-02
-3.448489999999999889e-02
-3.402709999999999763e-02
-3.372189999999999910e-02
-3.372189999999999910e-02
-3.372189999999999910e-02
-3.356930000000000330e-02
-3.372189999999999910e-02
-3.311159999999999798e-02
-3.204350000000000254e-02
-3.173829999999999707e-02
-3.143309999999999854e-02
-3.143309999999999854e-02
-3.067020000000000163e-02
-2.975459999999999910e-02
-2.883909999999999946e-02
-2.883909999999999946e-02
-2.929690000000000072e-02
-2.838130000000000167e-02
-2.746579999999999855e-02
-2.700810000000000016e-02
-2.670290000000000163e-02
-2.655029999999999890e-02
-2.670290000000000163e-02
-2.655029999999999890e-02
-2.639769999999999964e-02
-2.563479999999999925e-02
-2.471920000000000020e-02
-2.380370000000000055e-02
-2.380370000000000055e-02
-2.426149999999999834e-02
-2.395629999999999982e-02
-2.380370000000000055e-02
-2.410889999999999908e-02
-2.395629999999999982e-02
-2.380370000000000055e-02
-2.365110000000000129e-02
-2.395629999999999982e-02
-2.410889999999999908e-02
-2.426149999999999834e-02
-2.410889999999999908e-02
-2.395629999999999982e-02
-2.395629999999999982e-02
-2.441410000000000108e-02
-2.334589999999999929e-02
-2.197270000000000126e-02
-2.166749999999999926e-02
-2.136230000000000073e-02
-2.136230000000000073e-02
-2.120970000000000147e-02
-2.151490000000000000e-02
-2.197270000000000126e-02
-2.151490000000000000e-02
-2.182009999999999852e-02
-2.151490000000000000e-02
-2.166749999999999926e-02
-2.182009999999999852e-02
-2.105709999999999874e-02
-1.998899999999999982e-02
-1.922609999999999944e-02
-1.922609999999999944e-02
-1.922609999999999944e-02
-1.907350000000000018e-02
-2.029419999999999835e-02
-2.120970000000000147e-02
-2.151490000000000000e-02
-2.166749999999999926e-02
-2.182009999999999852e-02
-2.166749999999999926e-02
-2.166749999999999926e-02
-2.166749999999999926e-02
-2.166749999999999926e-02
-2.166749999999999926e-02
-2.151490000000000000e-02
-2.151490000000000000e-02
-2.182009999999999852e-02
-2.136230000000000073e-02
-2.166749999999999926e-02
-2.182009999999999852e-02
-2.151490000000000000e-02
-2.166749999999999926e-02
-2.182009999999999852e-02
-2.151490000000000000e-02
-2.166749999999999926e-02
-2.151490000000000000e-02
-2.151490000000000000e-02
-2.151490000000000000e-02
-2.151490000000000000e-02
-2.182009999999999852e-02
-2.151490000000000000e-02
-2.166749999999999926e-02
-2.166749999999999926e-02
-2.151490000000000000e-02
-2.151490000000000000e-02
-2.182009999999999852e-02
-2.151490000000000000e-02
-2.166749999999999926e-02
-2.136230000000000073e-02
-2.151490000000000000e-02
-2.166749999999999926e-02
-2.136230000000000073e-02
-2.151490000000000000e-02
-2.166749999999999926e-02
-2.197270000000000126e-02
-2.166749999999999926e-02
-2.182009999999999852e-02
-2.166749999999999926e-02
-2.151490000000000000e-02
-2.197270000000000126e-02
-2.151490000000000000e-02
-2.166749999999999926e-02
-2.182009999999999852e-02
-2.182009999999999852e-02
-2.182009999999999852e-02
-2.151490000000000000e-02
-2.166749999999999926e-02
-2.182009999999999852e-02
-2.151490000000000000e-02
-2.197270000000000126e-02
-2.151490000000000000e-02
-2.105709999999999874e-02
-1.998899999999999982e-02
-1.937869999999999870e-02
-1.907350000000000018e-02
-1.937869999999999870e-02
-1.937869999999999870e-02
-1.846309999999999965e-02
-1.724240000000000148e-02
-1.693729999999999888e-02
-1.647950000000000109e-02
-1.693729999999999888e-02
-1.693729999999999888e-02
-1.617429999999999909e-02
-1.449579999999999966e-02
-1.449579999999999966e-02
-1.419070000000000054e-02
-1.434329999999999980e-02
-1.434329999999999980e-02
-1.434329999999999980e-02
-1.342770000000000075e-02
-1.251219999999999936e-02
-1.205439999999999984e-02
-1.159669999999999972e-02
-1.159669999999999972e-02
-1.205439999999999984e-02
-1.190189999999999998e-02
-1.190189999999999998e-02
-1.174930000000000072e-02
-1.190189999999999998e-02
-1.205439999999999984e-02
-1.083369999999999993e-02
-1.022340000000000054e-02
-9.765619999999999162e-03
-9.613039999999999780e-03
-9.307859999999999398e-03
-9.613039999999999780e-03
-9.155270000000000075e-03
-9.765619999999999162e-03
-9.460450000000000456e-03
-9.307859999999999398e-03
-9.460450000000000456e-03
-9.613039999999999780e-03
-9.307859999999999398e-03
-9.460450000000000456e-03
-9.307859999999999398e-03
-9.765619999999999162e-03
-9.155270000000000075e-03
-9.155270000000000075e-03
-9.307859999999999398e-03
-9.460450000000000456e-03
-9.460450000000000456e-03
-9.002690000000000692e-03
-9.460450000000000456e-03
-9.307859999999999398e-03
-1.037599999999999981e-02
-1.129149999999999945e-02
-1.159669999999999972e-02
-1.205439999999999984e-02
-1.174930000000000072e-02
-1.113890000000000019e-02
-1.037599999999999981e-02
-9.460450000000000456e-03
-9.155270000000000075e-03
-9.155270000000000075e-03
-9.613039999999999780e-03
-9.613039999999999780e-03
-9.460450000000000456e-03
-9.307859999999999398e-03
-9.002690000000000692e-03
-7.476810000000000400e-03
-7.171630000000000019e-03
-7.171630000000000019e-03
-7.324220000000000209e-03
-6.256099999999999682e-03
-5.187989999999999963e-03
-4.882809999999999581e-03
-4.730220000000000258e-03
-4.272459999999999626e-03
-4.272459999999999626e-03
-2.441410000000000195e-03
-2.136229999999999813e-03
-1.983640000000000056e-03
-2.136229999999999813e-03
-1.525880000000000075e-03
-1.525879999999999966e-04
0.000000000000000000e+00
3.051759999999999933e-04
1.525879999999999966e-04
9.155269999999999641e-04
2.136229999999999813e-03
2.593990000000000011e-03
2.593990000000000011e-03
2.593990000000000011e-03
2.899169999999999959e-03
3.356930000000000157e-03
4.272459999999999626e-03
5.035399999999999772e-03
5.493160000000000404e-03
5.340580000000000153e-03
5.340580000000000153e-03
5.035399999999999772e-03
5.187989999999999963e-03
5.493160000000000404e-03
5.187989999999999963e-03
5.340580000000000153e-03
5.035399999999999772e-03
5.035399999999999772e-03
5.187989999999999963e-03
5.187989999999999963e-03
5.187989999999999963e-03
5.035399999999999772e-03
5.035399999999999772e-03
5.187989999999999963e-03
5.187989999999999963e-03
5.035399999999999772e-03
5.187989999999999963e-03
5.187989999999999963e-03
5.187989999999999963e-03
5.187989999999999963e-03
4.882809999999999581e-03
5.187989999999999963e-03
5.187989999999999963e-03
5.035399999999999772e-03
4.882809999999999581e-03
5.187989999999999963e-03
5.035399999999999772e-03
5.035399999999999772e-03
5.340580000000000153e-03
5.340580000000000153e-03
5.035399999999999772e-03
4.730220000000000258e-03
4.882809999999999581e-03
4.882809999999999581e-03
5.340580000000000153e-03
4.882809999999999581e-03
5.798339999999999918e-03
7.019039999999999828e-03
7.324220000000000209e-03
7.629389999999999783e-03
7.934570000000000164e-03
7.324220000000000209e-03
7.324220000000000209e-03
7.476810000000000400e-03
7.171630000000000019e-03
7.781979999999999974e-03
7.324220000000000209e-03
7.629389999999999783e-03
7.476810000000000400e-03
7.324220000000000209e-03
7.019039999999999828e-03
7.476810000000000400e-03
7.629389999999999783e-03
7.629389999999999783e-03
7.781979999999999974e-03
7.629389999999999783e-03
7.324220000000000209e-03
7.629389999999999783e-03
7.476810000000000400e-03
7.629389999999999783e-03
7.781979999999999974e-03
7.476810000000000400e-03
7.324220000000000209e-03
7.476810000000000400e-03
7.476810000000000400e-03
7.476810000000000400e-03
7.476810000000000400e-03
7.476810000000000400e-03
7.324220000000000209e-03
8.392329999999999929e-03
9.002690000000000692e-03
9.765619999999999162e-03
9.765619999999999162e-03
9.765619999999999162e-03
1.052860000000000081e-02
1.190189999999999998e-02
1.235960000000000010e-02
1.220700000000000084e-02
1.220700000000000084e-02
1.297000000000000063e-02
1.434329999999999980e-02
1.434329999999999980e-02
1.480099999999999992e-02
1.480099999999999992e-02
1.510620000000000018e-02
1.525879999999999945e-02
1.556399999999999971e-02
1.647950000000000109e-02
1.724240000000000148e-02
1.693729999999999888e-02
1.739500000000000074e-02
1.739500000000000074e-02
1.693729999999999888e-02
1.739500000000000074e-02
1.770019999999999927e-02
1.892090000000000091e-02
1.937869999999999870e-02
1.953119999999999856e-02
1.968380000000000130e-02
1.953119999999999856e-02
1.922609999999999944e-02
1.998899999999999982e-02
1.968380000000000130e-02
1.953119999999999856e-02
1.983640000000000056e-02
1.998899999999999982e-02
2.014159999999999909e-02
2.166749999999999926e-02
2.197270000000000126e-02
2.197270000000000126e-02
2.258299999999999891e-02
2.227780000000000038e-02
2.212520000000000112e-02
2.212520000000000112e-02
2.197270000000000126e-02
2.212520000000000112e-02
2.227780000000000038e-02
2.243039999999999964e-02
2.243039999999999964e-02
2.197270000000000126e-02
2.212520000000000112e-02
2.243039999999999964e-02
2.197270000000000126e-02
2.212520000000000112e-02
2.227780000000000038e-02
2.120970000000000147e-02
2.029419999999999835e-02
2.014159999999999909e-02
1.983640000000000056e-02
1.953119999999999856e-02
1.998899999999999982e-02
1.983640000000000056e-02
1.968380000000000130e-02
1.892090000000000091e-02
1.785279999999999853e-02
1.739500000000000074e-02
1.708979999999999874e-02
1.724240000000000148e-02
1.739500000000000074e-02
1.739500000000000074e-02
1.708979999999999874e-02
1.724240000000000148e-02
1.708979999999999874e-02
1.708979999999999874e-02
1.647950000000000109e-02
1.525879999999999945e-02
1.510620000000000018e-02
1.495359999999999918e-02
1.480099999999999992e-02
1.495359999999999918e-02
1.480099999999999992e-02
1.480099999999999992e-02
1.464840000000000066e-02
1.525879999999999945e-02
1.495359999999999918e-02
1.480099999999999992e-02
1.480099999999999992e-02
1.464840000000000066e-02
1.480099999999999992e-02
1.480099999999999992e-02
1.449579999999999966e-02
1.480099999999999992e-02
1.373289999999999927e-02
1.281739999999999963e-02
1.281739999999999963e-02
1.220700000000000084e-02
1.251219999999999936e-02
1.235960000000000010e-02
1.235960000000000010e-02
1.235960000000000010e-02
1.251219999999999936e-02
1.220700000000000084e-02
1.251219999999999936e-02
1.251219999999999936e-02
1.266480000000000036e-02
1.144410000000000045e-02
1.037599999999999981e-02
1.022340000000000054e-02
9.918210000000000220e-03
1.007079999999999954e-02
1.007079999999999954e-02
9.765619999999999162e-03
9.765619999999999162e-03
1.007079999999999954e-02
1.083369999999999993e-02
1.190189999999999998e-02
1.220700000000000084e-02
1.205439999999999984e-02
1.251219999999999936e-02
1.235960000000000010e-02
1.251219999999999936e-02
1.297000000000000063e-02
1.403809999999999954e-02
1.480099999999999992e-02
1.464840000000000066e-02
1.480099999999999992e-02
1.480099999999999992e-02
1.464840000000000066e-02
1.556399999999999971e-02
1.693729999999999888e-02
1.708979999999999874e-02
1.754760000000000000e-02
1.708979999999999874e-02
1.724240000000000148e-02
1.739500000000000074e-02
1.785279999999999853e-02
1.892090000000000091e-02
1.953119999999999856e-02
1.968380000000000130e-02
1.983640000000000056e-02
1.937869999999999870e-02
1.968380000000000130e-02
1.968380000000000130e-02
1.968380000000000130e-02
2.014159999999999909e-02
2.151490000000000000e-02
2.197270000000000126e-02
2.212520000000000112e-02
2.227780000000000038e-02
2.212520000000000112e-02
2.273560000000000164e-02
2.395629999999999982e-02
2.426149999999999834e-02
2.487179999999999946e-02
2.487179999999999946e-02
2.456670000000000034e-02
2.441410000000000108e-02
2.471920000000000020e-02
2.471920000000000020e-02
2.532960000000000073e-02
2.639769999999999964e-02
2.670290000000000163e-02
2.685550000000000090e-02
2.716060000000000002e-02
2.700810000000000016e-02
2.685550000000000090e-02
2.685550000000000090e-02
2.716060000000000002e-02
2.700810000000000016e-02
2.670290000000000163e-02
2.716060000000000002e-02
2.685550000000000090e-02
2.731319999999999928e-02
2.716060000000000002e-02
2.655029999999999890e-02
2.700810000000000016e-02
2.700810000000000016e-02
2.700810000000000016e-02
2.731319999999999928e-02
2.700810000000000016e-02
2.777100000000000055e-02
2.868650000000000019e-02
2.944949999999999998e-02
2.944949999999999998e-02
2.944949999999999998e-02
2.975459999999999910e-02
2.960209999999999925e-02
2.960209999999999925e-02
3.036499999999999963e-02
3.128050000000000275e-02
3.173829999999999707e-02
3.204350000000000254e-02
3.250120000000000092e-02
3.341670000000000057e-02
3.433230000000000309e-02
3.448489999999999889e-02
3.479000000000000148e-02
3.631589999999999818e-02
3.677369999999999944e-02
3.723139999999999783e-02
3.860469999999999874e-02
3.967289999999999706e-02
4.043580000000000091e-02
4.180910000000000182e-02
4.364010000000000111e-02
4.623410000000000020e-02
4.775999999999999690e-02
4.928590000000000054e-02
5.172729999999999689e-02
5.508419999999999983e-02
5.767819999999999891e-02
6.042480000000000073e-02
6.378169999999999673e-02
6.744379999999999820e-02
7.110600000000000254e-02
7.476810000000000400e-02
7.843020000000000547e-02
8.193970000000000420e-02
8.544920000000000293e-02
8.956909999999999872e-02
9.429930000000000256e-02
9.765619999999999856e-02
1.010130000000000056e-01
1.049800000000000039e-01
1.089480000000000032e-01
1.121520000000000017e-01
1.159670000000000006e-01
1.190189999999999998e-01
1.222229999999999983e-01
1.255799999999999972e-01
1.286319999999999963e-01
1.315310000000000090e-01
1.335139999999999938e-01
1.362609999999999932e-01
1.397710000000000063e-01
1.420589999999999908e-01
1.437380000000000047e-01
1.464840000000000031e-01
1.481629999999999892e-01
1.502989999999999882e-01
1.507570000000000021e-01
1.506039999999999879e-01
1.507570000000000021e-01
1.499939999999999884e-01
1.483150000000000024e-01
1.452640000000000042e-01
1.403810000000000058e-01
1.335139999999999938e-01
1.264949999999999963e-01
1.187129999999999991e-01
1.087950000000000028e-01
9.735109999999999597e-02
8.544920000000000293e-02
7.247919999999999363e-02
5.859380000000000144e-02
4.318240000000000273e-02
2.761840000000000128e-02
1.220700000000000084e-02
-4.272459999999999626e-03
-2.212520000000000112e-02
-3.982539999999999691e-02
-5.813600000000000018e-02
-7.629389999999999783e-02
-9.475709999999999689e-02
-1.144410000000000011e-01
-1.347349999999999937e-01
-1.554869999999999863e-01
-1.765440000000000065e-01
-1.968380000000000130e-01
-2.183529999999999915e-01
-2.401729999999999976e-01
-2.615359999999999907e-01
-2.824400000000000244e-01
-3.028870000000000173e-01
-3.233340000000000103e-01
-3.427120000000000166e-01
-3.616329999999999822e-01
-3.794859999999999900e-01
-3.965759999999999841e-01
-4.127500000000000058e-01
-4.275510000000000144e-01
-4.406740000000000101e-01
-4.521180000000000199e-01
-4.617310000000000025e-01
-4.698180000000000134e-01
-4.765320000000000111e-01
-4.814149999999999818e-01
-4.837040000000000228e-01
-4.841610000000000080e-01
-4.823299999999999810e-01
-4.792790000000000106e-01
-4.743959999999999844e-01
-4.678340000000000276e-01
-4.606629999999999892e-01
-4.528809999999999780e-01
-4.431149999999999811e-01
-4.321289999999999853e-01
-4.209899999999999753e-01
-4.092410000000000214e-01
-3.977970000000000117e-01
-3.869630000000000014e-01
-3.761289999999999911e-01
-3.648379999999999956e-01
-3.543089999999999851e-01
-3.431699999999999751e-01
-3.323360000000000203e-01
-3.211979999999999835e-01
-3.096010000000000151e-01
-2.970889999999999920e-01
-2.859499999999999820e-01
-2.748110000000000275e-01
-2.627559999999999896e-01
-2.519230000000000080e-01
-2.406310000000000116e-01
-2.288820000000000021e-01
-2.174379999999999924e-01
-2.064509999999999956e-01
-1.947019999999999862e-01
-1.835630000000000039e-01
-1.731870000000000076e-01
-1.625060000000000116e-01
-1.516720000000000013e-01
-1.412960000000000049e-01
-1.315310000000000090e-01
-1.219179999999999986e-01
-1.118470000000000020e-01
-1.019290000000000057e-01
-9.246830000000000327e-02
-8.270260000000000111e-02
-7.293700000000000183e-02
-6.332400000000000528e-02
-5.386350000000000166e-02
-4.394529999999999964e-02
-3.509520000000000001e-02
-2.655029999999999890e-02
-1.708979999999999874e-02
-7.934570000000000164e-03
1.525879999999999966e-04
9.765619999999999162e-03
1.892090000000000091e-02
2.655029999999999890e-02
3.494259999999999727e-02
4.287719999999999726e-02
5.050659999999999872e-02
5.783080000000000165e-02
6.637569999999999582e-02
7.446289999999999853e-02
8.148189999999999600e-02
8.804320000000000201e-02
9.475709999999999689e-02
1.017760000000000054e-01
1.083370000000000027e-01
1.144410000000000011e-01
1.206969999999999987e-01
1.257320000000000104e-01
1.310729999999999951e-01
1.367190000000000072e-01
1.417539999999999911e-01
1.460269999999999901e-01
1.509089999999999876e-01
1.551819999999999866e-01
1.596069999999999989e-01
1.632689999999999975e-01
1.669309999999999961e-01
1.698300000000000087e-01
1.725770000000000082e-01
1.750180000000000069e-01
1.774600000000000066e-01
1.799010000000000054e-01
1.820370000000000044e-01
1.838680000000000037e-01
1.850890000000000035e-01
1.866150000000000031e-01
1.881410000000000027e-01
1.890560000000000018e-01
1.896670000000000023e-01
1.899720000000000020e-01
1.902770000000000017e-01
1.918030000000000013e-01
1.918030000000000013e-01
1.922609999999999875e-01
1.922609999999999875e-01
1.925659999999999872e-01
1.922609999999999875e-01
1.918030000000000013e-01
1.921080000000000010e-01
1.921080000000000010e-01
1.925659999999999872e-01
1.922609999999999875e-01
1.922609999999999875e-01
1.916499999999999870e-01
1.901249999999999885e-01
1.898189999999999877e-01
1.895139999999999880e-01
1.889039999999999886e-01
1.881410000000000027e-01
1.875310000000000032e-01
1.870729999999999893e-01
1.872250000000000025e-01
1.864619999999999889e-01
1.853940000000000032e-01
1.850890000000000035e-01
1.846309999999999896e-01
1.838680000000000037e-01
1.829530000000000045e-01
1.826480000000000048e-01
1.815799999999999914e-01
1.806639999999999913e-01
1.800539999999999918e-01
1.795960000000000056e-01
1.783750000000000058e-01
1.770019999999999927e-01
1.754759999999999931e-01
1.751709999999999934e-01
1.745609999999999939e-01
1.730349999999999944e-01
1.730349999999999944e-01
1.722720000000000085e-01
1.707460000000000089e-01
1.702879999999999949e-01
1.692200000000000093e-01
1.684569999999999956e-01
1.678469999999999962e-01
1.672359999999999958e-01
1.660159999999999969e-01
1.652530000000000110e-01
1.649480000000000113e-01
1.635739999999999972e-01
1.629639999999999977e-01
1.629639999999999977e-01
1.623539999999999983e-01
1.609800000000000120e-01
1.603700000000000125e-01
1.603700000000000125e-01
1.597600000000000131e-01
1.586909999999999987e-01
1.583859999999999990e-01
1.574709999999999999e-01
1.562500000000000000e-01
1.557920000000000138e-01
1.547240000000000004e-01
1.538090000000000013e-01
1.538090000000000013e-01
1.525880000000000014e-01
1.516720000000000013e-01
1.509089999999999876e-01
1.502989999999999882e-01
1.490779999999999883e-01
1.483150000000000024e-01
1.475519999999999887e-01
1.466369999999999896e-01
1.457209999999999894e-01
1.452640000000000042e-01
1.445009999999999906e-01
1.435849999999999904e-01
1.435849999999999904e-01
1.429749999999999910e-01
1.420589999999999908e-01
1.414489999999999914e-01
1.409910000000000052e-01
1.408389999999999920e-01
1.402279999999999915e-01
1.396179999999999921e-01
1.387019999999999920e-01
1.385500000000000065e-01
1.387019999999999920e-01
1.379390000000000061e-01
1.367190000000000072e-01
1.364140000000000075e-01
1.362609999999999932e-01
1.361080000000000068e-01
1.362609999999999932e-01
1.356509999999999938e-01
1.338199999999999945e-01
1.336670000000000080e-01
1.336670000000000080e-01
1.336670000000000080e-01
1.338199999999999945e-01
1.336670000000000080e-01
1.335139999999999938e-01
1.327510000000000079e-01
1.321410000000000085e-01
1.312260000000000093e-01
1.310729999999999951e-01
1.312260000000000093e-01
1.315310000000000090e-01
1.310729999999999951e-01
1.313779999999999948e-01
1.309200000000000086e-01
1.297000000000000097e-01
1.287840000000000096e-01
1.289369999999999961e-01
1.287840000000000096e-01
1.289369999999999961e-01
1.287840000000000096e-01
1.283259999999999956e-01
1.269530000000000103e-01
1.268009999999999970e-01
1.266480000000000106e-01
1.268009999999999970e-01
1.257320000000000104e-01
1.248169999999999974e-01
1.240539999999999976e-01
1.237489999999999979e-01
1.231379999999999975e-01
1.223749999999999977e-01
1.216129999999999989e-01
1.216129999999999989e-01
1.214599999999999985e-01
1.211549999999999988e-01
1.197809999999999986e-01
1.194759999999999989e-01
1.190189999999999998e-01
1.188659999999999994e-01
1.190189999999999998e-01
1.185609999999999997e-01
1.170350000000000001e-01
1.170350000000000001e-01
1.167300000000000004e-01
1.164250000000000007e-01
1.161190000000000000e-01
1.150510000000000005e-01
1.144410000000000011e-01
1.141360000000000013e-01
1.141360000000000013e-01
1.144410000000000011e-01
1.144410000000000011e-01
1.136780000000000013e-01
1.123050000000000020e-01
1.120000000000000023e-01
1.118470000000000020e-01
1.118470000000000020e-01
1.116940000000000016e-01
1.118470000000000020e-01
1.115420000000000023e-01
1.120000000000000023e-01
1.120000000000000023e-01
1.109310000000000018e-01
1.101680000000000020e-01
1.097110000000000030e-01
1.097110000000000030e-01
1.095580000000000026e-01
1.094060000000000032e-01
1.092530000000000029e-01
1.095580000000000026e-01
1.092530000000000029e-01
1.094060000000000032e-01
1.098630000000000023e-01
1.094060000000000032e-01
1.094060000000000032e-01
1.091000000000000025e-01
1.086430000000000035e-01
1.077270000000000033e-01
1.068120000000000042e-01
1.069640000000000035e-01
1.074220000000000036e-01
1.069640000000000035e-01
1.068120000000000042e-01
1.068120000000000042e-01
1.071170000000000039e-01
1.071170000000000039e-01
1.065060000000000034e-01
1.071170000000000039e-01
1.068120000000000042e-01
1.060490000000000044e-01
1.049800000000000039e-01
1.046750000000000042e-01
1.045230000000000048e-01
1.043700000000000044e-01
1.043700000000000044e-01
1.048280000000000045e-01
1.043700000000000044e-01
1.045230000000000048e-01
1.042180000000000051e-01
1.040650000000000047e-01
1.045230000000000048e-01
1.045230000000000048e-01
1.048280000000000045e-01
1.043700000000000044e-01
1.043700000000000044e-01
1.043700000000000044e-01
1.045230000000000048e-01
1.045230000000000048e-01
1.045230000000000048e-01
1.043700000000000044e-01
1.045230000000000048e-01
1.046750000000000042e-01
1.045230000000000048e-01
1.045230000000000048e-01
1.043700000000000044e-01
1.045230000000000048e-01
1.045230000000000048e-01
1.045230000000000048e-01
1.043700000000000044e-01
1.049800000000000039e-01
1.065060000000000034e-01
1.066590000000000038e-01
1.069640000000000035e-01
1.071170000000000039e-01
1.072690000000000032e-01
1.066590000000000038e-01
1.069640000000000035e-01
1.066590000000000038e-01
1.077270000000000033e-01
1.084900000000000031e-01
1.089480000000000032e-01
1.092530000000000029e-01
1.095580000000000026e-01
1.094060000000000032e-01
1.094060000000000032e-01
1.095580000000000026e-01
1.091000000000000025e-01
1.095580000000000026e-01
1.095580000000000026e-01
1.091000000000000025e-01
1.092530000000000029e-01
1.094060000000000032e-01
1.095580000000000026e-01
1.092530000000000029e-01
1.091000000000000025e-01
1.094060000000000032e-01
1.092530000000000029e-01
1.094060000000000032e-01
1.094060000000000032e-01
1.092530000000000029e-01
1.092530000000000029e-01
1.091000000000000025e-01
1.094060000000000032e-01
1.092530000000000029e-01
1.092530000000000029e-01
1.091000000000000025e-01
1.086430000000000035e-01
1.078800000000000037e-01
1.068120000000000042e-01
1.069640000000000035e-01
1.069640000000000035e-01
1.068120000000000042e-01
1.074220000000000036e-01
1.069640000000000035e-01
1.069640000000000035e-01
1.069640000000000035e-01
1.068120000000000042e-01
1.063540000000000041e-01
1.051330000000000042e-01
1.048280000000000045e-01
1.045230000000000048e-01
1.046750000000000042e-01
1.046750000000000042e-01
1.045230000000000048e-01
1.048280000000000045e-01
1.045230000000000048e-01
1.046750000000000042e-01
1.046750000000000042e-01
1.043700000000000044e-01
1.043700000000000044e-01
1.051330000000000042e-01
1.063540000000000041e-01
1.068120000000000042e-01
1.066590000000000038e-01
1.068120000000000042e-01
1.068120000000000042e-01
1.069640000000000035e-01
1.068120000000000042e-01
1.069640000000000035e-01
1.068120000000000042e-01
1.066590000000000038e-01
1.062010000000000037e-01
1.054380000000000039e-01
1.046750000000000042e-01
1.045230000000000048e-01
1.045230000000000048e-01
1.042180000000000051e-01
1.042180000000000051e-01
1.045230000000000048e-01
1.036070000000000046e-01
1.026920000000000055e-01
1.023860000000000048e-01
1.020810000000000051e-01
1.019290000000000057e-01
1.023860000000000048e-01
1.013180000000000053e-01
1.000980000000000064e-01
9.963990000000000347e-02
9.979250000000000620e-02
9.918209999999999527e-02
9.780880000000000130e-02
9.735109999999999597e-02
9.643549999999999345e-02
9.551999999999999380e-02
9.490969999999999962e-02
9.399409999999999710e-02
9.292599999999999472e-02
9.185790000000000621e-02
9.063720000000000110e-02
9.017940000000000678e-02
8.941649999999999598e-02
8.819580000000000475e-02
8.789059999999999928e-02
8.666989999999999417e-02
8.605959999999999999e-02
8.422849999999999782e-02
8.331299999999999817e-02
8.209230000000000693e-02
8.071899999999999908e-02
8.041379999999999362e-02
7.934570000000000511e-02
7.858279999999999432e-02
7.751460000000000294e-02
7.614139999999999797e-02
7.492070000000000674e-02
7.324219999999999342e-02
7.247919999999999363e-02
7.125850000000000239e-02
7.003779999999999728e-02
6.866460000000000619e-02
6.759640000000000093e-02
6.622309999999999308e-02
6.500240000000000185e-02
6.286619999999999708e-02
6.149290000000000311e-02
6.011960000000000220e-02
5.828860000000000291e-02
5.645750000000000074e-02
5.554200000000000109e-02
5.325320000000000054e-02
5.172729999999999689e-02
5.050659999999999872e-02
4.837040000000000090e-02
4.592899999999999761e-02
4.425049999999999817e-02
4.272460000000000147e-02
4.104610000000000203e-02
3.936769999999999853e-02
3.662109999999999671e-02
3.494259999999999727e-02
3.372189999999999910e-02
3.189089999999999980e-02
2.929690000000000072e-02
2.731319999999999928e-02
2.563479999999999925e-02
2.395629999999999982e-02
2.227780000000000038e-02
1.983640000000000056e-02
1.693729999999999888e-02
1.495359999999999918e-02
1.297000000000000063e-02
1.144410000000000045e-02
9.918210000000000220e-03
7.171630000000000019e-03
5.035399999999999772e-03
2.899169999999999959e-03
4.577639999999999899e-04
-1.983640000000000056e-03
-4.577640000000000008e-03
-6.866459999999999578e-03
-9.307859999999999398e-03
-1.129149999999999945e-02
-1.419070000000000054e-02
-1.663210000000000036e-02
-1.892090000000000091e-02
-2.182009999999999852e-02
-2.410889999999999908e-02
-2.639769999999999964e-02
-2.960209999999999925e-02
-3.311159999999999798e-02
-3.601069999999999965e-02
-3.845210000000000294e-02
-4.104610000000000203e-02
-4.394529999999999964e-02
-4.791259999999999963e-02
-5.065920000000000145e-02
-5.310059999999999780e-02
-5.569459999999999689e-02
-5.920410000000000256e-02
-6.256100000000000549e-02
-6.484990000000000199e-02
-6.820679999999999799e-02
-7.034300000000000275e-02
-7.324219999999999342e-02
-7.705689999999999762e-02
-7.965089999999999670e-02
-8.224489999999999579e-02
-8.438110000000000055e-02
-8.789059999999999928e-02
-9.155270000000000075e-02
-9.429930000000000256e-02
-9.689330000000000165e-02
-9.918209999999999527e-02
-1.019290000000000057e-01
-1.040650000000000047e-01
-1.068120000000000042e-01
-1.092530000000000029e-01
-1.118470000000000020e-01
-1.141360000000000013e-01
-1.164250000000000007e-01
-1.188659999999999994e-01
-1.213069999999999982e-01
-1.237489999999999979e-01
-1.264949999999999963e-01
-1.286319999999999963e-01
-1.310729999999999951e-01
-1.335139999999999938e-01
-1.362609999999999932e-01
-1.383969999999999922e-01
-1.403810000000000058e-01
-1.416020000000000056e-01
-1.435849999999999904e-01
-1.457209999999999894e-01
-1.475519999999999887e-01
-1.490779999999999883e-01
-1.509089999999999876e-01
-1.531980000000000008e-01
-1.547240000000000004e-01
-1.559450000000000003e-01
-1.574709999999999999e-01
-1.582340000000000135e-01
-1.606750000000000123e-01
-1.622010000000000118e-01
-1.634220000000000117e-01
-1.646420000000000106e-01
-1.650999999999999968e-01
-1.657099999999999962e-01
-1.673890000000000100e-01
-1.683040000000000092e-01
-1.692200000000000093e-01
-1.696779999999999955e-01
-1.707460000000000089e-01
-1.718139999999999945e-01
-1.725770000000000082e-01
-1.737980000000000080e-01
-1.744080000000000075e-01
-1.750180000000000069e-01
-1.750180000000000069e-01
-1.756290000000000073e-01
-1.768490000000000062e-01
-1.776119999999999921e-01
-1.773069999999999924e-01
-1.776119999999999921e-01
-1.783750000000000058e-01
-1.791379999999999917e-01
-1.799010000000000054e-01
-1.802060000000000051e-01
-1.802060000000000051e-01
-1.800539999999999918e-01
-1.806639999999999913e-01
-1.820370000000000044e-01
-1.821899999999999908e-01
-1.823430000000000051e-01
-1.823430000000000051e-01
-1.823430000000000051e-01
-1.826480000000000048e-01
-1.827999999999999903e-01
-1.824949999999999906e-01
-1.815799999999999914e-01
-1.806639999999999913e-01
-1.802060000000000051e-01
-1.803589999999999915e-01
-1.795960000000000056e-01
-1.802060000000000051e-01
-1.800539999999999918e-01
-1.792910000000000059e-01
-1.782229999999999925e-01
-1.773069999999999924e-01
-1.777650000000000063e-01
-1.776119999999999921e-01
-1.771550000000000069e-01
-1.757809999999999928e-01
-1.750180000000000069e-01
-1.751709999999999934e-01
-1.747130000000000072e-01
-1.728820000000000079e-01
-1.728820000000000079e-01
-1.722720000000000085e-01
-1.705929999999999946e-01
-1.702879999999999949e-01
-1.699829999999999952e-01
-1.683040000000000092e-01
-1.678469999999999962e-01
-1.670840000000000103e-01
-1.655580000000000107e-01
-1.655580000000000107e-01
-1.647949999999999970e-01
-1.632689999999999975e-01
-1.631160000000000110e-01
-1.623539999999999983e-01
-1.611329999999999985e-01
-1.599119999999999986e-01
-1.583859999999999990e-01
-1.580809999999999993e-01
-1.574709999999999999e-01
-1.564029999999999865e-01
-1.551819999999999866e-01
-1.538090000000000013e-01
-1.536559999999999870e-01
-1.525880000000000014e-01
-1.516720000000000013e-01
-1.509089999999999876e-01
-1.499939999999999884e-01
-1.489260000000000028e-01
-1.480100000000000027e-01
-1.467900000000000038e-01
-1.461790000000000034e-01
-1.452640000000000042e-01
-1.440430000000000044e-01
-1.435849999999999904e-01
-1.426699999999999913e-01
-1.416020000000000056e-01
-1.403810000000000058e-01
-1.394650000000000056e-01
-1.387019999999999920e-01
-1.379390000000000061e-01
-1.367190000000000072e-01
-1.365659999999999930e-01
-1.354980000000000073e-01
-1.342770000000000075e-01
-1.338199999999999945e-01
-1.327510000000000079e-01
-1.316829999999999945e-01
-1.315310000000000090e-01
-1.304629999999999956e-01
-1.295469999999999955e-01
-1.290890000000000093e-01
-1.283259999999999956e-01
-1.269530000000000103e-01
-1.258849999999999969e-01
-1.243589999999999973e-01
-1.239009999999999972e-01
-1.235959999999999975e-01
-1.220699999999999980e-01
-1.216129999999999989e-01
-1.210019999999999984e-01
-1.196289999999999992e-01
-1.193239999999999995e-01
-1.185609999999999997e-01
-1.174930000000000002e-01
-1.165770000000000001e-01
-1.161190000000000000e-01
-1.145940000000000014e-01
-1.144410000000000011e-01
-1.132200000000000012e-01
-1.123050000000000020e-01
-1.118470000000000020e-01
-1.112370000000000025e-01
-1.098630000000000023e-01
-1.095580000000000026e-01
-1.086430000000000035e-01
-1.074220000000000036e-01
-1.071170000000000039e-01
-1.062010000000000037e-01
-1.051330000000000042e-01
-1.042180000000000051e-01
-1.037600000000000050e-01
-1.023860000000000048e-01
-1.020810000000000051e-01
-1.014710000000000056e-01
-1.004030000000000061e-01
-9.979250000000000620e-02
-9.887700000000000655e-02
-9.735109999999999597e-02
-9.689330000000000165e-02
-9.628299999999999359e-02
-9.506230000000000235e-02
-9.490969999999999962e-02
-9.429930000000000256e-02
-9.307859999999999745e-02
-9.231570000000000054e-02
-9.231570000000000054e-02
-9.124759999999999815e-02
-9.033199999999999563e-02
-8.972170000000000145e-02
-8.926389999999999325e-02
-8.819580000000000475e-02
-8.773799999999999655e-02
-8.712770000000000237e-02
-8.697509999999999963e-02
-8.575439999999999452e-02
-8.529660000000000020e-02
-8.422849999999999782e-02
-8.285520000000000385e-02
-8.224489999999999579e-02
-8.163449999999999873e-02
-8.056639999999999635e-02
-8.041379999999999362e-02
-7.904049999999999965e-02
-7.797239999999999727e-02
-7.766720000000000568e-02
-7.797239999999999727e-02
-7.705689999999999762e-02
-7.598879999999999524e-02
-7.522579999999999545e-02
-7.476810000000000400e-02
-7.324219999999999342e-02
-7.324219999999999342e-02
-7.324219999999999342e-02
-7.202150000000000218e-02
-7.125850000000000239e-02
-7.080079999999999707e-02
-6.958010000000000583e-02
-6.820679999999999799e-02
-6.805419999999999525e-02
-6.790160000000000640e-02
-6.713869999999999560e-02
-6.591800000000000437e-02
-6.561279999999999890e-02
-6.546019999999999617e-02
-6.530759999999999343e-02
-6.454469999999999652e-02
-6.347659999999999414e-02
-6.332400000000000528e-02
-6.286619999999999708e-02
-6.301879999999999982e-02
-6.271359999999999435e-02
-6.118769999999999765e-02
-6.088260000000000199e-02
-6.027219999999999800e-02
-6.057740000000000347e-02
-6.072999999999999926e-02
-6.011960000000000220e-02
-5.920410000000000256e-02
-5.844119999999999870e-02
-5.813600000000000018e-02
-5.813600000000000018e-02
-5.828860000000000291e-02
-5.813600000000000018e-02
-5.813600000000000018e-02
-5.722050000000000053e-02
-5.645750000000000074e-02
-5.569459999999999689e-02
-5.630489999999999801e-02
-5.569459999999999689e-02
-5.569459999999999689e-02
-5.584719999999999962e-02
-5.554200000000000109e-02
-5.554200000000000109e-02
-5.493159999999999710e-02
-5.386350000000000166e-02
-5.340580000000000327e-02
-5.325320000000000054e-02
-5.325320000000000054e-02
-5.310059999999999780e-02
-5.310059999999999780e-02
-5.264279999999999654e-02
-5.126950000000000257e-02
-5.050659999999999872e-02
-5.111689999999999984e-02
-5.081179999999999725e-02
-5.035400000000000292e-02
-4.913329999999999781e-02
-4.837040000000000090e-02
-4.821779999999999816e-02
-4.791259999999999963e-02
-4.669190000000000146e-02
-4.592899999999999761e-02
-4.608149999999999746e-02
-4.592899999999999761e-02
-4.608149999999999746e-02
-4.547120000000000328e-02
-4.440310000000000090e-02
-4.379269999999999691e-02
-4.348749999999999838e-02
-4.379269999999999691e-02
-4.348749999999999838e-02
-4.318240000000000273e-02
-4.379269999999999691e-02
-4.364010000000000111e-02
-4.287719999999999726e-02
-4.165649999999999908e-02
-4.104610000000000203e-02
-4.089360000000000217e-02
-4.135130000000000056e-02
-4.135130000000000056e-02
-4.135130000000000056e-02
-4.104610000000000203e-02
-4.119869999999999782e-02
-4.104610000000000203e-02
-4.074099999999999944e-02
-4.135130000000000056e-02
-4.074099999999999944e-02
-4.089360000000000217e-02
-4.104610000000000203e-02
-4.104610000000000203e-02
-4.119869999999999782e-02
-4.119869999999999782e-02
-4.058839999999999670e-02
-3.952030000000000126e-02
-3.890989999999999727e-02
-3.860469999999999874e-02
-3.845210000000000294e-02
-3.875730000000000147e-02
-3.829960000000000309e-02
-3.875730000000000147e-02
-3.845210000000000294e-02
-3.845210000000000294e-02
-3.860469999999999874e-02
-3.814700000000000035e-02
-3.707889999999999797e-02
-3.662109999999999671e-02
-3.631589999999999818e-02
-3.631589999999999818e-02
-3.601069999999999965e-02
-3.616330000000000239e-02
-3.616330000000000239e-02
-3.646850000000000092e-02
-3.616330000000000239e-02
-3.631589999999999818e-02
-3.601069999999999965e-02
-3.631589999999999818e-02
-3.555300000000000127e-02
-3.402709999999999763e-02
-3.417970000000000036e-02
-3.387450000000000183e-02
-3.387450000000000183e-02
-3.402709999999999763e-02
-3.402709999999999763e-02
-3.402709999999999763e-02
-3.402709999999999763e-02
-3.402709999999999763e-02
-3.280639999999999945e-02
-3.189089999999999980e-02
-3.173829999999999707e-02
-3.158570000000000128e-02
-3.158570000000000128e-02
-3.143309999999999854e-02
-3.128050000000000275e-02
-3.158570000000000128e-02
-3.128050000000000275e-02
-3.067020000000000163e-02
-2.914430000000000145e-02
-2.899169999999999872e-02
-2.914430000000000145e-02
-2.899169999999999872e-02
-2.868650000000000019e-02
-2.838130000000000167e-02
-2.670290000000000163e-02
-2.670290000000000163e-02
-2.670290000000000163e-02
-2.700810000000000016e-02
-2.624510000000000037e-02
-2.655029999999999890e-02
-2.655029999999999890e-02
-2.639769999999999964e-02
-2.670290000000000163e-02
-2.670290000000000163e-02
-2.639769999999999964e-02
-2.670290000000000163e-02
-2.655029999999999890e-02
-2.685550000000000090e-02
-2.670290000000000163e-02
-2.685550000000000090e-02
-2.639769999999999964e-02
-2.670290000000000163e-02
-2.655029999999999890e-02
-2.624510000000000037e-02
-2.655029999999999890e-02
-2.639769999999999964e-02
-2.655029999999999890e-02
-2.670290000000000163e-02
-2.639769999999999964e-02
-2.655029999999999890e-02
-2.655029999999999890e-02
-2.639769999999999964e-02
-2.624510000000000037e-02
-2.670290000000000163e-02
-2.655029999999999890e-02
-2.655029999999999890e-02
-2.655029999999999890e-02
-2.655029999999999890e-02
-2.639769999999999964e-02
-2.639769999999999964e-02
-2.639769999999999964e-02
-2.655029999999999890e-02
-2.624510000000000037e-02
-2.670290000000000163e-02
-2.639769999999999964e-02
-2.655029999999999890e-02
-2.624510000000000037e-02
-2.639769999999999964e-02
-2.655029999999999890e-02
-2.685550000000000090e-02
-2.639769999999999964e-02
-2.578739999999999852e-02
-2.487179999999999946e-02
-2.395629999999999982e-02
-2.380370000000000055e-02
-2.410889999999999908e-02
-2.410889999999999908e-02
-2.410889999999999908e-02
-2.395629999999999982e-02
-2.410889999999999908e-02
-2.426149999999999834e-02
-2.410889999999999908e-02
-2.395629999999999982e-02
-2.410889999999999908e-02
-2.426149999999999834e-02
-2.395629999999999982e-02
-2.426149999999999834e-02
-2.410889999999999908e-02
-2.410889999999999908e-02
-2.410889999999999908e-02
-2.410889999999999908e-02
-2.395629999999999982e-02
-2.441410000000000108e-02
-2.410889999999999908e-02
-2.410889999999999908e-02
-2.410889999999999908e-02
-2.410889999999999908e-02
-2.410889999999999908e-02
-2.426149999999999834e-02
-2.365110000000000129e-02
-2.426149999999999834e-02
-2.410889999999999908e-02
-2.426149999999999834e-02
-2.426149999999999834e-02
-2.426149999999999834e-02
-2.410889999999999908e-02
-2.426149999999999834e-02
-2.426149999999999834e-02
-2.365110000000000129e-02
-2.395629999999999982e-02
-2.395629999999999982e-02
-2.395629999999999982e-02
-2.426149999999999834e-02
-2.426149999999999834e-02
-2.395629999999999982e-02
-2.410889999999999908e-02
-2.456670000000000034e-02
-2.395629999999999982e-02
-2.395629999999999982e-02
-2.410889999999999908e-02
-2.426149999999999834e-02
-2.380370000000000055e-02
-2.395629999999999982e-02
-2.410889999999999908e-02
-2.410889999999999908e-02
-2.426149999999999834e-02
-2.395629999999999982e-02
-2.395629999999999982e-02
-2.395629999999999982e-02
-2.410889999999999908e-02
-2.334589999999999929e-02
-2.182009999999999852e-02
-2.197270000000000126e-02
-2.166749999999999926e-02
-2.166749999999999926e-02
-2.182009999999999852e-02
-2.197270000000000126e-02
-2.136230000000000073e-02
-2.166749999999999926e-02
-2.151490000000000000e-02
-2.151490000000000000e-02
-2.166749999999999926e-02
-2.166749999999999926e-02
-2.182009999999999852e-02
-2.120970000000000147e-02
-1.968380000000000130e-02
-1.937869999999999870e-02
-1.937869999999999870e-02
-1.922609999999999944e-02
-1.922609999999999944e-02
-1.907350000000000018e-02
-1.907350000000000018e-02
-1.937869999999999870e-02
-1.907350000000000018e-02
-1.892090000000000091e-02
-1.861569999999999891e-02
-1.739500000000000074e-02
-1.663210000000000036e-02
-1.678469999999999962e-02
-1.708979999999999874e-02
-1.663210000000000036e-02
-1.678469999999999962e-02
-1.678469999999999962e-02
-1.708979999999999874e-02
-1.663210000000000036e-02
-1.693729999999999888e-02
-1.663210000000000036e-02
-1.663210000000000036e-02
-1.678469999999999962e-02
-1.663210000000000036e-02
-1.678469999999999962e-02
-1.663210000000000036e-02
-1.678469999999999962e-02
-1.632689999999999836e-02
-1.678469999999999962e-02
-1.663210000000000036e-02
-1.708979999999999874e-02
-1.663210000000000036e-02
-1.678469999999999962e-02
-1.693729999999999888e-02
-1.632689999999999836e-02
-1.647950000000000109e-02
-1.663210000000000036e-02
-1.693729999999999888e-02
-1.647950000000000109e-02
-1.647950000000000109e-02
-1.663210000000000036e-02
-1.678469999999999962e-02
-1.632689999999999836e-02
-1.708979999999999874e-02
-1.647950000000000109e-02
-1.693729999999999888e-02
-1.693729999999999888e-02
-1.724240000000000148e-02
-1.861569999999999891e-02
-1.892090000000000091e-02
-1.922609999999999944e-02
-1.892090000000000091e-02
-1.922609999999999944e-02
-1.937869999999999870e-02
-1.937869999999999870e-02
-1.937869999999999870e-02
-1.892090000000000091e-02
-1.922609999999999944e-02
-1.922609999999999944e-02
-1.937869999999999870e-02
-1.892090000000000091e-02
-1.876830000000000165e-02
-1.739500000000000074e-02
-1.678469999999999962e-02
-1.663210000000000036e-02
-1.693729999999999888e-02
-1.678469999999999962e-02
-1.632689999999999836e-02
-1.663210000000000036e-02
-1.647950000000000109e-02
-1.678469999999999962e-02
-1.663210000000000036e-02
-1.693729999999999888e-02
-1.663210000000000036e-02
-1.678469999999999962e-02
-1.602169999999999983e-02
-1.495359999999999918e-02
-1.434329999999999980e-02
-1.449579999999999966e-02
-1.449579999999999966e-02
-1.434329999999999980e-02
-1.403809999999999954e-02
-1.403809999999999954e-02
-1.449579999999999966e-02
-1.434329999999999980e-02
-1.434329999999999980e-02
-1.464840000000000066e-02
-1.449579999999999966e-02
-1.434329999999999980e-02
-1.434329999999999980e-02
-1.434329999999999980e-02
-1.449579999999999966e-02
-1.403809999999999954e-02
-1.342770000000000075e-02
-1.266480000000000036e-02
-1.190189999999999998e-02
-1.190189999999999998e-02
-1.220700000000000084e-02
-1.174930000000000072e-02
-1.190189999999999998e-02
-1.190189999999999998e-02
-1.205439999999999984e-02
-1.174930000000000072e-02
-1.190189999999999998e-02
-1.174930000000000072e-02
-1.205439999999999984e-02
-1.190189999999999998e-02
-1.174930000000000072e-02
-1.190189999999999998e-02
-1.205439999999999984e-02
-1.205439999999999984e-02
-1.190189999999999998e-02
-1.159669999999999972e-02
-1.159669999999999972e-02
-1.220700000000000084e-02
-1.235960000000000010e-02
-1.190189999999999998e-02
-1.190189999999999998e-02
-1.190189999999999998e-02
-1.205439999999999984e-02
-1.205439999999999984e-02
-1.190189999999999998e-02
-1.174930000000000072e-02
-1.159669999999999972e-02
-1.174930000000000072e-02
-1.190189999999999998e-02
-1.190189999999999998e-02
-1.174930000000000072e-02
-1.190189999999999998e-02
-1.190189999999999998e-02
-1.174930000000000072e-02
-1.190189999999999998e-02
-1.190189999999999998e-02
-1.174930000000000072e-02
-1.205439999999999984e-02
-1.129149999999999945e-02
-1.007079999999999954e-02
-9.613039999999999780e-03
-9.460450000000000456e-03
-9.155270000000000075e-03
-9.613039999999999780e-03
-9.307859999999999398e-03
-9.307859999999999398e-03
-9.307859999999999398e-03
-9.155270000000000075e-03
-9.155270000000000075e-03
-9.460450000000000456e-03
-9.307859999999999398e-03
-9.002690000000000692e-03
-9.613039999999999780e-03
-9.307859999999999398e-03
-9.613039999999999780e-03
-9.307859999999999398e-03
-9.307859999999999398e-03
-9.613039999999999780e-03
-8.697510000000000310e-03
-7.629389999999999783e-03
-7.171630000000000019e-03
-6.713870000000000254e-03
-7.171630000000000019e-03
-6.561280000000000064e-03
-7.171630000000000019e-03
-7.171630000000000019e-03
-7.019039999999999828e-03
-7.324220000000000209e-03
-6.866459999999999578e-03
-7.019039999999999828e-03
-7.019039999999999828e-03
-6.866459999999999578e-03
-6.561280000000000064e-03
-5.340580000000000153e-03
-4.730220000000000258e-03
-4.577640000000000008e-03
-4.425049999999999817e-03
-4.577640000000000008e-03
-4.730220000000000258e-03
-3.662110000000000105e-03
-2.593990000000000011e-03
-2.136229999999999813e-03
-2.136229999999999813e-03
-2.136229999999999813e-03
-2.136229999999999813e-03
-1.983640000000000056e-03
-2.441410000000000195e-03
-2.136229999999999813e-03
-1.983640000000000056e-03
-1.220699999999999910e-03
-4.577639999999999899e-04
0.000000000000000000e+00
1.525879999999999966e-04
3.051759999999999933e-04
6.103519999999999866e-04
4.577639999999999899e-04
0.000000000000000000e+00
1.525879999999999966e-04
0.000000000000000000e+00
1.525879999999999966e-04
0.000000000000000000e+00
3.051759999999999933e-04
3.051759999999999933e-04
1.525879999999999966e-04
-3.051759999999999933e-04
-1.373290000000000101e-03
-2.288820000000000004e-03
-2.288820000000000004e-03
-2.288820000000000004e-03
-2.288820000000000004e-03
-1.983640000000000056e-03
-2.136229999999999813e-03
-2.136229999999999813e-03
-2.136229999999999813e-03
-2.899169999999999959e-03
-4.119870000000000303e-03
-4.272459999999999626e-03
-4.577640000000000008e-03
-4.272459999999999626e-03
-4.730220000000000258e-03
-4.577640000000000008e-03
-4.272459999999999626e-03
-4.577640000000000008e-03
-4.577640000000000008e-03
-4.730220000000000258e-03
-4.119870000000000303e-03
-4.577640000000000008e-03
-4.425049999999999817e-03
-4.882809999999999581e-03
-4.272459999999999626e-03
-4.577640000000000008e-03
-4.425049999999999817e-03
-4.730220000000000258e-03
-4.577640000000000008e-03
-4.730220000000000258e-03
-5.035399999999999772e-03
-4.425049999999999817e-03
-4.577640000000000008e-03
-4.425049999999999817e-03
-4.272459999999999626e-03
-5.340580000000000153e-03
-6.561280000000000064e-03
-6.713870000000000254e-03
-7.171630000000000019e-03
-7.781979999999999974e-03
-8.850099999999999634e-03
-9.460450000000000456e-03
-9.307859999999999398e-03
-1.037599999999999981e-02
-1.144410000000000045e-02
-1.144410000000000045e-02
-1.190189999999999998e-02
-1.312259999999999989e-02
-1.373289999999999927e-02
-1.434329999999999980e-02
-1.419070000000000054e-02
-1.449579999999999966e-02
-1.449579999999999966e-02
-1.434329999999999980e-02
-1.434329999999999980e-02
-1.449579999999999966e-02
-1.419070000000000054e-02
-1.419070000000000054e-02
-1.419070000000000054e-02
-1.434329999999999980e-02
-1.464840000000000066e-02
-1.403809999999999954e-02
-1.419070000000000054e-02
-1.449579999999999966e-02
-1.449579999999999966e-02
-1.464840000000000066e-02
-1.403809999999999954e-02
-1.434329999999999980e-02
-1.464840000000000066e-02
-1.373289999999999927e-02
