2.708683872233395504e-02
2.709122832672425027e-02
2.709561699342809271e-02
2.710000472226210821e-02
2.710439151304303365e-02
2.710877736558770651e-02
2.711316227971306489e-02
2.711754625523616138e-02
2.712192929197416308e-02
2.712631138974435849e-02
2.713069254836415756e-02
2.713507276765106738e-02
2.713945204742269565e-02
2.714383038749673682e-02
2.714820778769100676e-02
2.715258424782342542e-02
2.715695976771203418e-02
2.716133434717498546e-02
2.716570798603054268e-02
2.717008068409706642e-02
2.717445244119302133e-02
2.717882325713696229e-02
2.718319313174754129e-02
2.718756206484351789e-02
2.719193005624376963e-02
2.719629710576726422e-02
2.720066321323307695e-02
2.720502837846037678e-02
2.720939260126841938e-02
2.721375588147656455e-02
2.721811821890426572e-02
2.722247961337107697e-02
2.722684006469665643e-02
2.723119957270078370e-02
2.723555813720335284e-02
2.723991575802436893e-02
2.724427243498393769e-02
2.724862816790228279e-02
2.725298295659971809e-02
2.725733680089664421e-02
2.726168970061355890e-02
2.726604165557104664e-02
2.727039266558977867e-02
2.727474273049054071e-02
2.727909185009421908e-02
2.728344002422180767e-02
2.728778725269441138e-02
2.729213353533323574e-02
2.729647887195958342e-02
2.730082326239484034e-02
2.730516670646051386e-02
2.730950920397820850e-02
2.731385075476962937e-02
2.731819135865658915e-02
2.732253101546097684e-02
2.732686972500478900e-02
2.733120748711011933e-02
2.733554430159914131e-02
2.733988016829412213e-02
2.734421508701745038e-02
2.734854905759160487e-02
2.735288207983914074e-02
2.735721415358269293e-02
2.736154527864497615e-02
2.736587545484879189e-02
2.737020468201703180e-02
2.737453295997268124e-02
2.737886028853881576e-02
2.738318666753858724e-02
2.738751209679523430e-02
2.739183657613211004e-02
2.739616010537265778e-02
2.740048268434041104e-02
2.740480431285896232e-02
2.740912499075200126e-02
2.741344471784330425e-02
2.741776349395672052e-02
2.742208131891618605e-02
2.742639819254572356e-02
2.743071411466943901e-02
2.743502908511154942e-02
2.743934310369635504e-02
2.744365617024823942e-02
2.744796828459166935e-02
2.745227944655116714e-02
2.745658965595135226e-02
2.746089891261694130e-02
2.746520721637275841e-02
2.746951456704369368e-02
2.747382096445472044e-02
2.747812640843090570e-02
2.748243089879739282e-02
2.748673443537941879e-02
2.749103701800232821e-02
2.749533864649154197e-02
2.749963932067254688e-02
2.750393904037090956e-02
2.750823780541227295e-02
2.751253561562234246e-02
2.751683247082689979e-02
2.752112837085180300e-02
2.752542331552297258e-02
2.752971730466639150e-02
2.753401033810810167e-02
2.753830241567424564e-02
2.754259353719105616e-02
2.754688370248483884e-02
2.755117291138195479e-02
2.755546116370884840e-02
2.755974845929203693e-02
2.756403479795811393e-02
2.756832017953375971e-02
2.757260460384572398e-02
2.757688807072082582e-02
2.758117057998596758e-02
2.758545213146813141e-02
2.758973272499437926e-02
2.759401236039184593e-02
2.759829103748772522e-02
2.760256875610924907e-02
2.760684551608371187e-02
2.761112131723847396e-02
2.761539615940096504e-02
2.761967004239869461e-02
2.762394296605922075e-02
2.762821493021016747e-02
2.763248593467922468e-02
2.763675597929414474e-02
2.764102506388274247e-02
2.764529318827289514e-02
2.764956035229253206e-02
2.765382655576963111e-02
2.765809179853222569e-02
2.766235608040842550e-02
2.766661940122639232e-02
2.767088176081434689e-02
2.767514315900055158e-02
2.767940359561332775e-02
2.768366307048104533e-02
2.768792158343214710e-02
2.769217913429514524e-02
2.769643572289860745e-02
2.770069134907114650e-02
2.770494601264144804e-02
2.770919971343824978e-02
2.771345245129034143e-02
2.771770422602655784e-02
2.772195503747576506e-02
2.772620488546690895e-02
2.773045376982899782e-02
2.773470169039109201e-02
2.773894864698230739e-02
2.774319463943181185e-02
2.774743966756882535e-02
2.775168373122263374e-02
2.775592683022257146e-02
2.776016896439801110e-02
2.776441013357837731e-02
2.776865033759315371e-02
2.777288957627186902e-02
2.777712784944410401e-02
2.778136515693949149e-02
2.778560149858772324e-02
2.778983687421855003e-02
2.779407128366176774e-02
2.779830472674721734e-02
2.780253720330477449e-02
2.780676871316434262e-02
2.781099925615588067e-02
2.781522883210939615e-02
2.781945744085494165e-02
2.782368508222263920e-02
2.782791175604266629e-02
2.783213746214524206e-02
2.783636220036064118e-02
2.784058597051917647e-02
2.784480877245118502e-02
2.784903060598703170e-02
2.785325147095712300e-02
2.785747136719192094e-02
2.786169029452192220e-02
2.786590825277764430e-02
2.787012524178964640e-02
2.787434126138852233e-02
2.787855631140490065e-02
2.788277039166943416e-02
2.788698350201281040e-02
2.789119564226573769e-02
2.789540681225896948e-02
2.789961701182328002e-02
2.790382624078949561e-02
2.790803449898848765e-02
2.791224178625117264e-02
2.791644810240848443e-02
2.792065344729138462e-02
2.792485782073087994e-02
2.792906122255799442e-02
2.793326365260376948e-02
2.793746511069927774e-02
2.794166559667562999e-02
2.794586511036395091e-02
2.795006365159541026e-02
2.795426122020121598e-02
2.795845781601261418e-02
2.796265343886089258e-02
2.796684808857736668e-02
2.797104176499339012e-02
2.797523446794036514e-02
2.797942619724973212e-02
2.798361695275296962e-02
2.798780673428157700e-02
2.799199554166707793e-02
2.799618337474102034e-02
2.800037023333496952e-02
2.800455611728052199e-02
2.800874102640928467e-02
2.801292496055288531e-02
2.801710791954296897e-02
2.802128990321118771e-02
2.802547091138921087e-02
2.802965094390872172e-02
2.803383000060143126e-02
2.803800808129905398e-02
2.804218518583331127e-02
2.804636131403592803e-02
2.805053646573865342e-02
2.805471064077323315e-02
2.805888383897140251e-02
2.806305606016490026e-02
2.806722730418548944e-02
2.807139757086495394e-02
2.807556686003511576e-02
2.807973517152782469e-02
2.808390250517494094e-02
2.808806886080834550e-02
2.809223423825994367e-02
2.809639863736166504e-02
2.810056205794546000e-02
2.810472449984328935e-02
2.810888596288714861e-02
2.811304644690905061e-02
2.811720595174104290e-02
2.812136447721520424e-02
2.812552202316361688e-02
2.812967858941838387e-02
2.813383417581159784e-02
2.813798878217536534e-02
2.814214240834180675e-02
2.814629505414305982e-02
2.815044671941126925e-02
2.815459740397859359e-02
2.815874710767718794e-02
2.816289583033920740e-02
2.816704357179682094e-02
2.817119033188222529e-02
2.817533611042761371e-02
2.817948090726517599e-02
2.818362472222711232e-02
2.818776755514562984e-02
2.819190940585291835e-02
2.819605027418116763e-02
2.820019015996256401e-02
2.820432906302929726e-02
2.820846698321354679e-02
2.821260392034748501e-02
2.821673987426329133e-02
2.822087484479313818e-02
2.822500883176919106e-02
2.822914183502359120e-02
2.823327385438845205e-02
2.823740488969589055e-02
2.824153494077801668e-02
2.824566400746691616e-02
2.824979208959468510e-02
2.825391918699341962e-02
2.825804529949521929e-02
2.826217042693216636e-02
2.826629456913633959e-02
2.827041772593981775e-02
2.827453989717466573e-02
2.827866108267293455e-02
2.828278128226664398e-02
2.828690049578780688e-02
2.829101872306841875e-02
2.829513596394045774e-02
2.829925221823589160e-02
2.830336748578669501e-02
2.830748176642481143e-02
2.831159505998218778e-02
2.831570736629073631e-02
2.831981868518234843e-02
2.832392901648888781e-02
2.832803836004221115e-02
2.833214671567415438e-02
2.833625408321652564e-02
2.834036046250110533e-02
2.834446585335964608e-02
2.834857025562387625e-02
2.835267366912551379e-02
2.835677609369625929e-02
2.836087752916776825e-02
2.836497797537166840e-02
2.836907743213955974e-02
2.837317589930301448e-02
2.837727337669358404e-02
2.838136986414278515e-02
2.838546536148210675e-02
2.838955986854301700e-02
2.839365338515694587e-02
2.839774591115530600e-02
2.840183744636949267e-02
2.840592799063086302e-02
2.841001754377073599e-02
2.841410610562039585e-02
2.841819367601109217e-02
2.842228025477403636e-02
2.842636584174041206e-02
2.843045043674135089e-02
2.843453403960794629e-02
2.843861665017125007e-02
2.844269826826228628e-02
2.844677889371205123e-02
2.845085852635151347e-02
2.845493716601161377e-02
2.845901481252324783e-02
2.846309146571726623e-02
2.846716712542447791e-02
2.847124179147565715e-02
2.847531546370151573e-02
2.847938814193272383e-02
2.848345982599990306e-02
2.848753051573362297e-02
2.849160021096440801e-02
2.849566891152273754e-02
2.849973661723903887e-02
2.850380332794371155e-02
2.850786904346710310e-02
2.851193376363951246e-02
2.851599748829118652e-02
2.852006021725232016e-02
2.852412195035305617e-02
2.852818268742349575e-02
2.853224242829367069e-02
2.853630117279355380e-02
2.854035892075307626e-02
2.854441567200211721e-02
2.854847142637051069e-02
2.855252618368801440e-02
2.855657994378434095e-02
2.856063270648914743e-02
2.856468447163201807e-02
2.856873523904248854e-02
2.857278500855003206e-02
2.857683377998407326e-02
2.858088155317397433e-02
2.858492832794903502e-02
2.858897410413850301e-02
2.859301888157157398e-02
2.859706266007739500e-02
2.860110543948506112e-02
2.860514721962361187e-02
2.860918800032201739e-02
2.861322778140919579e-02
2.861726656271398536e-02
2.862130434406518278e-02
2.862534112529150146e-02
2.862937690622160969e-02
2.863341168668411679e-02
2.863744546650756270e-02
2.864147824552040061e-02
2.864551002355100739e-02
2.864954080042767318e-02
2.865357057597863258e-02
2.865759935003203349e-02
2.866162712241595786e-02
2.866565389295842176e-02
2.866967966148736488e-02
2.867370442783066450e-02
2.867772819181612157e-02
2.868175095327145721e-02
2.868577271202434054e-02
2.868979346790235044e-02
2.869381322073297214e-02
2.869783197034363534e-02
2.870184971656170037e-02
2.870586645921447203e-02
2.870988219812918574e-02
2.871389693313299366e-02
2.871791066405295426e-02
2.872192339071604622e-02
2.872593511294917190e-02
2.872994583057914345e-02
2.873395554343270708e-02
2.873796425133651189e-02
2.874197195411710287e-02
2.874597865160093482e-02
2.874998434361435845e-02
2.875398902998363773e-02
2.875799271053496725e-02
2.876199538509446527e-02
2.876599705348815636e-02
2.876999771554197838e-02
2.877399737108177896e-02
2.877799601993330861e-02
2.878199366192223801e-02
2.878599029687413727e-02
2.878998592461448625e-02
2.879398054496869544e-02
2.879797415776208167e-02
2.880196676281985418e-02
2.880595835996714246e-02
2.880994894902898229e-02
2.881393852983032619e-02
2.881792710219604342e-02
2.882191466595089221e-02
2.882590122091955101e-02
2.882988676692657334e-02
2.883387130379642602e-02
2.883785483135347869e-02
2.884183734942201774e-02
2.884581885782623242e-02
2.884979935639021137e-02
2.885377884493794259e-02
2.885775732329331350e-02
2.886173479128012476e-02
2.886571124872207988e-02
2.886968669544279220e-02
2.887366113126578482e-02
2.887763455601448370e-02
2.888160696951221074e-02
2.888557837158219413e-02
2.888954876204757535e-02
2.889351814073139527e-02
2.889748650745659064e-02
2.890145386204600805e-02
2.890542020432240386e-02
2.890938553410841647e-02
2.891334985122656631e-02
2.891731315549928363e-02
2.892127544674890499e-02
2.892523672479765939e-02
2.892919698946767176e-02
2.893315624058097335e-02
2.893711447795947050e-02
2.894107170142496202e-02
2.894502791079915649e-02
2.894898310590364107e-02
2.895293728655990925e-02
2.895689045258933308e-02
2.896084260381317360e-02
2.896479374005261204e-02
2.896874386112872207e-02
2.897269296686246637e-02
2.897664105707469656e-02
2.898058813158617061e-02
2.898453419021753893e-02
2.898847923278933744e-02
2.899242325912200144e-02
2.899636626903587255e-02
2.900030826235118486e-02
2.900424923888805795e-02
2.900818919846648303e-02
2.901212814090634029e-02
2.901606606602739891e-02
2.902000297364931702e-02
2.902393886359164177e-02
2.902787373567380924e-02
2.903180758971514105e-02
2.903574042553484086e-02
2.903967224295200128e-02
2.904360304178562127e-02
2.904753282185456795e-02
2.905146158297760434e-02
2.905538932497338245e-02
2.905931604766045367e-02
2.906324175085725492e-02
2.906716643438211206e-02
2.907109009805322261e-02
2.907501274168866612e-02
2.907893436510640764e-02
2.908285496812429774e-02
2.908677455056006902e-02
2.909069311223133961e-02
2.909461065295560270e-02
2.909852717255023702e-02
2.910244267083251721e-02
2.910635714761961382e-02
2.911027060272857944e-02
2.911418303597635218e-02
2.911809444717972789e-02
2.912200483615539834e-02
2.912591420271994080e-02
2.912982254668981807e-02
2.913372986788136110e-02
2.913763616611078286e-02
2.914154144119417839e-02
2.914544569294754209e-02
2.914934892118674001e-02
2.915325112572753063e-02
2.915715230638555450e-02
2.916105246297635151e-02
2.916495159531532974e-02
2.916884970321776890e-02
2.917274678649884462e-02
2.917664284497361107e-02
2.918053787845700797e-02
2.918443188676384664e-02
2.918832486970880657e-02
2.919221682710644930e-02
2.919610775877123227e-02
2.919999766451748108e-02
2.920388654415940338e-02
2.920777439751110621e-02
2.921166122438658211e-02
2.921554702459971606e-02
2.921943179796425774e-02
2.922331554429382847e-02
2.922719826340192117e-02
2.923107995510192472e-02
2.923496061920711001e-02
2.923884025553064384e-02
2.924271886388557506e-02
2.924659644408483458e-02
2.925047299594123879e-02
2.925434851926747570e-02
2.925822301387611540e-02
2.926209647957960999e-02
2.926596891619029361e-02
2.926984032352039633e-02
2.927371070138203024e-02
2.927758004958719296e-02
2.928144836794778147e-02
2.928531565627557481e-02
2.928918191438223406e-02
2.929304714207930233e-02
2.929691133917819434e-02
2.930077450549022425e-02
2.930463664082657432e-02
2.930849774499831237e-02
2.931235781781639169e-02
2.931621685909164762e-02
2.932007486863477327e-02
2.932393184625634724e-02
2.932778779176684406e-02
2.933164270497662374e-02
2.933549658569593183e-02
2.933934943373491325e-02
2.934320124890359843e-02
2.934705203101191373e-02
2.935090177986967447e-02
2.935475049528657107e-02
2.935859817707217601e-02
2.936244482503593337e-02
2.936629043898718663e-02
2.937013501873517868e-02
2.937397856408901359e-02
2.937782107485768096e-02
2.938166255085006978e-02
2.938550299187495801e-02
2.938934239774099524e-02
2.939318076825670270e-02
2.939701810323048017e-02
2.940085440247061643e-02
2.940468966578529963e-02
2.940852389298260691e-02
2.941235708387051478e-02
2.941618923825687487e-02
2.942002035594943124e-02
2.942385043675581693e-02
2.942767948048355398e-02
2.943150748694006724e-02
2.943533445593265671e-02
2.943916038726852522e-02
2.944298528075474028e-02
2.944680913619826187e-02
2.945063195340592507e-02
2.945445373218445739e-02
2.945827447234046492e-02
2.946209417368042885e-02
2.946591283601072281e-02
2.946973045913762676e-02
2.947354704286731311e-02
2.947736258700583631e-02
2.948117709135914324e-02
2.948499055573308367e-02
2.948880297993339977e-02
2.949261436376570539e-02
2.949642470703551025e-02
2.950023400954821309e-02
2.950404227110909466e-02
2.950784949152334899e-02
2.951165567059605213e-02
2.951546080813216219e-02
2.951926490393654706e-02
2.952306795781398444e-02
2.952686996956914792e-02
2.953067093900660703e-02
2.953447086593084456e-02
2.953826975014622880e-02
2.954206759145703784e-02
2.954586438966744916e-02
2.954966014458152573e-02
2.955345485600322994e-02
2.955724852373642700e-02
2.956104114758487111e-02
2.956483272735220200e-02
2.956862326284194140e-02
2.957241275385751392e-02
2.957620120020225049e-02
2.957998860167938143e-02
2.958377495809205032e-02
2.958756026924330707e-02
2.959134453493610789e-02
2.959512775497329454e-02
2.959890992915761160e-02
2.960269105729169958e-02
2.960647113917810533e-02
2.961025017461927852e-02
2.961402816341757518e-02
2.961780510537525765e-02
2.962158100029450500e-02
2.962535584797740609e-02
2.962912964822596307e-02
2.963290240084207050e-02
2.963667410562751542e-02
2.964044476238399464e-02
2.964421437091311479e-02
2.964798293101639573e-02
2.965175044249528449e-02
2.965551690515114830e-02
2.965928231878525029e-02
2.966304668319878421e-02
2.966680999819285708e-02
2.967057226356849958e-02
2.967433347912664179e-02
2.967809364466811664e-02
2.968185275999365644e-02
2.968561082490390676e-02
2.968936783919942993e-02
2.969312380268069110e-02
2.969687871514807218e-02
2.970063257640186138e-02
2.970438538624223940e-02
2.970813714446930015e-02
2.971188785088306819e-02
2.971563750528347786e-02
2.971938610747036982e-02
2.972313365724350495e-02
2.972688015440256779e-02
2.973062559874717695e-02
2.973436999007688514e-02
2.973811332819118261e-02
2.974185561288948329e-02
2.974559684397111090e-02
2.974933702123529894e-02
2.975307614448119420e-02
2.975681421350787059e-02
2.976055122811432918e-02
2.976428718809951551e-02
2.976802209326229881e-02
2.977175594340147197e-02
2.977548873831575849e-02
2.977922047780381248e-02
2.978295116166420828e-02
2.978668078969545080e-02
2.979040936169595824e-02
2.979413687746408287e-02
2.979786333679813881e-02
2.980158873949637077e-02
2.980531308535695756e-02
2.980903637417800164e-02
2.981275860575755346e-02
2.981647977989358364e-02
2.982019989638398649e-02
2.982391895502658000e-02
2.982763695561910580e-02
2.983135389795924311e-02
2.983506978184458439e-02
2.983878460707266311e-02
2.984249837344095033e-02
2.984621108074684420e-02
2.984992272878770128e-02
2.985363331736080872e-02
2.985734284626338428e-02
2.986105131529259021e-02
2.986475872424553327e-02
2.986846507291925079e-02
2.987217036111072463e-02
2.987587458861688111e-02
2.987957775523460840e-02
2.988327986076073223e-02
2.988698090499202972e-02
2.989068088772522946e-02
2.989437980875700798e-02
2.989807766788400364e-02
2.990177446490280971e-02
2.990547019960996047e-02
2.990916487180192776e-02
2.991285848127511054e-02
2.991655102782585229e-02
2.992024251125045137e-02
2.992393293134516102e-02
2.992762228790617901e-02
2.993131058072964756e-02
2.993499780961167075e-02
2.993868397434831102e-02
2.994236907473558917e-02
2.994605311056949132e-02
2.994973608164597928e-02
2.995341798776096284e-02
2.995709882871030322e-02
2.996077860428982692e-02
2.996445731429532230e-02
2.996813495852254303e-02
2.997181153676721499e-02
2.997548704882503287e-02
2.997916149449164624e-02
2.998283487356267346e-02
2.998650718583370164e-02
2.999017843110026241e-02
2.999384860915787349e-02
2.999751771980204221e-02
3.000118576282823774e-02
3.000485273803191535e-02
3.000851864520850260e-02
3.001218348415341658e-02
3.001584725466207096e-02
3.001950995652984469e-02
3.002317158955207857e-02
3.002683215352409604e-02
3.003049164824120321e-02
3.003415007349867147e-02
3.003780742909178264e-02
3.004146371481579078e-02
3.004511893046594648e-02
3.004877307583747256e-02
3.005242615072556758e-02
3.005607815492543008e-02
3.005972908823225861e-02
3.006337895044125519e-02
3.006702774134761488e-02
3.007067546074653624e-02
3.007432210843319353e-02
3.007796768420275407e-02
3.008161218785036783e-02
3.008525561917118132e-02
3.008889797796033411e-02
3.009253926401294840e-02
3.009617947712414643e-02
3.009981861708905040e-02
3.010345668370278255e-02
3.010709367676046508e-02
3.011072959605723409e-02
3.011436444138822915e-02
3.011799821254857942e-02
3.012163090933340365e-02
3.012526253153779976e-02
3.012889307895685875e-02
3.013252255138568203e-02
3.013615094861937793e-02
3.013977827045306174e-02
3.014340451668186260e-02
3.014702968710093398e-02
3.015065378150542583e-02
3.015427679969051589e-02
3.015789874145138535e-02
3.016151960658321890e-02
3.016513939488122895e-02
3.016875810614063139e-02
3.017237574015664905e-02
3.017599229672452560e-02
3.017960777563955324e-02
3.018322217669703114e-02
3.018683549969229662e-02
3.019044774442068355e-02
3.019405891067753270e-02
3.019766899825819875e-02
3.020127800695806761e-02
3.020488593657255291e-02
3.020849278689710996e-02
3.021209855772723565e-02
3.021570324885847203e-02
3.021930686008639580e-02
3.022290939120661490e-02
3.022651084201475463e-02
3.023011121230647844e-02
3.023371050187750181e-02
3.023730871052358882e-02
3.024090583804052781e-02
3.024450188422414532e-02
3.024809684887031988e-02
3.025169073177498558e-02
3.025528353273411811e-02
3.025887525154372440e-02
3.026246588799987036e-02
3.026605544189864966e-02
3.026964391303618718e-02
3.027323130120865638e-02
3.027681760621227583e-02
3.028040282784332307e-02
3.028398696589811381e-02
3.028757002017300193e-02
3.029115199046438986e-02
3.029473287656874597e-02
3.029831267828258026e-02
3.030189139540243048e-02
3.030546902772488990e-02
3.030904557504659341e-02
3.031262103716425918e-02
3.031619541387464700e-02
3.031976870497457219e-02
3.032334091026090903e-02
3.032691202953059426e-02
3.033048206258062707e-02
3.033405100920806910e-02
3.033761886921004444e-02
3.034118564238374310e-02
3.034475132852642101e-02
3.034831592743541043e-02
3.035187943890810952e-02
3.035544186274199627e-02
3.035900319873462844e-02
3.036256344668362278e-02
3.036612260638666891e-02
3.036968067764151194e-02
3.037323766024596639e-02
3.037679355399793002e-02
3.038034835869537348e-02
3.038390207413634372e-02
3.038745470011897792e-02
3.039100623644148957e-02
3.039455668290216850e-02
3.039810603929937044e-02
3.040165430543153094e-02
3.040520148109716186e-02
3.040874756609485141e-02
3.041229256022326757e-02
3.041583646328116161e-02
3.041937927506738193e-02
3.042292099538086367e-02
3.042646162402062524e-02
3.043000116078576484e-02
3.043353960547545353e-02
3.043707695788893872e-02
3.044061321782555452e-02
3.044414838508473220e-02
3.044768245946599325e-02
3.045121544076895281e-02
3.045474732879330237e-02
3.045827812333882362e-02
3.046180782420538843e-02
3.046533643119296239e-02
3.046886394410157697e-02
3.047239036273137122e-02
3.047591568688258132e-02
3.047943991635555100e-02
3.048296305095071768e-02
3.048648509046860550e-02
3.049000603470982534e-02
3.049352588347508525e-02
3.049704463656520426e-02
3.050056229378109857e-02
3.050407885492376070e-02
3.050759431979430461e-02
3.051110868819394487e-02
3.051462195992399665e-02
3.051813413478587922e-02
3.052164521258112981e-02
3.052515519311140360e-02
3.052866407617849109e-02
3.053217186158429380e-02
3.053567854913083121e-02
3.053918413862022688e-02
3.054268862985473273e-02
3.054619202263672562e-02
3.054969431676870378e-02
3.055319551205327652e-02
3.055669560829317802e-02
3.056019460529125695e-02
3.056369250285046260e-02
3.056718930077384141e-02
3.057068499886456472e-02
3.057417959692593223e-02
3.057767309476135120e-02
3.058116549217435032e-02
3.058465678896857276e-02
3.058814698494776232e-02
3.059163607991578077e-02
3.059512407367660780e-02
3.059861096603434458e-02
3.060209675679321367e-02
3.060558144575754522e-02
3.060906503273179424e-02
3.061254751752056497e-02
3.061602889992858303e-02
3.061950917976069900e-02
3.062298835682188830e-02
3.062646643091726170e-02
3.062994340185206874e-02
3.063341926943169077e-02
3.063689403346166185e-02
3.064036769374764088e-02
3.064384025009541865e-02
3.064731170231091428e-02
3.065078205020018917e-02
3.065425129356943654e-02
3.065771943222497797e-02
3.066118646597326344e-02
3.066465239462087822e-02
3.066811721797452900e-02
3.067158093584104045e-02
3.067504354802738295e-02
3.067850505434064484e-02
3.068196545458803590e-02
3.068542474857691854e-02
3.068888293611478010e-02
3.069234001700925710e-02
3.069579599106812134e-02
3.069925085809928345e-02
3.070270461791080319e-02
3.070615727031087913e-02
3.070960881510786597e-02
3.071305925211025717e-02
3.071650858112667457e-02
3.071995680196588224e-02
3.072340391443678306e-02
3.072684991834842214e-02
3.073029481350997641e-02
3.073373859973077896e-02
3.073718127682030510e-02
3.074062284458817587e-02
3.074406330284417191e-02
3.074750265139823344e-02
3.075094089006047068e-02
3.075437801864116735e-02
3.075781403695075980e-02
3.076124894479984398e-02
3.076468274199916156e-02
3.076811542835962074e-02
3.077154700369230667e-02
3.077497746780845020e-02
3.077840682051943139e-02
3.078183506163678293e-02
3.078526219097219019e-02
3.078868820833747730e-02
3.079211311354464534e-02
3.079553690640586192e-02
3.079895958673345077e-02
3.080238115433989871e-02
3.080580160903785905e-02
3.080922095064015861e-02
3.081263917895978033e-02
3.081605629380985978e-02
3.081947229500370256e-02
3.082288718235478772e-02
3.082630095567675046e-02
3.082971361478340638e-02
3.083312515948874108e-02
3.083653558960690322e-02
3.083994490495221841e-02
3.084335310533919614e-02
3.084676019058250201e-02
3.085016616049697860e-02
3.085357101489763151e-02
3.085697475359962250e-02
3.086037737641825901e-02
3.086377888316902893e-02
3.086717927366758318e-02
3.087057854772974619e-02
3.087397670517151929e-02
3.087737374580907038e-02
3.088076966945875815e-02
3.088416447593710437e-02
3.088755816506079388e-02
3.089095073664668845e-02
3.089434219051183372e-02
3.089773252647342802e-02
3.090112174434883272e-02
3.090450984395557918e-02
3.090789682511135492e-02
3.091128268763402437e-02
3.091466743134163239e-02
3.091805105605241119e-02
3.092143356158478726e-02
3.092481494775738138e-02
3.092819521438897393e-02
3.093157436129852916e-02
3.093495238830517788e-02
3.093832929522823474e-02
3.094170508188718791e-02
3.094507974810172327e-02
3.094845329369172449e-02
3.095182571847726258e-02
3.095519702227859590e-02
3.095856720491614242e-02
3.096193626621050743e-02
3.096530420598246972e-02
3.096867102405299541e-02
3.097203672024325186e-02
3.097540129437457990e-02
3.097876474626850771e-02
3.098212707574675429e-02
3.098548828263122945e-02
3.098884836674401649e-02
3.099220732790737565e-02
3.099556516594374408e-02
3.099892188067573592e-02
3.100227747192614222e-02
3.100563193951793098e-02
3.100898528327426448e-02
3.101233750301852360e-02
3.101568859857426266e-02
3.101903856976522683e-02
3.102238741641535902e-02
3.102573513834878255e-02
3.102908173538982545e-02
3.103242720736299615e-02
3.103577155409298349e-02
3.103911477540468450e-02
3.104245687112317659e-02
3.104579784107373147e-02
3.104913768508180127e-02
3.105247640297303588e-02
3.105581399457326905e-02
3.105915045970851496e-02
3.106248579820498207e-02
3.106582000988905926e-02
3.106915309458734356e-02
3.107248505212664366e-02
3.107581588233395559e-02
3.107914558503647312e-02
3.108247416006158434e-02
3.108580160723688895e-02
3.108912792639017403e-02
3.109245311734943826e-02
3.109577717994285034e-02
3.109910011399875246e-02
3.110242191934569841e-02
3.110574259581242243e-02
3.110906214322787036e-02
3.111238056142117889e-02
3.111569785022168938e-02
3.111901400945895485e-02
3.112232903896272260e-02
3.112564293856294115e-02
3.112895570808977760e-02
3.113226734737359683e-02
3.113557785624493715e-02
3.113888723453452773e-02
3.114219548207329893e-02
3.114550259869238238e-02
3.114880858422311091e-02
3.115211343849701858e-02
3.115541716134585457e-02
3.115871975260156926e-02
3.116202121209631429e-02
3.116532153966244598e-02
3.116862073513251147e-02
3.117191879833924525e-02
3.117521572911560040e-02
3.117851152729473468e-02
3.118180619271000709e-02
3.118509972519496742e-02
3.118839212458337368e-02
3.119168339070917464e-02
3.119497352340650301e-02
3.119826252250969267e-02
3.120155038785325796e-02
3.120483711927191789e-02
3.120812271660061005e-02
3.121140717967449407e-02
3.121469050832892042e-02
3.121797270239942690e-02
3.122125376172174213e-02
3.122453368613180291e-02
3.122781247546575420e-02
3.123109012955995953e-02
3.123436664825099754e-02
3.123764203137567932e-02
3.124091627877101027e-02
3.124418939027421779e-02
3.124746136572272015e-02
3.125073220495415416e-02
3.125400190780636828e-02
3.125727047411741566e-02
3.126053790372555069e-02
3.126380419646924980e-02
3.126706935218719757e-02
3.127033337071830066e-02
3.127359625190167386e-02
3.127685799557664015e-02
3.128011860158272373e-02
3.128337806975965002e-02
3.128663639994734569e-02
3.128989359198595249e-02
3.129314964571581342e-02
3.129640456097747270e-02
3.129965833761166882e-02
3.130291097545934847e-02
3.130616247436168037e-02
3.130941283416004139e-02
3.131266205469601660e-02
3.131591013581139921e-02
3.131915707734817672e-02
3.132240287914853094e-02
3.132564754105489346e-02
3.132889106290989018e-02
3.133213344455636901e-02
3.133537468583739993e-02
3.133861478659626110e-02
3.134185374667646656e-02
3.134509156592175938e-02
3.134832824417608382e-02
3.135156378128358540e-02
3.135479817708861083e-02
3.135803143143574279e-02
3.136126354416979983e-02
3.136449451513580178e-02
3.136772434417895578e-02
3.137095303114467021e-02
3.137418057587855469e-02
3.137740697822642699e-02
3.138063223803429225e-02
3.138385635514837069e-02
3.138707932941511153e-02
3.139030116068117215e-02
3.139352184879339730e-02
3.139674139359884680e-02
3.139995979494482337e-02
3.140317705267884479e-02
3.140639316664865788e-02
3.140960813670224533e-02
3.141282196268781191e-02
3.141603464445380522e-02
3.141924618184889495e-02
3.142245657472196585e-02
3.142566582292212474e-02
3.142887392629870047e-02
3.143208088470125783e-02
3.143528669797959751e-02
3.143849136598372840e-02
3.144169488856386058e-02
3.144489726557042619e-02
3.144809849685410025e-02
3.145129858226575897e-02
3.145449752165649371e-02
3.145769531487759008e-02
3.146089196178055575e-02
3.146408746221710656e-02
3.146728181603918040e-02
3.147047502309889555e-02
3.147366708324860624e-02
3.147685799634085402e-02
3.148004776222839557e-02
3.148323638076421654e-02
3.148642385180149689e-02
3.148961017519362471e-02
3.149279535079416853e-02
3.149597937845691198e-02
3.149916225803582603e-02
3.150234398938511066e-02
3.150552457235917397e-02
3.150870400681261146e-02
3.151188229260023371e-02
3.151505942957708029e-02
3.151823541759842667e-02
3.152141025651974265e-02
3.152458394619671311e-02
3.152775648648523110e-02
3.153092787724142559e-02
3.153409811832163373e-02
3.153726720958240776e-02
3.154043515088052196e-02
3.154360194207295881e-02
3.154676758301691586e-02
3.154993207356979884e-02
3.155309541358919390e-02
3.155625760293290921e-02
3.155941864145896114e-02
3.156257852902556033e-02
3.156573726549114639e-02
3.156889485071432550e-02
3.157205128455393278e-02
3.157520656686903932e-02
3.157836069751890351e-02
3.158151367636299195e-02
3.158466550326097244e-02
3.158781617807272096e-02
3.159096570065832860e-02
3.159411407087807377e-02
3.159726128859247779e-02
3.160040735366224235e-02
3.160355226594828426e-02
3.160669602531171463e-02
3.160983863161387353e-02
3.161298008471630921e-02
3.161612038448078504e-02
3.161925953076923784e-02
3.162239752344384730e-02
3.162553436236702209e-02
3.162867004740136517e-02
3.163180457840968074e-02
3.163493795525498808e-02
3.163807017780051467e-02
3.164120124590970307e-02
3.164433115944621788e-02
3.164745991827389027e-02
3.165058752225671096e-02
3.165371397125888581e-02
3.165683926514484964e-02
3.165996340377923157e-02
3.166308638702687583e-02
3.166620821475285563e-02
3.166932888682248010e-02
3.167244840310128040e-02
3.167556676345500977e-02
3.167868396774962264e-02
3.168180001585130245e-02
3.168491490762645468e-02
3.168802864294167909e-02
3.169114122166376973e-02
3.169425264365973577e-02
3.169736290879680146e-02
3.170047201694236455e-02
3.170357996796401012e-02
3.170668676172953837e-02
3.170979239810693684e-02
3.171289687696438736e-02
3.171600019817030769e-02
3.171910236159332375e-02
3.172220336710226962e-02
3.172530321456618757e-02
3.172840190385432801e-02
3.173149943483612873e-02
3.173459580738122177e-02
3.173769102135945430e-02
3.174078507664090248e-02
3.174387797309586451e-02
3.174696971059483980e-02
3.175006028900850125e-02
3.175314970820773686e-02
3.175623796806364973e-02
3.175932506844756503e-02
3.176241100923100219e-02
3.176549579028567494e-02
3.176857941148351211e-02
3.177166187269665765e-02
3.177474317379747060e-02
3.177782331465854593e-02
3.178090229515270065e-02
3.178398011515300159e-02
3.178705677453271677e-02
3.179013227316530160e-02
3.179320661092441963e-02
3.179627978768393565e-02
3.179935180331792954e-02
3.180242265770071713e-02
3.180549235070681546e-02
3.180856088221094280e-02
3.181162825208802558e-02
3.181469446021321229e-02
3.181775950646186651e-02
3.182082339070954613e-02
3.182388611283202412e-02
3.182694767270529551e-02
3.183000807020556350e-02
3.183306730520924638e-02
3.183612537759297062e-02
3.183918228723355004e-02
3.184223803400799274e-02
3.184529261779350806e-02
3.184834603846749962e-02
3.185139829590756533e-02
3.185444938999151820e-02
3.185749932059736556e-02
3.186054808760331591e-02
3.186359569088777904e-02
3.186664213032937287e-02
3.186968740580692350e-02
3.187273151719947212e-02
3.187577446438627504e-02
3.187881624724678287e-02
3.188185686566067517e-02
3.188489631950782582e-02
3.188793460866833768e-02
3.189097173302251481e-02
3.189400769245086947e-02
3.189704248683408044e-02
3.190007611605304855e-02
3.190310857998888971e-02
3.190613987852296274e-02
3.190917001153683458e-02
3.191219897891225954e-02
3.191522678053120010e-02
3.191825341627581997e-02
3.192127888602849795e-02
3.192430318967181407e-02
3.192732632708854268e-02
3.193034829816165932e-02
3.193336910277432689e-02
3.193638874080990953e-02
3.193940721215197259e-02
3.194242451668427574e-02
3.194544065429080759e-02
3.194845562485574414e-02
3.195146942826344871e-02
3.195448206439850669e-02
3.195749353314570468e-02
3.196050383439000275e-02
3.196351296801656222e-02
3.196652093391077337e-02
3.196952773195824160e-02
3.197253336204478741e-02
3.197553782405644640e-02
3.197854111787947623e-02
3.198154324340034271e-02
3.198454420050574759e-02
3.198754398908257995e-02
3.199054260901791624e-02
3.199354006019905494e-02
3.199653634251350270e-02
3.199953145584896047e-02
3.200252540009331653e-02
3.200551817513464653e-02
3.200850978086122040e-02
3.201150021716150235e-02
3.201448948392416477e-02
3.201747758103808128e-02
3.202046450839230590e-02
3.202345026587609389e-02
3.202643485337890866e-02
3.202941827079040793e-02
3.203240051800047145e-02
3.203538159489915244e-02
3.203836150137669841e-02
3.204134023732357200e-02
3.204431780263039542e-02
3.204729419718797823e-02
3.205026942088732428e-02
3.205324347361963866e-02
3.205621635527632768e-02
3.205918806574898500e-02
3.206215860492938469e-02
3.206512797270947429e-02
3.206809616898141646e-02
3.207106319363757507e-02
3.207402904657051523e-02
3.207699372767299634e-02
3.207995723683796513e-02
3.208291957395854183e-02
3.208588073892802012e-02
3.208884073163988104e-02
3.209179955198778605e-02
3.209475719986561171e-02
3.209771367516740803e-02
3.210066897778739853e-02
3.210362310761998711e-02
3.210657606455978585e-02
3.210952784850162889e-02
3.211247845934054462e-02
3.211542789697176270e-02
3.211837616129072093e-02
3.212132325219307222e-02
3.212426916957464990e-02
3.212721391333147464e-02
3.213015748335979610e-02
3.213309987955603741e-02
3.213604110181679518e-02
3.213898115003886030e-02
3.214192002411921101e-02
3.214485772395499902e-02
3.214779424944358421e-02
3.215072960048252770e-02
3.215366377696958489e-02
3.215659677880269157e-02
3.215952860587997092e-02
3.216245925809973344e-02
3.216538873536049087e-02
3.216831703756092148e-02
3.217124416459989089e-02
3.217417011637647289e-02
3.217709489278993557e-02
3.218001849373972739e-02
3.218294091912548421e-02
3.218586216884702922e-02
3.218878224280437989e-02
3.219170114089774798e-02
3.219461886302753262e-02
3.219753540909432027e-02
3.220045077899889169e-02
3.220336497264222192e-02
3.220627798992545948e-02
3.220918983074991249e-02
3.221210049501706946e-02
3.221500998262859239e-02
3.221791829348635838e-02
3.222082542749243189e-02
3.222373138454908553e-02
3.222663616455877927e-02
3.222953976742416737e-02
3.223244219304809838e-02
3.223534344133360818e-02
3.223824351218395473e-02
3.224114240550255556e-02
3.224404012119300167e-02
3.224693665915905755e-02
3.224983201930466115e-02
3.225272620153390307e-02
3.225561920575106128e-02
3.225851103186061497e-02
3.226140167976721679e-02
3.226429114937570675e-02
3.226717944059110527e-02
3.227006655331864787e-02
3.227295248746377132e-02
3.227583724293210665e-02
3.227872081962946532e-02
3.228160321746183919e-02
3.228448443633542136e-02
3.228736447615659227e-02
3.229024333683192666e-02
3.229312101826819353e-02
3.229599752037232846e-02
3.229887284305146822e-02
3.230174698621295776e-02
3.230461994976432938e-02
3.230749173361331661e-02
3.231036233766782645e-02
3.231323176183597407e-02
3.231610000602604810e-02
3.231896707014649678e-02
3.232183295410595569e-02
3.232469765781327553e-02
3.232756118117748739e-02
3.233042352410779585e-02
3.233328468651356508e-02
3.233614466830432577e-02
3.233900346938978904e-02
3.234186108967983253e-02
3.234471752908451431e-02
3.234757278751407283e-02
3.235042686487894781e-02
3.235327976108976628e-02
3.235613147605732182e-02
3.235898200969260230e-02
3.236183136190678294e-02
3.236467953261121244e-02
3.236752652171743377e-02
3.237037232913716339e-02
3.237321695478229122e-02
3.237606039856490148e-02
3.237890266039729348e-02
3.238174374019194696e-02
3.238458363786152899e-02
3.238742235331888708e-02
3.239025988647707688e-02
3.239309623724935527e-02
3.239593140554915957e-02
3.239876539129011440e-02
3.240159819438603872e-02
3.240442981475092493e-02
3.240726025229890422e-02
3.241008950694428126e-02
3.241291757860156192e-02
3.241574446718541863e-02
3.241857017261071117e-02
3.242139469479247277e-02
3.242421803364590321e-02
3.242704018908638963e-02
3.242986116102949262e-02
3.243268094939091156e-02
3.243549955408651930e-02
3.243831697503232053e-02
3.244113321214449341e-02
3.244394826533939652e-02
3.244676213453356883e-02
3.244957481964372975e-02
3.245238632058675826e-02
3.245519663727972071e-02
3.245800576963985690e-02
3.246081371758458012e-02
3.246362048103149101e-02
3.246642605989836367e-02
3.246923045410315956e-02
3.247203366356400667e-02
3.247483568819919952e-02
3.247763652792719224e-02
3.248043618266661242e-02
3.248323465233624724e-02
3.248603193685505736e-02
3.248882803614217690e-02
3.249162295011688573e-02
3.249441667869863021e-02
3.249720922180700938e-02
3.250000057936181658e-02
3.250279075128300471e-02
3.250557973749068630e-02
3.250836753790512651e-02
3.251115415244676399e-02
3.251393958103619697e-02
3.251672382359419022e-02
3.251950688004168200e-02
3.252228875029975624e-02
3.252506943428967734e-02
3.252784893193289700e-02
3.253062724315101267e-02
3.253340436786578832e-02
3.253618030599916139e-02
3.253895505747326361e-02
3.254172862221038631e-02
3.254450100013300123e-02
3.254727219116376746e-02
3.255004219522549674e-02
3.255281101224116042e-02
3.255557864213390329e-02
3.255834508482703671e-02
3.256111034024404549e-02
3.256387440830859487e-02
3.256663728894450965e-02
3.256939898207577427e-02
3.257215948762653968e-02
3.257491880552112334e-02
3.257767693568401624e-02
3.258043387803986196e-02
3.258318963251347067e-02
3.258594419902981904e-02
3.258869757751403640e-02
3.259144976789140474e-02
3.259420077008737954e-02
3.259695058402758971e-02
3.259969920963783768e-02
3.260244664684407850e-02
3.260519289557241296e-02
3.260793795574910836e-02
3.261068182730059856e-02
3.261342451015347699e-02
3.261616600423448975e-02
3.261890630947052866e-02
3.262164542578860349e-02
3.262438335311587667e-02
3.262712009137969799e-02
3.262985564050756293e-02
3.263259000042709884e-02
3.263532317106609959e-02
3.263805515235249088e-02
3.264078594421437191e-02
3.264351554658002225e-02
3.264624395937787416e-02
3.264897118253651254e-02
3.265169721598469577e-02
3.265442205965132794e-02
3.265714571346547274e-02
3.265986817735636732e-02
3.266258945125341540e-02
3.266530953508616636e-02
3.266802842878431534e-02
3.267074613227771013e-02
3.267346264549637197e-02
3.267617796837047478e-02
3.267889210083033819e-02
3.268160504280644141e-02
3.268431679422941633e-02
3.268702735503004053e-02
3.268973672513927203e-02
3.269244490448824231e-02
3.269515189300820773e-02
3.269785769063055653e-02
3.270056229728682262e-02
3.270326571290869261e-02
3.270596793742797798e-02
3.270866897077665675e-02
3.271136881288686654e-02
3.271406746369090457e-02
3.271676492312122070e-02
3.271946119111043133e-02
3.272215626759130552e-02
3.272485015249678580e-02
3.272754284575996042e-02
3.273023434731407721e-02
3.273292465709252280e-02
3.273561377502884340e-02
3.273830170105673093e-02
3.274098843511001611e-02
3.274367397712270311e-02
3.274635832702894184e-02
3.274904148476301402e-02
3.275172345025937487e-02
3.275440422345261837e-02
3.275708380427748423e-02
3.275976219266887868e-02
3.276243938856186755e-02
3.276511539189166933e-02
3.276779020259366210e-02
3.277046382060335578e-02
3.277313624585639906e-02
3.277580747828858637e-02
3.277847751783589253e-02
3.278114636443443114e-02
3.278381401802046846e-02
3.278648047853040259e-02
3.278914574590074266e-02
3.279180982006812961e-02
3.279447270096937095e-02
3.279713438854139212e-02
3.279979488272127819e-02
3.280245418344623909e-02
3.280511229065363049e-02
3.280776920428090521e-02
3.281042492426562707e-02
3.281307945054549174e-02
3.281573278305837532e-02
