-1.105603435941452132e-03
-1.624182779118579605e-03
-2.140535262552418442e-03
-2.651470559310570470e-03
-3.153720286472528472e-03
-3.643978830237311166e-03
-4.118946921181240728e-03
-4.575377486767955200e-03
-5.010122878600001446e-03
-5.420182631060983802e-03
-5.802750942298656386e-03
-6.155262974080981560e-03
-6.475438992591463043e-03
-6.761325451434516826e-03
-7.011332165178727795e-03
-7.224264599512343621e-03
-7.399350555212575418e-03
-7.536260423744024599e-03
-7.635120546058424620e-03
-7.696518907433220862e-03
-7.721503042996014955e-03
-7.711569641479842918e-03
-7.668645860058281513e-03
-7.595062304774872521e-03
-7.493517970083310442e-03
-7.367037356356268170e-03
-7.218920426959686554e-03
-7.052686007128583165e-03
-6.872009469675845195e-03
-6.680655686922407598e-03
-6.482408248829852823e-03
-6.280996288340556788e-03
-6.080020119114210898e-03
-5.882877014423560334e-03
-5.692688704609034749e-03
-5.512231769133864485e-03
-5.343872490788248962e-03
-5.189507518519031852e-03
-5.050511625669749233e-03
-4.927693828874353185e-03
-4.821262910227231899e-03
-4.730803388420602544e-03
-4.655262626427321762e-03
-4.592949821147627142e-03
-4.541547200370130155e-03
-4.498133528151337414e-03
-4.459220030005131910e-03
-4.420798386505967077e-03
-4.378400300238104517e-03
-4.327167796129909212e-03
-4.261933387154746497e-03
-4.177308831810165254e-03
-4.067781086360768711e-03
-3.927813878053981571e-03
-3.751953217166337576e-03
-3.534934826377462112e-03
-3.271791685628961614e-03
-2.957959556923863819e-03
-2.589378439374252078e-03
-2.162587993331806235e-03
-1.674814850684607989e-03
-1.124049971900283355e-03
-5.091142796806647679e-04
1.702891298648151453e-04
9.135374289796639301e-04
1.719066435286199877e-03
2.584365786812459296e-03
3.505991498819554641e-03
4.479596247582221837e-03
5.499977327177028169e-03
6.561141869234636027e-03
7.656388728702334667e-03
8.778405915546818455e-03
9.919382278595805305e-03
1.107113173288799997e-02
1.222522812192823952e-02
1.337314852957872079e-02
1.450642254113674277e-02
1.561678496756128964e-02
1.669632916747726750e-02
1.773765826018825625e-02
1.873403125336721778e-02
1.967950133412122576e-02
2.056904340999879746e-02
2.139866835495606717e-02
2.216552143674196604e-02
2.286796263900936835e-02
2.350562691926535303e-02
2.407946276832124977e-02
2.459174768523442883e-02
2.504607980705665649e-02
2.544734507554858791e-02
2.580165993666138496e-02
2.611629007593445351e-02
2.639954600337763788e-02
2.666065685172914687e-02
2.690962406218196448e-02
2.715705726404840301e-02
2.741399501692133242e-02
2.769171316671732719e-02
2.800152418919290773e-02
2.835457098296265133e-02
2.876161874354456194e-02
2.923284890240819556e-02
2.977765884119816173e-02
3.040447130846907556e-02
3.112055733602652266e-02
3.193187624084383586e-02
3.284293616470499583e-02
3.385667817510649297e-02
3.497438667546584612e-02
3.619562840408494658e-02
3.751822184981810221e-02
3.893823838824190392e-02
4.045003581515914381e-02
4.204632445203178998e-02
4.371826530391213772e-02
4.545559915808207452e-02
4.724680495690176951e-02
4.907928508602772688e-02
5.093957479775915176e-02
5.281357226473736011e-02
5.468678542602215670e-02
5.654459143093371054e-02
5.837250393280563748e-02
6.015644348477098419e-02
6.188300588102389060e-02
6.353972331238158522e-02
6.511531327663787339e-02
6.659991018440761246e-02
6.798527484961025547e-02
6.926497737921039066e-02
7.043454936688538226e-02
7.149160176485466756e-02
7.243590542235789353e-02
7.326943188315759858e-02
7.399635275685766123e-02
7.462299678005557269e-02
7.515776429309334317e-02
7.561099999151377204e-02
7.599482535551398132e-02
7.632293317335983596e-02
7.661034722728969626e-02
7.687315110563161524e-02
7.712819067577812715e-02
7.739275558275970912e-02
7.768424548177825517e-02
7.801982729656968540e-02
7.841609014610938233e-02
7.888870488110726054e-02
7.945209501950367681e-02
8.011912621289733749e-02
8.090082099644994862e-02
8.180610528344615939e-02
8.284159284933696743e-02
8.401141321071624313e-02
8.531708786545687262e-02
8.675745894669717462e-02
8.832867350154555153e-02
9.002422562857635702e-02
9.183505749782040761e-02
9.374971950891852757e-02
9.575458830666301602e-02
9.783414038041898797e-02
9.997127784635866099e-02
1.021477017900744994e-01
1.043443273429972007e-01
1.065417339504986793e-01
1.087206428985893064e-01
1.108624137763295353e-01
1.129495505422902918e-01
1.149662073683788283e-01
1.168986841153562273e-01
1.187359008820161044e-01
1.204698412547626496e-01
1.220959537554396762e-01
1.236135015522715347e-01
1.250258508221407105e-01
1.263406889896735719e-01
1.275701648590406856e-01
1.287309439473142969e-01
1.298441731619437156e-01
1.309353505912741467e-01
1.320340978411183586e-01
1.331738335332988410e-01
1.343913485647804384e-01
1.357262854063025492e-01
1.372205254734879809e-01
1.389174902004718382e-01
1.408613634529358172e-01
1.430962444264261280e-01
1.456652416814701034e-01
1.486095206098283494e-01
1.519673177359598393e-01
1.557729364395445959e-01
1.600557397319206099e-01
1.648391561684655338e-01
1.701397157020490825e-01
1.759661323406094546e-01
1.823184505076773376e-01
1.891872714972503422e-01
1.965530762011512833e-01
2.043856588944776842e-01
2.126436862886249279e-01
2.212743941826859906e-01
2.302134328003273833e-01
2.393848698178182299e-01
2.487013580608850027e-01
2.580644729204797372e-01
2.673652217566320211e-01
2.764847254258164799e-01
2.852950694101430429e-01
2.936603195731158911e-01
3.014376948936020595e-01
3.084788870495750457e-01
3.146315143373919487e-01
3.197406951912581397e-01
3.236507241991269379e-01
3.262068318192886118e-01
3.272570071237784761e-01
3.266538615764491005e-01
3.242565104862916714e-01
3.199324481334419046e-01
3.135593920070279261e-01
3.050270712485588231e-01
2.942389346609445844e-01
2.811137543760819368e-01
2.655871017083633046e-01
2.476126733250396394e-01
2.271634472606906541e-01
2.042326501635725600e-01
1.788345194434632635e-01
1.510048461894852867e-01
1.208012876782913886e-01
8.830344094289546697e-02
5.361267195871782798e-02
1.685169813436649885e-02
-2.183607497915517059e-02
-6.228745859931016787e-02
-1.043206200619251067e-01
-1.477364459233324323e-01
-1.923201154539384561e-01
-2.378428679961692715e-01
-2.840639452133271181e-01
-3.307326866701529866e-01
-3.775907551108409477e-01
-4.243744658779077250e-01
-4.708171934361334854e-01
-5.166518267413117149e-01
-5.616132446161660186e-01
-6.054407817069757947e-01
-6.478806556398780669e-01
-6.886883264838352670e-01
-7.276307603883954700e-01
-7.644885705999698855e-01
-7.990580102636487547e-01
-8.311527937152534129e-01
-8.606057250193853703e-01
-8.872701149796541342e-01
-9.110209707030000326e-01
-9.317559447346365209e-01
-9.493960340146564425e-01
-9.638860218600850960e-01
-9.751946599539053073e-01
-9.833145904807051307e-01
-9.882620117816931504e-01
-9.900760944009238118e-01
-9.888181574491993198e-01
-9.845706182169918774e-01
-9.774357309332309951e-01
-9.675341328086445314e-01
-9.550032181346169713e-01
-9.399953630081522293e-01
-9.226760249534792235e-01
-9.032217430204402264e-01
-8.818180649458559062e-01
-8.586574283421259945e-01
-8.339370231002753986e-01
-8.078566621609775122e-01
-7.806166869575345002e-01
-7.524159331807339646e-01
-7.234497808365163429e-01
-6.939083113059575370e-01
-6.639745920534733115e-01
-6.338231074834055345e-01
-6.036183521429665522e-01
-5.735135996352408450e-01
-5.436498582885104236e-01
-5.141550213221960375e-01
-4.851432168005929135e-01
-4.567143594627779968e-01
-4.289539037955888978e-01
-4.019327949403098676e-01
-3.757076110598698837e-01
-3.503208885618116497e-01
-3.258016189858846667e-01
-3.021659044477403855e-01
-2.794177563804486897e-01
-2.575500207099606920e-01
-2.365454115362655985e-01
-2.163776339411529748e-01
-1.970125761561648536e-01
-1.784095507242915712e-01
-1.605225642326742197e-01
-1.433015954626513655e-01
-1.266938622068061460e-01
-1.106450580069045508e-01
-9.510054088214377199e-02
-8.000645778616764792e-02
-6.531078966357251048e-02
-5.096430404327154107e-02
-3.692140386184637052e-02
-2.314086315822338688e-02
-9.586442633213535999e-03
3.772620203973314334e-03
1.696124887948076074e-02
2.999829463106892802e-02
4.289643032019935243e-02
5.566216826585760474e-02
6.829599657104713784e-02
8.079262680168690369e-02
9.314134424764021480e-02
1.053264506084737318e-01
1.173277878342212643e-01
1.291213305597035121e-01
1.406798342887476128e-01
1.519735255834729348e-01
1.629708204012206563e-01
1.736390567529632334e-01
1.839452278589242540e-01
1.938567027258031317e-01
2.033419213861584474e-01
2.123710530807960128e-01
2.209166066434984643e-01
2.289539834874932955e-01
2.364619648097203708e-01
2.434231262091582915e-01
2.498241743456950381e-01
2.556562017253779517e-01
2.609148572727681414e-01
2.656004318966936339e-01
2.697178598771688418e-01
2.732766382208179357e-01
2.762906677463478622e-01
2.787780206154100715e-01
2.807606404539825795e-01
2.822639821498422186e-01
2.833165992952749179e-01
2.839496878342289143e-01
2.841965952750395985e-01
2.840923049521527077e-01
2.836729050968343491e-01
2.829750525359292501e-01
2.820354404388540348e-01
2.808902794934960423e-01
2.795748013243720131e-01
2.781227921688731453e-01
2.765661642608641668e-01
2.749345713819227877e-01
2.732550741426832408e-01
2.715518594918535089e-01
2.698460180037179357e-01
2.681553810176645625e-01
2.664944189786608852e-01
2.648742009138394526e-01
2.633024140478387176e-01
2.617834414295640566e-01
2.603184945422886698e-01
2.589057968153848366e-01
2.575408133199650340e-01
2.562165211093682671e-01
2.549237141828408215e-01
2.536513365295852696e-01
2.523868363818210225e-01
2.511165345938356497e-01
2.498260000841273365e-01
2.485004252340504427e-01
2.471249944559412715e-01
2.456852393504133925e-01
2.441673743481121428e-01
2.425586072055404829e-01
2.408474193697602850e-01
2.390238119937337924e-01
2.370795139914791960e-01
2.350081494087735701e-01
2.328053620496277065e-01
2.304688964592807310e-01
2.279986348817652220e-01
2.253965907397665613e-01
2.226668600458460157e-01
2.198155328008148113e-01
2.168505670915118755e-01
2.137816293514643029e-01
2.106199047678394276e-01
2.073778820075000417e-01
2.040691172006314780e-01
2.007079820830028338e-01
1.973094015365794429e-01
1.938885856528516638e-01
1.904607616522710489e-01
1.870409106795388188e-01
1.836435142293148803e-01
1.802823149442273620e-01
1.769700957968401434e-01
1.737184814177858971e-01
1.705377649348331359e-01
1.674367626842576118e-01
1.644226991749673794e-01
1.615011236307855591e-01
1.586758588569366912e-01
1.559489828740322215e-01
1.533208427768250615e-01
1.507900997532604648e-01
1.483538039272395692e-01
1.460074967319257011e-01
1.437453384658202160e-01
1.415602579563599861e-01
1.394441211408126713e-01
1.373879150505587787e-01
1.353819432435915682e-01
1.334160290470302046e-01
1.314797225246289725e-01
1.295625073264738969e-01
1.276540036027753178e-01
1.257441633121611224e-01
1.238234545430104416e-01
1.218830316460036700e-01
1.199148884626068806e-01
1.179119922186005615e-01
1.158683960399755353e-01
1.137793285633303259e-01
1.116412595608477637e-01
1.094519409736328663e-01
1.072104230852919116e-01
1.049170463246685003e-01
1.025734094232976096e-01
1.001823148956948739e-01
9.774769365984083136e-02
9.527451057677241431e-02
9.276865318961344253e-02
9.023680608669984449e-02
8.768631367277877897e-02
8.512503394875028939e-02
8.256118649621080330e-02
8.000319748508827322e-02
7.745954458898381134e-02
7.493860484347661388e-02
7.244850793646656628e-02
6.999699775585585537e-02
6.759130435278502824e-02
6.523802856215479840e-02
6.294304092265411155e-02
6.071139650028168494e-02
5.854726674444252904e-02
5.645388920471362815e-02
5.443353557115772345e-02
5.248749807772352949e-02
5.061609409614936661e-02
4.881868834885762232e-02
4.709373185677934170e-02
4.543881639691902535e-02
4.385074306795178067e-02
4.232560341662297554e-02
4.085887114817978588e-02
3.944550243366832382e-02
3.808004287011264311e-02
3.675673869813318728e-02
3.546965037454984093e-02
3.421276601912603271e-02
3.298011292743318473e-02
3.176586498081411525e-02
3.056444406718939952e-02
2.937061382376284641e-02
2.817956423664326471e-02
2.698698573588133309e-02
2.578913166896918199e-02
2.458286844128863835e-02
2.336571272844633479e-02
2.213585528163719215e-02
2.089217153206108721e-02
1.963421897360562510e-02
1.836222189238869915e-02
1.707704414819554220e-02
1.578015070830538977e-02
1.447355912836425888e-02
1.315978218616855981e-02
1.184176296713284997e-02
1.052280388667894279e-02
9.206491248247019102e-03
7.896616719716876773e-03
6.597097425792301274e-03
5.311896236092651484e-03
4.044943748497930799e-03
2.800063220408021900e-03
1.580900006495223513e-03
3.908565317466705939e-04
-7.669660284025435568e-04
-1.889818463276261677e-03
-2.975346084852657693e-03
-4.021622366029185998e-03
-5.027173478381416309e-03
-5.990993398755891167e-03
-6.912549729510021439e-03
-7.791780440326775796e-03
-8.629081793939881104e-03
-9.425287977540554654e-03
-1.018164325701140065e-02
-1.089976728102570909e-02
-1.158161460443117054e-02
-1.222942921500212894e-02
-1.284569518000926169e-02
-1.343308467905816525e-02
-1.399440433811617764e-02
-1.453254091494072739e-02
-1.505040760374533673e-02
-1.555089191423378488e-02
-1.603680606165409570e-02
-1.651084072880270454e-02
-1.697552309957870917e-02
-1.743317969568726825e-02
-1.788590469311071920e-02
-1.833553408979588656e-02
-1.878362599742134167e-02
-1.923144725443550959e-02
-1.967996639997541750e-02
-2.012985280490729376e-02
-2.058148194068641287e-02
-2.103494618084040049e-02
-2.149007086928687166e-02
-2.194643503367474033e-02
-2.240339618032992017e-02
-2.286011840272646201e-02
-2.331560312189797854e-02
-2.376872176778125137e-02
-2.421824946496639597e-02
-2.466289901206502808e-02
-2.510135448775054068e-02
-2.553230363329750049e-02
-2.595446840301020644e-02
-2.636663308338535461e-02
-2.676766932795861254e-02
-2.715655779938627723e-02
-2.753240599613848358e-02
-2.789446193117854980e-02
-2.824212356165979251e-02
-2.857494383506105698e-02
-2.889263146612890132e-02
-2.919504753038701730e-02
-2.948219797484650032e-02
-2.975422257872813864e-02
-3.001138056121723310e-02
-3.025403334653861687e-02
-3.048262492844442534e-02
-3.069766057951000063e-02
-3.089968424506116251e-02
-3.108925532439345274e-02
-3.126692554994033729e-02
-3.143321636144246617e-02
-3.158859748288597030e-02
-3.173346720832805057e-02
-3.186813495261930917e-02
-3.199280642719370266e-02
-3.210757182881070204e-02
-3.221239743649928489e-02
-3.230712080066347469e-02
-3.239144957531193969e-02
-3.246496418250385124e-02
-3.252712434401687502e-02
-3.257727916119736861e-02
-3.261468072314055444e-02
-3.263850087529705790e-02
-3.264785086008420434e-02
-3.264180345224935997e-02
-3.261941707577031835e-02
-3.257976134409089342e-02
-3.252194356913486878e-02
-3.244513560573483724e-02
-3.234860048204964145e-02
-3.223171824756516229e-02
-3.209401037618352104e-02
-3.193516216604980196e-02
-3.175504277281440690e-02
-3.155372217873066154e-02
-3.133148481639875388e-02
-3.108883943333014266e-02
-3.082652494657262335e-02
-3.054551195692060267e-02
-3.024699992050402034e-02
-2.993240980345685323e-02
-2.960337232111664302e-02
-2.926171183588675839e-02
-2.890942614998201834e-02
-2.854866245025805896e-02
-2.818168969414660066e-02
-2.781086799726708095e-02
-2.743861543226066083e-02
-2.706737266407239356e-02
-2.669956622990560594e-02
-2.633757089370534002e-02
-2.598367179305461142e-02
-2.564002701553684191e-02
-2.530863126794232615e-02
-2.499128119716805332e-02
-2.468954311714746316e-02
-2.440472362367728659e-02
-2.413784368046402451e-02
-2.388961659167208873e-02
-2.366043045326495300e-02
-2.345033522201156462e-02
-2.325903477150472257e-02
-2.308588420093592511e-02
-2.292989237423232948e-02
-2.278972987961307844e-02
-2.266374219944081517e-02
-2.254996800401129139e-02
-2.244616229894006235e-02
-2.234982418072576499e-02
-2.225822877806089492e-02
-2.216846288061537912e-02
-2.207746374124897396e-02
-2.198206062093721949e-02
-2.187901820341456999e-02
-2.176508138835242523e-02
-2.163702075443261694e-02
-2.149167798561446227e-02
-2.132601056709341678e-02
-2.113713515247403127e-02
-2.092236876577414917e-02
-2.067926736941560692e-02
-2.040566108083682884e-02
-2.009968554784978545e-02
-1.975980907230102251e-02
-1.938485493188777178e-02
-1.897401865527314699e-02
-1.852687995562363188e-02
-1.804340907258799448e-02
-1.752396753363133497e-02
-1.696930324587560615e-02
-1.638054002400949130e-02
-1.575916170370773167e-02
-1.510699105274574544e-02
-1.442616385581730817e-02
-1.371909848349764892e-02
-1.298846148244999117e-02
-1.223712960065804350e-02
-1.146814891649266220e-02
-1.068469167123043545e-02
-9.890011354023328649e-03
-9.087396756028166475e-03
-8.280125651938466044e-03
-7.471418886488619994e-03
-6.664395345834331699e-03
-5.862028650558954827e-03
-5.067106076340075795e-03
-4.282190361136602348e-03
-3.509584777495107846e-03
-2.751302201687799449e-03
-2.009038399041461649e-03
-1.284150009059663571e-03
-5.776375113536554766e-04
1.098667887562683698e-04
7.781053830373644859e-04
1.427196887254938941e-03
2.057632047295153681e-03
2.670264483758903913e-03
3.266296474179199074e-03
3.847259883672377902e-03
4.414992655276762067e-03
4.971611225026851232e-03
5.519479249063948163e-03
6.061173180463131846e-03
6.599445208364747989e-03
7.137184074754863300e-03
7.677374438564367812e-03
8.223055306987052046e-03
8.777278191945710531e-03
9.343065540104351224e-03
9.923370085194322884e-03
1.052103562909860630e-02
1.113875981171030469e-02
1.177905941862886392e-02
1.244423862580521650e-02
1.313636062339660140e-02
1.385722291269565060e-02
1.460833674109810777e-02
1.539091065195727012e-02
1.620583851991641913e-02
1.705369203908878653e-02
1.793471776398562409e-02
1.884883862830138979e-02
1.979565989339725565e-02
2.077447922078047224e-02
2.178430081891536904e-02
2.282385329531460422e-02
2.389161083151933318e-02
2.498581732009777512e-02
2.610451307653053124e-02
2.724556374251728766e-02
2.840669083440913040e-02
2.958550337343027886e-02
3.077953019569918194e-02
3.198625243481338642e-02
3.320313569347728422e-02
3.442766145243131987e-02
3.565735710974847483e-02
3.688982438676713382e-02
3.812276565700009612e-02
3.935400784719603889e-02
4.058152359611213317e-02
4.180344935321365918e-02
4.301810027407881876e-02
4.422398175085281297e-02
4.541979748248606286e-02
4.660445402980356588e-02
4.777706181333752494e-02
4.893693269334687540e-02
5.008357422959873462e-02
5.121668071880530054e-02
5.233612135002251725e-02
5.344192563186100919e-02
5.453426645555380786e-02
5.561344100936003315e-02
5.667985004042812996e-02
5.773397578786999135e-02
5.877635890825502057e-02
5.980757482324500218e-02
6.082820989395849864e-02
6.183883783934784883e-02
6.283999676829339631e-02
6.383216715316053502e-02
6.481575112762233415e-02
6.579105340986850237e-02
6.675826413593899389e-02
6.771744382315816879e-02
6.866851077968386119e-02
6.961123100694577293e-02
7.054521077575487409e-02
7.146989196410036271e-02
7.238455016516313900e-02
7.328829559541694127e-02
7.418007677077832762e-02
7.505868675531401912e-02
7.592277195608254647e-02
7.677084324425059725e-02
7.760128921771548838e-02
7.841239136964449352e-02
7.920234089029988545e-02
7.996925680371319567e-02
8.071120521872494902e-02
8.142621933540510060e-02
8.211231978767309647e-02
8.276753523591459660e-02
8.338992271937573086e-02
8.397758751305875458e-02
8.452870225482557454e-02
8.504152492044733669e-02
8.551441552090910392e-02
8.594585132311208242e-02
8.633444027668565890e-02
8.667893251805527943e-02
8.697822979495581364e-02
8.723139285295199163e-02
8.743764645345228348e-02
8.759638222641058514e-02
8.770715919694471729e-02
8.776970212117563008e-02
8.778389758519057617e-02
8.774978814370279490e-02
8.766756439752790286e-02
8.753755537386723184e-02
8.736021718990498452e-02
8.713612038338594545e-02
8.686593594979058475e-02
8.655042040260042813e-02
8.619040014063616972e-02
8.578675522469587922e-02
8.534040292752352597e-02
8.485228125215758810e-02
8.432333263795147027e-02
8.375448812591843040e-02
8.314665216751418453e-02
8.250068824837922254e-02
8.181740554834386614e-02
8.109754694211392112e-02
8.034177822207495823e-02
7.955067882644552280e-02
7.872473419639514081e-02
7.786432971761760025e-02
7.696974635462638936e-02
7.604115815486410523e-02
7.507863143107550152e-02
7.408212561868651735e-02
7.305149590635555412e-02
7.198649741534496327e-02
7.088679099558348184e-02
6.975195042548446023e-02
6.858147099333020136e-02
6.737477923349535769e-02
6.613124376245863023e-02
6.485018705700129615e-02
6.353089797072972167e-02
6.217264497388363259e-02
6.077468973159231430e-02
5.933630110582822220e-02
5.785676922751861739e-02
5.633541955938988627e-02
5.477162681650322995e-02
5.316482858285986185e-02
5.151453857675823700e-02
4.982035924444626340e-02
4.808199370521350213e-02
4.629925695659634077e-02
4.447208625430426610e-02
4.260055044108095046e-02
4.068485829464314751e-02
3.872536587359887844e-02
3.672258260781522538e-02
3.467717627849102591e-02
3.258997688019863587e-02
3.046197916528869259e-02
2.829434408711023127e-02
2.608839892563036625e-02
2.384563630859260625e-02
2.156771201346938116e-02
1.925644163288102451e-02
1.691379609757737851e-02
1.454189622234675072e-02
1.214300604921009046e-02
9.719525379150066938e-03
7.273981278911348554e-03
4.809018742064872197e-03
2.327390564123742438e-03
-1.680535943861502827e-04
-2.674378705457981786e-03
-5.188576580669192716e-03
-7.707578509567982079e-03
-1.022826844465865755e-02
-1.274749646808986427e-02
-1.526209260039076282e-02
-1.776888085259638317e-02
-2.026469327894163050e-02
-2.274638414938354170e-02
-2.521084397082273137e-02
-2.765501344459686539e-02
-3.007589714582761115e-02
-3.247057680043290845e-02
-3.483622417095991186e-02
-3.717011336118713344e-02
-3.946963242649215164e-02
-4.173229441103951803e-02
-4.395574743383161287e-02
-4.613778392524341132e-02
-4.827634887048137813e-02
-5.036954702802975276e-02
-5.241564902505204543e-02
-5.441309615850350306e-02
-5.636050409997413191e-02
-5.825666527285491142e-02
-6.010054989619890292e-02
-6.189130575713456400e-02
-6.362825663310392454e-02
-6.531089938799503058e-02
-6.693889968859041695e-02
-6.851208663417175659e-02
-7.003044602162010468e-02
-7.149411249954010228e-02
-7.290336063939295563e-02
-7.425859498468317943e-02
-7.556033929416201833e-02
-7.680922495923894755e-02
-7.800597870734300721e-02
-7.915140990358685014e-02
-8.024639743675425485e-02
-8.129187633256476642e-02
-8.228882436023023106e-02
-8.323824869013098093e-02
-8.414117275846008659e-02
-8.499862353893120059e-02
-8.581161936757460140e-02
-8.658115840976030042e-02
-8.730820798261454407e-02
-8.799369471913587315e-02
-8.863849588053956952e-02
-8.924343182523310214e-02
-8.980925972724658479e-02
-9.033666855484871749e-02
-9.082627544562080213e-02
-9.127862355218609169e-02
-9.169418120009747986e-02
-9.207334252682551623e-02
-9.241642953137398087e-02
-9.272369545140776714e-02
-9.299532946075671214e-02
-9.323146244316793396e-02
-9.343217403248949005e-02
-9.359750052097545736e-02
-9.372744373159204445e-02
-9.382198049429187059e-02
-9.388107270859288866e-02
-9.390467788995715548e-02
-9.389275979092230606e-02
-9.384529921001384667e-02
-9.376230465291066074e-02
-9.364382260113247869e-02
-9.348994739690498490e-02
-9.330083048378486066e-02
-9.307668885659348135e-02
-9.281781260599575312e-02
-9.252457144303195824e-02
-9.219741993871463648e-02
-9.183690165244108583e-02
-9.144365187306408016e-02
-9.101839894053738445e-02
-9.056196422192538953e-02
-9.007526055084548455e-02
-8.955928941073458549e-02
-8.901513661755723616e-02
-8.844396672737005194e-02
-8.784701616329868012e-02
-8.722558520756919231e-02
-8.658102893997463023e-02
-8.591474730502492163e-02
-8.522817439835492226e-02
-8.452276712160691763e-02
-8.379999351809601371e-02
-8.306132068923367806e-02
-8.230820278411475621e-02
-8.154206902585860173e-02
-8.076431202062134274e-02
-7.997627656730710299e-02
-7.917924907888768127e-02
-7.837444779928712246e-02
-7.756301396744096077e-02
-7.674600407209317132e-02
-7.592438328338979581e-02
-7.509902021661128690e-02
-7.427068298472742913e-02
-7.344003670283590079e-02
-7.260764247642835512e-02
-7.177395788322545045e-02
-7.093933888876084726e-02
-7.010404318223338593e-02
-6.926823483993478636e-02
-6.843199027341588525e-02
-6.759530540629027362e-02
-6.675810388532581185e-02
-6.592024620405667612e-02
-6.508153963182697344e-02
-6.424174874710530947e-02
-6.340060633424027259e-02
-6.255782459101565107e-02
-6.171310642173252065e-02
-6.086615658749022773e-02
-6.001669260635009856e-02
-5.916445510573854760e-02
-5.830921751992063085e-02
-5.745079507594853113e-02
-5.658905277417959623e-02
-5.572391228561508758e-02
-5.485535766194708091e-02
-5.398343972948514702e-02
-5.310827916598324927e-02
-5.223006819198677819e-02
-5.134907082573051534e-02
-5.046562165501784769e-02
-4.958012323790307596e-02
-4.869304221069871430e-02
-4.780490401298636421e-02
-4.691628649920987632e-02
-4.602781243422957719e-02
-4.514014103869794237e-02
-4.425395873259821422e-02
-4.336996928420936565e-02
-4.248888342818868402e-02
-4.161140828624153298e-02
-4.073823665360901125e-02
-3.987003636959779440e-02
-3.900743997730422852e-02
-3.815103491320619850e-02
-3.730135428926901336e-02
-3.645886854520133391e-02
-3.562397804839118054e-02
-3.479700680655369721e-02
-3.397819744401570086e-02
-3.316770754155824730e-02
-3.236560738438681861e-02
-3.157187913660542550e-02
-3.078641762796781312e-02
-3.000903259676937843e-02
-2.923945243781945341e-02
-2.847732945448823438e-02
-2.772224647427163138e-02
-2.697372473307698901e-02
-2.623123300264851993e-02
-2.549419770742827884e-02
-2.476201394310343848e-02
-2.403405722563216329e-02
-2.330969573036952708e-02
-2.258830296304118260e-02
-2.186927044216419730e-02
-2.115202037072978075e-02
-2.043601805950210140e-02
-1.972078373252502889e-02
-1.900590375079410158e-02
-1.829104091394599674e-02
-1.757594364766177850e-02
-1.686045404058535840e-02
-1.614451444276614189e-02
-1.542817256603613331e-02
-1.471158500831883618e-02
-1.399501903988799485e-02
-1.327885270644701271e-02
-1.256357318784684374e-02
-1.184977331195729601e-02
-1.113814644043032223e-02
-1.042947961801804317e-02
-9.724645172789501968e-03
-9.024590842837989374e-03
-8.330328565272198532e-03
-7.642922140066316962e-03
-6.963473846125077527e-03
-6.293110292369124767e-03
-5.632967684915839331e-03
-4.984176751583880953e-03
-4.347847517363348513e-03
-3.725054175722260306e-03
-3.116820314361747318e-03
-2.524104696899567239e-03
-1.947787826094583884e-03
-1.388659534884622475e-03
-8.474078100853120899e-04
-3.246089502946071579e-04
1.792807288685122351e-04
6.639314440474972144e-04
1.129144798568567937e-03
1.574856654240918514e-03
2.001138051182699967e-03
2.408194269765893437e-03
2.796361843196689800e-03
3.166103631966643919e-03
3.518002088399486190e-03
3.852750721487300297e-03
4.171143865413353378e-03
4.474065051493711365e-03
4.762473958489004885e-03
5.037392274704861200e-03
5.299888643249725181e-03
5.551062841454945489e-03
5.792029646132575149e-03
6.023902400067024897e-03
6.247776641010354196e-03
6.464713993582126700e-03
6.675726730094528119e-03
6.881763065661896869e-03
7.083693472599432960e-03
7.282298285390099123e-03
7.478256701626714159e-03
7.672137433688586659e-03
7.864391129384513610e-03
8.055344721162351063e-03
8.245197702896545772e-03
8.434020528381221127e-03
8.621755126112162423e-03
8.808217415982796950e-03
8.993101967119844151e-03
9.175988675050508053e-03
9.356351277812310213e-03
9.533567710741522663e-03
9.706932035147438492e-03
9.875667936882451259e-03
1.003894330482481452e-02
1.019588592770278961e-02
1.034559997867271972e-02
1.048718306410106015e-02
1.061974346526864572e-02
1.074241744631848974e-02
1.085438630570802719e-02
1.095489284972253965e-02
1.104325710057615061e-02
1.111889101553121748e-02
1.118131185389258271e-02
1.123015418961193120e-02
1.126518016580774391e-02
1.128628790107917210e-02
1.129351793791503328e-02
1.128705767431740711e-02
1.126724353380456276e-02
1.123456095725716350e-02
1.118964217475170407e-02
1.113326173354050111e-02
1.106632993201778908e-02
1.098988416167937313e-02
1.090507830146793602e-02
1.081317021568605798e-02
1.071550774810759062e-02
1.061351323149145078e-02
1.050866677713231147e-02
1.040248856134950127e-02
1.029652033483985894e-02
1.019230659743999672e-02
1.009137546326513424e-02
9.995219625861620841e-03
9.905277592372899523e-03
9.822915644374621141e-03
9.749410576957153948e-03
9.685933548412356195e-03
9.633535230722280185e-03
9.593132487488805274e-03
9.565496785391808601e-03
9.551244497149028942e-03
9.550829140019005334e-03
9.564535677677118292e-03
9.592477036165249910e-03
9.634592872497417179e-03
9.690650440606645225e-03
9.760247645910663170e-03
9.842818262614273783e-03
9.937639202629640345e-03
1.004383961042910368e-02
1.016041180433458271e-02
1.028622376359175639e-02
1.042003312068790107e-02
1.056050233255596826e-02
1.070621483187372304e-02
1.085569196753475088e-02
1.100741049935225792e-02
1.115982028358014806e-02
1.131136214733471056e-02
1.146048547707378788e-02
1.160566537093763589e-02
1.174541920001236084e-02
1.187832225512293338e-02
1.200302233924701104e-02
1.211825320794375320e-02
1.222284661271193749e-02
1.231574278566890772e-02
1.239599930351302851e-02
1.246279835689774462e-02
1.251545223660608698e-02
1.255340701426353386e-02
1.257624451031176017e-02
1.258368245021055341e-02
1.257557303136101930e-02
1.255189984140967809e-02
1.251277327178349288e-02
1.245842450662427818e-02
1.238919822797707182e-02
1.230554429732160643e-02
1.220800848280191933e-02
1.209722229655035147e-02
1.197389237343714392e-02
1.183878930214236208e-02
1.169273632950012382e-02
1.153659790021824803e-02
1.137126838366620332e-02
1.119766106109587600e-02
1.101669746733384934e-02
1.082929738787360985e-02
1.063636948465834613e-02
1.043880273372110000e-02
1.023745875885515369e-02
1.003316515561544775e-02
9.826709757485318705e-03
9.618835965650314110e-03
9.410239127811432375e-03
9.201564030502998315e-03
8.993403254505609803e-03
8.786296595954255426e-03
8.580731454536985603e-03
8.377143914300742844e-03
8.175920741762116722e-03
7.977401931909367666e-03
7.781883826542446321e-03
7.589622659170672768e-03
7.400838470943444693e-03
7.215719156263725696e-03
7.034424636316649604e-03
6.857090985925568330e-03
6.683834489726093488e-03
6.514755428501591526e-03
6.349941547732983541e-03
6.189471106776516657e-03
6.033415541565475063e-03
5.881841537660619651e-03
5.734812587683062526e-03
5.592389941402757525e-03
5.454633058067459225e-03
5.321599394440213772e-03
5.193343695842574971e-03
5.069916723166246336e-03
4.951363548697505258e-03
4.837721417895641390e-03
4.729017320542758425e-03
4.625265227017077811e-03
4.526463205340673819e-03
4.432590443059036649e-03
4.343604314241928527e-03
4.259437479160147789e-03
4.179995309897733061e-03
4.105153492888742248e-03
4.034756074840363527e-03
3.968613920418482925e-03
3.906503743367853790e-03
3.848167649242688684e-03
3.793313382772760516e-03
3.741615200065677351e-03
3.692715475585687211e-03
3.646226932017412273e-03
3.601735638596641718e-03
3.558804585821785226e-03
3.516977916861250240e-03
3.475785720925346229e-03
3.434749291557680738e-03
3.393386929941458012e-03
3.351219991427352007e-03
3.307779174635370675e-03
3.262610978833035448e-03
3.215284163138240007e-03
3.165396145128118299e-03
3.112579135510384898e-03
3.056506015980921514e-03
2.996895803964979513e-03
2.933518533889970838e-03
2.866199479147648038e-03
2.794822679103904813e-03
2.719333628607718389e-03
2.639741081819897348e-03
2.556117968873891817e-03
2.468601267932757533e-03
2.377390940882879479e-03
2.282747815204705724e-03
2.184990453665026488e-03
2.084491094502022041e-03
1.981670614652656509e-03
1.876992705308875610e-03
1.770957184252487486e-03
1.664092634543199931e-03
1.556948423508035338e-03
1.450086274289048675e-03
1.344071462147699517e-03
1.239463772598316162e-03
1.136808388187451587e-03
1.036626878709080019e-03
9.394083541933549589e-04
8.456009941973469069e-04
7.556040354103904380e-04
6.697604468053353901e-04
5.883503714464764041e-04
5.115853945080246117e-04
4.396038185505006545e-04
3.724669730332640506e-04
3.101567481449314396e-04
2.525742710792840042e-04
1.995398898955192681e-04
1.507944071760451254e-04
1.060016187152689772e-04
6.475205974763707404e-05
2.656802172578040568e-05
-9.090309090306500318e-06
-4.281752409212731514e-05
-7.525467455802958676e-05
-1.070801536362597453e-04
-1.389996872748716183e-04
-1.717357589361012552e-04
-2.060165051874786291e-04
-2.425642739939653375e-04
-2.820840592197299684e-04
-3.252518236637663490e-04
-3.727030637026001601e-04
-4.250216994302451483e-04
-4.827294416579470775e-04
-5.462758809521377733e-04
-6.160293057800859647e-04
-6.922684789864895841e-04
-7.751755775425047236e-04
-8.648302834382987905e-04
-9.612052141203724981e-04
-1.064162701788575176e-03
-1.173453038390482499e-03
-1.288714245579494723e-03
-1.409473361986239874e-03
-1.535149238052145246e-03
-1.665056868550720322e-03
-1.798413182678281581e-03
-1.934344270308279833e-03
-2.071893969869733568e-03
-2.210033645300526692e-03
-2.347673146030362056e-03
-2.483672746271288825e-03
-2.616855936057050844e-03
-2.746022929354093121e-03
-2.869964754066064386e-03
-2.987477603405006184e-03
-3.097377477247224495e-03
-3.198514817682251293e-03
-3.289788963016319553e-03
-3.370162192459552532e-03
-3.438673257210779315e-03
-3.494450232222486106e-03
-3.536722521510223850e-03
-3.564831808322500156e-03
-3.578241813478243334e-03
-3.576546802851277105e-03
-3.559478688533579144e-03
-3.526912675544047453e-03
-3.478871262436068670e-03
-3.415526652930888068e-03
-3.337201533540889130e-03
-3.244368129163888431e-03
-3.137645614476284629e-03
-3.017795804243293255e-03
-2.885717253823665961e-03
-2.742437817102268572e-03
-2.589105718661792802e-03
-2.426979256723199672e-03
-2.257415191693663576e-03
-2.081856012513833270e-03
-1.901816221695944121e-03
-1.718867664610137114e-03
-1.534624206696242211e-03
-1.350725868217911730e-03
-1.168822606201651727e-03
-9.905578660769304242e-04
-8.175521425019222988e-04
-6.513866979116603216e-04
-4.935876288133941251e-04
-3.456103449272857281e-04
-2.088247870106058057e-04
-8.450142106894067008e-05
2.620176463912601199e-05
1.222511802167364236e-04
2.027483197873483395e-04
2.669391192385141905e-04
3.142219376611731516e-04
3.441540069069443618e-04
3.564562806331937161e-04
3.510166499745865244e-04
3.278915470557483797e-04
2.873058722220384791e-04
2.296512478787121451e-04
1.554826779886376979e-04
6.551350023229684995e-05
-3.939111174151871007e-05
-1.582221964549878203e-04
-2.898364163133812510e-04
-4.329668249247228384e-04
-5.862347880174196939e-04
-7.481630181155471881e-04
-9.171895334199754030e-04
-1.091682461057736329e-03
-1.269955481195290774e-03
-1.450283761863231918e-03
-1.630920277475527043e-03
-1.810112303113882741e-03
-1.986117986339510418e-03
-2.157222721473561321e-03
-2.321755263117811392e-03
-2.478103370663841797e-03
-2.624728889342121865e-03
-2.760182072506541483e-03
-2.883114982265393145e-03
-2.992293885100074866e-03
-3.086610534944926078e-03
-3.165092169636913016e-03
-3.226910210515366792e-03
-3.271387479284375809e-03
-3.298003980919757185e-03
-3.306401068053462650e-03
-3.296384103103720733e-03
-3.267923406843032189e-03
-3.221153694226124541e-03
-3.156371811881962097e-03
-3.074032999021742915e-03
-2.974745478572832398e-03
-2.859263637012833450e-03
-2.728479823440599795e-03
-2.583414771475256097e-03
-2.425206852283401902e-03
-2.255100213371339160e-03
-2.074431930697048787e-03
-1.884618366439289516e-03
-1.687140710887888220e-03
-1.483530076635412040e-03
-1.275352170905200361e-03
-1.064191803255173019e-03
-8.516372964703383284e-04
-6.392650086679687671e-04
-4.286241574070144057e-04
-2.212220145705432622e-04
-1.850972604952196197e-05
1.781310674623204447e-04
3.674007416549624730e-04
5.480932302207063619e-04
7.191063604313822867e-04
8.794509923913112082e-04
1.028258765885053504e-03
1.164788464421150560e-03
1.288430814063868529e-03
1.398711899331022595e-03
1.495294948979638888e-03
1.577980535198066298e-03
1.646705264323764743e-03
1.701538884584385177e-03
1.742679998223341242e-03
1.770450299720372237e-03
1.785287513840284109e-03
1.787737133011452727e-03
1.778442997903936437e-03
1.758136902038579018e-03
1.727627356127742339e-03
1.687787593384543813e-03
1.639543154999199923e-03
1.583859010618660426e-03
1.521726452548872880e-03
1.454149964790909773e-03
1.382134262712805426e-03
1.306671503866992535e-03
1.228729111943409639e-03
1.149238119603053282e-03
1.069082256910435262e-03
9.890880260956982483e-04
9.100156697209864799e-04
8.325514111019871469e-04
7.573008143961999219e-04
6.847834692282079444e-04
6.154290553474688150e-04
5.495748212010026458e-04
4.874644027711229387e-04
4.292481655440091859e-04
3.749848730772792284e-04
3.246447247300510001e-04
2.781137036790063658e-04
2.351991522069362729e-04
1.956365117799817375e-04
1.590970081632337590e-04
1.251963257679133761e-04
9.350393153390481173e-05
6.355313060866028655e-05
3.485148794656096628e-05
6.891604014448602796e-06
-2.083798336568054514e-05
-4.884193379868409756e-05
-7.760747959314643696e-05
-1.075941461682447986e-04
-1.392239645174564683e-04
-1.728723503387231139e-04
-2.088598479742639544e-04
-2.474447279329186253e-04
-2.888166816760076409e-04
-3.330917153049236233e-04
-3.803081523785087825e-04
-4.304240281941492698e-04
-4.833157531649250700e-04
-5.387781439415859292e-04
-5.965257986283484422e-04
-6.561957949220679912e-04
-7.173517452222405487e-04
-7.794890378949755321e-04
-8.420412679391490280e-04
-9.043877121967718122e-04
-9.658617980435090303e-04
-1.025760373394149277e-03
-1.083353714254532913e-03
-1.137896105492839944e-03
-1.188636727874254001e-03
-1.234830897814658034e-03
-1.275751288921539786e-03
-1.310699116419968306e-03
-1.339015072377212987e-03
-1.360089768269766904e-03
-1.373373662125041859e-03
-1.378386275661838082e-03
-1.374724510470188383e-03
-1.362069982030250344e-03
-1.340195292609267516e-03
-1.308969088952008407e-03
-1.268359870549635570e-03
-1.218438444331191271e-03
-1.159379025612338084e-03
-1.091458948513474589e-03
-1.015057013234809498e-03
-9.306504713775521059e-04
-8.388106573856428296e-04
-7.401973645853510055e-04
-6.355520201248070428e-04
-5.256897568971573374e-04
-4.114905173491323169e-04
-2.938892616608938303e-04
-1.738654163010152970e-04
-5.243174303876734182e-05
6.937716682626239573e-05
1.905168006875961170e-04
3.099447287487310508e-04
4.266325669151825269e-04
5.395777079873984852e-04
6.478147716291236900e-04
7.504264923973136790e-04
8.465540393040194705e-04
9.354064985343256465e-04
1.016269523222981851e-03
1.088512979469283921e-03
1.151597416303424323e-03
1.205079513974214060e-03
1.248616261885039614e-03
1.281967804220111471e-03
1.304999039729366544e-03
1.317679943869419024e-03
1.320084566321718918e-03
1.312388832393760092e-03
1.294867138575048898e-03
1.267887717371974851e-03
1.231907012704705961e-03
1.187463102656462037e-03
1.135168161156370351e-03
1.075700248710116051e-03
1.009794386749421607e-03
9.382332099074218619e-04
8.618371739399275202e-04
7.814545774243160468e-04
6.979514198667951261e-04
6.122013682488814095e-04
5.250758170852292935e-04
4.374342918352376163e-04
3.501152640036312574e-04
2.639274212348457875e-04
1.796416922068628163e-04
9.798385626266674158e-05
1.962805723961356415e-05
-5.480884929656194577e-05
-1.247721088439525860e-04
-1.897728198336306961e-04
-2.493907491172132982e-04
-3.032761977868977553e-04
-3.511508838115670063e-04
-3.928077882550266896e-04
-4.281101625520304221e-04
-4.569896168476518809e-04
-4.794434225945585462e-04
-4.955310386213927689e-04
-5.053699729856539393e-04
-5.091310205993691222e-04
-5.070330180830871607e-04
-4.993371595236840640e-04
-4.863410840139579519e-04
-4.683726947687869837e-04
-4.457838995766751381e-04
-4.189443088842048678e-04
-3.882350711444981285e-04
-3.540428664591904165e-04
-3.167541347440494515e-04
-2.767497007385395303e-04
-2.343998208016278813e-04
-1.900596330422264584e-04
-1.440651920098978873e-04
-9.673008113447175782e-05
-4.834261354357922226e-05
8.363212004735715408e-07
5.057480391165458552e-05
1.006707947730652551e-04
1.509523635488490526e-04
2.012774022900639228e-04
2.515326650485340417e-04
3.016323811243464123e-04
3.515163247120463817e-04
4.011474669595419158e-04
4.505092173873326690e-04
4.996023895623068157e-04
5.484419678737032650e-04
5.970536571226138685e-04
6.454703263255322275e-04
6.937284788378653101e-04
7.418647685214043493e-04
7.899125719214975016e-04
8.378988140366711935e-04
8.858409808572983123e-04
9.337444730502840809e-04
9.816003123449415849e-04
1.029383185733310493e-03
1.077049967285197748e-03
1.124538678914863794e-03
1.171767940597998785e-03
1.218636903363060509e-03
1.265025618935238265e-03
1.310795921547848897e-03
1.355792781111762706e-03
1.399846083270804478e-03
1.442772823621847524e-03
1.484379629869190522e-03
1.524465663935353115e-03
1.562825759203614797e-03
1.599253794542105636e-03
1.633546226865255574e-03
1.665505724426640053e-03
1.694944839563098608e-03
1.721689668447024067e-03
1.745583341806342765e-03
1.766489444157774138e-03
1.784295178637756042e-03
1.798914232373838252e-03
1.810289365333935929e-03
1.818394574376317862e-03
1.823236827689166768e-03
1.824857379203442126e-03
1.823332525930677255e-03
1.818773902219102036e-03
1.811328206303819367e-03
1.801176382778455452e-03
1.788532268707991200e-03
1.773640718601147276e-03
1.756775183668240039e-03
1.738234780957156542e-03
1.718340970351094239e-03
1.697433742014096362e-03
1.675867468174900912e-03
1.654006380257098995e-03
1.632219809151339539e-03
1.610877241946169621e-03
1.590343156824221716e-03
1.570971884716634804e-03
1.553102414675599629e-03
1.537053280271031891e-03
1.523117614666962775e-03
1.511558386850853737e-03
1.502603963385344080e-03
1.496444021384385134e-03
1.493225864685799676e-03
1.493051201882271114e-03
1.495973476715939561e-03
1.501995799444755947e-03
1.511069430778679305e-03
1.523092951608999695e-03
1.537912136211317402e-03
1.555320459811428959e-03
1.575060308867320047e-03
1.596824894763190133e-03
1.620260836858123483e-03
1.644971436671648557e-03
1.670520528215504964e-03
1.696436938880236528e-03
1.722219492053658979e-03
1.747342512287588037e-03
1.771261717273150266e-03
1.793420482752454978e-03
1.813256422583466553e-03
1.830208125220001087e-03
1.843722014107933684e-03
1.853259264233417811e-03
1.858302671803253262e-03
1.858363371683758453e-03
1.852987307430159622e-03
1.841761409237564545e-03
1.824319418079176991e-03
1.800347249713121160e-03
1.769587721321014837e-03
1.731844728078744174e-03
1.686986784229886020e-03
1.634949780220522429e-03
1.575739016251026395e-03
1.509430433891597320e-03
1.436171063981163442e-03
1.356178558709659901e-03
1.269739988022455498e-03
1.177209756050378794e-03
1.079006713148652303e-03
9.756105323218639078e-04
8.675573267505834333e-04
7.554345531577829568e-04
6.398753181037446615e-04
5.215521329811436714e-04
4.011701762293530061e-04
2.794601592325506858e-04
1.571709338556863715e-04
3.506178349387707174e-05
-8.610532279812217890e-05
-2.055735752471938920e-04
-3.225990313982485497e-04
-4.364582068973069323e-04
-5.464553461116313784e-04
-6.519293572070090741e-04
-7.522603224039502547e-04
-8.468754372348278507e-04
-9.352543514487315001e-04
-1.016933868902641491e-03
-1.091511915368003705e-03
-1.158650706670670116e-03
-1.218079102732617285e-03
-1.269594164601007928e-03
-1.313061814242405837e-03
-1.348416653860529373e-03
-1.375660941960165154e-03
-1.394862764547343589e-03
-1.406153418078717743e-03
-1.409724004966911651e-03
-1.405821386024057361e-03
-1.394743469965829645e-03
-1.376833987617903090e-03
-1.352476791564118748e-03
-1.322089774269193498e-03
-1.286118456217851197e-03
-1.245029411510753135e-03
-1.199303602341232969e-03
-1.149429754753864864e-03
-1.095897706352900623e-03
-1.039192033544745521e-03
-9.797860096686877938e-04
-9.181358722010003791e-04
-8.546755846804919001e-04
-7.898121286725300755e-04
-7.239213376903981968e-04
-6.573444371363411495e-04
-5.903852604698112128e-04
-5.233081939755359355e-04
-4.563368144440720282e-04
-3.896533513164666994e-04
-3.233988909232770703e-04
-2.576742597979901411e-04
-1.925416001809769509e-04
-1.280266578295530884e-04
-6.412168500241830480e-05
-7.888093003616525049e-07
6.203608553842677878e-05
1.244390532054375658e-04
1.865234654642836424e-04
2.484051794066876847e-04
3.102075894079796780e-04
3.720565910807781306e-04
4.340756555913372603e-04
4.963810667436982993e-04
5.590773192772023874e-04
6.222529035536797978e-04
6.859765005421866171e-04
7.502936412230692921e-04
8.152239477662258631e-04
8.807589548373614529e-04
9.468604928162585024e-04
1.013459843892941829e-03
1.080457548983096774e-03
1.147723937235379599e-03
1.215100272349553491e-03
1.282400615865850885e-03
1.349414362904197747e-03
1.415909277066772871e-03
1.481635156377944258e-03
1.546327911012458948e-03
1.609713999283845587e-03
1.671515215508060336e-03
1.731453667703643663e-03
1.789256918351499366e-03
1.844663089868900808e-03
1.897425843902702169e-03
1.947319302584896682e-03
1.994142515654798338e-03
2.037723700156820073e-03
2.077923902279930641e-03
2.114640133176236194e-03
2.147807912605786355e-03
2.177403021240855059e-03
2.203442612552203739e-03
2.225985506681880249e-03
2.245131645378083476e-03
2.261020786916303690e-03
2.273830350203284462e-03
2.283772472005071632e-03
2.291090371650286468e-03
2.296053954396624387e-03
2.298954843492016873e-03
2.300100738874847391e-03
2.299809467004902946e-03
2.298402613935337201e-03
2.296198818805408621e-03
2.293507084191831209e-03
2.290619919115939856e-03
2.287806664497428737e-03
2.285307062515372963e-03
2.283325219681809314e-03
2.282024006307589985e-03
2.281520132912319594e-03
2.281879928987276974e-03
2.283115936888262774e-03
2.285184440010060505e-03
2.287983993716421593e-03
2.291354993424177776e-03
2.295080373085709585e-03
2.298887374894866779e-03
2.302450485951503586e-03
2.305395517448020643e-03
2.307304785728585966e-03
2.307723280546633907e-03
2.306165834117109795e-03
2.302125149639012904e-03
2.295080657985810926e-03
2.284507984372570726e-03
2.269888943158000771e-03
2.250721862007461303e-03
2.226532203619078880e-03
2.196883105726555284e-03
2.161385890375859455e-03
2.119710172854087724e-03
2.071593517605252541e-03
2.016850369961045025e-03
1.955380224029197589e-03
1.887174715456501695e-03
1.812323603177295669e-03
1.731019441403298335e-03
1.643560863338045441e-03
1.550354308013602135e-03
1.451914192717446714e-03
1.348861359693759830e-03
1.241919941466599741e-03
1.131912461762987331e-03
1.019753331112010185e-03
9.064406425478698393e-04
7.930464951202325155e-04
6.807057734422400320e-04
5.706036093240685622e-04
4.639616536263492649e-04
3.620233526610685333e-04
2.660382934147189704e-04
1.772459849697687257e-04
9.685918209004650730e-05
2.604703697835591045e-05
-3.408175575978725241e-05
-8.249553132062299862e-05
-1.182556473396777100e-04
-1.405317523162349978e-04
-1.486160302928374267e-04
-1.419361996481440500e-04
-1.200670959436050310e-04
-8.274059653402139581e-05
-2.985372933626046331e-05
3.852521000715767479e-05
1.221526028381974302e-04
2.206077316566392159e-04
3.332932539583114339e-04
4.594379805897300063e-04
5.981019508501893549e-04
7.481839232726518289e-04
9.084310070101379300e-04
1.077450536576693863e-03
1.253723888397190655e-03
1.435622233102421159e-03
1.621424038907000233e-03
1.809333999787294612e-03
1.997503197415039476e-03
2.184050311344049380e-03
2.367083535449690523e-03
2.544722927836736391e-03
2.715122935287815880e-03
2.876494692862920522e-03
3.027127920566312098e-03
3.165412018980360512e-03
3.289856141817231860e-03
3.399107887788041168e-03
3.491970421423582285e-03
3.567417678123412268e-03
3.624607543843141270e-03
3.662892712107750862e-03
3.681829124722047104e-03
3.681181840316693783e-03
3.660928251929627692e-03
3.621258482088242619e-03
3.562573051793751448e-03
3.485477836529649216e-03
3.390776304322349732e-03
3.279459148402077279e-03
3.152691477601298354e-03
3.011797670741603403e-03
2.858244173442498447e-03
2.693620328132830238e-03
2.519617673040478421e-03
2.338007860913448623e-03
2.150619536750565750e-03
1.959314603247679001e-03
1.765963962310608537e-03
1.572423263248219974e-03
1.380508963544728506e-03
1.191974976353624193e-03
1.008490309899439568e-03
8.316179127108198899e-04
6.627950581228533042e-04
5.033156577866816249e-04
3.543146050775856340e-04
2.167543840159372051e-04
9.141421216089897276e-05
-2.111825839485155648e-05
-1.204523993375016021e-04
-2.063973713473528880e-04
-2.789619838197518356e-04
-3.383517728838986182e-04
-3.849633150948306463e-04
-4.193758331968356246e-04
-4.423403421825520924e-04
-4.547663231159155910e-04
-4.577064202153802858e-04
-4.523390704624562437e-04
-4.399495765409779081e-04
-4.219097666168430201e-04
-3.996566936190598901e-04
-3.746705955671396208e-04
-3.484524668879971396e-04
-3.225015980920517902e-04
-2.982934102205682197e-04
-2.772579723296668603e-04
-2.607594185007682214e-04
-2.500766722231546999e-04
-2.463856819960303485e-04
-2.507435002803975609e-04
-2.640743496863786417e-04
-2.871579186273619656e-04
-3.206200749920064502e-04
-3.649260706807471257e-04
-4.203763547973625794e-04
-4.871049643936201687e-04
-5.650805549688872826e-04
-6.541100118564155451e-04
-7.538444907218380979e-04
-8.637878626805268155e-04
-9.833073021334635348e-04
-1.111645855080038540e-03
-1.247936799483251357e-03
-1.391219463337152896e-03
-1.540456242827587191e-03
-1.694550498262387041e-03
-1.852365069359089567e-03
-2.012741046427321372e-03
-2.174516479402123937e-03
-2.336544662536045418e-03
-2.497711816891328568e-03
-2.656953672268830540e-03
-2.813270880846570256e-03
-2.965742821847660183e-03
-3.113539675897454562e-03
-3.255932550678037468e-03
-3.392301492264372838e-03
-3.522141361055052076e-03
-3.645065326817509971e-03
-3.760806086654666733e-03
-3.869214675212798160e-03
-3.970257073702521122e-03
-4.064008624147869703e-03
-4.150646409374156125e-03
-4.230439793480118317e-03
-4.303739223719293960e-03
-4.370963669016925471e-03
-4.432586875340420451e-03
-4.489122772566953024e-03
-4.541110287701879793e-03
-4.589097961325525575e-03
-4.633628574695858489e-03
-4.675224224889471154e-03
-4.714372071541120778e-03
-4.751511142637166764e-03
-4.787020376620904939e-03
-4.821208274113000965e-03
-4.854304307456099032e-03
-4.886452282977640782e-03
-4.917705952818863385e-03
-4.948026762813657192e-03
-4.977283984609046086e-03
-5.005257217808299977e-03
-5.031641177824211844e-03
-5.056052811328059539e-03
-5.078040508105925201e-03
-5.097095354900451313e-03
-5.112664154918853190e-03
-5.124163980326309001e-03
-5.130998011789073519e-03
-5.132572315502130673e-03
-5.128313241473756584e-03
-5.117685068661002520e-03
-5.100207604158905027e-03
-5.075473220245920944e-03
-5.043163084563398631e-03
-5.003062092782870757e-03
-4.955072343232474162e-03
-4.899224601515934918e-03
-4.835687583465474691e-03
-4.764774777918889294e-03
-4.686948526212528221e-03
-4.602821207322624342e-03
-4.513153435880080944e-03
-4.418849092489027588e-03
-4.320947389687655738e-03
-4.220611725859754228e-03
-4.119115622644488502e-03
-4.017825791737230506e-03
-3.918182641239327350e-03
-3.821678385057881641e-03
-3.729833186031065659e-03
-3.644169598635103782e-03
-3.566185784115064473e-03
-3.497327889071525763e-03
-3.438962098524595435e-03
-3.392346811824523915e-03
-3.358605474064893862e-03
-3.338700576675870252e-03
-3.333409247463022581e-03
-3.343300989090788010e-03
-3.368717988480325609e-03
-3.409758445853575560e-03
-3.466263309488613800e-03
-3.537806641551057181e-03
