2.498347050377102275e-04
4.393295954377062699e-04
6.339193092783228277e-04
8.326604283857420678e-04
1.034527937134273540e-03
1.238423049607262306e-03
1.443182206184449390e-03
1.647587224091335168e-03
1.850376340181930515e-03
2.050256180213477688e-03
2.245914443715124435e-03
2.436033015442442239e-03
2.619301526120330556e-03
2.794430952865346179e-03
2.960167281705903056e-03
3.115304977221799304e-03
3.258699976203216237e-03
3.389282208772152749e-03
3.506067347416447905e-03
3.608167666940183867e-03
3.694801764181213262e-03
3.765303165503859108e-03
3.819127629626115419e-03
3.855859004928781017e-03
3.875213636141390614e-03
3.877043177552633342e-03
3.861335834413601609e-03
3.828216070581909412e-03
3.777942653613307854e-03
3.710905167338239205e-03
3.627619005546885763e-03
3.528718976008585282e-03
3.414951501379267368e-03
3.287165637724078285e-03
3.146303040213770282e-03
2.993386829385309787e-03
2.829509796458260038e-03
2.655821921858309790e-03
2.473517434521438959e-03
2.283821671103433357e-03
2.087977712175849519e-03
1.887233164658364947e-03
1.682827205198960709e-03
1.475978068649484937e-03
1.267871126180055395e-03
1.059647681036052138e-03
8.523946651897624550e-04
6.471353554855105656e-04
4.448211971000205788e-04
2.463248953219013835e-04
5.243472974146235274e-05
-1.361497793015934040e-04
-3.188208462311585382e-04
-4.950639610838355759e-04
-6.644581873679511648e-04
-8.266750036253590417e-04
-9.814759033088900266e-04
-1.128708831130764657e-03
-1.268303464404355171e-03
-1.400265447409420423e-03
-1.524669732680148521e-03
-1.641653167042780078e-03
-1.751406526018364773e-03
-1.854165944156789276e-03
-1.950204022110875934e-03
-2.039820853216686020e-03
-2.123334975129735364e-03
-2.201074465039837280e-03
-2.273368323278342901e-03
-2.340538285248169349e-03
-2.402891245543268758e-03
-2.460712290657811503e-03
-2.514258606074437283e-03
-2.563754307507983173e-03
-2.609386166795112007e-03
-2.651300423915464461e-03
-2.689600708707528751e-03
-2.724347011338589582e-03
-2.755555830850062171e-03
-2.783201391124227528e-03
-2.807217948327069088e-03
-2.827503162043215959e-03
-2.843922347425306002e-03
-2.856313627527660992e-03
-2.864493911155054692e-03
-2.868265478906739403e-03
-2.867423119331164762e-03
-2.861761657784946730e-03
-2.851083799554059595e-03
-2.835208081310482305e-03
-2.813976697663668741e-03
-2.787263249178575236e-03
-2.754980086765560204e-03
-2.717085251840005173e-03
-2.673588819046953270e-03
-2.624558417082851255e-03
-2.570123934984411187e-03
-2.510481259665424316e-03
-2.445894991043603625e-03
-2.376699975435318801e-03
-2.303301685238441730e-03
-2.226175383828004044e-03
-2.145863987328589136e-03
-2.062974780169460690e-03
-1.978174840629818871e-03
-1.892185289530895140e-03
-1.805774439468487867e-03
-1.719749867860041227e-03
-1.634949574138392335e-03
-1.552232311550506925e-03
-1.472467168908335108e-03
-1.396522676062389966e-03
-1.325255411020627916e-03
-1.259498443074428447e-03
-1.200049671318013239e-03
-1.147660316687102973e-03
-1.103023635255651969e-03
-1.066764109197100791e-03
-1.039427360804120190e-03
-1.021470847130827959e-03
-1.013255478423733588e-03
-1.015038451210916728e-03
-1.026967299747824375e-03
-1.049075386349479977e-03
-1.081278832071129632e-03
-1.123375085170866912e-03
-1.175043104065071845e-03
-1.235845272631836550e-03
-1.305230995257860389e-03
-1.382541976773513570e-03
-1.467019254552683581e-03
-1.557811769643204078e-03
-1.653986503262743196e-03
-1.754540047031862091e-03
-1.858411485257678575e-03
-1.964496388309415476e-03
-2.071661818872006042e-03
-2.178762080849354875e-03
-2.284655045914043420e-03
-2.388218879401860471e-03
-2.488368836410134646e-03
-2.584073950145049543e-03
-2.674373323075501969e-03
-2.758391867843064567e-03
-2.835355087204426312e-03
-2.904602803753096683e-03
-2.965601562030854149e-03
-3.017955454062712026e-03
-3.061415172930541037e-03
-3.095885151261253999e-03
-3.121428602633031027e-03
-3.138270312284531429e-03
-3.146797090622441631e-03
-3.147555836202072660e-03
-3.141249068378839087e-03
-3.128727997335390473e-03
-3.110983259149818683e-03
-3.089133186613584377e-03
-3.064409836346191664e-03
-3.038142854661714850e-03
-3.011741383170790307e-03
-2.986674173553689575e-03
-2.964448194360153142e-03
-2.946585951558818549e-03
-2.934601829318162543e-03
-2.929977730734989287e-03
-2.934138421229335898e-03
-2.948426803407349847e-03
-2.974079614822294770e-03
-3.012203785316793555e-03
-3.063753885994786874e-03
-3.129511013584452325e-03
-3.210063411088178234e-03
-3.305789191800156436e-03
-3.416841400743824732e-03
-3.543135770560428607e-03
-3.684341403243541688e-03
-3.839874519922964989e-03
-4.008895542642297583e-03
-4.190309621029768110e-03
-4.382770543376381459e-03
-4.584688303056650045e-03
-4.794240130299404039e-03
-5.009384966431045839e-03
-5.227881290295000906e-03
-5.447308084541404791e-03
-5.665088726542855807e-03
-5.878517592371796351e-03
-6.084789067645431961e-03
-6.281028540774836501e-03
-6.464325034581347267e-03
-6.631765052957492960e-03
-6.780467269823857793e-03
-6.907617523949148401e-03
-7.010503617762538567e-03
-7.086549606535180734e-03
-7.133348965970912926e-03
-7.148696158470624167e-03
-7.130616260999535563e-03
-7.077392135053908219e-03
-6.987588794696571008e-03
-6.860074628532776900e-03
-6.694039050252034023e-03
-6.489006478960279711e-03
-6.244846283680102923e-03
-5.961778681999828182e-03
-5.640376358748926296e-03
-5.281561827801080876e-03
-4.886600557766874846e-03
-4.457090018300476075e-03
-3.994944643918663454e-03
-3.502377065224355959e-03
-2.981875880461268714e-03
-2.436180223021483255e-03
-1.868251496306181075e-03
-1.281242791360974291e-03
-6.784663009010117544e-04
-6.335926336987946796e-05
5.605510335257867004e-04
1.189682647877000595e-03
1.820434443396133292e-03
2.449220865299446027e-03
3.072505687432840367e-03
3.686834265603565995e-03
4.288863788437369609e-03
4.875391156648921018e-03
5.443378093771994962e-03
5.989973284761598848e-03
6.512531244905284643e-03
7.008627667617980776e-03
7.476071238341344856e-03
7.912911862018083553e-03
8.317445253473419037e-03
8.688213938735105460e-03
9.024004957458548609e-03
9.323844329495043631e-03
9.586988755665680484e-03
9.812914657643875826e-03
1.000130503538406747e-02
1.015203450395547533e-02
1.026515302039837478e-02
1.034086865347273385e-02
1.037952988761339269e-02
1.038160799488870370e-02
1.034767986423765565e-02
1.027841173155298431e-02
1.017454415326964068e-02
1.003687874439211820e-02
9.866266845691969850e-03
9.663600404792523774e-03
9.429805339666547798e-03
9.165837406186502431e-03
8.872680778166818286e-03
8.551349119069235130e-03
8.202889220269187973e-03
7.828387014002426841e-03
7.428975558607208221e-03
7.005844912899376539e-03
6.560253404363676488e-03
6.093539922564740995e-03
5.607136732960157390e-03
5.102582224254351671e-03
4.581533238936519488e-03
4.045776265567970452e-03
3.497237080207552667e-03
2.937988287822690045e-03
2.370254090037513060e-03
1.796412061606236007e-03
1.218991356006773321e-03
6.406670736999588254e-04
6.425044001427318964e-05
-5.073253261102790655e-04
-1.071023537445029827e-03
-1.623727071632651356e-03
-2.162265619993672741e-03
-2.683447011090323801e-03
-3.184092299997069199e-03
-3.661074240705537806e-03
-4.111358427307685616e-03
-4.532046605838632378e-03
-4.920421407663951550e-03
-5.273991615387533909e-03
-5.590537274337351904e-03
-5.868153518665012933e-03
-6.105292396612769547e-03
-6.300801502562491593e-03
-6.453958651148451221e-03
-6.564501594044987176e-03
-6.632651946244572973e-03
-6.659132384290960063e-03
-6.645176550415367832e-03
-6.592530910096217230e-03
-6.503448136134882228e-03
-6.380671661052413415e-03
-6.227411140645729842e-03
-6.047308837456948777e-03
-5.844396982098224759e-03
-5.623046476267121695e-03
-5.387907389784504092e-03
-5.143841881703644682e-03
-4.895850423399941177e-03
-4.648992262926561828e-03
-4.408301348050987223e-03
-4.178698909032365662e-03
-3.964904172526166962e-03
-3.771344634043709287e-03
-3.602067597664150404e-03
-3.460654430032383908e-03
-3.350139275534457905e-03
-3.272933832672885075e-03
-3.230759746332105640e-03
-3.224590150692546384e-03
-3.254601759784649020e-03
-3.320138800342055038e-03
-3.419689827834896181e-03
-3.550878436399893152e-03
-3.710468472960634818e-03
-3.894384229018987668e-03
-4.097745849135271505e-03
-4.314919958955447561e-03
-4.539585080655658862e-03
-4.764811257601961336e-03
-4.983153053606672635e-03
-5.186754711398795792e-03
-5.367466136796158159e-03
-5.516968068276164802e-03
-5.626904429561557612e-03
-5.689019897035738245e-03
-5.695300464197230496e-03
-5.638114666788987366e-03
-5.510352978307450286e-03
-5.305562889924675396e-03
-5.018077251264276006e-03
-4.643133402223104458e-03
-4.176980675375574319e-03
-3.616974121525266643e-03
-2.961652400535525267e-03
-2.210797952197105475e-03
-1.365477972443961433e-03
-4.280648714828736855e-04
5.977647861445002783e-04
1.707053369932337193e-03
2.893607520065092850e-03
4.150065634374184784e-03
5.467986853921960252e-03
6.837960638361096320e-03
8.249735524548383256e-03
9.692365432703329425e-03
1.115437130466520772e-02
1.262391571574974364e-02
1.408898779643096184e-02
1.553759537800038226e-02
1.695796132482360954e-02
1.833872060841348905e-02
1.966911479977520236e-02
2.093918052847069250e-02
2.213992834854991432e-02
2.326350875878405514e-02
2.430336218204744506e-02
2.525434987405710680e-02
2.611286306589889750e-02
2.687690790457333487e-02
2.754616422411604662e-02
2.812201652758484008e-02
2.860755601896469366e-02
2.900755307864705951e-02
2.932840007425052339e-02
2.957802481534656941e-02
2.976577565393982022e-02
2.990227969052703522e-02
2.999927608978243329e-02
3.006942694282940462e-02
3.012610859619846426e-02
3.018318686327024075e-02
3.025477972437029192e-02
3.035501158481760525e-02
3.049776325896715740e-02
3.069642225863628004e-02
3.096363770824451730e-02
3.131108440348054356e-02
3.174924053623114084e-02
3.228718329457148928e-02
3.293240631177374311e-02
3.369066268692413185e-02
3.456583690579287382e-02
3.555984853237702942e-02
3.667258993170353226e-02
3.790189979079795768e-02
3.924357348588660560e-02
4.069141084556873733e-02
4.223730104227762377e-02
4.387134369826993507e-02
4.558200455286201547e-02
4.735630350695559793e-02
4.918003204940196715e-02
5.103799664726792890e-02
5.291428389073796895e-02
5.479254299313455340e-02
5.665628060846944480e-02
5.848916263997665926e-02
6.027531766621801318e-02
6.199963618923228642e-02
6.364806017196554533e-02
6.520785713621153612e-02
6.666787345362061579e-02
6.801876173189499997e-02
6.925317749461891437e-02
7.036594102498358594e-02
7.135416058670057682e-02
7.221731411293925984e-02
7.295728707008657110e-02
7.357836508548461218e-02
7.408718058717291000e-02
7.449261383391285463e-02
7.480564942781557647e-02
7.503919028640847200e-02
7.520783199151710730e-02
7.532760132434214440e-02
7.541566333881213890e-02
7.549000221979089431e-02
7.556908183114002808e-02
7.567149229852980497e-02
7.581558941839477983e-02
7.601913402081601767e-02
7.629893849761752722e-02
7.667052794801285098e-02
7.714782304324788176e-02
7.774285161161059721e-02
7.846549555948099941e-02
7.932327923121035296e-02
8.032120454686703104e-02
8.146163756720538329e-02
8.274425029924761810e-02
8.416602049091323479e-02
8.572129109309287176e-02
8.740188992863694162e-02
8.919730908011481996e-02
9.109494193875736223e-02
9.308037509854807934e-02
9.513773073865368357e-02
9.725005420358318053e-02
9.939974023802895797e-02
1.015689905293097467e-01
1.037402940758786196e-01
1.058969213064166331e-01
1.080234223013212952e-01
1.101061187120800228e-01
1.121335790637530971e-01
1.140970667313638276e-01
1.159909501150255123e-01
1.178130647635313721e-01
1.195650176485081595e-01
1.212524245209830598e-01
1.228850722627123360e-01
1.244769987953739387e-01
1.260464847113896558e-01
1.276159520687021875e-01
1.292117671100299903e-01
1.308639453957685661e-01
1.326057595737525352e-01
1.344732516487323615e-01
1.365046533918152782e-01
1.387397204111720794e-01
1.412189870015802540e-01
1.439829507294610733e-01
1.470711971948051311e-01
1.505214769544735431e-01
1.543687478793579204e-01
1.586441973597570165e-01
1.633742597362376203e-01
1.685796450349581199e-01
1.742743957934972943e-01
1.804649886150018756e-01
1.871494973569270137e-01
1.943168344403768677e-01
2.019460862122089140e-01
2.100059574933215711e-01
2.184543390999215684e-01
2.272380111307110706e-01
2.362924927835135802e-01
2.455420480272511308e-01
2.548998539607900127e-01
2.642683369216098921e-01
2.735396787834076249e-01
2.825964934418825347e-01
2.913126711368225763e-01
2.995543854304232312e-01
3.071812554599676615e-01
3.140476530792020160e-01
3.200041425650126947e-01
3.248990380104714859e-01
3.285800612995979919e-01
3.308960819503924400e-01
3.316989181128758846e-01
3.308451766234257740e-01
3.281981089210464497e-01
3.236294587985609761e-01
3.170212774319509097e-01
3.082676809235249671e-01
2.972765258617836581e-01
2.839709787789796436e-01
2.682909567078991531e-01
2.501944166795352364e-01
2.296584741688578457e-01
2.066803320710027814e-01
1.812780039876134841e-01
1.534908183142800475e-01
1.233796919894112470e-01
9.102716584041456449e-02
5.653719659034502770e-02
2.003470344982825543e-02
-1.833512930117391429e-02
-5.840778913615950196e-02
-1.000006038742013714e-01
-1.429141309324503950e-01
-1.869337534524510847e-01
-2.318314663706685375e-01
-2.773678329378845842e-01
-3.232940899678687363e-01
-3.693543776631929565e-01
-4.152880682870459528e-01
-4.608321663081551001e-01
-5.057237517835807550e-01
-5.497024377684187613e-01
-5.925128123116542023e-01
-6.339068358803974235e-01
-6.736461652042406989e-01
-7.115043756970604871e-01
-7.472690557109453735e-01
-7.807437476046312774e-01
-8.117497126335476709e-01
-8.401274987679875350e-01
-8.657382933308699346e-01
-8.884650451395185167e-01
-9.082133437652289976e-01
-9.249120467974970561e-01
-9.385136493647645572e-01
-9.489943933993763014e-01
-9.563541176109161546e-01
-9.606158525230449330e-01
-9.618251682040698247e-01
-9.600492853842254037e-01
-9.553759638014059918e-01
-9.479121842657316499e-01
-9.377826434194177496e-01
-9.251280826927207324e-01
-9.101034745307703400e-01
-8.928760907417702120e-01
-8.736234791001392663e-01
-8.525313748820031456e-01
-8.297915747724966540e-01
-8.055998006030707925e-01
-7.801535799058123555e-01
-7.536501696566408892e-01
-7.262845486531090966e-01
-6.982475023603287312e-01
-6.697238225165756953e-01
-6.408906416150516039e-01
-6.119159203781907586e-01
-5.829571034876905866e-01
-5.541599566332583438e-01
-5.256575947057229303e-01
-4.975697083596716253e-01
-4.700019931461907330e-01
-4.430457824416642598e-01
-4.167778825941019782e-01
-3.912606057223218525e-01
-3.665419931271069465e-01
-3.426562195725421645e-01
-3.196241664135098803e-01
-2.974541493739500386e-01
-2.761427851098057218e-01
-2.556759789170177100e-01
-2.360300147939883575e-01
-2.171727280248767489e-01
-1.990647399566057851e-01
-1.816607341852234936e-01
-1.649107533815630799e-01
-1.487614964331392398e-01
-1.331575961128590446e-01
-1.180428583486775596e-01
-1.033614455872948062e-01
-8.905898786974600356e-02
-7.508360709729632043e-02
-6.138684163794158599e-02
-4.792446058863919500e-02
-3.465715900313245945e-02
-2.155112743393533536e-02
-8.578491643284304885e-03
4.282379655074014350e-03
1.704669892174241058e-02
2.972321346720512361e-02
4.231428430135452529e-02
5.481608417879475087e-02
6.721890663145188571e-02
7.950757648518230747e-02
9.166195106927149672e-02
1.036574997777298945e-01
1.154659492525676873e-01
1.270559802657438564e-01
1.383939622390196744e-01
1.494447110820618652e-01
1.601722560992500655e-01
1.705406019354414882e-01
1.805144721251708828e-01
1.900600214819849754e-01
1.991455055558077891e-01
2.077418964621977893e-01
2.158234356249019437e-01
2.233681153516423046e-01
2.303580825966584922e-01
2.367799599146116485e-01
2.426250801323152628e-01
2.478896328795891779e-01
2.525747228052425131e-01
2.566863406302785644e-01
2.602352498928659497e-01
2.632367936572720946e-01
2.657106264962479369e-01
2.676803785489840770e-01
2.691732592017276882e-01
2.702196089929917999e-01
2.708524087584318618e-01
2.711067558995345905e-01
2.710193176566327855e-01
2.706277715433862974e-01
2.699702430603039272e-01
2.690847505206447887e-01
2.680086664787201256e-01
2.667782046722939615e-01
2.654279407764153498e-01
2.639903743615774623e-01
2.624955385236571459e-01
2.609706626405339236e-01
2.594398927418197220e-01
2.579240726681615303e-01
2.564405881933648490e-01
2.550032749422778133e-01
2.536223899515239188e-01
2.523046454690252016e-01
2.510533025079089153e-01
2.498683210156687762e-01
2.487465620213064610e-01
2.476820367712179727e-01
2.466661970265969783e-01
2.456882601269404776e-01
2.447355620032772572e-01
2.437939309646605934e-01
2.428480749266098970e-01
2.418819747654039620e-01
2.408792765124946889e-01
2.398236753841743452e-01
2.386992849461534172e-01
2.374909852039022440e-01
2.361847438960741619e-01
2.347679060242754967e-01
2.332294471828617599e-01
2.315601873004503319e-01
2.297529620114915350e-01
2.278027497840404147e-01
2.257067537478701924e-01
2.234644380831664612e-01
2.210775197110022849e-01
2.185499167256111375e-01
2.158876556183231266e-01
2.130987403742378439e-01
2.101929870160220426e-01
2.071818274760695022e-01
2.040780874372058185e-01
2.008957429465910993e-01
1.976496609296221896e-01
1.943553289614302626e-01
1.910285794017168026e-01
1.876853134754027652e-01
1.843412302747565457e-01
1.810115654977676181e-01
1.777108447090068322e-01
1.744526553080428533e-01
1.712494407674662600e-01
1.681123205743496329e-01
1.650509384342316865e-01
1.620733408183529511e-01
1.591858874178125050e-01
1.563931941853137220e-01
1.536981092367654678e-01
1.511017212591355963e-01
1.486033992782821722e-01
1.462008623879400282e-01
1.438902772917682871e-01
1.416663811336890400e-01
1.395226267826391586e-01
1.374513471349281812e-01
1.354439350867017999e-01
1.334910353070418443e-01
1.315827441336619719e-01
1.297088136234846867e-01
1.278588557982272278e-01
1.260225435524842952e-01
1.241898043566742466e-01
1.223510036748901159e-01
1.204971148444371615e-01
1.186198727132965203e-01
1.167119086719410753e-01
1.147668650613046515e-01
1.127794875909397532e-01
1.107456945573106200e-01
1.086626222208532111e-01
1.065286463459971106e-01
1.043433800345567736e-01
1.021076486894590268e-01
9.982344321585973068e-02
9.749385286199410694e-02
9.512297973195593670e-02
9.271583686621318043e-02
9.027823245878961733e-02
8.781664274258256520e-02
8.533807610238951236e-02
8.284993138327904905e-02
8.035985304796686157e-02
7.787558618890699780e-02
7.540483393142671797e-02
7.295511984636517122e-02
7.053365792245418209e-02
6.814723215857404481e-02
6.580208789397921920e-02
6.350383637153983463e-02
6.125737419401842271e-02
5.906681857049459611e-02
5.693545909349303352e-02
5.486572658240819467e-02
5.285917891566807580e-02
5.091650383744864006e-02
4.903753792114123183e-02
4.722130105562782204e-02
4.546604531498853186e-02
4.376931671290369696e-02
4.212802849052877524e-02
4.053854407452134323e-02
3.899676792201509784e-02
3.749824223309802113e-02
3.603824763409668730e-02
3.461190567784115657e-02
3.321428124027744205e-02
3.184048286500577862e-02
3.048575922483117567e-02
2.914558985857829132e-02
2.781576883855174653e-02
2.649247983385775995e-02
2.517236138817492003e-02
2.385256148098875706e-02
2.253078072156260159e-02
2.120530352833839907e-02
1.987501715227497218e-02
1.853941852665541568e-02
1.719860902772876038e-02
1.585327772331124319e-02
1.450467365738029868e-02
1.315456808461602789e-02
1.180520756820848012e-02
1.045925911063352517e-02
9.119748563288041648e-03
7.789993605764220300e-03
6.473532786482942732e-03
5.174052036954452684e-03
3.895310070930981493e-03
2.641064084991880112e-03
1.414997182241821330e-03
2.206488050434912804e-04
-9.386506696380587282e-04
-2.059839972115323076e-03
-3.140180736995832646e-03
-4.177304182992784727e-03
-5.169250070360531003e-03
-6.114497369093706107e-03
-7.011986377718496671e-03
-7.861132097677416344e-03
-8.661828819933327719e-03
-9.414446076936519581e-03
-1.011981644261293438e-02
-1.077921538413280020e-02
-1.139433391692827764e-02
-1.196724479190316819e-02
-1.250036286452382156e-02
-1.299640059497355303e-02
-1.345831965148481385e-02
-1.388927955192825227e-02
-1.429258431486594635e-02
-1.467162822762958438e-02
-1.502984154605174760e-02
-1.537063720432857439e-02
-1.569735940174792066e-02
-1.601323489682360268e-02
-1.632132779866634839e-02
-1.662449839149081343e-02
-1.692536674728677137e-02
-1.722628152520741876e-02
-1.752929421673375676e-02
-1.783613918829749997e-02
-1.814821967301159453e-02
-1.846659961754482451e-02
-1.879200142342965854e-02
-1.912480933019691798e-02
-1.946507816989005712e-02
-1.981254720324861912e-02
-2.016665851582118835e-02
-2.052657952690709747e-02
-2.089122901725221429e-02
-2.125930617228111857e-02
-2.162932201283027100e-02
-2.199963255527349545e-02
-2.236847302082404371e-02
-2.273399260280933171e-02
-2.309428916051394290e-02
-2.344744319219178169e-02
-2.379155063034248119e-02
-2.412475401461209798e-02
-2.444527145926051956e-02
-2.475142329446112718e-02
-2.504165588406407836e-02
-2.531456239739697522e-02
-2.556890040035407485e-02
-2.580360620908160596e-02
-2.601780581795391789e-02
-2.621082253128311987e-02
-2.638218130208338716e-02
-2.653160992380676833e-02
-2.665903725385748366e-02
-2.676458862383719606e-02
-2.684857869515153497e-02
-2.691150205553441074e-02
-2.695402183582772115e-02
-2.697695659727424033e-02
-2.698126587774778845e-02
-2.696803462225109624e-02
-2.693845681268478010e-02
-2.689381864575100811e-02
-2.683548142200949116e-02
-2.676486457156619300e-02
-2.668342886829331434e-02
-2.659266008853977334e-02
-2.649405330772415523e-02
-2.638909807829033921e-02
-2.627926445972164626e-02
-2.616598998824142680e-02
-2.605066776374106649e-02
-2.593463562255974089e-02
-2.581916643059534860e-02
-2.570545945709444211e-02
-2.559463286218094380e-02
-2.548771720015235998e-02
-2.538564989728000001e-02
-2.528927069558586233e-02
-2.519931793737683820e-02
-2.511642566081955658e-02
-2.504112145188009536e-02
-2.497382496062217419e-02
-2.491484699926408905e-02
-2.486438920097978553e-02
-2.482254422498706217e-02
-2.478929643252978168e-02
-2.476452310054005554e-02
