3.380686057742655209e-02
3.380487900450949990e-02
3.380289652304989401e-02
3.380091313328231067e-02
3.379892883544136084e-02
3.379694362976166239e-02
3.379495751647784013e-02
3.379297049582453277e-02
3.379098256803637901e-02
3.378899373334805917e-02
3.378700399199429522e-02
3.378501334420984381e-02
3.378302179022946855e-02
3.378102933028797467e-02
3.377903596462018820e-02
3.377704169346094215e-02
3.377504651704511113e-02
3.377305043560757669e-02
3.377105344938324122e-02
3.376905555860702096e-02
3.376705676351383911e-02
3.376505706433861886e-02
3.376305646131627647e-02
3.376105495468174206e-02
3.375905254466995270e-02
3.375704923151586628e-02
3.375504501545448233e-02
3.375303989672083504e-02
3.375103387554997253e-02
3.374902695217697063e-02
3.374701912683692601e-02
3.374501039976494920e-02
3.374300077119618546e-02
3.374099024136582164e-02
3.373897881050903075e-02
3.373696647886099270e-02
3.373495324665690825e-02
3.373293911413199203e-02
3.373092408152149335e-02
3.372890814906069623e-02
3.372689131698488468e-02
3.372487358552934272e-02
3.372285495492936824e-02
3.372083542542029383e-02
3.371881499723747289e-02
3.371679367061628657e-02
3.371477144579212992e-02
3.371274832300042573e-02
3.371072430247663149e-02
3.370869938445620467e-02
3.370667356917462359e-02
3.370464685686737349e-02
3.370261924776995349e-02
3.370059074211785577e-02
3.369856134014660720e-02
3.369653104209173466e-02
3.369449984818874422e-02
3.369246775867315580e-02
3.369043477378048934e-02
3.368840089374626479e-02
3.368636611880599513e-02
3.368433044919521419e-02
3.368229388514946271e-02
3.368025642690431615e-02
3.367821807469534995e-02
3.367617882875812568e-02
3.367413868932821186e-02
3.367209765664119087e-02
3.367005573093265897e-02
3.366801291243820549e-02
3.366596920139343363e-02
3.366392459803393272e-02
3.366187910259526433e-02
3.365983271531299698e-02
3.365778543642269915e-02
3.365573726615993244e-02
3.365368820476027228e-02
3.365163825245927331e-02
3.364958740949249016e-02
3.364753567609547052e-02
3.364548305250376903e-02
3.364342953895293337e-02
3.364137513567853899e-02
3.363931984291614746e-02
3.363726366090130648e-02
3.363520658986956374e-02
3.363314863005643918e-02
3.363108978169743885e-02
3.362903004502806187e-02
3.362696942028380737e-02
3.362490790770019528e-02
3.362284550751273859e-02
3.362078221995696420e-02
3.361871804526839896e-02
3.361665298368257671e-02
3.361458703543502430e-02
3.361252020076124086e-02
3.361045247989671164e-02
3.360838387307690106e-02
3.360631438053727355e-02
3.360424400251331434e-02
3.360217273924049480e-02
3.360010059095430018e-02
3.359802755789020184e-02
3.359595364028367115e-02
3.359387883837017252e-02
3.359180315238515652e-02
3.358972658256408061e-02
3.358764912914239537e-02
3.358557079235554438e-02
3.358349157243899902e-02
3.358141146962823065e-02
3.357933048415872451e-02
3.357724861626595891e-02
3.357516586618539134e-02
3.357308223415247928e-02
3.357099772040268021e-02
3.356891232517143081e-02
3.356682604869416775e-02
3.356473889120636933e-02
3.356265085294354161e-02
3.356056193414116290e-02
3.355847213503469068e-02
3.355638145585959631e-02
3.355428989685134422e-02
3.355219745824537109e-02
3.355010414027711357e-02
3.354800994318199447e-02
3.354591486719544352e-02
3.354381891255286269e-02
3.354172207948962620e-02
3.353962436824107357e-02
3.353752577904254434e-02
3.353542631212938496e-02
3.353332596773694885e-02
3.353122474610057552e-02
3.352912264745558368e-02
3.352701967203727124e-02
3.352491582008091525e-02
3.352281109182177199e-02
3.352070548749509771e-02
3.351859900733614867e-02
3.351649165158016030e-02
3.351438342046231950e-02
3.351227431421779923e-02
3.351016433308173087e-02
3.350805347728923883e-02
3.350594174707542672e-02
3.350382914267537732e-02
3.350171566432412484e-02
3.349960131225668963e-02
3.349748608670807815e-02
3.349536998791326908e-02
3.349325301610721339e-02
3.349113517152484121e-02
3.348901645440104796e-02
3.348689686497070828e-02
3.348477640346865514e-02
3.348265507012967990e-02
3.348053286518853922e-02
3.347840978887994812e-02
3.347628584143859387e-02
3.347416102309914293e-02
3.347203533409624787e-02
3.346990877466455433e-02
3.346778134503866631e-02
3.346565304545318781e-02
3.346352387614270202e-02
3.346139383734176437e-02
3.345926292928489559e-02
3.345713115220659561e-02
3.345499850634133659e-02
3.345286499192356988e-02
3.345073060918772601e-02
3.344859535836820080e-02
3.344645923969936929e-02
3.344432225341555098e-02
3.344218439975103069e-02
3.344004567894006547e-02
3.343790609121688462e-02
3.343576563681568276e-02
3.343362431597061285e-02
3.343148212891580706e-02
3.342933907588535591e-02
3.342719515711331524e-02
3.342505037283372005e-02
3.342290472328055678e-02
3.342075820868780495e-02
3.341861082928942323e-02
3.341646258531931479e-02
3.341431347701134119e-02
3.341216350459932927e-02
3.341001266831707811e-02
3.340786096839837988e-02
3.340570840507698508e-02
3.340355497858662343e-02
3.340140068916099686e-02
3.339924553703375182e-02
3.339708952243852086e-02
3.339493264560893654e-02
3.339277490677861754e-02
3.339061630618114090e-02
3.338845684405002817e-02
3.338629652061875924e-02
3.338413533612075851e-02
3.338197329078940179e-02
3.337981038485802326e-02
3.337764661855992243e-02
3.337548199212837102e-02
3.337331650579659220e-02
3.337115015979778138e-02
3.336898295436509926e-02
3.336681488973165105e-02
3.336464596613047257e-02
3.336247618379454410e-02
3.336030554295679740e-02
3.335813404385012948e-02
3.335596168670743045e-02
3.335378847176156958e-02
3.335161439924536758e-02
3.334943946939158965e-02
3.334726368243295241e-02
3.334508703860211698e-02
3.334290953813170283e-02
3.334073118125426005e-02
3.333855196820233180e-02
3.333637189920840571e-02
3.333419097450492086e-02
3.333200919432427467e-02
3.332982655889881601e-02
3.332764306846086599e-02
3.332545872324271102e-02
3.332327352347656119e-02
3.332108746939457800e-02
3.331890056122889521e-02
3.331671279921161882e-02
3.331452418357480627e-02
3.331233471455045253e-02
3.331014439237051095e-02
3.330795321726687241e-02
3.330576118947137926e-02
3.330356830921581135e-02
3.330137457673189999e-02
3.329917999225132097e-02
3.329698455600568763e-02
3.329478826822655779e-02
3.329259112914539215e-02
3.329039313899360281e-02
3.328819429800254637e-02
3.328599460640350310e-02
3.328379406442769778e-02
3.328159267230632046e-02
3.327939043027049876e-02
3.327718733855129091e-02
3.327498339737967187e-02
3.327277860698654721e-02
3.327057296760277394e-02
3.326836647945916048e-02
3.326615914278645281e-02
3.326395095781532057e-02
3.326174192477637098e-02
3.325953204390014878e-02
3.325732131541712933e-02
3.325510973955773247e-02
3.325289731655227399e-02
3.325068404663099331e-02
3.324846993002406742e-02
3.324625496696160393e-02
3.324403915767363410e-02
3.324182250239013370e-02
3.323960500134100216e-02
3.323738665475607645e-02
3.323516746286515194e-02
3.323294742589796846e-02
3.323072654408420340e-02
3.322850481765347169e-02
3.322628224683529807e-02
3.322405883185912401e-02
3.322183457295432157e-02
3.321960947035019346e-02
3.321738352427600072e-02
3.321515673496094195e-02
3.321292910263418108e-02
3.321070062752479873e-02
3.320847130986179924e-02
3.320624114987411057e-02
3.320401014779059135e-02
3.320177830384005158e-02
3.319954561825122497e-02
3.319731209125276195e-02
3.319507772307325744e-02
3.319284251394122309e-02
3.319060646408508730e-02
3.318836957373322294e-02
3.318613184311390574e-02
3.318389327245531428e-02
3.318165386198557859e-02
3.317941361193276623e-02
3.317717252252488230e-02
3.317493059398982785e-02
3.317268782655540676e-02
3.317044422044931884e-02
3.316819977589918755e-02
3.316595449313253230e-02
3.316370837237680308e-02
3.316146141385935275e-02
3.315921361780743704e-02
3.315696498444825613e-02
3.315471551400891309e-02
3.315246520671642771e-02
3.315021406279772265e-02
3.314796208247960951e-02
3.314570926598880973e-02
3.314345561355196840e-02
3.314120112539561958e-02
3.313894580174619325e-02
3.313668964283001533e-02
3.313443264887332151e-02
3.313217482010224341e-02
3.312991615674281548e-02
3.312765665902098200e-02
3.312539632716256927e-02
3.312313516139330644e-02
3.312087316193884634e-02
3.311861032902474467e-02
3.311634666287648771e-02
3.311408216371946461e-02
3.311181683177894658e-02
3.310955066728010765e-02
3.310728367044801085e-02
3.310501584150762205e-02
3.310274718068381000e-02
3.310047768820134628e-02
3.309820736428491922e-02
3.309593620915914775e-02
3.309366422304853284e-02
3.309139140617745056e-02
3.308911775877018679e-02
3.308684328105092332e-02
3.308456797324373089e-02
3.308229183557258313e-02
3.308001486826136345e-02
3.307773707153385812e-02
3.307545844561377013e-02
3.307317899072468453e-02
3.307089870709007534e-02
3.306861759493330555e-02
3.306633565447764100e-02
3.306405288594625735e-02
3.306176928956224698e-02
3.305948486554861204e-02
3.305719961412824370e-02
3.305491353552390821e-02
3.305262662995826078e-02
3.305033889765383870e-02
3.304805033883307513e-02
3.304576095371827837e-02
3.304347074253164568e-02
3.304117970549527022e-02
3.303888784283113417e-02
3.303659515476111558e-02
3.303430164150696763e-02
3.303200730329034635e-02
3.302971214033276204e-02
3.302741615285557930e-02
3.302511934108005170e-02
3.302282170522729404e-02
3.302052324551828233e-02
3.301822396217390237e-02
3.301592385541492897e-02
3.301362292546199811e-02
3.301132117253564174e-02
3.300901859685628076e-02
3.300671519864422504e-02
3.300441097811965957e-02
3.300210593550266525e-02
3.299980007101321888e-02
3.299749338487117933e-02
3.299518587729628055e-02
3.299287754850813853e-02
3.299056839872623742e-02
3.298825842816993648e-02
3.298594763705850474e-02
3.298363602561109331e-02
3.298132359404671449e-02
3.297901034258424874e-02
3.297669627144244470e-02
3.297438138083992609e-02
3.297206567099517788e-02
3.296974914212655317e-02
3.296743179445228017e-02
3.296511362819046914e-02
3.296279464355911931e-02
3.296047484077610501e-02
3.295815422005917567e-02
3.295583278162596969e-02
3.295351052569400752e-02
3.295118745248067083e-02
3.294886356220320944e-02
3.294653885507872748e-02
3.294421333132416946e-02
3.294188699115632724e-02
3.293955983479186778e-02
3.293723186244731926e-02
3.293490307433907804e-02
3.293257347068342250e-02
3.293024305169649918e-02
3.292791181759433666e-02
3.292557976859283864e-02
3.292324690490777694e-02
3.292091322675480547e-02
3.291857873434945320e-02
3.291624342790711727e-02
3.291390730764305605e-02
3.291157037377240302e-02
3.290923262651015285e-02
3.290689406607116146e-02
3.290455469267013905e-02
3.290221450652166396e-02
3.289987350784018966e-02
3.289753169684001693e-02
3.289518907373531476e-02
3.289284563874011330e-02
3.289050139206829704e-02
3.288815633393359777e-02
3.288581046454961548e-02
3.288346378412981830e-02
3.288111629288750781e-02
3.287876799103584685e-02
3.287641887878781782e-02
3.287406895635627130e-02
3.287171822395391213e-02
3.286936668179327864e-02
3.286701433008678425e-02
3.286466116904668278e-02
3.286230719888509622e-02
3.285995241981398696e-02
3.285759683204517861e-02
3.285524043579034909e-02
3.285288323126103749e-02
3.285052521866863723e-02
3.284816639822440293e-02
3.284580677013941574e-02
3.284344633462459029e-02
3.284108509189070241e-02
3.283872304214838223e-02
3.283636018560813497e-02
3.283399652248032013e-02
3.283163205297516540e-02
3.282926677730278742e-02
3.282690069567312935e-02
3.282453380829596784e-02
3.282216611538092688e-02
3.281979761713749166e-02
3.281742831377500863e-02
3.281505820550265767e-02
3.281268729252946603e-02
3.281031557506430829e-02
3.280794305331589944e-02
3.280556972749280875e-02
3.280319559780346672e-02
3.280082066445615119e-02
3.279844492765897346e-02
3.279606838761987830e-02
3.279369104454663009e-02
3.279131289864683357e-02
3.278893395012792006e-02
3.278655419919718206e-02
3.278417364606175943e-02
3.278179229092863939e-02
3.277941013400467729e-02
3.277702717549656891e-02
3.277464341561084349e-02
3.277225885455390536e-02
3.276987349253198539e-02
3.276748732975115486e-02
3.276510036641736012e-02
3.276271260273639491e-02
3.276032403891390027e-02
3.275793467515535767e-02
3.275554451166606124e-02
3.275315354865115242e-02
3.275076178631559920e-02
3.274836922486420998e-02
3.274597586450162662e-02
3.274358170543234525e-02
3.274118674786072325e-02
3.273879099199097226e-02
3.273639443802713739e-02
3.273399708617308335e-02
3.273159893663254300e-02
3.272919998960909654e-02
3.272680024530615767e-02
3.272439970392698738e-02
3.272199836567471487e-02
3.271959623075230278e-02
3.271719329936256110e-02
3.271478957170814023e-02
3.271238504799152402e-02
3.270997972841504370e-02
3.270757361318089168e-02
3.270516670249112856e-02
3.270275899654765533e-02
3.270035049555220646e-02
3.269794119970635682e-02
3.269553110921157024e-02
3.269312022426915793e-02
3.269070854508026452e-02
3.268829607184584735e-02
3.268588280476669022e-02
3.268346874404342434e-02
3.268105388987654208e-02
3.267863824246637627e-02
3.267622180201308624e-02
3.267380456871665090e-02
3.267138654277689652e-02
3.266896772439349672e-02
3.266654811376596551e-02
3.266412771109364344e-02
3.266170651657569063e-02
3.265928453041111457e-02
3.265686175279876313e-02
3.265443818393729686e-02
3.265201382402523750e-02
3.264958867326096803e-02
3.264716273184270490e-02
3.264473599996851189e-02
3.264230847783630013e-02
3.263988016564382116e-02
3.263745106358865306e-02
3.263502117186822121e-02
3.263259049067978451e-02
3.263015902022043530e-02
3.262772676068712713e-02
3.262529371227664704e-02
3.262285987518561553e-02
3.262042524961047962e-02
3.261798983574752675e-02
3.261555363379288475e-02
3.261311664394253573e-02
3.261067886639230917e-02
3.260824030133787493e-02
3.260580094897472941e-02
3.260336080949819554e-02
3.260091988310345051e-02
3.259847816998551889e-02
3.259603567033926563e-02
3.259359238435940997e-02
3.259114831224053932e-02
3.258870345417708148e-02
3.258625781036331159e-02
3.258381138099335911e-02
3.258136416626120774e-02
3.257891616636069548e-02
3.257646738148551463e-02
3.257401781182921174e-02
3.257156745758518768e-02
3.256911631894669062e-02
3.256666439610683694e-02
3.256421168925858339e-02
3.256175819859473408e-02
3.255930392430794046e-02
3.255684886659072214e-02
3.255439302563545301e-02
3.255193640163432656e-02
3.254947899477937667e-02
3.254702080526249153e-02
3.254456183327543439e-02
3.254210207900982282e-02
3.253964154265712866e-02
3.253718022440865720e-02
3.253471812445555417e-02
3.253225524298882648e-02
3.252979158019930761e-02
3.252732713627765060e-02
3.252486191141436278e-02
3.252239590579979883e-02
3.251992911962418853e-02
3.251746155307760205e-02
3.251499320634997081e-02
3.251252407963109436e-02
3.251005417311063350e-02
3.250758348697810329e-02
3.250511202142288697e-02
3.250263977663424286e-02
3.250016675280126971e-02
3.249769295011290665e-02
3.249521836875796099e-02
3.249274300892508738e-02
3.249026687080278780e-02
3.248778995457941160e-02
3.248531226044316239e-02
3.248283378858208420e-02
3.248035453918406146e-02
3.247787451243683288e-02
3.247539370852799145e-02
3.247291212764497059e-02
3.247042976997504410e-02
3.246794663570536088e-02
3.246546272502293107e-02
3.246297803811461907e-02
3.246049257516714359e-02
3.245800633636705679e-02
3.245551932190075817e-02
3.245303153195448070e-02
3.245054296671432553e-02
3.244805362636623419e-02
3.244556351109600945e-02
3.244307262108931528e-02
3.244058095653167689e-02
3.243808851760848766e-02
3.243559530450500217e-02
3.243310131740635704e-02
3.243060655649752239e-02
3.242811102196333645e-02
3.242561471398849871e-02
3.242311763275757680e-02
3.242061977845497184e-02
3.241812115126493921e-02
3.241562175137158164e-02
3.241312157895886309e-02
3.241062063421057404e-02
3.240811891731037314e-02
3.240561642844175250e-02
3.240311316778807238e-02
3.240060913553254734e-02
3.239810433185825317e-02
3.239559875694814073e-02
3.239309241098500824e-02
3.239058529415151516e-02
3.238807740663018214e-02
3.238556874860339108e-02
3.238305932025339895e-02
3.238054912176233785e-02
3.237803815331222190e-02
3.237552641508493340e-02
3.237301390726222278e-02
3.237050063002572947e-02
3.236798658355697494e-02
3.236547176803732800e-02
3.236295618364802562e-02
3.236043983057018680e-02
3.235792270898476403e-02
3.235540481907259180e-02
3.235288616101437975e-02
3.235036673499071952e-02
3.234784654118209174e-02
3.234532557976883133e-02
3.234280385093113441e-02
3.234028135484906530e-02
3.233775809170255644e-02
3.233523406167140152e-02
3.233270926493526237e-02
3.233018370167368288e-02
3.232765737206609591e-02
3.232513027629180941e-02
3.232260241453000643e-02
3.232007378695973127e-02
3.231754439375990329e-02
3.231501423510931698e-02
3.231248331118662803e-02
3.230995162217040889e-02
3.230741916823910015e-02
3.230488594957099668e-02
3.230235196634426154e-02
3.229981721873694672e-02
3.229728170692700712e-02
3.229474543109230045e-02
3.229220839141055954e-02
3.228967058805940621e-02
3.228713202121634429e-02
3.228459269105877355e-02
3.228205259776398967e-02
3.227951174150915647e-02
3.227697012247132680e-02
3.227442774082740773e-02
3.227188459675418841e-02
3.226934069042834696e-02
3.226679602202644354e-02
3.226425059172489257e-02
3.226170439969997666e-02
3.225915744612787434e-02
3.225660973118464614e-02
3.225406125504624855e-02
3.225151201788854782e-02
3.224896201988730615e-02
3.224641126121818857e-02
3.224385974205677685e-02
3.224130746257854174e-02
3.223875442295886379e-02
3.223620062337304026e-02
3.223364606399625049e-02
3.223109074500357663e-02
3.222853466656998983e-02
3.222597782887034329e-02
3.222342023207939304e-02
3.222086187637179799e-02
3.221830276192209908e-02
3.221574288890474702e-02
3.221318225749409542e-02
3.221062086786436601e-02
3.220805872018966953e-02
3.220549581464402650e-02
3.220293215140137416e-02
3.220036773063553875e-02
3.219780255252025630e-02
3.219523661722915181e-02
3.219266992493578089e-02
3.219010247581358813e-02
3.218753427003592793e-02
3.218496530777606446e-02
3.218239558920716475e-02
3.217982511450230565e-02
3.217725388383447377e-02
3.217468189737657247e-02
3.217210915530139409e-02
3.216953565778161994e-02
3.216696140498986889e-02
3.216438639709867653e-02
3.216181063428049519e-02
3.215923411670770782e-02
3.215665684455262102e-02
3.215407881798747203e-02
3.215150003718445643e-02
3.214892050231567960e-02
3.214634021355319143e-02
3.214375917106900016e-02
3.214117737503502381e-02
3.213859482562309716e-02
3.213601152300494396e-02
3.213342746735221855e-02
3.213084265883651286e-02
3.212825709762936327e-02
3.212567078390225067e-02
3.212308371782656574e-02
3.212049589957364365e-02
3.211790732931476405e-02
3.211531800722113028e-02
3.211272793346385546e-02
3.211013710821396250e-02
3.210754553164243963e-02
3.210495320392019875e-02
3.210236012521807542e-02
3.209976629570682888e-02
3.209717171555715592e-02
3.209457638493969783e-02
3.209198030402503343e-02
3.208938347298367216e-02
3.208678589198605408e-02
3.208418756120255677e-02
3.208158848080350234e-02
3.207898865095912266e-02
3.207638807183955942e-02
3.207378674361488491e-02
3.207118466645510202e-02
3.206858184053018590e-02
3.206597826601005619e-02
3.206337394306457700e-02
3.206076887186352919e-02
3.205816305257663812e-02
3.205555648537357361e-02
3.205294917042397079e-02
3.205034110789741625e-02
3.204773229796344103e-02
3.204512274079152762e-02
3.204251243655109604e-02
3.203990138541150390e-02
3.203728958754206713e-02
3.203467704311205311e-02
3.203206375229069452e-02
3.202944971524717549e-02
3.202683493215061072e-02
3.202421940317005250e-02
3.202160312847452533e-02
3.201898610823298436e-02
3.201636834261433612e-02
3.201374983178747330e-02
3.201113057592121919e-02
3.200851057518435544e-02
3.200588982974562902e-02
3.200326833977374524e-02
3.200064610543736782e-02
3.199802312690511880e-02
3.199539940434558555e-02
3.199277493792731381e-02
3.199014972781880767e-02
3.198752377418856430e-02
3.198489707720504616e-02
3.198226963703668102e-02
3.197964145385184809e-02
3.197701252781890574e-02
3.197438285910619155e-02
3.197175244788202919e-02
3.196912129431471461e-02
3.196648939857250904e-02
3.196385676082363209e-02
3.196122338123628254e-02
3.195858925997861755e-02
3.195595439721876652e-02
3.195331879312481027e-02
3.195068244786480188e-02
3.194804536160675279e-02
3.194540753451866055e-02
3.194276896676849498e-02
3.194012965852418423e-02
3.193748960995364955e-02
3.193484882122479135e-02
3.193220729250550310e-02
3.192956502396367136e-02
3.192692201576715488e-02
3.192427826808379859e-02
3.192163378108142657e-02
3.191898855492785597e-02
3.191634258979089006e-02
3.191369588583830436e-02
3.191104844323786049e-02
3.190840026215730624e-02
3.190575134276438241e-02
3.190310168522684370e-02
3.190045128971243787e-02
3.189780015638893351e-02
3.189514828542410613e-02
3.189249567698571736e-02
3.188984233124153578e-02
3.188718824835935078e-02
3.188453342850693095e-02
3.188187787185204486e-02
3.187922157856243333e-02
3.187656454880585105e-02
3.187390678275005274e-02
3.187124828056280001e-02
3.186858904241186841e-02
3.186592906846501261e-02
3.186326835888995956e-02
3.186060691385441540e-02
3.185794473352608625e-02
3.185528181807265741e-02
3.185261816766180726e-02
3.184995378246122805e-02
3.184728866263862590e-02
3.184462280836174858e-02
3.184195621979837160e-02
3.183928889711629823e-02
3.183662084048334562e-02
3.183395205006733786e-02
3.183128252603610597e-02
3.182861226855750181e-02
3.182594127779938414e-02
3.182326955392963258e-02
3.182059709711616835e-02
3.181792390752691269e-02
3.181524998532979376e-02
3.181257533069275362e-02
3.180989994378376207e-02
3.180722382477080973e-02
3.180454697382192192e-02
3.180186939110515171e-02
3.179919107678855217e-02
3.179651203104016943e-02
3.179383225402807045e-02
3.179115174592035686e-02
3.178847050688512338e-02
3.178578853709048552e-02
3.178310583670457268e-02
3.178042240589552120e-02
3.177773824483147436e-02
3.177505335368057543e-02
3.177236773261098157e-02
3.176968138179086382e-02
3.176699430138841401e-02
3.176430649157189340e-02
3.176161795250961178e-02
3.175892868436990674e-02
3.175623868732115052e-02
3.175354796153175702e-02
3.175085650717018176e-02
3.174816432440490110e-02
3.174547141340439138e-02
3.174277777433714975e-02
3.174008340737170808e-02
3.173738831267664678e-02
3.173469249042059487e-02
3.173199594077218827e-02
3.172929866390010456e-02
3.172660065997304907e-02
3.172390192915972712e-02
3.172120247162890649e-02
3.171850228754941742e-02
3.171580137709014563e-02
3.171309974042002544e-02
3.171039737770801892e-02
3.170769428912314364e-02
3.170499047483447269e-02
3.170228593501111386e-02
3.169958066982223044e-02
3.169687467943702042e-02
3.169416796402475117e-02
3.169146052375472478e-02
3.168875235879627800e-02
3.168604346931881005e-02
3.168333385549174097e-02
3.168062351748453936e-02
3.167791245546675710e-02
3.167520066960796687e-02
3.167248816007779688e-02
3.166977492704593083e-02
3.166706097068210796e-02
3.166434629115612298e-02
3.166163088863781228e-02
3.165891476329705384e-02
3.165619791530378813e-02
3.165348034482803191e-02
3.165076205203982973e-02
3.164804303710926775e-02
3.164532330020648765e-02
3.164260284150169356e-02
3.163988166116518674e-02
3.163715975936734481e-02
3.163443713627860088e-02
3.163171379206946437e-02
3.162898972691050026e-02
3.162626494097233593e-02
3.162353943442567511e-02
3.162081320744130480e-02
3.161808626019007445e-02
3.161535859284288208e-02
3.161263020557069509e-02
3.160990109854452945e-02
3.160717127193545667e-02
3.160444072591461068e-02
3.160170946065317399e-02
3.159897747632239851e-02
3.159624477309361246e-02
3.159351135113823428e-02
3.159077721062775179e-02
3.158804235173370140e-02
3.158530677462767500e-02
3.158257047948131307e-02
3.157983346646636019e-02
3.157709573575464418e-02
3.157435728751807613e-02
3.157161812192864347e-02
3.156887823915839608e-02
3.156613763937946709e-02
3.156339632276405210e-02
3.156065428948441609e-02
3.155791153971290036e-02
3.155516807362190868e-02
3.155242389138392806e-02
3.154967899317152186e-02
3.154693337915733670e-02
3.154418704951410940e-02
3.154144000441463924e-02
3.153869224403182264e-02
3.153594376853861153e-02
3.153319457810802723e-02
3.153044467291316738e-02
3.152769405312719209e-02
3.152494271892335165e-02
3.152219067047497270e-02
3.151943790795544431e-02
3.151668443153821803e-02
3.151393024139681476e-02
3.151117533770487339e-02
3.150841972063610219e-02
3.150566339036427882e-02
3.150290634706326420e-02
3.150014859090700947e-02
3.149739012206952821e-02
3.149463094072490338e-02
3.149187104704728041e-02
3.148911044121088104e-02
3.148634912338999642e-02
3.148358709375902176e-02
3.148082435249247024e-02
3.147806089976495914e-02
3.147529673575118897e-02
3.147253186062593661e-02
3.146976627456403441e-02
3.146699997774037721e-02
3.146423297032994310e-02
3.146146525250780035e-02
3.145869682444910748e-02
3.145592768632910624e-02
3.145315783832312168e-02
3.145038728060654820e-02
3.144761601335488432e-02
3.144484403674370487e-02
3.144207135094869571e-02
3.143929795614565370e-02
3.143652385251048675e-02
3.143374904021918603e-02
3.143097351944783985e-02
3.142819729037261978e-02
3.142542035316979454e-02
3.142264270801570225e-02
3.141986435508675041e-02
3.141708529455942978e-02
3.141430552661036296e-02
3.141152505141626278e-02
3.140874386915393918e-02
3.140596198000027151e-02
3.140317938413225013e-02
3.140039608172695562e-02
3.139761207296155876e-02
3.139482735801334135e-02
3.139204193705968926e-02
3.138925581027807860e-02
3.138646897784606871e-02
3.138368143994133691e-02
3.138089319674164379e-02
3.137810424842485402e-02
3.137531459516892940e-02
3.137252423715190808e-02
3.136973317455195309e-02
3.136694140754735238e-02
3.136414893631648410e-02
3.136135576103782352e-02
3.135856188188995003e-02
3.135576729905156790e-02
3.135297201270150630e-02
3.135017602301867073e-02
3.134737933018208467e-02
3.134458193437089646e-02
3.134178383576435856e-02
3.133898503454182055e-02
3.133618553088274999e-02
3.133338532496670464e-02
3.133058441697336022e-02
3.132778280708253121e-02
3.132498049547412927e-02
3.132217748232814930e-02
3.131937376782466947e-02
3.131656935214387899e-02
3.131376423546607807e-02
3.131095841797165019e-02
3.130815189984106212e-02
3.130534468125487774e-02
3.130253676239378585e-02
3.129972814343857934e-02
3.129691882457016905e-02
3.129410880596956990e-02
3.129129808781788008e-02
3.128848667029632269e-02
3.128567455358624572e-02
3.128286173786911512e-02
3.128004822332650092e-02
3.127723401014011195e-02
3.127441909849176110e-02
3.127160348856337230e-02
3.126878718053696660e-02
3.126597017459467609e-02
3.126315247091875082e-02
3.126033406969156575e-02
3.125751497109559990e-02
3.125469517531342944e-02
3.125187468252774853e-02
3.124905349292136925e-02
3.124623160667723207e-02
3.124340902397838501e-02
3.124058574500799754e-02
3.123776176994935358e-02
3.123493709898586546e-02
3.123211173230106691e-02
3.122928567007861311e-02
3.122645891250227720e-02
3.122363145975593987e-02
3.122080331202358935e-02
3.121797446948931798e-02
3.121514493233732562e-02
3.121231470075193359e-02
3.120948377491758116e-02
3.120665215501882903e-02
3.120381984124033503e-02
3.120098683376685070e-02
3.119815313278321775e-02
3.119531873847439934e-02
3.119248365102548007e-02
3.118964787062165206e-02
3.118681139744821848e-02
3.118397423169059005e-02
3.118113637353430237e-02
3.117829782316498821e-02
3.117545858076838441e-02
3.117261864653033884e-02
3.116977802063682773e-02
3.116693670327394874e-02
3.116409469462792098e-02
3.116125199488507455e-02
3.115840860423187836e-02
3.115556452285492620e-02
3.115271975094092288e-02
3.114987428867668426e-02
3.114702813624915106e-02
3.114418129384537506e-02
3.114133376165251904e-02
3.113848553985785680e-02
3.113563662864880094e-02
3.113278702821287852e-02
3.112993673873774500e-02
3.112708576041115296e-02
3.112423409342099379e-02
3.112138173795528373e-02
3.111852869420217785e-02
3.111567496234995955e-02
3.111282054258701288e-02
3.110996543510183288e-02
3.110710964008304297e-02
3.110425315771939495e-02
3.110139598819975509e-02
3.109853813171311807e-02
3.109567958844858954e-02
3.109282035859538967e-02
3.108996044234286701e-02
3.108709983988051234e-02
3.108423855139793440e-02
3.108137657708488419e-02
3.107851391713125147e-02
3.107565057172706827e-02
3.107278654106248109e-02
3.106992182532777869e-02
3.106705642471336778e-02
3.106419033940976959e-02
3.106132356960763369e-02
3.105845611549771026e-02
3.105558797727087789e-02
3.105271915511811920e-02
3.104984964923056256e-02
3.104697945979946472e-02
3.104410858701619688e-02
3.104123703107224824e-02
3.103836479215922248e-02
3.103549187046883776e-02
3.103261826619294408e-02
3.102974397952350943e-02
3.102686901065263361e-02
3.102399335977255868e-02
3.102111702707565505e-02
3.101824001275441112e-02
3.101536231700142976e-02
3.101248394000945957e-02
3.100960488197138445e-02
3.100672514308020281e-02
3.100384472352904139e-02
3.100096362351114840e-02
3.099808184321990387e-02
3.099519938284884396e-02
3.099231624259163667e-02
3.098943242264206449e-02
3.098654792319404175e-02
3.098366274444160420e-02
3.098077688657893333e-02
3.097789034980034245e-02
3.097500313430028712e-02
3.097211524027336516e-02
3.096922666791429579e-02
3.096633741741791623e-02
3.096344748897917817e-02
3.096055688279315474e-02
3.095766559905503701e-02
3.095477363796014444e-02
3.095188099970393181e-02
3.094898768448198917e-02
3.094609369249003497e-02
3.094319902392391602e-02
3.094030367897960057e-02
3.093740765785317481e-02
3.093451096074085332e-02
3.093161358783899986e-02
3.092871553934411002e-02
3.092581681545280778e-02
3.092291741636186628e-02
3.092001734226819398e-02
3.091711659336881732e-02
3.091421516986088067e-02
3.091131307194165678e-02
3.090841029980854679e-02
3.090550685365907324e-02
3.090260273369089400e-02
3.089969794010179877e-02
3.089679247308969520e-02
3.089388633285263669e-02
3.089097951958880844e-02
3.088807203349652752e-02
3.088516387477425670e-02
3.088225504362057672e-02
3.087934554023420014e-02
3.087643536481395751e-02
3.087352451755881119e-02
3.087061299866786929e-02
3.086770080834037172e-02
3.086478794677567639e-02
3.086187441417327648e-02
3.085896021073280052e-02
3.085604533665401925e-02
3.085312979213681792e-02
3.085021357738121361e-02
3.084729669258734486e-02
3.084437913795548547e-02
3.084146091368602377e-02
3.083854201997946604e-02
3.083562245703645385e-02
3.083270222505775718e-02
3.082978132424426393e-02
3.082685975479698345e-02
3.082393751691707082e-02
3.082101461080581292e-02
3.081809103666462851e-02
3.081516679469505429e-02
3.081224188509875880e-02
3.080931630807754243e-02
3.080639006383335127e-02
3.080346315256823897e-02
3.080053557448437715e-02
3.079760732978405191e-02
3.079467841866970895e-02
3.079174884134392581e-02
3.078881859800941534e-02
3.078588768886903956e-02
3.078295611412580277e-02
3.078002387398283760e-02
3.077709096864339813e-02
3.077415739831085989e-02
3.077122316318873022e-02
3.076828826348064830e-02
3.076535269939038170e-02
3.076241647112182981e-02
3.075947957887902734e-02
3.075654202286612349e-02
3.075360380328739929e-02
3.075066492034728496e-02
3.074772537425034258e-02
3.074478516520126603e-02
3.074184429340488106e-02
3.073890275906616260e-02
3.073596056239021740e-02
3.073301770358229448e-02
3.073007418284779205e-02
3.072713000039225401e-02
3.072418515642136652e-02
3.072123965114094760e-02
3.071829348475696095e-02
3.071534665747549173e-02
3.071239916950277427e-02
3.070945102104517127e-02
3.070650221230915994e-02
3.070355274350136318e-02
3.070060261482854963e-02
3.069765182649760935e-02
3.069470037871555382e-02
3.069174827168953679e-02
3.068879550562686812e-02
3.068584208073497910e-02
3.068288799722142246e-02
3.067993325529386889e-02
3.067697785516012091e-02
3.067402179702809553e-02
3.067106508110586591e-02
3.066810770760165436e-02
3.066514967672380465e-02
3.066219098868081666e-02
3.065923164368130477e-02
3.065627164193400478e-02
3.065331098364777393e-02
3.065034966903160130e-02
3.064738769829460779e-02
3.064442507164605659e-02
3.064146178929533920e-02
3.063849785145196861e-02
3.063553325832559307e-02
3.063256801012598923e-02
3.062960210706307598e-02
3.062663554934689364e-02
3.062366833718760395e-02
3.062070047079549703e-02
3.061773195038099138e-02
3.061476277615464078e-02
3.061179294832713435e-02
3.060882246710927568e-02
3.060585133271201061e-02
3.060287954534640295e-02
3.059990710522364835e-02
3.059693401255504652e-02
3.059396026755202905e-02
3.059098587042614545e-02
3.058801082138906322e-02
3.058503512065256780e-02
3.058205876842857648e-02
3.057908176492913840e-02
3.057610411036642065e-02
3.057312580495272214e-02
3.057014684890044590e-02
3.056716724242214064e-02
3.056418698573049736e-02
3.056120607903833539e-02
3.055822452255860938e-02
3.055524231650439543e-02
3.055225946108888410e-02
3.054927595652539435e-02
3.054629180302737695e-02
3.054330700080841454e-02
3.054032155008222157e-02
3.053733545106264435e-02
3.053434870396366102e-02
3.053136130899939196e-02
3.052837326638408594e-02
3.052538457633211313e-02
3.052239523905800681e-02
3.051940525477642857e-02
3.051641462370215455e-02
3.051342334605009268e-02
3.051043142203529665e-02
3.050743885187293808e-02
3.050444563577831697e-02
3.050145177396687557e-02
3.049845726665419143e-02
3.049546211405597396e-02
3.049246631638806090e-02
3.048946987386642188e-02
3.048647278670716873e-02
3.048347505512654515e-02
3.048047667934093014e-02
3.047747765956681718e-02
3.047447799602084201e-02
3.047147768891977221e-02
3.046847673848050719e-02
3.046547514492007822e-02
3.046247290845565878e-02
3.045947002930456463e-02
3.045646650768424682e-02
3.045346234381228825e-02
3.045045753790642448e-02
3.044745209018450902e-02
3.044444600086453068e-02
3.044143927016460666e-02
3.043843189830298251e-02
3.043542388549803565e-02
3.043241523196827183e-02
3.042940593793232520e-02
3.042639600360894786e-02
3.042338542921702374e-02
3.042037421497556862e-02
3.041736236110374053e-02
3.041434986782082586e-02
3.041133673534622897e-02
3.040832296389947217e-02
3.040530855370020963e-02
3.040229350496825161e-02
3.039927781792352290e-02
3.039626149278608011e-02
3.039324452977610821e-02
3.039022692911393445e-02
3.038720869102001787e-02
3.038418981571497368e-02
3.038117030341954544e-02
3.037815015435462243e-02
3.037512936874123964e-02
3.037210794680056392e-02
3.036908588875389045e-02
3.036606319482265670e-02
3.036303986522841808e-02
3.036001590019285837e-02
3.035699129993780013e-02
3.035396606468520816e-02
3.035094019465715484e-02
3.034791369007584436e-02
3.034488655116361969e-02
3.034185877814296953e-02
3.033883037123651441e-02
3.033580133066701365e-02
3.033277165665734104e-02
3.032974134943050223e-02
3.032671040920962083e-02
3.032367883621796267e-02
3.032064663067894628e-02
3.031761379281611851e-02
3.031458032285315810e-02
3.031154622101387558e-02
3.030851148752220989e-02
3.030547612260222484e-02
3.030244012647811611e-02
3.029940349937421118e-02
3.029636624151497634e-02
3.029332835312502012e-02
3.029028983442908288e-02
3.028725068565203335e-02
3.028421090701886517e-02
3.028117049875468994e-02
3.027812946108475109e-02
3.027508779423444471e-02
3.027204549842929526e-02
3.026900257389493129e-02
3.026595902085712358e-02
3.026291483954178171e-02
3.025987003017495749e-02
3.025682459298283458e-02
3.025377852819172500e-02
3.025073183602805180e-02
3.024768451671835251e-02
3.024463657048928264e-02
3.024158799756763993e-02
3.023853879818034704e-02
3.023548897255445497e-02
3.023243852091713271e-02
3.022938744349567761e-02
3.022633574051751190e-02
3.022328341221017234e-02
3.022023045880132402e-02
3.021717688051875697e-02
3.021412267759040343e-02
3.021106785024432750e-02
3.020801239870870777e-02
3.020495632321184773e-02
3.020189962398217923e-02
3.019884230124827637e-02
3.019578435523883816e-02
3.019272578618267810e-02
3.018966659430874153e-02
3.018660677984611601e-02
3.018354634302402792e-02
3.018048528407182851e-02
3.017742360321902170e-02
3.017436130069523978e-02
3.017129837673023299e-02
3.016823483155386607e-02
3.016517066539614253e-02
3.016210587848719427e-02
3.015904047105729541e-02
3.015597444333684499e-02
3.015290779555639469e-02
3.014984052794663499e-02
3.014677264073837085e-02
3.014370413416253905e-02
3.014063500845022905e-02
3.013756526383266562e-02
3.013449490054120536e-02
3.013142391880732282e-02
3.012835231886262788e-02
3.012528010093886918e-02
3.012220726526793763e-02
3.011913381208186288e-02
3.011605974161278912e-02
3.011298505409298540e-02
3.010990974975485610e-02
3.010683382883093742e-02
3.010375729155389743e-02
3.010068013815652560e-02
3.009760236887174673e-02
3.009452398393260009e-02
3.009144498357225334e-02
3.008836536802398515e-02
3.008528513752120256e-02
3.008220429229743753e-02
3.007912283258634342e-02
3.007604075862171586e-02
3.007295807063746496e-02
3.006987476886762573e-02
3.006679085354635808e-02
3.006370632490794684e-02
3.006062118318678783e-02
3.005753542861739139e-02
3.005444906143439621e-02
3.005136208187257629e-02
3.004827449016684096e-02
3.004518628655222789e-02
3.004209747126388927e-02
3.003900804453708481e-02
3.003591800660719915e-02
3.003282735770975917e-02
3.002973609808040276e-02
3.002664422795490659e-02
3.002355174756916878e-02
3.002045865715921233e-02
3.001736495696118862e-02
3.001427064721140167e-02
3.001117572814628043e-02
3.000808020000240300e-02
3.000498406301648630e-02
3.000188731742538945e-02
2.999878996346610691e-02
2.999569200137574068e-02
2.999259343139150380e-02
2.998949425375072378e-02
2.998639446869087039e-02
2.998329407644954869e-02
2.998019307726449909e-02
2.997709147137358338e-02
2.997398925901479869e-02
2.997088644042627051e-02
2.996778301584625270e-02
2.996467898551310668e-02
2.996157434966532918e-02
2.995846910854152792e-02
2.995536326238043556e-02
2.995225681142092353e-02
2.994914975590197079e-02
2.994604209606266387e-02
2.994293383214218646e-02
2.993982496437984711e-02
2.993671549301509319e-02
2.993360541828747959e-02
2.993049474043669653e-02
2.992738345970255912e-02
2.992427157632500390e-02
2.992115909054410619e-02
2.991804600260008010e-02
2.991493231273327155e-02
2.991181802118413752e-02
2.990870312819325985e-02
2.990558763400135572e-02
2.990247153884925332e-02
2.989935484297791615e-02
2.989623754662842914e-02
2.989311965004201252e-02
2.989000115346002184e-02
2.988688205712393756e-02
2.988376236127536154e-02
2.988064206615601709e-02
2.987752117200775243e-02
2.987439967907255106e-02
2.987127758759253182e-02
2.986815489780992455e-02
2.986503160996709441e-02
2.986190772430653839e-02
2.985878324107088880e-02
2.985565816050293059e-02
2.985253248284558403e-02
2.984940620834190123e-02
2.984627933723505572e-02
2.984315186976835982e-02
2.984002380618524727e-02
2.983689514672928714e-02
2.983376589164418377e-02
2.983063604117377338e-02
2.982750559556202746e-02
2.982437455505305632e-02
2.982124291989111942e-02
2.981811069032062195e-02
2.981497786658610441e-02
2.981184444893222873e-02
2.980871043760379216e-02
2.980557583284571335e-02
2.980244063490302894e-02
2.979930484402088312e-02
2.979616846044455536e-02
2.979303148441944313e-02
2.978989391619109306e-02
2.978675575600517669e-02
2.978361700410749741e-02
2.978047766074400082e-02
2.977733772616076788e-02
2.977419720060401828e-02
2.977105608432007930e-02
2.976791437755541003e-02
2.976477208055658755e-02
2.976162919357032074e-02
2.975848571684345384e-02
2.975534165062298023e-02
2.975219699515602514e-02
2.974905175068983179e-02
2.974590591747177520e-02
2.974275949574935185e-02
2.973961248577019351e-02
2.973646488778206379e-02
2.973331670203284427e-02
2.973016792877056225e-02
2.972701856824336644e-02
2.972386862069952701e-02
2.972071808638744247e-02
2.971756696555564320e-02
2.971441525845278098e-02
2.971126296532762556e-02
2.970811008642908202e-02
2.970495662200617337e-02
2.970180257230806489e-02
2.969864793758406757e-02
2.969549271808362423e-02
2.969233691405629566e-02
2.968918052575177449e-02
2.968602355341988866e-02
2.968286599731060141e-02
2.967970785767399047e-02
2.967654913476026196e-02
2.967338982881972606e-02
2.967022994010281092e-02
2.966706946886004878e-02
2.966390841534207595e-02
2.966074677979963284e-02
2.965758456248359168e-02
2.965442176364492879e-02
2.965125838353473847e-02
2.964809442240424683e-02
2.964492988050479449e-02
2.964176475808783656e-02
2.963859905540494610e-02
2.963543277270781068e-02
2.963226591024823234e-02
2.962909846827814844e-02
2.962593044704961778e-02
2.962276184681481364e-02
2.961959266782603420e-02
2.961642291033571989e-02
2.961325257459644297e-02
2.961008166086089369e-02
2.960691016938188022e-02
2.960373810041235301e-02
2.960056545420537699e-02
2.959739223101413158e-02
2.959421843109193845e-02
2.959104405469225110e-02
2.958786910206863754e-02
2.958469357347479414e-02
2.958151746916454564e-02
2.957834078939181738e-02
2.957516353441066656e-02
2.957198570447527874e-02
