-1.497990906156566491e-03
-1.476625402869145018e-03
-1.447870899704524830e-03
-1.412019539941230433e-03
-1.369459188401960003e-03
-1.320665787552167958e-03
-1.266194542171594078e-03
-1.206670062365198257e-03
-1.142775726203901438e-03
-1.075242456704764843e-03
-1.004837084686055005e-03
-9.323505054172187946e-04
-8.585858670984942769e-04
-7.843469147018717561e-04
-7.104267474938931763e-04
-6.375970859226640043e-04
-5.665983534124033718e-04
-4.981305848215364157e-04
-4.328453274919819992e-04
-3.713386768714788165e-04
-3.141454206175525558e-04
-2.617344897642385625e-04
-2.145056393678585773e-04
-1.727874154945654138e-04
-1.368363692647644797e-04
-1.068374983221928977e-04
-8.290584002977282631e-05
-6.508911111453920023e-05
-5.337137477133609712e-05
-4.767748264442106326e-05
-4.787831568509669342e-05
-5.379655826048273409e-05
-6.521293208606829294e-05
-8.187270425989725772e-05
-1.034923469336199528e-04
-1.297661685126210026e-04
-1.603727894799182770e-04
-1.949813125644015756e-04
-2.332571356823413182e-04
-2.748671628202807322e-04
-3.194844367625925973e-04
-3.667920386132178284e-04
-4.164862716779198356e-04
-4.682790142776718659e-04
-5.218992528224636329e-04
-5.770938201661782304e-04
-6.336272752836262945e-04
-6.912811269175912071e-04
-7.498522489774670776e-04
-8.091507344971061652e-04
-8.689972369510454153e-04
-9.292198163170021759e-04
-9.896505130763133280e-04
-1.050121727420924708e-03
-1.110462501061619056e-03
-1.170494904677225282e-03
-1.230030523549277728e-03
-1.288867322071209727e-03
-1.346786886054573669e-03
-1.403552231219784389e-03
-1.458906202747483347e-03
-1.512570553910770740e-03
-1.564245797555021507e-03
-1.613611905565782772e-03
-1.660329795793547046e-03
-1.704043667369723857e-03
-1.744384178209444896e-03
-1.780972380047188188e-03
-1.813424427374007390e-03
-1.841356926932388423e-03
-1.864392879848677078e-03
-1.882168027665834069e-03
-1.894337641058312181e-03
-1.900583417914100421e-03
-1.900620545079704246e-03
-1.894204615928163317e-03
-1.881138350585817402e-03
-1.861277883492444291e-03
-1.834538531770990447e-03
-1.800899920836238760e-03
-1.760410297726404741e-03
-1.713189877940199217e-03
-1.659433162024674798e-03
-1.599410159125759555e-03
-1.533466342849130635e-03
-1.462021438240413557e-03
-1.385566880714710330e-03
-1.304661966077311176e-03
-1.219928803034469765e-03
-1.132046050564972399e-03
-1.041741455429377045e-03
-9.497834249183790710e-04
-8.569715926960595406e-04
-7.641266685104939867e-04
-6.720795228925923034e-04
-5.816598873835532443e-04
-4.936847202517466839e-04
-4.089464431953404372e-04
-3.282013190111251035e-04
-2.521580847442743628e-04
-1.814670722617811832e-04
-1.167100008536325797e-04
-5.839059292884220931e-05
-6.926291455258866922e-06
3.735886037130163882e-05
7.424003179382306138e-05
1.035959084174481709e-04
1.254115108672907678e-04
1.397793578438758194e-04
1.468989732170016048e-04
1.470747054058651982e-04
1.407119024253709091e-04
1.283114794636600303e-04
1.104629080743647131e-04
8.783570454360664420e-05
6.116968980747129910e-05
3.126404905628881375e-05
-1.034738172197175294e-06
-3.484567087553376488e-05
-6.926668360897977764e-05
-1.033885389553516410e-04
-1.363088533581552407e-04
-1.671460568264449052e-04
-1.950531531853875696e-04
-2.192308950399180759e-04
-2.389403165002790415e-04
-2.535142770417705320e-04
-2.623679063784080953e-04
-2.650077038254958694e-04
-2.610392557684114608e-04
-2.501733051644469534e-04
-2.322301209908192692e-04
-2.071421280548756800e-04
-1.749547260437525230e-04
-1.358252860682336713e-04
-9.002029770927338014e-05
-3.791074892268463180e-05
2.003412501185208842e-05
8.325477918746963183e-05
1.511106839212783971e-04
2.228908767445880919e-04
2.978257543917352127e-04
3.750997173433138132e-04
4.538645329234687045e-04
5.332531087877365487e-04
6.123935379121419427e-04
6.904231863097347972e-04
7.665025276117975279e-04
8.398284330663237244e-04
9.096468768926176118e-04
9.752646593455364943e-04
1.036060043062268267e-03
1.091492102293799412e-03
1.141108657500376463e-03
1.184552601901070392e-03
1.221566585224831154e-03
1.251996000057946064e-03
1.275790160597004615e-03
1.293001677873527929e-03
1.303784087075394093e-03
1.308387799927689240e-03
1.307154380077772465e-03
1.300509320179162737e-03
1.288953447142368071e-03
1.273053109213830155e-03
1.253429293015928927e-03
1.230745946443289078e-03
1.205697623348898472e-03
1.178996801388404719e-03
1.151360883961394894e-03
1.123499446077688268e-03
1.096101670379655583e-03
1.069824267692227361e-03
1.045280143256153895e-03
1.023027995785022719e-03
1.003563001051737758e-03
9.873087106888386172e-04
9.746104255619917819e-04
9.657300413675395327e-04
9.608424366713309850e-04
9.600335628226704153e-04
9.633001597077570522e-04
9.705511493264894858e-04
9.816106416713279992e-04
9.962225134219479181e-04
1.014056400756704239e-03
1.034715051157907625e-03
1.057742862013524984e-03
1.082635500219173786e-03
1.108850295137534837e-03
1.135817335968267216e-03
1.162950941133316513e-03
1.189661404961192895e-03
1.215366725732998495e-03
1.239504120237504845e-03
1.261541085655527514e-03
1.280985870794123117e-03
1.297397087523593021e-03
1.310392339930726863e-03
1.319655672417577221e-03
1.324943709154187497e-03
1.326090409450601717e-03
1.323010311460913599e-03
1.315700246725464654e-03
1.304239450160178454e-03
1.288788121838936639e-03
1.269584436109485147e-03
1.246940042594105093e-03
1.221234175381173204e-03
1.192906510801964833e-03
1.162448809750054940e-03
1.130395582161820888e-03
1.097313962427963214e-03
1.063792956568279918e-03
1.030432196850025609e-03
9.978305325009503499e-04
9.665746074457062494e-04
9.372275822300230952e-04
9.103183442829023385e-04
8.863312821384836592e-04
8.656968841115284538e-04
8.487833076708558959e-04
8.358890990131509014e-04
8.272371893298829156e-04
8.229702957217834491e-04
8.231477100345655244e-04
8.277437159650675395e-04
8.366475126986062678e-04
8.496647616360110703e-04
8.665206440493954847e-04
8.868644183806747346e-04
9.102754358679580405e-04
9.362704202372906098e-04
9.643119420861453453e-04
9.938179781384262959e-04
1.024172208073933360e-03
1.054735127102464191e-03
1.084855587764945242e-03
1.113882573278635350e-03
1.141177131345143475e-03
1.166124119163627253e-03
1.188143567084772381e-03
1.206701536610826648e-03
1.221320169520503452e-03
1.231586886022059983e-03
1.237162457579618277e-03
1.237787811289972227e-03
1.233289475525758353e-03
1.223583643884344372e-03
1.208678571195735164e-03
1.188675513051315556e-03
1.163767993527190653e-03
1.134239510807890121e-03
1.100459709338634734e-03
1.062879008345385878e-03
1.022021854656557458e-03
9.784787284635449844e-04
9.328969187467064331e-04
8.859703596318781269e-04
8.384285454810419579e-04
7.910248980373599508e-04
7.445246571029084243e-04
6.996925212304315597e-04
6.572802219163574643e-04
6.180142993043912306e-04
5.825841770645877413e-04
5.516308678471660946e-04
5.257364338211214507e-04
5.054143129012816362e-04
4.911007004017237717e-04
4.831471834397473475e-04
4.818146233019020134e-04
4.872685443229440427e-04
4.995759377865576509e-04
5.187035974582491311e-04
5.445179840564833311e-04
5.767866651063182498e-04
6.151811843141519577e-04
6.592813978102566924e-04
7.085812026371753882e-04
7.624954331453198198e-04
8.203679934079772043e-04
8.814808808898859068e-04
9.450640887925899425e-04
1.010306153533151782e-03
1.076365272142182838e-03
1.142380683669722095e-03
1.207484170174760773e-03
1.270811553745980005e-03
1.331513922926285190e-03
1.388768484104744216e-03
1.441788876864578614e-03
1.489834753518542261e-03
1.532220565591313303e-03
1.568323356282326280e-03
1.597589512206576369e-03
1.619540419781794003e-03
1.633776875819069156e-03
1.639982339715643101e-03
1.637924919377015294e-03
1.627458083205167612e-03
1.608520267834263450e-03
1.581133256966773355e-03
1.545399520443791396e-03
1.501498476304062796e-03
1.449681931130401705e-03
1.390268660358297617e-03
1.323638358739277678e-03
1.250225024997729788e-03
1.170509900098394606e-03
1.085014170008227145e-03
9.942915491618921874e-04
8.989208252692769538e-04
7.994985324007039757e-04
6.966318652914925023e-04
5.909319562798203557e-04
4.830076631548944747e-04
3.734598114114613806e-04
2.628761262445634636e-04
1.518267696607823790e-04
4.086069722462144018e-05
-6.949733322204719324e-05
-1.787489665909222419e-04
-2.864237248917858168e-04
-3.920797803929465379e-04
-4.953040773360114146e-04
-5.957117648674251087e-04
-6.929450985114566286e-04
-7.866719468607951370e-04
-8.765838031406614043e-04
-9.623935439737066550e-04
-1.043833070824960133e-03
-1.120650658428250235e-03
-1.192608444081779545e-03
-1.259479999135202505e-03
-1.321048045594808758e-03
-1.377102432819855534e-03
-1.427438496986739146e-03
-1.471855816826847041e-03
-1.510157379910504784e-03
-1.542149364881977317e-03
-1.567641334203893986e-03
-1.586447068055587802e-03
-1.598385860015994527e-03
-1.603284435568687848e-03
-1.600979326696250118e-03
-1.591319695055740070e-03
-1.574170583983138926e-03
-1.549416487400362332e-03
-1.516965152207572394e-03
-1.476751586577990712e-03
-1.428742118202916845e-03
-1.372938442722760341e-03
-1.309381525320308824e-03
-1.238155302371872447e-03
-1.159390007303619024e-03
-1.073265116466789234e-03
-9.800117319439098119e-04
-8.799144130562330758e-04
-7.733122913578401557e-04
-6.605994485856154803e-04
-5.422244962677749257e-04
-4.186893636810253201e-04
-2.905472607885948156e-04
-1.583997518237154382e-04
-2.289304404480671770e-05
1.152865994652560878e-04
2.554181431634153536e-04
3.967517595196071840e-04
5.385154838746594600e-04
6.799223164240504949e-04
8.201778813609031556e-04
9.584883322945988082e-04
1.094068506959263104e-03
1.226150137446172569e-03
1.353990087180277548e-03
1.476878397991260219e-03
1.594145998270310536e-03
1.705172114417098867e-03
1.809391058275147549e-03
1.906298401822246330e-03
1.995456400849198071e-03
2.076498569703500493e-03
2.149133338422056557e-03
2.213146769425210214e-03
2.268404236755208227e-03
2.314851041550484989e-03
2.352511964691051706e-03
2.381489774684150251e-03
2.401962694880784531e-03
2.414180831395983020e-03
2.418461749545810623e-03
2.415185110731583873e-03
2.404786536593979222e-03
2.387750823753455320e-03
2.364604567663275946e-03
2.335908341771155469e-03
2.302248552614937546e-03
2.264229181215998785e-03
2.222463354356152537e-03
2.177565098386954629e-03
2.130141272591868674e-03
2.080783892809801462e-03
2.030062902516088352e-03
1.978519573433026087e-03
1.926660537211445645e-03
1.874952633434627492e-03
1.823818612881010102e-03
1.773633780505389423e-03
1.724723516881481681e-03
1.677361845526602552e-03
1.631770992840495850e-03
1.588121883238795750e-03
1.546535647437390299e-03
1.507085957234345413e-03
1.469802246871506832e-03
1.434673703044415244e-03
1.401653935440285012e-03
1.370666218647550137e-03
1.341609163964377349e-03
1.314362757821432469e-03
1.288794669938099794e-03
1.264766571343680117e-03
1.242140453777637729e-03
1.220784791641344206e-03
1.200580349491912760e-03
1.181425666336542203e-03
1.163242002105788512e-03
1.145977606644966095e-03
1.129611349908940347e-03
1.114155523939768444e-03
1.099657825289964167e-03
1.086202425473793004e-03
1.073910201363245274e-03
1.062937985379488635e-03
1.053476899482130510e-03
1.045749798822163696e-03
1.040007953953643420e-03
1.036526825952501342e-03
1.035601223191304990e-03
1.037539767830081934e-03
1.042658835613653268e-03
1.051276110537261062e-03
1.063703843017341309e-03
1.080241848248256805e-03
1.101170500529827061e-03
1.126743799641898849e-03
1.157182653718271011e-03
1.192668445323062524e-03
1.233337042524384119e-03
1.279273417970996181e-03
1.330506872435947884e-03
1.387007060325170203e-03
1.448680807615386826e-03
1.515369868404167287e-03
1.586849578153292804e-03
1.662828519792073842e-03
1.742949223855207955e-03
1.826789866967165046e-03
1.913866926107567982e-03
2.003638856262585002e-03
2.095510600029435941e-03
2.188839026673621794e-03
2.282939103847674272e-03
2.377090794761147190e-03
2.470546527408365358e-03
2.562539146708078808e-03
2.652290257085121710e-03
2.739018802170371976e-03
2.821949744805928115e-03
2.900322793147264329e-03
2.973400960667150171e-03
3.040478907039788434e-03
3.100890891970118236e-03
3.154018229064995023e-03
3.199296227905012047e-03
3.236220408564571653e-03
3.264351954772708782e-03
3.283322381803430862e-03
3.292837259286291070e-03
3.292679049551043569e-03
3.282708977724318241e-03
3.262867908744392260e-03
3.233176277029795737e-03
3.193733024267031775e-03
3.144713625306507897e-03
3.086367229439454865e-03
3.019012945857030457e-03
2.943035311959464866e-03
2.858879091315019716e-03
2.767043423587634433e-03
2.668075443560979833e-03
2.562563413169973835e-03
2.451129525274767067e-03
2.334422438639025769e-03
2.213109685036036573e-03
2.087870012507293729e-03
1.959385746236217470e-03
1.828335289607560749e-03
1.695385869917727254e-03
1.561186586322270897e-03
1.426361835718024202e-03
1.291505163065499338e-03
1.157173708349871870e-03
1.023883156923810706e-03
8.921033158589750361e-04
7.622543675170532183e-04
6.347038130147543943e-04
5.097641136292713638e-04
3.876909955140354067e-04
2.686825115641020196e-04
1.528788259169140250e-04
4.036267556144047873e-05
-6.883949381098965366e-05
-1.747557703632940872e-04
-2.774663352316802814e-04
-3.771004834496674563e-04
-4.738330668650694725e-04
-5.678804502934478105e-04
-6.594960841755488851e-04
-7.489656048820701956e-04
-8.366015714773450147e-04
-9.227379660892271428e-04
-1.007724394596927388e-03
-1.091920176598841800e-03
-1.175688238902398552e-03
-1.259388990118897418e-03
-1.343374197379798313e-03
-1.427980891476795947e-03
-1.513525391353116303e-03
-1.600297468259353475e-03
-1.688554802822105983e-03
-1.778517656006255686e-03
-1.870363960404899375e-03
-1.964224799235063639e-03
-2.060180324641808659e-03
-2.158256219914407754e-03
-2.258420743219888109e-03
-2.360582369246671825e-03
-2.464588154779295045e-03
-2.570222799028108046e-03
-2.677208449161901614e-03
-2.785205317615915138e-03
-2.893813160395442008e-03
-3.002573604028108047e-03
-3.110973297600176223e-03
-3.218448030994302232e-03
-3.324387618681154313e-03
-3.428141685244064617e-03
-3.529026290132270417e-03
-3.626331371431225619e-03
-3.719328940384488639e-03
-3.807281961755913224e-03
-3.889453844154731540e-03
-3.965118453373312098e-03
-4.033570586426109272e-03
-4.094136747047695361e-03
-4.146186065960116331e-03
-4.189141388470765497e-03
-4.222490200137507012e-03
-4.245795325112295716e-03
-4.258705245045713537e-03
-4.260963892985626840e-03
-4.252419664556001712e-03
-4.233033613102810469e-03
-4.202886548849046368e-03
-4.162184947816060208e-03
-4.111265546129534189e-03
-4.050598421568490058e-03
-3.980788454607407136e-03
-3.902575131208149521e-03
-3.816830484688125795e-03
-3.724555229153744210e-03
-3.626872979892517123e-03
-3.525022507743430251e-03
-3.420348158120714143e-03
-3.314288373319727431e-03
-3.208362365768415748e-03
-3.104155168725557332e-03
-3.003301047604083323e-03
-2.907465545252281396e-03
-2.818326308092018815e-03
-2.737552860075770454e-03
-2.666785609240286768e-03
-2.607614325011719646e-03
-2.561556435103022177e-03
-2.530035287506230118e-03
-2.514358792197032323e-03
-2.515698744508687145e-03
-2.535071097112711388e-03
-2.573317510136600809e-03
-2.631088489968425818e-03
-2.708828380649091604e-03
-2.806762525688178724e-03
-2.924886835172146524e-03
-3.062959931627300125e-03
-3.220498128835817472e-03
-3.396773377062720957e-03
-3.590814285077715239e-03
-3.801410314128225894e-03
-4.027119195960642689e-03
-4.266277510456380033e-03
-4.517014381597695902e-03
-4.777268270241107583e-03
-5.044806529898369744e-03
-5.317247719173413302e-03
-5.592086306018944145e-03
-5.866719484028352395e-03
-6.138475879188248253e-03
-6.404645768260280522e-03
-6.662512312257096690e-03
-6.909383473969812894e-03
-7.142624177422457997e-03
-7.359688293472437838e-03
-7.558150082217628130e-03
-7.735734459959986084e-03
-7.890345858767390530e-03
-8.020095072230214520e-03
-8.123323874356571522e-03
-8.198626905071244170e-03
-8.244870579150475470e-03
-8.261208663659888249e-03
-8.247094241452068361e-03
-8.202288013358404947e-03
-8.126862641093069578e-03
-8.021203089126316757e-03
-7.886002907614738169e-03
-7.722256496109485349e-03
-7.531247480202735677e-03
-7.314533247500534623e-03
-7.073925907056869723e-03
-6.811469858413842296e-03
-6.529416362862895673e-03
-6.230195363454494803e-03
-5.916385046343075778e-03
-5.590679396647644725e-03
-5.255854390984809540e-03
-4.914733199853893106e-03
-4.570150878543516836e-03
-4.224919039616981294e-03
-3.881791050637074282e-03
-3.543428149348364347e-03
-3.212367113899959603e-03
-2.890989722803740530e-03
-2.581494534005121955e-03
-2.285871429204369611e-03
-2.005879121262791383e-03
-1.743026057915915503e-03
-1.498554780476404457e-03
-1.273430172477647924e-03
-1.068331553382455583e-03
-8.836487689422720592e-04
-7.194822672271222871e-04
-5.756471773839257847e-04
-4.516812216405006043e-04
-3.468563891868155745e-04
-2.601940891966351543e-04
-1.904836230366034003e-04
-1.363036290603162606e-04
-9.604621240416982256e-05
-6.794332681743235256e-05
-5.009510288174430287e-05
-4.049976316100813601e-05
-3.708454925978350175e-05
-3.773734609740832935e-05
-4.033859778543927153e-05
-4.279299114152414571e-05
-4.306061057666382490e-05
-3.918712143292874477e-05
-2.933261250055812884e-05
-1.179876186344282443e-05
1.494597229555971991e-05
5.224340222096450991e-05
1.012251896913597682e-04
1.627949944068430156e-04
2.376136508221532396e-04
3.260871480282706548e-04
4.283577396293946011e-04
5.442981284417792651e-04
6.735086287290406896e-04
8.153175430878382372e-04
9.687844248824940829e-04
1.132706235964702456e-03
1.305626278413373571e-03
1.485845729463104031e-03
1.671437634476274697e-03
1.860263213671858222e-03
2.049990255011663928e-03
2.238113299601573493e-03
2.421975605552934441e-03
2.598792539087245706e-03
2.765676185000021711e-03
2.919661114279762347e-03
3.057730911342504323e-03
3.176845378410854924e-03
3.273968152880015001e-03
3.346094611479154615e-03
3.390279851257008842e-03
3.403666540625397384e-03
3.383512505041352033e-03
3.327217860289108115e-03
3.232351535572991832e-03
3.096676938100633228e-03
2.918176661762094098e-03
2.695076068630957063e-03
2.425865539374579428e-03
2.109321157199931830e-03
1.744523763310136880e-03
1.330876101867621260e-03
8.681179301456915442e-04
3.563388083199318110e-04
-2.040115830760227489e-04
-8.121156866423414819e-04
-1.466783341759087108e-03
-2.166449968448665424e-03
-2.909177973090827304e-03
-3.692661611829700912e-03
-4.514235280968252259e-03
-5.370885384609419555e-03
-6.259266065998122207e-03
-7.175718571220984776e-03
-8.116294369302822290e-03
-9.076782066189052756e-03
-1.005273795488319764e-02
-1.103952007425188127e-02
-1.203232559512711769e-02
-1.302623123152869648e-02
-1.401623650229361952e-02
-1.499730934224346827e-02
-1.596443371916706974e-02
-1.691265872030757109e-02
-1.783714854776604838e-02
-1.873323301136165658e-02
-1.959645771922518750e-02
-2.042263331200894899e-02
-2.120788313953777399e-02
-2.194868859903348693e-02
-2.264193153410106255e-02
-2.328493283433171954e-02
-2.387548670765919992e-02
-2.441188981198215771e-02
-2.489296468503496285e-02
-2.531807705302720202e-02
-2.568714634823372062e-02
-2.600064909244646436e-02
-2.625961478546209871e-02
-2.646561413491638898e-02
-2.662073961857180232e-02
-2.672757824147048086e-02
-2.678917664568050000e-02
-2.680899897724455666e-02
-2.679087771753546274e-02
-2.673895818375304420e-02
-2.665763726857652699e-02
-2.655149722924519951e-02
-2.642523536846952403e-02
-2.628359065016988572e-02
-2.613126831542116751e-02
-2.597286363533996695e-02
-2.581278601430828448e-02
-2.565518467298408614e-02
-2.550387721644277461e-02
-2.536228227827979145e-02
-2.523335756942486977e-02
-2.511954441293699769e-02
-2.502271988351901372e-02
-2.494415757293567959e-02
-2.488449790213584367e-02
-2.484372870395406760e-02
-2.482117666211878029e-02
-2.481551001974453136e-02
-2.482475290185385750e-02
-2.484631119936631105e-02
-2.487700980648992893e-02
-2.491314096494051319e-02
-2.495052309836683774e-02
-2.498456929324091233e-02
-2.501036453918517935e-02
-2.502275051819526086e-02
-2.501641662090402229e-02
-2.498599569940231774e-02
-2.492616295012902924e-02
-2.483173618143313943e-02
-2.469777579131049797e-02
-2.451968243937920761e-02
-2.429329072146528545e-02
-2.401495696066584598e-02
-2.368163929721014277e-02
-2.329096849605152147e-02
-2.284130788276593493e-02
-2.233180092473489864e-02
-2.176240543291078217e-02
-2.113391316061474096e-02
-2.044795426535505473e-02
-1.970698597517493364e-02
-1.891426536304496864e-02
-1.807380618562233823e-02
-1.719032029621051991e-02
-1.626914420035960318e-02
-1.531615176811690869e-02
-1.433765432680760010e-02
-1.334028970548205642e-02
-1.233090194500140874e-02
-1.131641373290512634e-02
-1.030369370106248676e-02
-9.299420930225680421e-03
-8.309949240640397000e-03
-7.341173690467879369e-03
-6.398401819085347032e-03
-5.486232291097975326e-03
-4.608443395618595437e-03
-3.767893694028661387e-03
-2.966437150643824391e-03
-2.204854684172577548e-03
-1.482803875838397886e-03
-7.987882393090987247e-04
-1.501472965999404064e-04
4.669318631524638024e-04
1.057381139105941642e-03
1.627196044571806773e-03
2.183358934782613555e-03
2.733741606524908024e-03
3.286988468242564750e-03
3.852382055064376351e-03
4.439692802310838717e-03
5.059015499645064945e-03
5.720595166646685360e-03
6.434645220201940137e-03
7.211161166980415392e-03
8.059733162204750848e-03
8.989360963701632443e-03
1.000827474013189257e-02
1.112376525205451168e-02
1.234202684148025427e-02
1.366801653780997348e-02
1.510533232036344320e-02
1.665611337628994382e-02
1.832096465493606927e-02
2.009890801301738097e-02
2.198736137529752610e-02
2.398214714055844562e-02
2.607753042864451032e-02
2.826628730183976951e-02
3.053980234625095630e-02
3.288819470694734348e-02
3.530047088124105281e-02
3.776470212624209732e-02
4.026822382095993080e-02
4.279785361833102902e-02
4.534012476670457731e-02
4.788153067387944384e-02
5.040877632278020076e-02
5.290903210546862162e-02
5.537018528548851015e-02
5.778108432540540740e-02
6.013177132420939597e-02
6.241369782989329013e-02
6.461991957374881024e-02
6.674526588451999698e-02
6.878647987020584942e-02
7.074232612332240211e-02
7.261366286021980754e-02
7.440347636443876700e-02
7.611687597574072484e-02
7.776104879237265288e-02
7.934517382647200689e-02
8.088029624593234823e-02
8.237916295934483157e-02
8.385602165980685085e-02
8.532638632452338445e-02
8.680677271476348877e-02
8.831440808022124334e-02
8.986692008817663557e-02
9.148201024129014314e-02
9.317711784404077158e-02
9.496908068036886974e-02
9.687379891259373377e-02
9.890590887951870858e-02
1.010784734446361632e-01
1.034026954419027533e-01
1.058876605445016467e-01
1.085401156096741232e-01
1.113642878372704537e-01
1.143617498439851304e-01
1.175313346873731457e-01
1.208691042778204938e-01
1.243683736695108538e-01
1.280197927594100837e-01
1.318114858663509970e-01
1.357292486265295750e-01
1.397568004578529088e-01
1.438760898536398658e-01
1.480676485657746455e-01
1.523109897568429572e-01
1.565850441385639169e-01
1.608686272291687813e-01
1.651409299353734372e-01
1.693820240220598738e-01
1.735733733862014072e-01
1.776983416033555419e-01
1.817426858217158492e-01
1.856950270965073702e-01
1.895472870096485962e-01
1.932950809640612000e-01
1.969380585518099580e-01
2.004801822479523321e-01
2.039299362336996768e-01
2.073004580607910874e-01
2.106095869514681973e-01
2.138798237680246128e-01
2.171381988804398366e-01
2.204160456081455388e-01
2.237486784713813293e-01
2.271749771566209108e-01
2.307368784309301590e-01
2.344787801790254589e-01
2.384468631687642337e-01
2.426883377720742418e-01
2.472506244505016937e-01
2.521804781574180643e-01
2.575230681480007999e-01
2.633210257715818403e-01
2.696134740482312719e-01
2.764350533090630946e-01
2.838149580506225123e-01
2.917760004413604280e-01
3.003337161030949498e-01
3.094955275811855366e-01
3.192599807146700441e-01
3.296160686891917435e-01
3.405426573358947828e-01
3.520080245399262453e-01
