-2.866456682921952881e-02
-2.866404486539473467e-02
-2.866352221414777274e-02
-2.866299887534654034e-02
-2.866247484885895910e-02
-2.866195013455298535e-02
-2.866142473229662743e-02
-2.866089864195790413e-02
-2.866037186340486889e-02
-2.865984439650561683e-02
-2.865931624112827425e-02
-2.865878739714099177e-02
-2.865825786441195816e-02
-2.865772764280941770e-02
-2.865719673220165631e-02
-2.865666513245698765e-02
-2.865613284344375317e-02
-2.865559986503033937e-02
-2.865506619708516403e-02
-2.865453183947667265e-02
-2.865399679207332809e-02
-2.865346105474362789e-02
-2.865292462735610085e-02
-2.865238750977931736e-02
-2.865184970188187907e-02
-2.865131120353240843e-02
-2.865077201459957645e-02
-2.865023213495208887e-02
-2.864969156445869997e-02
-2.864915030298821261e-02
-2.864860835040947823e-02
-2.864806570659138296e-02
-2.864752237140285110e-02
-2.864697834471284510e-02
-2.864643362639038987e-02
-2.864588821630454848e-02
-2.864534211432444993e-02
-2.864479532031925790e-02
-2.864424783415819159e-02
-2.864369965571052917e-02
-2.864315078484561475e-02
-2.864260122143284445e-02
-2.864205096534166994e-02
-2.864150001644161225e-02
-2.864094837460224793e-02
-2.864039603969320905e-02
-2.863984301158419704e-02
-2.863928929014496888e-02
-2.863873487524534051e-02
-2.863817976675520419e-02
-2.863762396454451117e-02
-2.863706746848329945e-02
-2.863651027844165212e-02
-2.863595239428972511e-02
-2.863539381589773683e-02
-2.863483454313596466e-02
-2.863427457587473454e-02
-2.863371391398443835e-02
-2.863315255733552694e-02
-2.863259050579852402e-02
-2.863202775924400534e-02
-2.863146431754260215e-02
-2.863090018056499778e-02
-2.863033534818194836e-02
-2.862976982026428641e-02
-2.862920359668289991e-02
-2.862863667730875666e-02
-2.862806906201289039e-02
-2.862750075066641808e-02
-2.862693174314051223e-02
-2.862636203930640083e-02
-2.862579163903537782e-02
-2.862522054219878917e-02
-2.862464874866803982e-02
-2.862407625831463187e-02
-2.862350307101011945e-02
-2.862292918662612956e-02
-2.862235460503435164e-02
-2.862177932610656186e-02
-2.862120334971458846e-02
-2.862062667573034291e-02
-2.862004930402580263e-02
-2.861947123447299360e-02
-2.861889246694402505e-02
-2.861831300131109299e-02
-2.861773283744645582e-02
-2.861715197522244833e-02
-2.861657041451147812e-02
-2.861598815518603955e-02
-2.861540519711870678e-02
-2.861482154018213375e-02
-2.861423718424905074e-02
-2.861365212919226436e-02
-2.861306637488465754e-02
-2.861247992119919301e-02
-2.861189276800893064e-02
-2.861130491518701011e-02
-2.861071636260666129e-02
-2.861012711014119386e-02
-2.860953715766401118e-02
-2.860894650504859638e-02
-2.860835515216851588e-02
-2.860776309889741936e-02
-2.860717034510902590e-02
-2.860657689067715170e-02
-2.860598273547571013e-02
-2.860538787937868047e-02
-2.860479232226012525e-02
-2.860419606399416600e-02
-2.860359910445500753e-02
-2.860300144351692747e-02
-2.860240308105427634e-02
-2.860180401694147403e-02
-2.860120425105304107e-02
-2.860060378326358815e-02
-2.860000261344784050e-02
-2.859940074148059272e-02
-2.859879816723671225e-02
-2.859819489059114289e-02
-2.859759091141891862e-02
-2.859698622959517753e-02
-2.859638084499515828e-02
-2.859577475749418632e-02
-2.859516796696766686e-02
-2.859456047329108491e-02
-2.859395227634001571e-02
-2.859334337599012468e-02
-2.859273377211719522e-02
-2.859212346459709050e-02
-2.859151245330575353e-02
-2.859090073811923136e-02
-2.859028831891367861e-02
-2.858967519556534359e-02
-2.858906136795056827e-02
-2.858844683594580563e-02
-2.858783159942761623e-02
-2.858721565827265429e-02
-2.858659901235768505e-02
-2.858598166155956743e-02
-2.858536360575526791e-02
-2.858474484482185357e-02
-2.858412537863648864e-02
-2.858350520707645878e-02
-2.858288433001915027e-02
-2.858226274734205000e-02
-2.858164045892275587e-02
-2.858101746463897683e-02
-2.858039376436851894e-02
-2.857976935798929932e-02
-2.857914424537934955e-02
-2.857851842641680531e-02
-2.857789190097990289e-02
-2.857726466894698961e-02
-2.857663673019652725e-02
-2.857600808460706784e-02
-2.857537873205725359e-02
-2.857474867242581693e-02
-2.857411790559159087e-02
-2.857348643143350561e-02
-2.857285424983059541e-02
-2.857222136066200208e-02
-2.857158776380696805e-02
-2.857095345914483983e-02
-2.857031844655507150e-02
-2.856968272591723507e-02
-2.856904629711100665e-02
-2.856840916001616645e-02
-2.856777131451260221e-02
-2.856713276048030922e-02
-2.856649349779938687e-02
-2.856585352635004210e-02
-2.856521284601260327e-02
-2.856457145666751671e-02
-2.856392935819532242e-02
-2.856328655047665754e-02
-2.856264303339228414e-02
-2.856199880682307179e-02
-2.856135387064999420e-02
-2.856070822475413606e-02
-2.856006186901669658e-02
-2.855941480331898250e-02
-2.855876702754240812e-02
-2.855811854156851265e-02
-2.855746934527894632e-02
-2.855681943855548424e-02
-2.855616882128002645e-02
-2.855551749333459788e-02
-2.855486545460132405e-02
-2.855421270496243114e-02
-2.855355924430027018e-02
-2.855290507249731713e-02
-2.855225018943617285e-02
-2.855159459499955268e-02
-2.855093828907028994e-02
-2.855028127153131853e-02
-2.854962354226569729e-02
-2.854896510115658564e-02
-2.854830594808726099e-02
-2.854764608294111522e-02
-2.854698550560166859e-02
-2.854632421595255931e-02
-2.854566221387754010e-02
-2.854499949926047817e-02
-2.854433607198535866e-02
-2.854367193193629859e-02
-2.854300707899753292e-02
-2.854234151305340070e-02
-2.854167523398835546e-02
-2.854100824168696524e-02
-2.854034053603393337e-02
-2.853967211691408462e-02
-2.853900298421234785e-02
-2.853833313781376987e-02
-2.853766257760351893e-02
-2.853699130346688470e-02
-2.853631931528928870e-02
-2.853564661295627386e-02
-2.853497319635352886e-02
-2.853429906536686031e-02
-2.853362421988221362e-02
-2.853294865978568337e-02
-2.853227238496348558e-02
-2.853159539530197158e-02
-2.853091769068762454e-02
-2.853023927100706639e-02
-2.852956013614703357e-02
-2.852888028599438394e-02
-2.852819972043607946e-02
-2.852751843935920351e-02
-2.852683644265096435e-02
-2.852615373019869519e-02
-2.852547030188985408e-02
-2.852478615761205177e-02
-2.852410129725302390e-02
-2.852341572070063100e-02
-2.852272942784285850e-02
-2.852204241856781675e-02
-2.852135469276372709e-02
-2.852066625031893579e-02
-2.851997709112191748e-02
-2.851928721506127168e-02
-2.851859662202573323e-02
-2.851790531190416533e-02
-2.851721328458556304e-02
-2.851652053995904976e-02
-2.851582707791388768e-02
-2.851513289833946391e-02
-2.851443800112529389e-02
-2.851374238616103882e-02
-2.851304605333652639e-02
-2.851234900254173699e-02
-2.851165123366676893e-02
-2.851095274660185239e-02
-2.851025354123731814e-02
-2.850955361746363576e-02
-2.850885297517143438e-02
-2.850815161425147848e-02
-2.850744953459468864e-02
-2.850674673609212423e-02
-2.850604321863501461e-02
-2.850533898211473835e-02
-2.850463402642281971e-02
-2.850392835145091133e-02
-2.850322195709078382e-02
-2.850251484323435350e-02
-2.850180700977366852e-02
-2.850109845660091928e-02
-2.850038918360844192e-02
-2.849967919068872521e-02
-2.849896847773440364e-02
-2.849825704463825396e-02
-2.849754489129317434e-02
-2.849683201759220866e-02
-2.849611842342854653e-02
-2.849540410869549900e-02
-2.849468907328652281e-02
-2.849397331709522391e-02
-2.849325684001535741e-02
-2.849253964194082417e-02
-2.849182172276565686e-02
-2.849110308238402348e-02
-2.849038372069024466e-02
-2.848966363757877637e-02
-2.848894283294422028e-02
-2.848822130668132724e-02
-2.848749905868500076e-02
-2.848677608885029355e-02
-2.848605239707240402e-02
-2.848532798324666590e-02
-2.848460284726856556e-02
-2.848387698903372817e-02
-2.848315040843792806e-02
-2.848242310537708530e-02
-2.848169507974727260e-02
-2.848096633144469106e-02
-2.848023686036569094e-02
-2.847950666640677170e-02
-2.847877574946458198e-02
-2.847804410943589187e-02
-2.847731174621761369e-02
-2.847657865970681240e-02
-2.847584484980071606e-02
-2.847511031639670537e-02
-2.847437505939231367e-02
-2.847363907868521657e-02
-2.847290237417322845e-02
-2.847216494575431286e-02
-2.847142679332659992e-02
-2.847068791678835850e-02
-2.846994831603799625e-02
-2.846920799097407348e-02
-2.846846694149530663e-02
-2.846772516750055437e-02
-2.846698266888884193e-02
-2.846623944555934718e-02
-2.846549549741140064e-02
-2.846475082434449938e-02
-2.846400542625828270e-02
-2.846325930305253216e-02
-2.846251245462718196e-02
-2.846176488088229470e-02
-2.846101658171807519e-02
-2.846026755703488093e-02
-2.845951780673321163e-02
-2.845876733071372316e-02
-2.845801612887719628e-02
-2.845726420112455399e-02
-2.845651154735687541e-02
-2.845575816747539580e-02
-2.845500406138149613e-02
-2.845424922897669961e-02
-2.845349367016268213e-02
-2.845273738484125833e-02
-2.845198037291439899e-02
-2.845122263428422060e-02
-2.845046416885297150e-02
-2.844970497652305613e-02
-2.844894505719704550e-02
-2.844818441077768406e-02
-2.844742303716787588e-02
-2.844666093627069153e-02
-2.844589810798934734e-02
-2.844513455222721920e-02
-2.844437026888786343e-02
-2.844360525787499594e-02
-2.844283951909248181e-02
-2.844207305244437003e-02
-2.844130585783487611e-02
-2.844053793516838555e-02
-2.843976928434944693e-02
-2.843899990528275454e-02
-2.843822979787316921e-02
-2.843745896202572523e-02
-2.843668739764561998e-02
-2.843591510463818264e-02
-2.843514208290891243e-02
-2.843436833236346467e-02
-2.843359385290765776e-02
-2.843281864444746967e-02
-2.843204270688903454e-02
-2.843126604013864606e-02
-2.843048864410275753e-02
-2.842971051868798185e-02
-2.842893166380108805e-02
-2.842815207934900473e-02
-2.842737176523882359e-02
-2.842659072137779241e-02
-2.842580894767330474e-02
-2.842502644403293102e-02
-2.842424321036441520e-02
-2.842345924657564693e-02
-2.842267455257467546e-02
-2.842188912826969921e-02
-2.842110297356906581e-02
-2.842031608838127901e-02
-2.841952847261499868e-02
-2.841874012617903386e-02
-2.841795104898237057e-02
-2.841716124093416826e-02
-2.841637070194374601e-02
-2.841557943192056859e-02
-2.841478743077426039e-02
-2.841399469841459149e-02
-2.841320123475149506e-02
-2.841240703969503956e-02
-2.841161211315543916e-02
-2.841081645504308500e-02
-2.841002006526853127e-02
-2.840922294374248827e-02
-2.840842509037582592e-02
-2.840762650507958065e-02
-2.840682718776493462e-02
-2.840602713834321225e-02
-2.840522635672590099e-02
-2.840442484282465485e-02
-2.840362259655127702e-02
-2.840281961781772682e-02
-2.840201590653612315e-02
-2.840121146261873758e-02
-2.840040628597798739e-02
-2.839960037652644945e-02
-2.839879373417686717e-02
-2.839798635884214356e-02
-2.839717825043534122e-02
-2.839636940886968927e-02
-2.839555983405857645e-02
-2.839474952591554760e-02
-2.839393848435431064e-02
-2.839312670928874002e-02
-2.839231420063285938e-02
-2.839150095830085194e-02
-2.839068698220707787e-02
-2.838987227226604654e-02
-2.838905682839241301e-02
-2.838824065050099543e-02
-2.838742373850674725e-02
-2.838660609232479537e-02
-2.838578771187041591e-02
-2.838496859705904804e-02
-2.838414874780628011e-02
-2.838332816402784967e-02
-2.838250684563965384e-02
-2.838168479255773896e-02
-2.838086200469832829e-02
-2.838003848197779427e-02
-2.837921422431268631e-02
-2.837838923161971338e-02
-2.837756350381574408e-02
-2.837673704081781004e-02
-2.837590984254310944e-02
-2.837508190890901394e-02
-2.837425323983306866e-02
-2.837342383523299913e-02
-2.837259369502670783e-02
-2.837176281913227072e-02
-2.837093120746792679e-02
-2.837009885995207814e-02
-2.836926577650328643e-02
-2.836843195704027640e-02
-2.836759740148192196e-02
-2.836676210974726012e-02
-2.836592608175549091e-02
-2.836508931742596010e-02
-2.836425181667817652e-02
-2.836341357943181554e-02
-2.836257460560670171e-02
-2.836173489512284693e-02
-2.836089444790043657e-02
-2.836005326385982947e-02
-2.835921134292154755e-02
-2.835836868500627925e-02
-2.835752529003487607e-02
-2.835668115792836300e-02
-2.835583628860793848e-02
-2.835499068199497791e-02
-2.835414433801103709e-02
-2.835329725657784530e-02
-2.835244943761730183e-02
-2.835160088105145512e-02
-2.835075158680252019e-02
-2.834990155479287510e-02
-2.834905078494505751e-02
-2.834819927718176813e-02
-2.834734703142587076e-02
-2.834649404760037489e-02
-2.834564032562844962e-02
-2.834478586543343753e-02
-2.834393066693883037e-02
-2.834307473006830030e-02
-2.834221805474566869e-02
-2.834136064089491300e-02
-2.834050248844015296e-02
-2.833964359730565749e-02
-2.833878396741586203e-02
-2.833792359869536509e-02
-2.833706249106892130e-02
-2.833620064446144490e-02
-2.833533805879801665e-02
-2.833447473400389077e-02
-2.833361067000447764e-02
-2.833274586672536455e-02
-2.833188032409230186e-02
-2.833101404203119608e-02
-2.833014702046812716e-02
-2.832927925932932425e-02
-2.832841075854117610e-02
-2.832754151803022064e-02
-2.832667153772316926e-02
-2.832580081754688950e-02
-2.832492935742840848e-02
-2.832405715729491291e-02
-2.832318421707375258e-02
-2.832231053669244034e-02
-2.832143611607864514e-02
-2.832056095516023372e-02
-2.831968505386523241e-02
-2.831880841212185487e-02
-2.831793102985846050e-02
-2.831705290700358216e-02
-2.831617404348592618e-02
-2.831529443923435849e-02
-2.831441409417791502e-02
-2.831353300824581559e-02
-2.831265118136745695e-02
-2.831176861347240933e-02
-2.831088530449042337e-02
-2.831000125435140582e-02
-2.830911646298540918e-02
-2.830823093032267326e-02
-2.830734465629361138e-02
-2.830645764082879295e-02
-2.830556988385895742e-02
-2.830468138531500380e-02
-2.830379214512800112e-02
-2.830290216322918495e-02
-2.830201143954994697e-02
-2.830111997402186622e-02
-2.830022776657668132e-02
-2.829933481714630092e-02
-2.829844112566280018e-02
-2.829754669205842427e-02
-2.829665151626558836e-02
-2.829575559821689151e-02
-2.829485893784508890e-02
-2.829396153508310224e-02
-2.829306338986400937e-02
-2.829216450212105813e-02
-2.829126487178764901e-02
-2.829036449879735252e-02
-2.828946338308390915e-02
-2.828856152458122594e-02
-2.828765892322335218e-02
-2.828675557894451756e-02
-2.828585149167910096e-02
-2.828494666136163738e-02
-2.828404108792681795e-02
-2.828313477130948647e-02
-2.828222771144465325e-02
-2.828131990826748127e-02
-2.828041136171330003e-02
-2.827950207171759170e-02
-2.827859203821600498e-02
-2.827768126114435163e-02
-2.827676974043860647e-02
-2.827585747603491434e-02
-2.827494446786958660e-02
-2.827403071587909766e-02
-2.827311622000008851e-02
-2.827220098016936314e-02
-2.827128499632388867e-02
-2.827036826840079869e-02
-2.826945079633737604e-02
-2.826853258007106656e-02
-2.826761361953946880e-02
-2.826669391468035822e-02
-2.826577346543170111e-02
-2.826485227173161294e-02
-2.826393033351836878e-02
-2.826300765073043453e-02
-2.826208422330642525e-02
-2.826116005118511562e-02
-2.826023513430542949e-02
-2.825930947260643991e-02
-2.825838306602737951e-02
-2.825745591450763011e-02
-2.825652801798673661e-02
-2.825559937640438959e-02
-2.825466998970042540e-02
-2.825373985781485381e-02
-2.825280898068784421e-02
-2.825187735825971172e-02
-2.825094499047093102e-02
-2.825001187726212254e-02
-2.824907801857405240e-02
-2.824814341434762899e-02
-2.824720806452391680e-02
-2.824627196904413995e-02
-2.824533512784968212e-02
-2.824439754088208659e-02
-2.824345920808302504e-02
-2.824252012939431136e-02
-2.824158030475790518e-02
-2.824063973411593612e-02
-2.823969841741070033e-02
-2.823875635458466399e-02
-2.823781354558044937e-02
-2.823686999034081754e-02
-2.823592568880868570e-02
-2.823498064092712714e-02
-2.823403484663937132e-02
-2.823308830588878993e-02
-2.823214101861890382e-02
-2.823119298477337266e-02
-2.823024420429601222e-02
-2.822929467713080481e-02
-2.822834440322188887e-02
-2.822739338251354160e-02
-2.822644161495017207e-02
-2.822548910047634196e-02
-2.822453583903675525e-02
-2.822358183057625119e-02
-2.822262707503983212e-02
-2.822167157237265300e-02
-2.822071532252001802e-02
-2.821975832542738052e-02
-2.821880058104036040e-02
-2.821784208930472673e-02
-2.821688285016639430e-02
-2.821592286357142709e-02
-2.821496212946604173e-02
-2.821400064779660058e-02
-2.821303841850962557e-02
-2.821207544155177396e-02
-2.821111171686984873e-02
-2.821014724441078814e-02
-2.820918202412169007e-02
-2.820821605594978077e-02
-2.820724933984243565e-02
-2.820628187574716547e-02
-2.820531366361160933e-02
-2.820434470338353469e-02
-2.820337499501085476e-02
-2.820240453844162498e-02
-2.820143333362402915e-02
-2.820046138050638293e-02
-2.819948867903713033e-02
-2.819851522916485762e-02
-2.819754103083829677e-02
-2.819656608400630815e-02
-2.819559038861787700e-02
-2.819461394462211695e-02
-2.819363675196826999e-02
-2.819265881060573076e-02
-2.819168012048401881e-02
-2.819070068155280634e-02
-2.818972049376190780e-02
-2.818873955706127643e-02
-2.818775787140101463e-02
-2.818677543673136707e-02
-2.818579225300271718e-02
-2.818480832016558024e-02
-2.818382363817059644e-02
-2.818283820696854819e-02
-2.818185202651035323e-02
-2.818086509674706114e-02
-2.817987741762986720e-02
-2.817888898911011936e-02
-2.817789981113929046e-02
-2.817690988366898519e-02
-2.817591920665092967e-02
-2.817492778003698184e-02
-2.817393560377914191e-02
-2.817294267782955927e-02
-2.817194900214050474e-02
-2.817095457666438096e-02
-2.816995940135370857e-02
-2.816896347616115390e-02
-2.816796680103952899e-02
-2.816696937594178815e-02
-2.816597120082101058e-02
-2.816497227563041772e-02
-2.816397260032336633e-02
-2.816297217485334500e-02
-2.816197099917398111e-02
-2.816096907323902693e-02
-2.815996639700235962e-02
-2.815896297041798474e-02
-2.815795879344003966e-02
-2.815695386602280401e-02
-2.815594818812067884e-02
-2.815494175968821441e-02
-2.815393458068008586e-02
-2.815292665105108283e-02
-2.815191797075612332e-02
-2.815090853975025717e-02
-2.814989835798867995e-02
-2.814888742542670172e-02
-2.814787574201975742e-02
-2.814686330772341386e-02
-2.814585012249337312e-02
-2.814483618628544487e-02
-2.814382149905559835e-02
-2.814280606075993812e-02
-2.814178987135470406e-02
-2.814077293079626438e-02
-2.813975523904110529e-02
-2.813873679604582054e-02
-2.813771760176711836e-02
-2.813669765616182497e-02
-2.813567695918688799e-02
-2.813465551079938343e-02
-2.813363331095650177e-02
-2.813261035961553413e-02
