CH4,CH5,CH6,CH7,CH8,CH9,CH10,CH11,CH12,CH13,CH14,CH15,CH16,CH17,CH18,CH19
0.16366865,0.27778023,0.63116109,3.31195998,-0.01269826,0.8640219000000001,0.50938553,0.08515593,0.01492551,1.33984613,-0.24722426,0,3.44323754,0.91316032,0,0
0.14820506,0.26160175,0.62044615,3.32432961,-0.02016994,0.84097368,0.48845431,0.07756671,0.01488465,1.3350898000000002,-0.26384047,0,3.44401908,0.89387405,0,0
0.11135378,0.1966299,0.59663874,3.32281446,-0.06327184,0.80293232,0.44768012,0.05049879,0.01347387,1.30447662,-0.30501124,0,3.40812087,0.84606898,0,0
0.07421675,0.13703547,0.5650295,3.31091046,-0.11110918,0.75605565,0.40020564,0.00645986,0.01593938,1.27144337,-0.35991251,0,3.41442561,0.8148188000000001,0,0
0.15885967,0.27591303,0.59479761,3.26261997,-0.02704599,0.82287407,0.48532119,0.08479188,0.01104409,1.34353399,-0.26200241,0,3.41089439,0.89510304,0,0
0.15124242,0.24641283,0.60748804,3.2894968999999996,-0.02515507,0.8302651,0.49792758,0.09568965,0.01061822,1.34403014,-0.25333917,0,3.43072414,0.90711159,0,0
0.13196874,0.21611913,0.59229004,3.29661202,-0.03924128,0.8100391,0.47621587,0.07783583,0.01255181,1.31986737,-0.28830916,0,3.43292212,0.86635768,0,0
0.09270034,0.16427149,0.57341617,3.30223227,-0.07867244,0.78190762,0.44084716,0.04940676,0.01450516,1.29621828,-0.32712939,0,3.41089439,0.82873619,0,0
0.04996799,0.11845302,0.54672515,3.25635552,-0.11590158,0.75948787,0.41885415,0.04194908,0.01737737,1.27877617,-0.33840889,0,3.40228701,0.88350761,0,0
0.18209603,0.29537895,0.61941975,3.29025888,0.01338596,0.85742456,0.53379834,0.11897776,0.01207623,1.35314381,-0.24256016,0,3.45001364,0.90824133,0,0
0.17942892,0.28764662,0.63066131,3.33510733,0.01496929,0.86432415,0.53577828,0.11426178,0.01447951,1.3399291000000002,-0.25721489999999997,0,3.45085025,0.91079026,0,0
0.14768118,0.24735519,0.61471599,3.35200024,-0.01429215,0.83947575,0.50512886,0.08755791,0.01407151,1.31394458,-0.29770645,0,3.41897392,0.86739922,0,0
0.12528744,0.20072946,0.59893662,3.32843494,-0.05486067,0.80855721,0.46460462,0.05479361,0.0121472,1.29106522,-0.33784905,0,3.4480989,0.82803851,0,0
0.21441124,0.34005025,0.65153629,3.37237167,0.03737504,0.89368296,0.56478006,0.12552862,0.01227554,1.36316848,-0.24384762,0,3.4802115,0.94454914,0,0
0.20995831,0.34406126,0.66770619,3.42867064,0.05028636,0.90397102,0.57307231,0.13395679,0.00992308,1.36047494,-0.23793431,0,3.47306657,0.93216252,0,0
0.19003302,0.30035459999999997,0.6569252,3.42352247,0.012069,0.8822698,0.54271483,0.10793574,0.01358372,1.34110773,-0.27384543,0,3.45807409,0.90441465,0,0
0.15916938,0.25875127,0.62988168,3.44329548,-0.027905900000000004,0.8449738000000001,0.49905998,0.07003105,0.01580742,1.32152057,-0.3167645,0,3.47388959,0.87448335,0,0
0.24532954,0.38531703,0.68354964,3.46190572,0.057387099999999996,0.92873347,0.59184897,0.14542143,0.01299802,1.39523172,-0.21678415,0,3.49737334,0.98773384,0,0
0.233977,0.37486851,0.69159377,3.4836185,0.06097693,0.93477225,0.59954172,0.14631663,0.0119165,1.38895035,-0.21596332,0,3.51386356,0.97724015,0,0
0.20770565,0.33120993,0.67072326,3.47074056,0.02429866,0.89629924,0.55498081,0.12173659,0.00999426,1.3677788999999998,-0.25324529,0,3.5044383999999997,0.94815314,0,0
0.1748573,0.27260977,0.6455614000000001,3.46029353,-0.02506886,0.85525846,0.51137036,0.08238903,0.01277143,1.34429097,-0.300446,0,3.4999547,0.91813791,0,0
0.24755463,0.40606731,0.67589474,3.4161489,0.05165564,0.92264807,0.59034956,0.14754464,0.01070035,1.41374779,-0.21093471,0,3.49874878,1.00044954,0,0
0.25163803,0.39188516,0.69710475,3.49803662,0.06108914,0.94057178,0.60657042,0.16071816,0.00842073,1.41247654,-0.19536041,0,3.53031182,1.0223495999999999,0,0
0.23198108,0.36299115,0.68704998,3.49974322,0.04078376,0.92376781,0.58705193,0.13947554,0.01232507,1.3906225,-0.22430095,0,3.52588773,0.99138087,0,0
0.19305559,0.30832571,0.66183835,3.46149325,-0.00156852,0.88054925,0.53750867,0.10856581,0.01010437,1.36785388,-0.26393524,0,3.50108886,0.94949126,0,0
0.16167355,0.23701742,0.62997121,3.4061470000000003,-0.05903380000000001,0.83693713,0.48361251,0.05986709999999999,0.0152697,1.33303595,-0.32163146,0,3.48572683,0.90408689,0,0
0.24527635,0.38963002,0.68506223,3.41026497,0.05077916,0.93920773,0.59408998,0.15070482,0.01342522,1.41091275,-0.19704886,0,3.49917459,1.02316582,0,0
0.2502217,0.39922982,0.70600784,3.42240381,0.0692568,0.95894599,0.61177522,0.16167119,0.00987766,1.41418648,-0.18244919,0,3.54206753,1.01799786,0,0
0.22417262,0.36288375,0.69377321,3.41998339,0.03940171,0.93946356,0.58377981,0.13384566,0.01176089,1.38889706,-0.21996608,0,3.5132091,0.97843862,0,0
0.19725201,0.32110775,0.67380536,3.42906404,0.00471652,0.90657091,0.54782897,0.10346714,0.00924287,1.37258959,-0.2558614,0,3.50638032,0.93577498,0,0
0.24319358,0.42826232,0.69869471,3.389709,0.05929314,0.972776,0.62297243,0.16016546,0.01167864,1.42996347,-0.1775358,0,3.5044383999999997,1.02792025,0,0
0.26434991,0.44351327,0.73191512,3.53984714,0.08772944,0.99930918,0.64207679,0.16582714,0.00884561,1.44844663,-0.15759674,0,3.54528046,1.02602184,0,0
0.25591204,0.43956497,0.74691296,3.60509181,0.0857502,1.0129472,0.65237296,0.16135108,0.0105499,1.44800377,-0.16467214,0,3.56793118,1.01312816,0,0
0.22139779,0.3966887,0.72748613,3.63628793,0.05037004,0.98677111,0.62349492,0.12832542,0.01279366,1.43084049,-0.20522633,0,3.54461575,0.96881336,0,0
0.18900968,0.33594102,0.70573324,3.64002395,-0.00308407,0.94193453,0.56957632,0.09146415,0.00772616,1.41678441,-0.24479018,0,3.58522153,0.97079307,0,0
0.30847195,0.54211497,0.79633355,3.74000072,0.14348015,1.09505165,0.73592186,0.20540847,0.00801289,1.53350496,-0.08380421,0,3.63400364,1.08161533,0,0
0.31498143,0.57034338,0.82455474,3.83574033,0.17452212,1.12362742,0.76082093,0.21980782,0.00238849,1.54934108,-0.06766244,0,3.64283156,1.07043374,0,0
0.28690249,0.52311969,0.81680191,3.88004804,0.13429667,1.10740125,0.7389937,0.19353478,0.00469824,1.5292603999999999,-0.1081549,0,3.63531995,1.02907133,0,0
0.24591571,0.46470398,0.79516333,3.85929251,0.08787949,1.07635689,0.69065088,0.15232769,0.00882419,1.50360346,-0.15941346,0,3.64518404,0.98316252,0,0
0.20999484,0.42875293,0.77510405,3.78402495,0.05094861,1.05558467,0.67271572,0.16500898,0.00609304,1.50313568,-0.14246573,0,3.60262227,1.08205879,0,0
0.34326124,0.61084461,0.86908215,3.8641118999999997,0.20355226,1.19422388,0.80961806,0.24419799,0.00725779,1.58951366,-0.02889748,0,3.66246843,1.10439909,0,0
0.33659276,0.60098022,0.87412357,3.92905021,0.2011776,1.18651223,0.80459815,0.24478486,0.00330967,1.58682597,-0.03791895,0,3.6517942000000003,1.09020364,0,0
0.29835325,0.52747262,0.84933025,3.88798809,0.14941292,1.15283358,0.76337671,0.21302617,0.00470459,1.5569129,-0.08721214,0,3.66371679,1.05037284,0,0
0.25988269,0.45809132,0.81439596,3.85765266,0.09621385,1.09669745,0.69623792,0.16188093,0.00599287,1.52061319,-0.15063922,0,3.63332391,0.99385089,0,0
0.33440682,0.58512336,0.84579062,3.82004142,0.16914833,1.16071939,0.77351642,0.23059882,0.0025556999999999997,1.58455801,-0.05838868,0,3.62594962,1.08530796,0,0
0.31822222,0.54566431,0.85060132,3.87138772,0.16636296,1.1634921999999999,0.77515787,0.22991869,0.00703122,1.57676554,-0.06436789999999999,0,3.67005229,1.08753097,0,0
0.30071187,0.51333016,0.83643436,3.86415052,0.14073248,1.12888479,0.73762119,0.2083225,0.0061383,1.55441999,-0.09985809,0,3.64802074,1.041731,0,0
0.26127797,0.43978137,0.80841029,3.85558701,0.08485095,1.08406341,0.68504977,0.16219811,0.010689200000000001,1.52080297,-0.1559125,0,3.63308215,1.00079048,0,0
0.23784523,0.45343158,0.78943956,3.74608374,0.07766417,1.09131432,0.69361722,0.19211455,0.01099844,1.51360142,-0.12171082,0,3.57191348,1.07508361,0,0
0.34758186,0.56930274,0.85988414,3.75520992,0.18156917,1.16856992,0.76064259,0.23982294,0.00521729,1.56007624,-0.05624138,0,3.61408639,1.09433794,0,0
0.32995203,0.55189919,0.85186374,3.79063272,0.16865835,1.16393197,0.75409013,0.23304459,0.00662227,1.55030239,-0.07473845,0,3.66225648,1.07309985,0,0
0.29760271,0.48931608,0.82290512,3.77491689,0.12388549,1.11828232,0.70537007,0.20136663,0.0037835,1.52034295,-0.12480408,0,3.63744688,1.03132081,0,0
0.26202726,0.41528213,0.79350471,3.69957304,0.06413139,1.07177031,0.64190984,0.14883608,0.01120365,1.47043025,-0.18592608,0,3.61112118,0.97806907,0,0
0.35576749,0.59399223,0.83476007,3.73339963,0.16960795,1.14980781,0.74592882,0.23429796,0.00790239,1.55948746,-0.06494056,0,3.66736817,1.09874558,0,0
0.36000687,0.59444106,0.86770493,3.80104637,0.19535351,1.1838243,0.77223808,0.26610047,0.00580201,1.56427372,-0.03177856,0,3.6633593999999996,1.12738717,0,0
0.34465024,0.57922041,0.86209172,3.85044146,0.18415849,1.17387187,0.75487208,0.25037295,0.00946957,1.54247129,-0.05817856,0,3.66620874,1.09965384,0,0
0.31485024,0.53132367,0.84379685,3.85168862,0.14656663,1.13699722,0.7198779000000001,0.22236305,0.00568549,1.52756655,-0.09489088,0,3.65117502,1.05917859,0,0
0.34939125,0.62207204,0.85727239,3.82174563,0.18439576,1.19123292,0.7772544,0.27687308,0.00698024,1.56694508,-0.02160134,0,3.66822815,1.16025805,0,0
0.39123622,0.66111958,0.9086535,3.98123765,0.23971336,1.22944367,0.81182814,0.29750261,0.00216178,1.60096133,0.00723074,0,3.73796391,1.15697002,0,0
0.38216752,0.65539402,0.92185569,4.05025244,0.23514992,1.24040318,0.82325822,0.29702809,0.00268675,1.59952033,-0.00120503,0,3.73327947,1.13759029,0,0
0.34171176,0.60182834,0.89746201,4.05250549,0.19419912,1.21491277,0.79059577,0.2612927,0.00725779,1.57967293,-0.05055722,0,3.74907112,1.10715199,0,0
0.33729643,0.63718939,0.89054316,4.00908041,0.19488238,1.22227144,0.80252916,0.30237892,0.00349147,1.60967922,0.00583397,0,3.72861791,1.21348619,0,0
0.44528857,0.78658032,0.99010891,4.20253706,0.32531705,1.34029663,0.91501915,0.36052227,0.003557,1.68373358,0.08840269999999999,0,3.800632,1.2324053,0,0
0.43096587,0.78634173,0.99263823,4.29023504,0.322267,1.3410455,0.91700423,0.36417761,-0.00172367,1.68616903,0.08575618,0,3.83178163,1.22381973,0,0
0.39542449,0.71339875,0.97624063,4.29003525,0.26854283,1.31033278,0.88630646,0.32645509,-0.00062845,1.66592467,0.02975466,0,3.84044194,1.16593027,0,0
0.35083383,0.63287675,0.93972558,4.23006153,0.20794804,1.25514531,0.81943959,0.26662463,0.0012972,1.6185317,-0.04274097,0,3.81439614,1.10711503,0,0
0.47688201,0.84716594,1.02461708,4.26753759,0.35425407,1.39195979,0.96520519,0.38849747,-0.00375878,1.73729348,0.13154204,0,3.86650896,1.29049361,0,0
0.48069614,0.89101958,1.06580114,4.39108658,0.39985639,1.45533979,1.01729858,0.43234348,0.00087583,1.75016403,0.17606612,0,3.88382435,1.31574404,0,0
0.45460591,0.84745592,1.05312097,4.39035845,0.37283823,1.42126036,0.97916192,0.40342623,-0.00080319,1.72920334,0.13048162,0,3.88703656,1.26774311,0,0
0.41817024,0.77007979,1.02811921,4.35179901,0.31430554,1.37956321,0.92832702,0.35680839,0.00087583,1.69687629,0.07460143,0,3.85109234,1.21610427,0,0
0.40114679999999997,0.79323286,1.00808334,4.25097418,0.30961624,1.38410819,0.94166839,0.38525736,0.00107063,1.70918083,0.11605581,0,3.87979865,1.31723177,0,0
0.49224713,0.90296501,1.0858556000000001,4.39974499,0.41344276,1.4487946000000003,0.99874908,0.42512885,-0.00507879,1.76133335,0.17985611,0,3.91860247,1.31666684,0,0
0.47085333,0.87104779,1.07278371,4.42349911,0.38983947,1.43135738,0.98692083,0.4087252,-0.00206116,1.74258435,0.15229486,0,3.93077064,1.30035615,0,0
0.41609004,0.78637254,1.03272986,4.38157892,0.326534,1.37186921,0.92893404,0.36347941,-0.00197014,1.71189022,0.08988087,0,3.89294362,1.23208439,0,0
0.36925581,0.69613075,0.99051791,4.32442617,0.25214291,1.30547214,0.86158401,0.32188085,0.00053371,1.67817104,0.04224171,0,3.86196542,1.2637136,0,0
0.47558671,0.89180505,1.06286073,4.3665967000000006,0.4007147,1.41491616,0.98104787,0.41556931,0.00031227,1.75840187,0.18032514,0,3.93450332,1.32144666,0,0
0.46243271,0.86412519,1.05254352,4.38457012,0.38263118,1.38185549,0.94880235,0.40034714,-0.00295422,1.74301672,0.156326,0,3.93625832,1.29525387,0,0
0.4070259,0.77056801,1.0092360999999999,4.32533884,0.31068376,1.32319391,0.89005107,0.34577775,0.0010509,1.69135523,0.08025915,0,3.92411757,1.23332119,0,0
0.36321163,0.68501842,0.96600491,4.26882696,0.24263567,1.24243057,0.81120116,0.28413704,-0.0007445,1.64461184,0.00723074,0,3.85770321,1.15861011,0,0
0.46091768,0.85532826,1.01081455,4.23445797,0.34516895,1.32576883,0.91004437,0.36884364,0.00070829,1.71913326,0.13139142,0,3.90633678,1.29026258,0,0
0.4526768,0.85034013,1.02595508,4.25955963,0.36755717,1.33489954,0.91125977,0.38405722,0.00153887,1.70310926,0.15129349,0,3.90739131,1.28684235,0,0
0.43079847,0.80753547,1.00952542,4.22474432,0.33968645,1.30012941,0.87146056,0.36405382,0.00098644,1.67492855,0.11471271,0,3.88491368,1.24960983,0,0
0.38518196,0.72954208,0.9691869000000001,4.15671062,0.27743387,1.24556589,0.81955796,0.31325722,0.00629101,1.62924778,0.04700318,0,3.87600923,1.18979061,0,0
0.33521593,0.64705443,0.92613482,4.07038784,0.21650718,1.19335055,0.76345319,0.28937799,0.00512232,1.59331656,0.01511458,0,3.84101272,1.22409976,0,0
0.44654784,0.8178643,0.99821538,4.07541847,0.34312361,1.283885,0.86072201,0.36637554,0.00582277,1.65293455,0.12627125,0,3.86821342,1.25540054,0,0
0.43130919,0.79396838,0.9756788000000001,4.11421108,0.32397828,1.23882008,0.82413459,0.34416646,0.00373228,1.63675404,0.09252272,0,3.88029265,1.2206881,0,0
0.3857747,0.70656967,0.94050139,4.0565629,0.26074997,1.18874574,0.77240837,0.30201796,0.0036674999999999998,1.60112476,0.03003649,0,3.82899594,1.16368532,0,0
0.34170011,0.6227563,0.89260542,3.99659681,0.19378413,1.11954892,0.70623243,0.24033122,0.00779222,1.5512501,-0.04616859,0,3.8362844,1.11451268,0,0
0.42243043,0.76251954,0.94259721,4.00922585,0.2930409,1.20416021,0.80104488,0.32978967,0.00570664,1.61853361,0.07294546,0,3.82411671,1.19825554,0,0
0.40769997,0.73269147,0.93684864,3.98978376,0.28211001,1.18578732,0.78788376,0.31765783,0.0076158,1.59855795,0.05016866,0,3.81772757,1.18727565,0,0
0.36753866,0.6623897,0.89901799,3.9873928999999997,0.22709583,1.13193381,0.7321521,0.27130458,0.00924287,1.55859435,-0.01638923,0,3.79559803,1.11117494,0,0
0.33182001,0.58456862,0.86710298,3.91111064,0.16754127,1.08448684,0.6753931,0.22403789,0.00893442,1.51352513,-0.07534099,0,3.74595904,1.07771635,0,0
0.39496052,0.7188167,0.88382399,3.83554602,0.23719251,1.1436336,0.75989032,0.29570487,0.00983416,1.57116771,0.01666999,0,3.77842975,1.18522131,0,0
0.42520592,0.73095059,0.91932195,3.95352364,0.2693513,1.16920912,0.76790583,0.30155146,0.00263546,1.58095324,0.03268552,0,3.81887031,1.18066692,0,0
0.41496801,0.71171284,0.92017919,3.97510028,0.25914305,1.17031455,0.76861572,0.29549623,0.00414112,1.56684721,0.01412092,0,3.80199242,1.1606486999999999,0,0
0.37073088,0.64904356,0.89687991,3.9842031,0.21473648,1.14120352,0.73643613,0.25704962,0.00792337,1.53825355,-0.03976426,0,3.77143693,1.10143685,0,0
0.33636546,0.57792318,0.8695088,3.93527412,0.15617387,1.08765411,0.67194098,0.21103568,0.00629101,1.50073063,-0.09983906,0,3.75465393,1.05682552,0,0
0.45335156,0.76819772,0.93150324,3.94482136,0.27537784,1.20961344,0.80518067,0.30069083,0.01017148,1.59236789,0.034264499999999996,0,3.77991295,1.19330835,0,0
0.44982398,0.78857124,0.96484864,4.04541397,0.31270528,1.24530268,0.83780587,0.33596787,0.00582277,1.61416042,0.07356034,0,3.83204913,1.22013021,0,0
0.43782905,0.76543266,0.96955121,4.09181309,0.29454353,1.24655294,0.82868201,0.32090044,0.0066279,1.60200524,0.04601597,0,3.8107326,1.19227433,0,0
