8.627043941005861757e-05
6.570098856960654367e-05
4.162604794024524305e-05
1.481642570846722487e-05
-1.392016026335296000e-05
-4.375021234689119607e-05
-7.382625956956970345e-05
-1.032990670711495120e-04
-1.313301530650768127e-04
-1.571043355347081236e-04
-1.798423249579708140e-04
-1.988129953424193862e-04
-2.133453465335675048e-04
-2.228398388205095652e-04
-2.267790242479707425e-04
-2.247372642285166164e-04
-2.163893560309785886e-04
-2.015180619212821251e-04
-1.800202843634493468e-04
-1.519118925679734599e-04
-1.173309799778110205e-04
-7.653968589878340164e-05
-2.992422344780397802e-05
2.200661426664910443e-05
7.862452443209956500e-05
1.391865263067045358e-04
2.028413271790957377e-04
2.686372361887648451e-04
3.355315042650114984e-04
4.024010150447585553e-04
4.680542551410618981e-04
5.312443108625320570e-04
5.906828883747777467e-04
6.450551323595276991e-04
6.930350542548536965e-04
7.333013882995372771e-04
7.645536876748569013e-04
7.855284706626399025e-04
7.950152599381949282e-04
7.918722206492898518e-04
7.750413690492800357e-04
7.435629671432483203e-04
6.965890502570260337e-04
6.333958724327251599e-04
5.533951573393352825e-04
4.561439255330035358e-04
3.413528451461236650e-04
2.088929828513110172e-04
5.880080363094049984e-05
-1.087185706779968678e-04
-2.932899864394935825e-04
-4.943687644072243884e-04
-7.112429591086365374e-04
-9.430376549344072481e-04
-1.188720918041230373e-03
-1.447111692303877477e-03
-1.716889356868510526e-03
-1.996604785699962904e-03
-2.284693010983647118e-03
-2.579487206481212002e-03
-2.879233933709160042e-03
-3.182109360477335287e-03
-3.486236356163770114e-03
-3.789702352976420923e-03
-4.090577713448579483e-03
-4.386934255420859262e-03
-4.676864039408122793e-03
-4.958497936777329397e-03
-5.230023935620245652e-03
-5.489704950432614319e-03
-5.735895868539402261e-03
-5.967059745045499505e-03
-6.181782943048314168e-03
-6.378788999105393723e-03
-6.556951052570940755e-03
-6.715302859107707967e-03
-6.853048076761274025e-03
-6.969567825031461848e-03
-7.064426363549998651e-03
-7.137374942438076512e-03
-7.188353674976067850e-03
-7.217491444831689203e-03
-7.225103867666591434e-03
-7.211689335786254131e-03
-7.177923099448495561e-03
-7.124649566082897831e-03
-7.052872880804255881e-03
-6.963745832339381797e-03
-6.858557243439498963e-03
-6.738718015341543452e-03
-6.605745860818247085e-03
-6.461249096630617209e-03
-6.306909528702000882e-03
-6.144464630123622206e-03
-5.975689266553107885e-03
-5.802377151117340051e-03
-5.626322235263996226e-03
-5.449300190800515815e-03
-5.273050246498083710e-03
-5.099257671654883022e-03
-4.929536884520227882e-03
-4.765415559793722070e-03
-4.608319772833793099e-03
-4.459560533743950513e-03
-4.320321628081125534e-03
-4.191649094476755828e-03
-4.074442362973764928e-03
-3.969447115577734962e-03
-3.877250053720017638e-03
-3.798275473729665567e-03
-3.732783920087819236e-03
-3.680872667893116644e-03
-3.642478140908335989e-03
-3.617380201639050410e-03
-3.605208311646987667e-03
-3.605449468456032366e-03
-3.617457705005197588e-03
-3.640465124896967181e-03
-3.673594357256255039e-03
-3.715872206619015138e-03
-3.766244251700505245e-03
-3.823590450294856065e-03
-3.886741295889144764e-03
-3.954494437695937024e-03
-4.025631589482303249e-03
-4.098935406252189606e-03
-4.173206113145986988e-03
-4.247277773951159061e-03
-4.320033922529878910e-03
-4.390422388807799052e-03
-4.457469060335530336e-03
-4.520290394424842338e-03
-4.578104612659479947e-03
-4.630241379334224840e-03
-4.676149802071175206e-03
-4.715404640467072035e-03
-4.747710684125921315e-03
-4.772905262646559912e-03
-4.790958768480217504e-03
-4.801973223134896156e-03
-4.806178901366782788e-03
-4.803929058171636096e-03
-4.795692859750666330e-03
-4.782046501321713175e-03
-4.763662792350549860e-03
-4.741299181685184293e-03
-4.715784555821384352e-03
-4.688004880807124242e-03
-4.658887925662586089e-03
-4.629387223609739664e-03
-4.600465662506059324e-03
-4.573078744412833845e-03
-4.548157953215446400e-03
-4.526594289912894142e-03
-4.509222393021408183e-03
-4.496805382300193658e-03
-4.490020798202200465e-03
-4.489447646781366021e-03
-4.495554965531766214e-03
-4.508692019445038369e-03
-4.529080349312487354e-03
-4.556807810324996731e-03
-4.591824704659143094e-03
-4.633942194273546304e-03
-4.682832969739406451e-03
-4.738034347245827053e-03
-4.798953631665893969e-03
-4.864875845577805100e-03
-4.934973773059943801e-03
-5.008320135796815765e-03
-5.083901970120931549e-03
-5.160636794899815805e-03
-5.237390553621000359e-03
-5.312997066885839607e-03
-5.386278771317012416e-03
-5.456068398803855940e-03
-5.521231420297338308e-03
-5.580688920788954080e-03
-5.633440468463483258e-03
-5.678586755429699921e-03
-5.715351697470319806e-03
-5.743103500929754544e-03
-5.761374490694816906e-03
-5.769879322157805100e-03
-5.768531284779121644e-03
-5.757456342093756306e-03
-5.737004637981296673e-03
-5.707759225052901411e-03
-5.670541808429381894e-03
-5.626415233113507726e-03
-5.576682738002317584e-03
-5.522883577975029080e-03
-5.466785227021002738e-03
-5.410371885524626473e-03
-5.355829531174000069e-03
-5.305527449813307247e-03
-5.261996366407863807e-03
-5.227903390738682619e-03
-5.206023948724727846e-03
-5.199210977213263550e-03
-5.210361700649109203e-03
-5.242382255195150026e-03
-5.298150613911761439e-03
-5.380478279469629900e-03
-5.492071068334670667e-03
-5.635489545417629934e-03
-5.813109467673454982e-03
-6.027082933843147354e-03
-6.279300736964281947e-03
-6.571356199544203629e-03
-6.904511190399440466e-03
-7.279664885590215670e-03
-7.697325539331832320e-03
-8.157585865263617883e-03
-8.660102451336334009e-03
-9.204079437981663517e-03
-9.788257062550192317e-03
-1.041090508180349955e-02
-1.106982146680732769e-02
-1.176233649886615669e-02
-1.248532244470095150e-02
-1.323520871403550785e-02
-1.400800262358169700e-02
-1.479931555134140174e-02
-1.560439446621796761e-02
-1.641815845444658667e-02
-1.723524001532223543e-02
-1.805003083256723900e-02
-1.885673142166958277e-02
-1.964940432777878901e-02
-2.042203023716244320e-02
-2.116856649096968482e-02
-2.188300731355864032e-02
-2.255944507332228316e-02
-2.319213195773462202e-02
-2.377554123719730766e-02
-2.430442746656485964e-02
-2.477388491761115322e-02
-2.517940347189638953e-02
-2.551692130588406257e-02
-2.578287358710177127e-02
-2.597423667627947810e-02
-2.608856717485880800e-02
-2.612403520381623157e-02
-2.607945147073141567e-02
-2.595428774582120290e-02
-2.574869026682475096e-02
-2.546348590801694733e-02
-2.510018081347898181e-02
-2.466095148468629844e-02
-2.414862820023731121e-02
-2.356667091083980078e-02
-2.291913770980878035e-02
-2.221064620224678238e-02
-2.144632802029387830e-02
-2.063177695244120674e-02
-1.977299124337296432e-02
-1.887631052156730702e-02
-1.794834813561402634e-02
-1.699591945815236496e-02
-1.602596720024926022e-02
-1.504548422166532978e-02
-1.406143496032584775e-02
-1.308067619887639740e-02
-1.210987814158136743e-02
-1.115544671990333601e-02
-1.022344793690590191e-02
-9.319535318028489279e-03
-8.448881155354455094e-03
-7.616112428550612067e-03
-6.825252221575621100e-03
-6.079667295203151391e-03
-5.382022568822783341e-03
-4.734242941606449546e-03
-4.137483114293880743e-03
-3.592105781179877680e-03
-3.097668390621800567e-03
-2.652918830794651159e-03
-2.255800159560664674e-03
-1.903464302182266950e-03
-1.592294758026237657e-03
-1.317937957347500681e-03
-1.075343159001842814e-03
-8.588103210226148481e-04
-6.620456307300618152e-04
-4.782239870811653992e-04
-3.000577585368318203e-04
-1.198712118220749404e-04
7.032028011354704024e-05
2.787271729367568640e-04
5.136996741232686568e-04
7.836395715929153974e-04
1.096910990107840753e-03
1.461751145308713695e-03
1.886182024980822668e-03
2.377923963494562015e-03
2.944312144530351373e-03
3.592216973309805220e-03
4.327969252528169469e-03
5.157290934375007192e-03
6.085232379969842363e-03
7.116116683446703332e-03
8.253491856273503444e-03
9.500091390469497452e-03
1.085780361918066428e-02
1.232765025569507698e-02
1.390977445307500261e-02
1.560343839769211781e-02
1.740703061917063532e-02
1.931808282256042286e-02
2.133329617129410549e-02
2.344857665118856710e-02
2.565907914329860692e-02
2.795925970403065688e-02
3.034293550038351731e-02
3.280335164803748621e-02
3.533325425331043657e-02
3.792496872147147619e-02
4.057048249583879856e-02
4.326153123039481324e-02
4.598968743259253256e-02
4.874645045501178192e-02
5.152333678709559994e-02
5.431196966103760126e-02
5.710416688762513099e-02
5.989202578138100308e-02
6.266800433054232899e-02
6.542499743792459799e-02
6.815640757066775135e-02
7.085620873464398839e-02
7.351900311996066584e-02
7.614006984610326156e-02
7.871540501554885605e-02
8.124175280262249665e-02
8.371662711631946974e-02
8.613832365679036096e-02
8.850592213367682037e-02
9.081927887811122591e-02
9.307900983922705318e-02
9.528646421299974412e-02
9.744368922075623274e-02
9.955338640126921990e-02
1.016188601528863894e-01
1.036439592428573392e-01
1.056330120657570232e-01
1.075907566196926124e-01
1.095222661477766452e-01
1.114328714860435415e-01
1.133280812825883110e-01
1.152135011630406325e-01
1.170947530527914893e-01
1.189773956485207507e-01
1.208668474228316719e-01
1.227683129728378564e-01
1.246867140152127934e-01
1.266266257564597209e-01
1.285922196936135353e-01
1.305872136127559924e-01
1.326148294160553742e-01
1.346777593663463779e-01
1.367781411283498505e-01
1.389175419558864866e-01
1.410969521253436498e-01
1.433167875990750961e-01
1.455769016676495831e-01
1.478766053739614117e-01
1.502146962023679366e-01
1.525894944186706181e-01
1.549988862238600995e-01
1.574403730323514772e-01
1.599111257744474379e-01
1.624080431101715682e-01
1.649278126400108013e-01
1.674669736690473920e-01
1.700219805119162209e-01
1.725892649455163519e-01
1.751652967468213251e-01
1.777466410635404614e-01
1.803300115510055590e-01
1.829123182705996720e-01
1.854907093823451869e-01
1.880626059232659852e-01
1.906257290090226375e-01
1.931781190897535472e-01
1.957181468138957103e-01
1.982445156311456735e-01
2.007562560113373695e-01
2.032527118024226309e-01
2.057335191153128462e-01
2.081985785449972648e-01
2.106480215250606247e-01
2.130821719233923772e-01
2.155015042048824825e-01
2.179065994159276043e-01
2.202981005194021569e-01
2.226766686186293642e-01
2.250429416904328184e-01
2.273974974187190634e-01
2.297408217589146651e-01
2.320732846702454055e-01
2.343951245979315479e-01
2.367064427699215046e-01
2.390072086317306110e-01
2.412972770210985995e-01
2.435764179008480523e-01
2.458443589162016274e-01
2.481008406941303257e-01
2.503456845945497555e-01
2.525788722053394220e-01
2.548006355133486389e-01
2.570115561549631833e-01
2.592126720815849938e-01
2.614055892430461325e-01
2.635925957940533637e-01
2.657767759403891206e-01
2.679621201373587613e-01
2.701536282332137606e-01
2.723574018928598406e-01
2.745807224731354745e-01
2.768321103731887223e-01
2.791213621222202734e-01
2.814595611170802036e-01
2.838590584952331297e-01
2.863334204373452763e-01
2.888973388348537452e-01
2.915665023254526700e-01
2.943574254865427009e-01
2.972872342958742253e-01
3.003734066081066301e-01
3.036334671588584722e-01
3.070846373037565136e-01
3.107434405718377812e-01
3.146252657522614071e-01
3.187438904731808575e-01
3.231109687603631597e-01
3.277354872204540914e-01
3.326231951421167454e-01
3.377760150504418579e-01
3.431914405871676621e-01
3.488619298588174766e-01
3.547743027086325829e-01
3.609091512558796344e-01
3.672402734049486916e-01
3.737341393901387754e-01
3.803494018514047559e-01
3.870364600093596508e-01
3.937370884741272503e-01
4.003841409801437434e-01
4.069013390808836617e-01
4.132031553643648603e-01
4.191947999960023430e-01
4.247723185632296672e-01
4.298228083831092672e-01
4.342247588404869463e-01
4.378485205027269900e-01
4.405569060301246509e-01
4.422059244549304546e-01
4.426456486186585715e-01
4.417212139070267884e-01
4.392739446395045877e-01
4.351426024903732870e-01
4.291647495972806814e-01
4.211782169627663608e-01
4.110226671385253661e-01
3.985412382081698346e-01
3.835822547689207163e-01
3.660009895683659087e-01
3.456614583984503053e-01
3.224382295640364493e-01
2.962182281474135537e-01
2.669025144494580060e-01
2.344080153752817475e-01
1.986691874046812856e-01
1.596395893920910247e-01
1.172933438128593575e-01
7.162646557123525382e-02
2.265803821849724300e-02
-2.956878149312760357e-02
-8.498594861860886418e-02
-1.434999207076793903e-01
-2.049912685078456032e-01
-2.693145189659620353e-01
-3.362982403706990531e-01
-4.057453771706517331e-01
-4.774338391740076126e-01
-5.511173470965536891e-01
-6.265265335559253579e-01
-7.033702955201602824e-01
-7.813373914031001011e-01
-8.600982727823610619e-01
-9.393071380124308201e-01
-1.018604191977706463e+00
-1.097618093666040462e+00
-1.175968570481592534e+00
-1.253269176122039363e+00
-1.329130166567394689e+00
-1.403161466813216629e+00
-1.474975699761728487e+00
-1.544191247130996203e+00
-1.610435311458316088e+00
-1.673346947931573903e+00
-1.732580034424438864e+00
-1.787806148489425428e+00
-1.838717320722704773e+00
-1.885028634702962558e+00
-1.926480645446430717e+00
-1.962841589639470641e+00
-1.993909363451391803e+00
-2.019513245754831487e+00
-2.039515347431332337e+00
-2.053811770361358757e+00
-2.062333462846852150e+00
-2.065046761664629749e+00
-2.061953614205666252e+00
-2.053091478036396467e+00
-2.038532898556143280e+00
-2.018384769306152737e+00
-1.992787282913391245e+00
-1.961912584116817682e+00
-1.925963139977273642e+00
-1.885169845136041911e+00
-1.839789883248587055e+00
-1.790104368332089635e+00
-1.736415792175949102e+00
-1.679045305958303702e+00
-1.618329866054170507e+00
-1.554619275274536694e+00
-1.488273151810884487e+00
-1.419657858581763854e+00
-1.349143425994530965e+00
-1.277100500726904286e+00
-1.203897352416660960e+00
-1.129896969351726455e+00
-1.055454272393867132e+00
-9.809134750022765470e-01
-9.066056147976639945e-01
-8.328462798390109390e-01
-7.599335499840148556e-01
-6.881461709124341297e-01
-6.177419752455828306e-01
-5.489565618930577484e-01
-4.820022416074931093e-01
-4.170672532515958819e-01
-3.543152518652136207e-01
-2.938850663393774432e-01
-2.358907213376491563e-01
-1.804217148702326745e-01
-1.275435399751289056e-01
-7.729843647654291439e-02
-2.970635596867565384e-02
1.523387884119351346e-02
5.754324114889172032e-02
9.726101596038828900e-02
1.344431884792786636e-01
1.691607295122916077e-01
2.014978030489769090e-01
2.315499212871372781e-01
2.594220722472954654e-01
2.852268446149359149e-01
3.090825735660088225e-01
3.311115304938292980e-01
3.514381777249583338e-01
3.701875078324317614e-01
3.874834853656347611e-01
4.034476064686356445e-01
4.181975899168201005e-01
4.318462105342946722e-01
4.445002834442340900e-01
4.562598053154782729e-01
4.672172561121034073e-01
4.774570624221617932e-01
4.870552210745395794e-01
4.960790794596660613e-01
5.045872667307040871e-01
5.126297680018470082e-01
5.202481321331611230e-01
5.274758018436468410e-01
5.343385535417545240e-01
5.408550332034914865e-01
5.470373739188506557e-01
5.528918797189056322e-01
5.584197603120485409e-01
5.636179011812900708e-01
5.684796536227245678e-01
5.729956296666335325e-01
5.771544876519345557e-01
5.809436948056768690e-01
5.843502546066599024e-01
5.873613874635854604e-01
5.899651549303172038e-01
5.921510189645413647e-01
5.939103294426014701e-01
5.952367345063310777e-01
5.961265102136986682e-01
5.965788075167726134e-01
5.965958159982426290e-01
5.961828455860000986e-01
5.953483288842073007e-01
5.941037481017117372e-01
5.924634916680046048e-01
5.904446469969297784e-01
5.880667365601464081e-01
5.853514054101198738e-01
5.823220686137394742e-01
5.790035278531660001e-01
5.754215663820891891e-01
5.716025316713494453e-01
5.675729151021189356e-01
5.633589375052100445e-01
5.589861492230735474e-01
5.544790523274270022e-01
5.498607523915027828e-01
5.451526462064734124e-01
5.403741507955626133e-01
5.355424781805767642e-01
5.306724592990281764e-01
5.257764193077721915e-01
5.208641055133097497e-01
5.159426680295695622e-01
5.110166922544771007e-01
5.060882811849160001e-01
5.011571846367528504e-01
4.962209717424861943e-01
4.912752420310730894e-01
4.863138701174934964e-01
4.813292782497738398e-01
4.763127305037616055e-01
4.712546423112468630e-01
4.661448988481977085e-01
4.609731756212153697e-01
4.557292549048052033e-01
4.504033316962680611e-01
4.449863034490727509e-01
4.394700381075101747e-01
4.338476154884543523e-01
4.281135379390660356e-01
4.222639066690487830e-01
4.162965609134243739e-01
4.102111779813142345e-01
4.040093329436731384e-01
3.976945176095724177e-01
3.912721192464665432e-01
3.847493601891949222e-01
3.781352002711000915e-01
3.714402047738180612e-01
3.646763810013412543e-01
3.578569874202331969e-01
3.509963195005567638e-01
3.441094768430633111e-01
3.372121166219784749e-01
3.303201982414178950e-01
3.234497244061247945e-01
3.166164837146627775e-01
3.098357996094259215e-01
3.031222906888300650e-01
2.964896464868189696e-01
2.899504230649957992e-01
2.835158619213758446e-01
2.771957351241907674e-01
2.709982194510233144e-01
2.649298012998235197e-01
2.589952136825208751e-01
2.531974059960603873e-01
2.475375464042925411e-01
2.420150564142916350e-01
2.366276764218943063e-01
2.313715601940160849e-01
2.262413962686713464e-01
2.212305533543696412e-01
2.163312465420297037e-01
2.115347208936523282e-01
2.068314484844835932e-01
2.022113351016560090e-01
1.976639324352733873e-01
1.931786516506737161e-01
1.887449743502874477e-01
1.843526570975008994e-01
1.799919256128942324e-01
1.756536552637096849e-01
1.713295348140631835e-01
1.670122107116680243e-01
1.626954094721162758e-01
1.583740364459935712e-01
1.540442495529746325e-01
1.497035072507738318e-01
1.453505901475215245e-01
1.409855967145060840e-01
1.366099135742087356e-01
1.322261615447845873e-01
1.278381189955521413e-01
1.234506244971886324e-01
1.190694610677851956e-01
1.147012246108387451e-01
1.103531795290653150e-01
1.060331043726375350e-01
1.017491308914170722e-01
9.750957964312108317e-02
9.332279532527751331e-02
8.919698508330879683e-02
8.514006279415342604e-02
8.115950231114556213e-02
7.726220211360693146e-02
7.345436383022942162e-02
6.974138659943036889e-02
6.612777910142439430e-02
6.261709040580283603e-02
5.921186070775478344e-02
5.591359237725908315e-02
5.272274141908245282e-02
4.963872924669752995e-02
4.665997387513211997e-02
4.378393976775215440e-02
4.100720480636082382e-02
3.832554274173859132e-02
3.573401927350758345e-02
3.322709962764317654e-02
3.079876532368607325e-02
2.844263760440889077e-02
2.615210507377683374e-02
2.392045306378770206e-02
2.174099212482967503e-02
1.960718312701096450e-02
1.751275689845730246e-02
1.545182592230464474e-02
1.341898635008717013e-02
1.140940844783051682e-02
9.418914037112383064e-03
7.444039683938094044e-03
5.482084791318606910e-03
3.531144012269114060e-03
1.590123731245050766e-03
-3.412575678752558547e-04
-2.262484415237026990e-03
-4.172274539213871591e-03
-6.068622994548054234e-03
-7.948859293502450601e-03
-9.809716037531829649e-03
-1.164740753405005443e-02
-1.345771654764191076e-02
-1.523608751797129665e-02
-1.697772417440904236e-02
-1.867768963629079168e-02
-2.033100699959725435e-02
-2.193275851438209953e-02
-2.347818141661729349e-02
-2.496275868971889467e-02
-2.638230316101821196e-02
-2.773303336825250209e-02
-2.901164005968265638e-02
-3.021534217431447872e-02
-3.134193161114143950e-02
-3.238980597591471777e-02
-3.335798912909776481e-02
-3.424613930286973806e-02
-3.505454514000701238e-02
-3.578410976955478245e-02
-3.643632363243250877e-02
-3.701322678128261823e-02
-3.751736180714777130e-02
-3.795171831510761595e-02
-3.831967037168319823e-02
-3.862490817987514202e-02
-3.887136553228800334e-02
-3.906314455174223627e-02
-3.920443913319839047e-02
-3.929945873159973457e-02
-3.935235381414876887e-02
-3.936714458927462884e-02
-3.934765412418325670e-02
-3.929744709554950505e-02
-3.921977529768726212e-02
-3.911753063840164857e-02
-3.899320651781633396e-02
-3.884886799915771016e-02
-3.868613130992668708e-02
-3.850615264853120279e-02
-3.830962640698493127e-02
-3.809679262723138921e-02
-3.786745317313594539e-02
-3.762099628842382332e-02
-3.735642874157873300e-02
-3.707241474961837924e-02
-3.676732082522086997e-02
-3.643926552276122860e-02
-3.608617294115811641e-02
-3.570582885760648778e-02
-3.529593842131691084e-02
-3.485418420257538341e-02
-3.437828344297914895e-02
-3.386604343803984590e-02
-3.331541403505732662e-02
-3.272453628301634498e-02
-3.209178643015282717e-02
-3.141581441256714041e-02
-3.069557645410024571e-02
-2.993036101821938341e-02
-2.911980797837123575e-02
-2.826392071166142217e-02
-2.736307109733270709e-02
-2.641799745717984468e-02
-2.542979573160527099e-02
-2.439990414223548384e-02
-2.333008187965228755e-02
-2.222238232353846918e-02
-2.107912144071872468e-02
-1.990284214941639290e-02
-1.869627538258783125e-02
-1.746229880991994471e-02
-1.620389388375512510e-02
-1.492410213773574454e-02
-1.362598169723622764e-02
-1.231256479610102518e-02
-1.098681696186446823e-02
-9.651598793540258625e-03
-8.309630826335241693e-03
-6.963462168950346892e-03
-5.615443498925094291e-03
-4.267704584559780558e-03
-2.922136851906677237e-03
-1.580381080621847366e-03
-2.438203564400816942e-04
1.086421731778528790e-03
2.409477803389030795e-03
3.724728399799515609e-03
5.031789133736818548e-03
6.330493671877207053e-03
7.620872778879844191e-03
8.903130182254777661e-03
1.017761579324800297e-02
1.144479666651801800e-02
1.270522660687953623e-02
1.395951488043866394e-02
1.520829470269451610e-02
1.645219217653342419e-02
1.769179621089445736e-02
1.892763003444062481e-02
2.016012470540260587e-02
2.138959519829553707e-02
2.261621945293808972e-02
2.384002066387188451e-02
2.506085306290188261e-02
2.627839145521638359e-02
2.749212452640082543e-02
2.870135195365956446e-02
2.990518535865924199e-02
3.110255290181413931e-02
3.229220735806912629e-02
3.347273745806575440e-02
3.464258215973665261e-02
3.580004750808438163e-02
3.694332572651136404e-02
3.807051609645110968e-02
3.917964720846860149e-02
4.026870008619095470e-02
4.133563183701952776e-02
4.237839928085518348e-02
4.339498216390411806e-02
4.438340557424606120e-02
4.534176117338915846e-02
4.626822685445772937e-02
4.716108453221783819e-02
4.801873596993990606e-02
4.883971613762553426e-02
4.962270423907731015e-02
5.036653211671170138e-02
5.107019003978640476e-02
5.173282996023791103e-02
5.235376606796041110e-02
5.293247302164826723e-02
5.346858176838196336e-02
5.396187323421116483e-02
5.441227008457882874e-02
5.481982679546289899e-02
5.518471827714294814e-02
5.550722728692967373e-02
5.578773103343879353e-02
5.602668713990503063e-02
5.622461926172510338e-02
5.638210268315200363e-02
5.649975016127349592e-02
5.657819818057171352e-02
5.661809390523247359e-02
5.662008298987874361e-02
5.658479842267600396e-02
5.651285047864697264e-02
5.640481794502171659e-02
5.626124070586301096e-02
5.608261356661643077e-02
5.586938152578372480e-02
5.562193625731626234e-02
5.534061390024072602e-02
5.502569397045029009e-02
5.467739936167133330e-02
5.429589725814025492e-02
5.388130084280284837e-02
5.343367160689223294e-02
5.295302221730508602e-02
5.243931965151417407e-02
5.189248860004226638e-02
5.131241480792186199e-02
5.069894840732554198e-02
5.005190697172672704e-02
4.937107826955557111e-02
4.865622265889368164e-02
4.790707493986313265e-02
4.712334577203054764e-02
4.630472262890681506e-02
4.545087009889781093e-02
4.456142980399471765e-02
4.363601993546332991e-02
4.267423439112646988e-02
4.167564167438148753e-02
4.063978363522538495e-02
3.956617423514194321e-02
3.845429845227728988e-02
3.730361133425700443e-02
3.611353755066044197e-02
3.488347142225337039e-02
3.361277760239445023e-02
3.230079257427504597e-02
3.094682708814019967e-02
2.955016953352410797e-02
2.811009046142476028e-02
2.662584825089271343e-02
2.509669594425951999e-02
2.352188927921643191e-02
2.190069590890756160e-02
2.023240576441123068e-02
1.851634250875474827e-02
1.675187597121164870e-02
1.493843549377753613e-02
1.307552398553757551e-02
1.116273248801044095e-02
9.199755272908224230e-03
7.186405049253520409e-03
5.122628179913265439e-03
3.008519666658869465e-03
8.443377439599175594e-04
-1.369482228746033391e-03
-3.632314779359091354e-03
-5.943332417930012601e-03
-8.301495090887312314e-03
-1.070554106977837129e-02
-1.315397959587925360e-02
-1.564508530468231712e-02
-1.817689466911018986e-02
-2.074720450050164533e-02
-2.335357259668936064e-02
-2.599332058920734642e-02
-2.866353902223616607e-02
-3.136109464819210324e-02
-3.408263992136278953e-02
-3.682462449046145642e-02
-3.958330883661735633e-02
-4.235477964376058863e-02
-4.513496698768558468e-02
-4.791966297473702896e-02
-5.070454172087356798e-02
-5.348518049124015294e-02
-5.625708171912160993e-02
-5.901569564167074428e-02
-6.175644332085845206e-02
-6.447473983609100512e-02
-6.716601737912999970e-02
-6.982574796529025796e-02
-7.244946552736843126e-02
-7.503278726092291184e-02
-7.757143391968457369e-02
-8.006124890814295125e-02
-8.249821590914367675e-02
-8.487847505397666525e-02
-8.719833737512452942e-02
-8.945429746153220341e-02
-9.164304435488659917e-02
-9.376147049251504217e-02
-9.580667880848310614e-02
-9.777598790063810053e-02
-9.966693536107235074e-02
-1.014772792766312076e-01
-1.032049980534617273e-01
-1.048482886504246286e-01
-1.064055633077855556e-01
-1.078754449193380510e-01
-1.092567612321099779e-01
-1.105485380487468555e-01
-1.117499915502247754e-01
-1.128605199701470385e-01
-1.138796947466395315e-01
-1.148072513712568854e-01
-1.156430800388370955e-01
-1.163872163867144677e-01
-1.170398323287740461e-01
-1.176012271451050001e-01
-1.180718191317623178e-01
-1.184521376603402815e-01
-1.187428158904950543e-01
-1.189445841515347768e-01
-1.190582641155227273e-01
-1.190847636652195285e-01
-1.190250725796542647e-01
-1.188802589729076598e-01
-1.186514665266121676e-01
-1.183399123403953562e-01
-1.179468855209248740e-01
-1.174737462686846062e-01
-1.169219254825630966e-01
-1.162929247689170748e-01
-1.155883167180344478e-01
-1.148097453409546997e-01
-1.139589266095502457e-01
-1.130376490202958384e-01
-1.120477738520442440e-01
-1.109912353473919838e-01
-1.098700404897026278e-01
-1.086862682843481587e-01
-1.074420686562556487e-01
-1.061396606822808536e-01
-1.047813302129458335e-01
-1.033694268804201261e-01
-1.019063603698121406e-01
-1.003945959887984629e-01
-9.883664963985279439e-02
-9.723508206654896124e-02
-9.559249252239654382e-02
-9.391151181951827576e-02
-9.219479495642697586e-02
-9.044501326743493996e-02
-8.866484624561302152e-02
-8.685697311933177067e-02
-8.502406435849380051e-02
-8.316877309416122188e-02
-8.129372660466441247e-02
-7.940151800820433037e-02
-7.749469819524562597e-02
-7.557576822118219906e-02
-7.364717209173413104e-02
-7.171129023443524597e-02
-6.977043348347140850e-02
-6.782683791324679856e-02
-6.588266027822994864e-02
-6.393997434342341135e-02
-6.200076804604688629e-02
-6.006694146566054354e-02
-5.814030568908453572e-02
-5.622258239948062231e-02
-5.431540429604851672e-02
-5.242031621834480903e-02
-5.053877700695619951e-02
-4.867216196391849214e-02
-4.682176582853804503e-02
-4.498880620979805317e-02
-4.317442734392945569e-02
-4.137970410043776553e-02
-3.960564621116840350e-02
-3.785320250085891930e-02
-3.612326507784340002e-02
-3.441667338684305938e-02
-3.273421807237528874e-02
-3.107664443953632449e-02
-2.944465557924172763e-02
-2.783891505515210391e-02
-2.626004905091582770e-02
-2.470864805787221369e-02
-2.318526792255363664e-02
-2.169043038773273493e-02
-2.022462295158947154e-02
-1.878829833850675923e-02
-1.738187337581372990e-02
-1.600572742062056006e-02
-1.466020034720813374e-02
-1.334559027555878505e-02
-1.206215093880312443e-02
-1.081008893177784654e-02
-9.589560955048561514e-03
-8.400671050739624487e-03
-7.243467881621316710e-03
-6.117942322688120493e-03
-5.024025375188141511e-03
-3.961586588334247219e-03
-2.930432878386367290e-03
-1.930308014554505758e-03
-9.608927746230928576e-04
-2.180580028781801144e-05
8.873947277581648290e-04
1.767208604059151153e-03
2.618190287730524143e-03
3.440944746749419279e-03
4.236122543230393112e-03
5.004414104491631925e-03
5.746543231609930677e-03
6.463259965720683821e-03
7.155332937312587280e-03
7.823541104496666357e-03
8.468665257620841547e-03
9.091479197810767299e-03
9.692740820806360416e-03
1.027318324745106481e-02
1.083350605496688490e-02
1.137436689603018962e-02
1.189637352833951625e-02
1.240007641439122218e-02
1.288596210784115521e-02
1.335444750854387734e-02
1.380587502829956452e-02
1.424050894331491297e-02
1.465853287561136135e-02
1.506004851828087084e-02
1.544507565358358564e-02
1.581355357586576582e-02
1.616534383307963521e-02
1.650023435705231731e-02
1.681794484982248802e-02
1.711813350150525118e-02
1.740040494701170296e-02
1.766431921499205665e-02
1.790940180264891796e-02
1.813515452680842382e-02
1.834106712558204733e-02
1.852662946044563927e-02
1.869134399800122248e-02
1.883473860365875510e-02
1.895637926664561074e-02
1.905588261606792552e-02
1.913292805601919666e-02
1.918726937121248768e-02
1.921874551047757576e-02
1.922729038964341580e-02
1.921294159620580075e-02
1.917584781721802176e-02
1.911627479247491462e-02
1.903460976086869191e-02
1.893136426405129039e-02
1.880717518984684894e-02
1.866280410789785890e-02
1.849913472449930471e-02
1.831716862592894582e-02
1.811801923741169010e-02
1.790290409389197132e-02
1.767313546311092762e-02
1.743010943736987214e-02
1.717529374357194827e-02
1.691021422240909788e-02
1.663644032705898640e-02
1.635556982048840327e-02
1.606921271176272106e-02
1.577897484430295857e-02
1.548644130357004940e-02
1.519315986128274773e-02
1.490062469478123548e-02
1.461026060828068615e-02
1.432340809966364641e-02
1.404130925319467885e-02
1.376509499673665878e-02
1.349577357270838156e-02
1.323422070164161773e-02
1.298117138644125368e-02
1.273721357103920794e-02
1.250278374380577213e-02
1.227816455660819296e-02
1.206348454576953826e-02
1.185872000864983747e-02
1.166369881934241175e-02
1.147810628652009592e-02
1.130149303462358451e-02
1.113328468416236068e-02
1.097279331875901029e-02
1.081923045775044952e-02
1.067172138111203115e-02
1.052932065176104444e-02
1.039102856066653410e-02
1.025580829340212545e-02
1.012260357305331399e-02
9.990356440099826957e-03
9.858025008902636735e-03
9.724600848629283076e-03
9.589125838741356309e-03
9.450708153348932883e-03
9.308537111876962963e-03
9.161896794216592768e-03
9.010178154125693742e-03
8.852889319509006996e-03
8.689664133832833426e-03
8.520268705754320548e-03
8.344605830640802399e-03
8.162717269908503423e-03
7.974783819751512376e-03
7.781123138639985809e-03
7.582185506694658420e-03
7.378547351331010348e-03
7.170902809882400558e-03
6.960053381420402974e-03
6.746895872504684102e-03
6.532408749619653641e-03
6.317637173570200826e-03
6.103676970079212859e-03
5.891657609812610795e-03
5.682724649291439299e-03
5.478021902766639674e-03
5.278673483051321384e-03
5.085766055395435879e-03
4.900331764176515427e-03
4.723331732035062659e-03
4.555640793929053266e-03
4.398033388696145560e-03
4.251171096237916711e-03
4.115591846553585086e-03
3.991700989781238676e-03
3.879764538842088526e-03
3.779904523863760694e-03
3.692096759696614390e-03
3.616170717651313957e-03
3.551811943838155405e-03
3.498566815793899710e-03
3.455849446568543416e-03
3.422950867230233497e-03
3.399050232904024874e-03
3.383227894126683219e-03
3.374480246128877276e-03
3.371735980860510705e-03
3.373873661865901818e-03
3.379740249276029507e-03
3.388170318172628679e-03
3.398005666086380879e-03
3.408115049813839441e-03
3.417413687724645249e-03
3.424882227197427725e-03
3.429584890570636611e-03
3.430686471061779926e-03
3.427468029066937146e-03
3.419340828064892143e-03
3.405858417829512198e-03
3.386726522150724193e-03
3.361810723278546662e-03
3.331141697349634771e-03
3.294917780661437475e-03
3.253505067104824587e-03
3.207434705207286556e-03
3.157397555548902609e-03
3.104236249063866988e-03
3.048934701882189194e-03
2.992605185433754467e-03
2.936473203466651721e-03
2.881860227256054230e-03
2.830164648875626871e-03
2.782841177200700167e-03
2.741378880478664414e-03
2.707278326402114566e-03
2.682028006876471977e-03
2.667080468769290804e-03
2.663828553017496409e-03
2.673581880982817474e-03
2.697544126761569627e-03
2.736791440334386712e-03
2.792252143408597339e-03
2.864688248375350885e-03
2.954678859330759841e-03
3.062605961265623018e-03
3.188642668095157100e-03
3.332744157968163621e-03
3.494641545972954066e-03
3.673838677401982181e-03
3.869612066650873327e-03
4.081013918092301490e-03
4.306878228874083843e-03
4.545830074907503647e-03
4.796297824422711235e-03
5.056528168045342636e-03
5.324603866151359638e-03
5.598463987679882896e-03
5.875926296075668388e-03
6.154711656150622760e-03
6.432469986042495605e-03
6.706807535653390093e-03
6.975315140178431524e-03
7.235596989468946402e-03
7.485299632042059260e-03
7.722140749631417438e-03
7.943937351575652145e-03
8.148633035966678165e-03
8.334323938177814334e-03
8.499283001655125527e-03
8.641982207289530468e-03
8.761112580513218812e-03
8.855601528079640183e-03
8.924627458631342186e-03
8.967631249490988846e-03
8.984324634426906972e-03
8.974695246315262873e-03
8.939008301420489286e-03
8.877804803526598981e-03
8.791896422684082613e-03
8.682357006114745784e-03
8.550510796731428109e-03
8.397917628200570958e-03
8.226355133600767033e-03
8.037798348318438840e-03
7.834396780395116999e-03
7.618449383890233198e-03
7.392377757021330494e-03
7.158697780547009296e-03
6.919990237895363994e-03
6.678870553915405676e-03
6.437958287006065317e-03
6.199846566434253844e-03
5.967072005745951806e-03
5.742085309912260856e-03
5.527223102882939526e-03
5.324681237662069223e-03
5.136489903448563515e-03
4.964490917657657550e-03
4.810317363314110285e-03
4.675375911545763194e-03
4.560831985973646911e-03
4.467597891423934903e-03
4.396324180842204991e-03
4.347394198644972951e-03
4.320921880482688632e-03
4.316752832950319051e-03
4.334468653650246951e-03
4.373394434645800320e-03
4.432609216765511471e-03
4.510959353584921040e-03
4.607074553489609245e-03
4.719386335125558274e-03
4.846148715439658680e-03
4.985460722241987289e-03
5.135290571746805970e-03
5.293501042002389349e-03
5.457875882632549566e-03
5.626146827896673364e-03
5.796020805659606555e-03
5.965206998786280919e-03
6.131443644538945095e-03
6.292523953250718331e-03
6.446321063011452475e-03
6.590811469565884678e-03
6.724096968880392301e-03
6.844424638274612845e-03
6.950204790505726607e-03
7.040026519805358922e-03
7.112670905657144521e-03
7.167121554252062036e-03
7.202572537197537289e-03
7.218433601152427978e-03
7.214332678668732707e-03
7.190115668033901161e-03
7.145843604247282231e-03
7.081787215211752043e-03
6.998419086813298384e-03
6.896403540622723406e-03
6.776584405888688538e-03
6.639970925197195145e-03
6.487721962634714241e-03
6.321128757214162543e-03
6.141596438917129239e-03
5.950624764053918936e-03
5.749788142241289528e-03
5.540715282273104073e-03
5.325068696722207347e-03
5.104524421997782245e-03
4.880752136870334865e-03
4.655395984861468960e-03
4.430056246002057191e-03
4.206272168734610101e-03
3.985506013755487839e-03
3.769128651860616328e-03
3.558406756854611604e-03
3.354491623799016591e-03
3.158409962170973147e-03
2.971056430536570502e-03
2.793188161656161815e-03
2.625421222571192991e-03
2.468228920693094942e-03
2.321941953622257658e-03
2.186750305435679678e-03
2.062706940603899978e-03
1.949733008100899227e-03
1.847624441833242486e-03
1.756059914830396902e-03
1.674609842651315775e-03
1.602746397021777378e-03
1.539854200329791390e-03
1.485241703018699020e-03
1.438152850111316678e-03
1.397779044924638264e-03
1.363271114170615120e-03
1.333751084201216085e-03
1.308323722489242169e-03
1.286087549932568011e-03
1.266145287596675845e-03
1.247613566462961020e-03
1.229631831432241541e-03
1.211370325890836477e-03
1.192037108922996014e-03
1.170884013220422877e-03
1.147211607812409105e-03
1.120373054240858361e-03
1.089776990858436516e-03
1.054889322326198762e-03
1.015234075026386854e-03
9.703933563182114315e-04
9.200064966159110600e-04
8.637684476288214888e-04
8.014275222321555871e-04
7.327826569422455760e-04
6.576801834046684106e-04
5.760103367220580691e-04
4.877035577649087793e-04
3.927267589035377568e-04
2.910795736060655010e-04
1.827907035316478183e-04
6.791455038449190236e-05
-5.347180485117656755e-05
-1.812713593382260513e-04
-3.153694223293769506e-04
-4.556353940392531281e-04
-6.019240536967304309e-04
-7.540762708767852034e-04
-9.119192417233785855e-04
-1.075266166242383426e-03
-1.243915491340452650e-03
-1.417649685857635868e-03
-1.596233636645281702e-03
-1.779412796337008886e-03
-1.966910991996071324e-03
-2.158428202230458937e-03
-2.353638262296954900e-03
-2.552186551623974488e-03
-2.753687860287571537e-03
-2.957724588359847504e-03
-3.163845107640597589e-03
-3.371562728396469266e-03
-3.580355118004685793e-03
-3.789664242591478036e-03
-3.998897083787262240e-03
-4.207427031523360873e-03
-4.414595970892824794e-03
-4.619717176832150232e-03
-4.822078995390203029e-03
-5.020949237335640969e-03
-5.215580409981508854e-03
-5.405215575756270457e-03
-5.589094897913539708e-03
-5.766462736892775075e-03
-5.936575171893987250e-03
-6.098707973582482948e-03
-6.252164803210267553e-03
-6.396285529246246472e-03
-6.530454596610481277e-03
-6.654109195185808553e-03
-6.766747236762289501e-03
-6.867934860966128270e-03
-6.957313383980033225e-03
-7.034605607712678989e-03
-7.099621216433775819e-03
-7.152261362974911447e-03
-7.192522111668232625e-03
-7.220496785335774569e-03
-7.236377106954645227e-03
-7.240453068956352774e-03
-7.233111464311452535e-03
-7.214833090492281560e-03
-7.186188694563537364e-03
-7.147833533362788969e-03
-7.100500677135649676e-03
-7.044993182233628623e-03
-6.982175123313911352e-03
-6.912961647308140702e-03
-6.838308051815893997e-03
-6.759198227373461321e-03
-6.676632475361112505e-03
-6.591614947323929351e-03
-6.505140785073824927e-03
-6.418183276201219929e-03
-6.331681131328809400e-03
-6.246526017826509874e-03
-6.163550680659384169e-03
-6.083517730568925759e-03
-6.007109255520093859e-03
-5.934917568808285686e-03
-5.867437032207808122e-03
-5.805057281911887683e-03
-5.748057771941930509e-03
-5.696603989238442634e-03
-5.650745183785342400e-03
-5.610413712599968475e-03
-5.575426109377154549e-03
-5.545485830490226239e-03
-5.520187635046491272e-03
-5.499023598013778706e-03
-5.481390540159441528e-03
-5.466598983686701135e-03
-5.453883349582283775e-03
-5.442413350181227877e-03
-5.431306332656358517e-03
-5.419640481121866180e-03
-5.406468656823511590e-03
-5.390832670295563761e-03
-5.371777694171777674e-03
-5.348366850184594831e-03
-5.319695453438382481e-03
-5.284904910787009170e-03
-5.243196000094432589e-03
-5.193841296172258849e-03
-5.136196701939728555e-03
-5.069711725421850376e-03
-4.993938455102483326e-03
-4.908539195065020518e-03
-4.813292409461172698e-03
-4.708097066958348217e-03
-4.592975335487793805e-03
-4.468073462358201561e-03
-4.333660987415945479e-03
-4.190128118060144555e-03
-4.037981496413827961e-03
-3.877838334777513642e-03
-3.710418973558135634e-03
-3.536538072580417899e-03
-3.357094506741362550e-03
-3.173060065502599121e-03
-2.985467238184876231e-03
-2.795396262580804227e-03
-2.603961544163535969e-03
-2.412297695167287762e-03
-2.221545411519353867e-03
-2.032837328287332226e-03
-1.847284158819699615e-03
-1.665961249953503082e-03
-1.489895770973746411e-03
-1.320054659763460420e-03
-1.157333581160676196e-03
-1.002547008368520403e-03
-8.564194758249457163e-04
-7.195782285510133073e-04
-5.925473522174048904e-04
-4.757433676899916150e-04
-3.694723581095615654e-04
-2.739287342781884880e-04
-1.891954419990801251e-04
-1.152458510614488927e-04
-5.194700945764911684e-05
9.356623674969166022e-07
4.373241474017532950e-05
7.686196693146144822e-05
1.008233141632887880e-04
1.161865166975908838e-04
1.235828517001763788e-04
1.236942902354469618e-04
1.172425906198839733e-04
1.049781124512995845e-04
8.766863006826009982e-05
6.608819340231869089e-05
4.100629870349321453e-05
1.317743701404714844e-05
-1.666869569247241421e-05
-4.783631636362383626e-05
-7.967183474117462327e-05
-1.115711380515677694e-04
-1.429859237493572672e-04
-1.734288441752206329e-04
-2.024774890754381948e-04
-2.297772151478822767e-04
-2.550427844657645118e-04
-2.780587710822400777e-04
-2.986788045246026747e-04
-3.168237617507146833e-04
-3.324788750203585630e-04
-3.456898221147885076e-04
-3.565579998278023866e-04
-3.652350369633537599e-04
-3.719166655708348499e-04
-3.768360201856888630e-04
-3.802566151302801405e-04
-3.824650295285354513e-04
-3.837634829731194157e-04
-3.844624589003204870e-04
-3.848734385752229994e-04
-3.853019040022752752e-04
-3.860407524081998012e-04
-3.873642060408355567e-04
-3.895222860903847827e-04
-3.927359953612625013e-04
-3.971932044256265494e-04
-4.030453795143125418e-04
-4.104051148748508139e-04
-4.193444976216860335e-04
-4.298943349586560820e-04
-4.420442542673213887e-04
-4.557435980409249858e-04
-4.709031241085226676e-04
-4.873974349370800404e-04
-5.050680257061692996e-04
-5.237269373359694415e-04
-5.431609737783782421e-04
-5.631362317212471134e-04
-5.834029895638320360e-04
-6.037008169341576743e-04
-6.237637745827620235e-04
-6.433255818583748882e-04
-6.621248083790222958e-04
-6.799097963965475841e-04
-6.964433182989055024e-04
-7.115068944165657550e-04
-7.249046627078400582e-04
-7.364667797787825257e-04
-7.460522821262469302e-04
-7.535513543376655280e-04
-7.588869905140334902e-04
-7.620160196733577950e-04
-7.629295692410303703e-04
-7.616528757888070674e-04
-7.582444485397524725e-04
-7.527947951888174513e-04
-7.454245159683480816e-04
-7.362819903038314313e-04
-7.255406848924210927e-04
-7.133960447368642085e-04
-7.000621876216498720e-04
-6.857683739949351842e-04
-6.707553467443506641e-04
-6.552716556273264310e-04
-6.395700188564225038e-04
-6.239037439684959460e-04
-6.085233055945068678e-04
-5.936732205119135989e-04
-5.795891561405030167e-04
-5.664953300528549228e-04
-5.546023398168971287e-04
-5.441053475572712886e-04
-5.351826561217194961e-04
-5.279946744687997670e-04
-5.226832816475763784e-04
-5.193716363059528319e-04
-5.181643183472011338e-04
-5.191477945906840166e-04
-5.223911410994974084e-04
-5.279471246518493543e-04
-5.358533471416293331e-04
-5.461336152052564995e-04
-5.587992920282263765e-04
-5.738508011318105111e-04
-5.912790302590355132e-04
-6.110665911839968916e-04
-6.331889786550415778e-04
-6.576155162831107300e-04
-6.843100482617293966e-04
-7.132313749680417939e-04
-7.443333922658551234e-04
-7.775648867052170751e-04
-8.128690052257284051e-04
-8.501823605317791266e-04
-8.894338378939811067e-04
-9.305431853398162326e-04
-9.734192839540586157e-04
-1.017958180403737752e-03
-1.064040955849804293e-03
-1.111531559448796771e-03
-1.160274577939240720e-03
-1.210092969475722426e-03
-1.260786042020553988e-03
-1.312127555457788877e-03
-1.363864078905063044e-03
-1.415713765238723384e-03
-1.467365457763974935e-03
-1.518478402774989982e-03
-1.568682433234880975e-03
-1.617578837513214320e-03
-1.664741825670598479e-03
-1.709720748875776571e-03
-1.752042962999828630e-03
-1.791217470740388623e-03
-1.826739215743011313e-03
-1.858094153110274264e-03
-1.884764907605357767e-03
-1.906237028561286011e-03
-1.922005762635045894e-03
-1.931583340691856408e-03
-1.934506542524437600e-03
-1.930344550181477921e-03
-1.918706860602508802e-03
-1.899251273727476036e-03
-1.871691680902603377e-03
-1.835805628292006995e-03
-1.791441443889302872e-03
-1.738524801331707559e-03
-1.677064608804222342e-03
-1.607158090022007234e-03
-1.528994852930178842e-03
-1.442860008661316692e-03
-1.349136098318541588e-03
-1.248303657770284507e-03
-1.140940605080123602e-03
-1.027720279108016842e-03
-9.094079480520839837e-04
-7.868560691385196194e-04
-6.609980321744694581e-04
-5.328406533887060153e-04
-4.034553296410460055e-04
-2.739680192986503819e-04
-1.455480644899763030e-04
-1.939603967557647910e-05
1.032692387296671417e-04
2.212243484001109070e-04
3.332554375309696999e-04
4.381727324498790876e-04
5.348251257228298821e-04
6.221146681521346400e-04
6.990108408741127618e-04
7.645642736641160200e-04
8.179197241419489464e-04
8.583282095672845318e-04
8.851579582368550130e-04
8.979041409360276468e-04
8.961970888341054889e-04
8.798089304264650841e-04
8.486585489145053937e-04
8.028146489276628004e-04
7.424969432605424153e-04
6.680753934974338181e-04
5.800674026054954656e-04
4.791331515973492250e-04
3.660689016029965181e-04
2.417984539564618763e-04
1.073628511888809282e-04
-3.609152440670475065e-05
-1.873264786785270480e-04
-3.450268104853770673e-04
-5.078161993856213129e-04
-6.742741372684809675e-04
-8.429535139552523986e-04
-1.012398591311182601e-03
-1.181163238194881402e-03
-1.347829136644772578e-03
-1.511023631287491910e-03
-1.669437054782583378e-03
-1.821839195582787172e-03
-1.967094727342598871e-03
-2.104177362302311460e-03
-2.232182536544783519e-03
-2.350338346640628955e-03
-2.458014642858949352e-03
-2.554730230455340423e-03
-2.640157865323920338e-03
-2.714127183341766020e-03
-2.776625361695336889e-03
-2.827795491957714284e-03
-2.867932786749521987e-03
-2.897478639575213309e-03
-2.917012576538700105e-03
-2.927242270525494405e-03
-2.928991634127290754e-03
-2.923187413106342804e-03
-2.910844181763378325e-03
-2.893048252095205882e-03
-2.870940406406169345e-03
-2.845698065493743913e-03
-2.818516880859068922e-03
-2.790592135562722665e-03
-2.763100237161912609e-03
-2.737180525862149046e-03
-2.713917718064657800e-03
-2.694325291896235066e-03
-2.679329894502105892e-03
-2.669757125796589758e-03
-2.666318914663693730e-03
-2.669602625658212391e-03
-2.680062125705707978e-03
-2.698010844379891346e-03
-2.723617014126008748e-03
-2.756901110387691145e-03
-2.797735505254233396e-03
-2.845846398655871301e-03
-2.900818004953464174e-03
-2.962098791340892802e-03
-3.029009849987108517e-03
-3.100755152854062051e-03
-3.176433574301746991e-03
-3.255052486360407275e-03
-3.335542686765913169e-03
-3.416774507381859644e-03
-3.497574822572614445e-03
-3.576744609503951840e-03
-3.653076975804737687e-03
-3.725375188496810996e-03
-3.792470551977020123e-03
-3.853239867693648325e-03
-3.906622111936374452e-03
-3.951634174690733976e-03
-3.987385446185822205e-03
-4.013090884636932691e-03
-4.028082552825349404e-03
-4.031819286206470704e-03
-4.023894556702581685e-03
-4.004042198630284287e-03
-3.972140057733428153e-03
-3.928211507618339753e-03
-3.872424702881537874e-03
-3.805089702492967657e-03
-3.726653566970175580e-03
-3.637693342361605648e-03
-3.538907110438544584e-03
-3.431103409388171384e-03
-3.315188869919395796e-03
-3.192154608633800909e-03
-3.063061300459785693e-03
-2.929023364720845755e-03
-2.791192435070295394e-03
-2.650740288503701352e-03
-2.508841634168203563e-03
-2.366656922652362032e-03
-2.225315609875155431e-03
-2.085899797104214665e-03
-1.949428833015354624e-03
-1.816844959435171252e-03
-1.689000142932748066e-03
-1.566644474216297806e-03
-1.450416175931671086e-03
-1.340833317936992964e-03
-1.238287550504968675e-03
-1.143039714989417923e-03
-1.055217552269381489e-03
-9.748155264080683637e-04
-9.016966649318786629e-04
-8.355964144116924354e-04
-7.761285204977394795e-04
-7.227927363433155191e-04
-6.749842603851446531e-04
-6.320048234773160967e-04
-5.930750830930506517e-04
-5.573483763423182479e-04
-5.239253920770344224e-04
-4.918696573691807130e-04
-4.602234880031879911e-04
-4.280243172279642682e-04
-3.943211116072623803e-04
-3.581904208651501146e-04
-3.187521480809582487e-04
-2.751845283864158250e-04
-2.267382161368071923e-04
-1.727492742641035162e-04
-1.126508207430088618e-04
-4.598316010119447839e-05
2.759767005322242721e-05
1.083132018130387108e-04
1.962576791483103722e-04
2.913951331288058420e-04
3.935584400199759834e-04
5.024503806656847264e-04
6.176466486777752469e-04
7.386008378477699598e-04
8.646511705584903175e-04
9.950291019656480867e-04
1.128869511689781701e-03
1.265222230196929318e-03
1.403065015919262651e-03
1.541317556532287867e-03
1.678856387476217399e-03
1.814530465659377990e-03
1.947177159632975697e-03
2.075638482881927462e-03
2.198777302451410121e-03
2.315493298129790885e-03
2.424738420044394733e-03
2.525531658099305649e-03
2.616972872284210102e-03
2.698255537538712424e-03
2.768678205975335423e-03
2.827654517166762731e-03
2.874721653704564225e-03
2.909547057181528350e-03
2.931933407037011149e-03
2.941821726457879808e-03
2.939292657045519154e-03
2.924565841087588963e-03
2.897997389933148950e-03
2.860075632851742048e-03
2.811415008045627367e-03
2.752748376176811663e-03
2.684917735348731765e-03
2.608863584470825364e-03
2.525613035303588081e-03
2.436266821058532660e-03
2.341985388614594051e-03
2.243974323587475533e-03
2.143469345963612202e-03
2.041720874182364857e-03
1.939978616953127880e-03
1.839476289045310301e-03
1.741416538583526706e-03
1.646956454885665578e-03
1.557193870478780539e-03
1.473154411018764553e-03
1.395779625761076840e-03
1.325916295933118189e-03
1.264307078872298120e-03
1.211582518551428036e-03
1.168254536329638551e-03
1.134711548659707997e-03
1.111215086144116179e-03
1.097898071728945412e-03
1.094764761191269978e-03
1.101692161157764036e-03
1.118433094081185825e-03
1.144620648467732475e-03
1.179774103811059328e-03
1.223306094552121517e-03
1.274531025804790350e-03
1.332674476843881493e-03
1.396883508254723270e-03
1.466237837577890951e-03
1.539761534368722833e-03
1.616435213595489436e-03
1.695208540633141034e-03
1.775012789088272662e-03
1.854773461370189547e-03
1.933422696525019047e-03
2.009911314363542218e-03
2.083220445175578903e-03
2.152372512794480542e-03
2.216441539791108063e-03
2.274562520825840727e-03
2.325939985900617180e-03
2.369855499244734234e-03
2.405674122761177532e-03
2.432849672063156377e-03
2.450928863011569980e-03
2.459554273726862004e-03
2.458466126011962013e-03
2.447502962024055307e-03
2.426601054147633010e-03
2.395792775297786795e-03
2.355203858204425651e-03
2.305049770289877443e-03
2.245631074173527666e-03
2.177327969414921769e-03
2.100594124394344984e-03
2.015949873063391500e-03
1.923974819773588592e-03
1.825300068513387424e-03
1.720600053203866090e-03
1.610584207782084915e-03
1.495988523177931495e-03
1.377567111625642871e-03
1.256083882583352608e-03
1.132304425552072089e-03
1.006988167570510746e-03
8.808809328515968678e-04
7.547079655394802605e-04
6.291676016307423246e-04
5.049253891293434748e-04
3.826089659738670778e-04
2.628036038005938176e-04
1.460485236050251909e-04
3.283392210326733401e-05
-7.640118984468427348e-05
-1.812703396932336970e-04
-2.814402219398582446e-04
-3.766306113018404503e-04
-4.666135711503918465e-04
-5.512119203652248063e-04
-6.302970523804097289e-04
-7.037862255682559957e-04
-7.716393689025902950e-04
-8.338553964380879691e-04
-8.904682025670031557e-04
-9.415422264424213109e-04
-9.871679963546109611e-04
-1.027457443802294677e-03
-1.062539135613968554e-03
-1.092553652644006994e-03
-1.117648966610935990e-03
-1.137976157765625395e-03
-1.153685355393404806e-03
-1.164922052899074753e-03
-1.171823761066970735e-03
-1.174517186552986739e-03
-1.173116008353103671e-03
-1.167719186967761591e-03
-1.158409839308300162e-03
-1.145254790582248168e-03
-1.128304751953377715e-03
-1.107595167727600319e-03
-1.083147601233523053e-03
-1.054971899495437153e-03
-1.023068754755204106e-03
-9.874329048840549492e-04
-9.480568369443389924e-04
-9.049348570148016066e-04
-8.580675451150269117e-04
-8.074663907657278917e-04
-7.531587287551120028e-04
-6.951926392771597130e-04
-6.336419067502987610e-04
-5.686107881657253855e-04
-5.002386447399152824e-04
-4.287041803047621355e-04
-3.542292481726629343e-04
-2.770821446863375105e-04
-1.975803361118061278e-04
-1.160924145563972930e-04
-3.303926746670087330e-05
5.110553925104992739e-05
1.358163149927212531e-04
2.205167097180700943e-04
3.045822054920141572e-04
3.873434743941119463e-04
4.680908299222432865e-04
5.460795112327593466e-04
6.205358996518259848e-04
6.906646305342004945e-04
7.556564089747871450e-04
8.146965973985671999e-04
8.669742723523704304e-04
9.116917708148771600e-04
9.480746438400347023e-04
9.753817289993657472e-04
9.929152528125851328e-04
1.000030803770205617e-03
9.961470778932530069e-04
9.807551837363881215e-04
9.534272409358850306e-04
9.138243167503397541e-04
8.617033657767903801e-04
7.969231360958075293e-04
7.194488857470620951e-04
6.293557705557531641e-04
5.268308570739135182e-04
4.121736187135646473e-04
2.857948453042697453e-04
1.482139813342391694e-04
5.490487467370474796e-08
-1.579599870274146583e-04
-3.250171198083534867e-04
-5.002206836993663324e-04
-6.826029886996655763e-04
-8.711360138978923879e-04
-1.064744146071585880e-03
-1.262318043477406691e-03
-1.462729169821724894e-03
-1.664844966183475850e-03
-1.867544527142619981e-03
-2.069734335217428625e-03
-2.270363979001614220e-03
-2.468441617137612752e-03
-2.663048866760654894e-03
-2.853354920747779022e-03
-3.038629633394422571e-03
-3.218255350259937968e-03
-3.391737344148134173e-03
-3.558712530614067341e-03
-3.718956387204140970e-03
-3.872387832445429133e-03
-4.019072073765262397e-03
-4.159221278329520294e-03
-4.293192883281442274e-03
-4.421485695694794479e-03
-4.544733633054007238e-03
-4.663697278421873732e-03
-4.779253231587326373e-03
-4.892381387607658109e-03
-5.004150311126417776e-03
-5.115700875659768589e-03
-5.228228352299215537e-03
-5.342963219026134955e-03
-5.461150879413619735e-03
-5.584030723723786005e-03
-5.712814625981000628e-03
-5.848665287616781373e-03
-5.992674811525278318e-03
-6.145843783030824868e-03
-6.309061114559698022e-03
-6.483085046069509728e-03
-6.668525549766828216e-03
-6.865828546920644225e-03
-7.075262025840078906e-03
-7.296904470454028922e-03
-7.530635752981441888e-03
-7.776130654358259439e-03
-8.032855170800538847e-03
-8.300065815482319392e-03
-8.576811724125233891e-03
-8.861939996466627195e-03
-9.154103870041369051e-03
-9.451773944193189031e-03
-9.753252169374075978e-03
-1.005668857582487155e-02
-1.036010059930849228e-02
-1.066139465560604106e-02
-1.095838980746492199e-02
-1.124884315388549605e-02
-1.153047674614087088e-02
-1.180100567768467730e-02
-1.205816687890020646e-02
-1.229974839538449695e-02
-1.252361864506929684e-02
-1.272775541006170713e-02
-1.291027406101897569e-02
-1.306945469454705820e-02
-1.320376784197596111e-02
-1.331189839262105282e-02
-1.339276732137687637e-02
-1.344555110319825726e-02
-1.346969840947264199e-02
-1.346494387146656042e-02
-1.343131877698336765e-02
-1.336915836824245467e-02
-1.327910587378002688e-02
-1.316211303544441089e-02
-1.301943704484710175e-02
-1.285263406592433537e-02
-1.266354927188423872e-02
-1.245430355022503731e-02
-1.222727697795078505e-02
-1.198508913224437776e-02
-1.173057671684255530e-02
-1.146676846047088409e-02
-1.119685769105176892e-02
-1.092417287565723531e-02
-1.065214641519366540e-02
-1.038428200043747113e-02
-1.012412100802100208e-02
-9.875208070367179000e-03
-9.641056385906315862e-03
-9.425113006166076918e-03
-9.230724487084831717e-03
-9.061103282714120383e-03
-8.919295249373767123e-03
-8.808148474653399937e-03
-8.730283790682542150e-03
-8.688067280091280736e-03
-8.683585005385574540e-03
-8.718620241803984663e-03
-8.794633348479252016e-03
-8.912744533752715859e-03
-9.073719584915944728e-03
-9.277958746566214443e-03
-9.525488798864797588e-03
-9.815958410334784875e-03
-1.014863671995466440e-02
-1.052241535025521743e-02
-1.093581351171779223e-02
-1.138698641070737781e-02
-1.187373673967240945e-02
-1.239352920554396241e-02
-1.294350787438206148e-02
-1.352051629685204447e-02
-1.412112009406402482e-02
-1.474163200344971204e-02
-1.537813902541466764e-02
-1.602653150306312946e-02
-1.668253388728983475e-02
-1.734173707155324193e-02
-1.799963184305565858e-02
-1.865164334723756756e-02
-1.929316625647469960e-02
-1.991960037423100294e-02
-2.052638642939692143e-02
-2.110904174444431028e-02
-2.166319562660913578e-02
-2.218462404740848687e-02
-2.266928353103592891e-02
-2.311334384367723024e-02
-2.351321931635234896e-02
-2.386559847818452498e-02
-2.416747187322872484e-02
-2.441615767603612028e-02
-2.460932501017851215e-02
-2.474501470373855275e-02
-2.482165730555796826e-02
-2.483808806403645097e-02
-2.479355880174290497e-02
-2.468774656128052206e-02
-2.452075879104013284e-02
-2.429313498016805531e-02
-2.400584471379907381e-02
-2.366028191832657626e-02
-2.325825540169600483e-02
-2.280197558435392846e-02
-2.229403752624943905e-02
-2.173740016039873296e-02
-2.113536191810945139e-02
-2.049153281215094005e-02
-1.980980304118037244e-02
-1.909430847952959046e-02
-1.834939304499354565e-02
-1.757956835764884831e-02
-1.678947093660563064e-02
-1.598381722120692169e-02
-1.516735674438458858e-02
-1.434482390923864058e-02
-1.352088875308637972e-02
-1.270010712786242418e-02
-1.188687079537938812e-02
-1.108535787021578192e-02
-1.029948413608852698e-02
-9.532855765521871388e-03
-8.788723913738777371e-03
-8.069941752354295797e-03
-7.378924453344187090e-03
-6.717612587924426566e-03
-6.087439374031671131e-03
-5.489302378723285962e-03
-4.923539993457009580e-03
-4.389913115890695106e-03
-3.887592425037642279e-03
-3.415151393711498250e-03
-2.970565486510202014e-03
-2.551217673188296495e-03
-2.153910304695548939e-03
-1.774883514603942678e-03
-1.409840051977836843e-03
-1.053976509820769673e-03
-7.020207916123756163e-04
-3.482755075620782453e-04
1.333291228451602597e-05
3.891998806268141581e-04
7.859834570171330944e-04
1.210540949581479821e-03
1.669861806501960399e-03
2.170997503301137777e-03
2.720989133880802758e-03
3.326793528464214861e-03
3.995208641915632720e-03
4.732799046176902787e-03
5.545822402619523389e-03
6.440157858497803402e-03
7.421237088214115499e-03
8.493978988001839314e-03
9.662728811726346498e-03
1.093120251882605601e-02
1.230243709471547618e-02
1.377874765818839012e-02
1.536169182766679991e-02
1.705204212828174276e-02
1.884976668762863850e-02
2.075401879965519183e-02
2.276313545603655605e-02
2.487464526063555906e-02
2.708528552018056937e-02
2.939102866688029711e-02
3.178711767543879879e-02
3.426811034471773099e-02
3.682793190986900778e-02
3.945993552314575742e-02
4.215696990439899566e-02
4.491145349255450808e-02
4.771545412760647836e-02
5.056077351311435292e-02
5.343903531287842734e-02
5.634177587710059720e-02
5.926053646825832355e-02
6.218695575683155091e-02
6.511286149087937292e-02
6.803036019848977822e-02
7.093192356539949894e-02
7.381047052092806759e-02
7.665944383586788258e-02
7.947288028042845398e-02
8.224547324610750887e-02
8.497262707462509279e-02
8.765050235000543255e-02
9.027605141514451204e-02
9.284704362832599256e-02
9.536208004863637455e-02
9.782059726439121250e-02
1.002228603747560287e-01
1.025699450683852099e-01
1.048637091649231579e-01
1.071067539781577066e-01
1.093023761277487349e-01
1.114545103328294096e-01
1.135676641199139802e-01
1.156468454226620146e-01
1.176974841150792706e-01
1.197253486096514913e-01
1.217364588390050656e-01
1.237369968289260824e-01
1.257332162648818752e-01
1.277313523571340370e-01
1.297375334755495879e-01
1.317576957340425570e-01
1.337975019201619042e-01
1.358622659073515926e-01
1.379568837215473243e-01
1.400857722633464253e-01
1.422528165177711912e-01
1.444613260884237138e-01
1.467140016125003110e-01
1.490129113187221299e-01
1.513594782344358791e-01
1.537544778740567442e-01
1.561980463188590573e-01
1.586896984655822018e-01
1.612283559058393656e-01
1.638123836803936084e-01
1.664396352238952104e-01
1.691075043516259424e-01
1.718129834179015769e-01
1.745527261937598607e-01
1.773231143899995366e-01
1.801203262392643001e-01
1.829404059362731427e-01
1.857793324689397396e-01
1.886330864402848417e-01
1.914977135603596337e-01
1.943693836396744035e-01
1.972444437973842335e-01
2.001194650018139898e-01
2.029912810418836866e-01
2.058570192218314998e-01
2.087141223650963717e-01
2.115603617607497156e-01
2.143938411279374956e-01
2.172129916709131248e-01
2.200165586415541441e-01
2.228035800924676457e-01
2.255733585795723917e-01
2.283254269736290365e-01
2.310595095408180255e-01
2.337754797844502630e-01
2.364733164967731394e-01
2.391530596390544494e-01
2.418147679323218446e-01
2.444584797447010849e-01
2.470841790984039388e-01
2.496917683837882873e-01
2.522810495585175450e-01
2.548517151275321302e-01
2.574033501823743131e-01
2.599354466457435842e-01
2.624474304118438739e-01
2.649387017546304124e-01
2.674086893355104300e-01
2.698569175209520887e-01
2.722830862960285980e-01
2.746871629074781884e-01
2.770694836856781307e-01
2.794308643250531521e-01
2.817727163046469530e-01
2.840971669466921257e-01
2.864071800050932981e-01
2.887066736108759857e-01
2.910006319832512678e-01
2.932952070458008098e-01
2.955978060654337880e-01
2.979171611060134617e-01
3.002633762767817904e-01
3.026479486531865049e-01
3.050837589950918805e-01
3.075850283971129362e-01
3.101672375342454102e-01
3.128470052648602562e-01
3.156419242139134607e-01
3.185703511019730705e-01
3.216511504776469188e-01
3.249033910351976084e-01
3.283459946238714289e-01
3.319973387738649473e-01
3.358748144018073312e-01
3.399943413836038486e-01
3.443698455161419703e-01
3.490127012467000855e-01
3.539311456753828078e-01
3.591296700028025479e-01
3.646083955631885254e-01
3.703624424435113527e-01
3.763812993342369739e-01
3.826482039274381464e-01
3.891395436864100166e-01
3.958242873965006070e-01
4.026634579855242202e-01
4.096096574584092154e-01
4.166066546616543631e-01
4.235890466115486142e-01
4.304820035602781592e-01
4.372011078926481553e-01
4.436522958471253442e-01
4.497319106246156495e-01
4.553268742003610536e-01
4.603149842648449619e-01
4.645653412432031448e-01
4.679389089731122997e-01
4.702892111353190185e-01
4.714631639424939902e-01
4.713020435200960256e-01
4.696425850815198477e-01
4.663182088835366446e-01
4.611603660153552053e-01
4.539999953717825942e-01
4.446690812913056123e-01
4.330022994121517921e-01
4.188387368901147489e-01
4.020236711469201141e-01
3.824103903923015135e-01
3.598620372525881406e-01
3.342534562592241465e-01
3.054730247537533194e-01
2.734244461885183552e-01
2.380284844111782427e-01
1.992246173379412233e-01
1.569725883390405419e-01
1.112538342977947015e-01
6.207276974637458006e-02
9.457907502703847072e-03
-4.653720257116441411e-02
-1.058332336992938716e-01
-1.683245563624070906e-01
-2.338789397630950673e-01
-3.023374916814703384e-01
-3.735148454200113433e-01
-4.471995999685025591e-01
-5.231550167246026284e-01
-6.011199735323334847e-01
-6.808101736566062323e-01
-7.619196045511433812e-01
-8.441222382750599440e-01
-9.270739623628426740e-01
-1.010414727374344013e+00
-1.093770894436020047e+00
-1.176757763459701067e+00
-1.258982260435528744e+00
-1.340045759906940859e+00
-1.419547016686608210e+00
-1.497085179459890725e+00
-1.572262857260585900e+00
-1.644689208845522499e+00
-1.713983024272903277e+00
-1.779775767683160037e+00
-1.841714550041285703e+00
-1.899465001311764656e+00
-1.952714011992224830e+00
-2.001172315169078786e+00
-2.044576881570711269e+00
-2.082693102144388408e+00
-2.115316734516250907e+00
-2.142275592155469699e+00
-2.163430958030676088e+00
-2.178678707001385106e+00
-2.187950124679394648e+00
-2.191212413675689419e+00
-2.188468881329671323e+00
-2.179758806955496730e+00
-2.165156989765389728e+00
-2.144772982254674609e+00
-2.118750017527063711e+00
-2.087263642103997618e+00
-2.050520069133176637e+00
-2.008754270057530267e+00
-1.962227825486659194e+00
-1.911226558671721421e+00
-1.856057977430321859e+00
-1.797048552091411677e+00
-1.734540858880319281e+00
-1.668890619435398515e+00
-1.600463667844632010e+00
-1.529632877509206956e+00
-1.456775079948169127e+00
-1.382268007540386368e+00
-1.306487291568951603e+00
-1.229803545821724242e+00
-1.152579564835945591e+00
-1.075167663978795929e+00
-9.979071866076621999e-01
-9.211222012747845023e-01
-8.451194092084276521e-01
-7.701862797359971813e-01
-6.965894283755903471e-01
-6.245732489683790689e-01
-5.543588082469206313e-01
-4.861430079058183251e-01
-4.200980160319853773e-01
-3.563709664815274958e-01
-2.950839216818139654e-01
-2.363340911959327106e-01
-1.801942957199418327e-01
-1.267136632268537344e-01
-7.591854172009387947e-02
-2.781361059907048669e-02
1.761682898722912241e-02
6.040740631326532717e-02
1.006100985069375425e-01
1.382925370649851771e-01
1.735362278384256496e-01
2.064347093477146566e-01
2.370916740109886844e-01
2.656190767802215635e-01
2.921352551432900846e-01
3.167630830592380597e-01
3.396281805444056334e-01
3.608571991509196275e-01
3.805762015185807368e-01
3.989091515424134649e-01
4.159765296373555410e-01
4.318940851631065114e-01
4.467717359424847601e-01
4.607126222064489851e-01
4.738123200907390919e-01
4.861582172992049422e-01
4.978290511128092288e-01
5.088946068380176824e-01
5.194155723258691015e-01
5.294435422367441690e-01
5.390211640030543316e-01
5.481824154906779212e-01
5.569530029435695306e-01
5.653508665744235717e-01
5.733867800116770885e-01
5.810650289730376894e-01
5.883841541901186911e-01
5.953377430963302519e-01
6.019152546772629231e-01
6.081028623411126599e-01
6.138842997535892687e-01
6.192416953089917575e-01
6.241563819251289003e-01
6.286096695266739642e-01
6.325835688558337777e-01
6.360614567247562245e-01
6.390286739888617618e-01
6.414730491142718316e-01
6.433853417637755978e-01
6.447596024664989933e-01
6.455934458033177892e-01
6.458882364164741929e-01
6.456491884373195544e-01
6.448853805603903533e-01
6.436096901964279970e-01
6.418386514784063523e-01
6.395922429975301471e-01
6.368936121899075875e-01
6.337687441301746993e-01
6.302460829919837026e-01
6.263561152712900926e-01
6.221309238622383386e-01
6.176037224311822227e-01
6.128083795226855202e-01
6.077789415385340677e-01
6.025491637039219750e-01
5.971520572731142673e-01
5.916194609178303532e-01
5.859816434400481056e-01
5.802669441746968193e-01
