1.437897193071435986e-01
1.401486509464336394e-01
1.365215927911607174e-01
1.329032803142804753e-01
1.292892887007685565e-01
1.256761026446839569e-01
1.220611663052589974e-01
1.184429128522032637e-01
1.148207736801401535e-01
1.111951674855727046e-01
1.075674699793507522e-01
1.039399652747452357e-01
1.003157804102629003e-01
9.669880463888602673e-02
9.309359540112542575e-02
8.950527311360398364e-02
8.593940724309415136e-02
8.240189589052432373e-02
7.889884152287683639e-02
7.543642531504925197e-02
7.202078264519999606e-02
6.865788210560301585e-02
6.535341032333129296e-02
6.211266475693281303e-02
5.894045640133592501e-02
5.584102404259286279e-02
5.281796150241160892e-02
4.987415915619555773e-02
4.701176043701089241e-02
4.423213389618903257e-02
4.153586109885277350e-02
3.892274028373905043e-02
3.639180536011873274e-02
3.394135964162933727e-02
3.156902328383382611e-02
2.927179329509564318e-02
2.704611472518968218e-02
2.488796140452186403e-02
2.279292457196047117e-02
2.075630734115922055e-02
1.877322319892026081e-02
1.683869657634372297e-02
1.494776338070111753e-02
1.309556966751657982e-02
1.127746641332184538e-02
9.489098777498879145e-03
7.726488132040192254e-03
5.986105419735381246e-03
4.264934547583512994e-03
2.560524753864384766e-03
8.710312044940771376e-04
-8.047569277020713086e-04
-2.467401112828769907e-03
-4.116810974996226377e-03
-5.752254533012397288e-03
-7.372380758458649611e-03
-8.975253772620537737e-03
-1.055839796327598216e-02
-1.211885285334510405e-02
-1.365323665313388467e-02
-1.515781712146101017e-02
-1.662858823126946162e-02
-1.806135115599403693e-02
-1.945179796885426748e-02
-2.079559638708005503e-02
-2.208847404040115495e-02
-2.332630057278717653e-02
-2.450516618720443435e-02
-2.562145519084351938e-02
-2.667191320535077306e-02
-2.765370685973362469e-02
-2.856447505713343923e-02
-2.940237095189957017e-02
-3.016609400137806180e-02
-3.085491164346376713e-02
-3.146867046663372192e-02
-3.200779668392256944e-02
-3.247328620838796365e-02
-3.286668464787559363e-02
-3.319005777266054169e-02
-3.344595311174613367e-02
-3.363735358894408278e-02
-3.376762420494457823e-02
-3.384045290798303601e-02
-3.385978676964068040e-02
-3.382976467026044265e-02
-3.375464801964206396e-02
-3.363875072705863750e-02
-3.348636963272121764e-02
-3.330171674307302182e-02
-3.308885455991960461e-02
-3.285163556977226812e-02
-3.259364692529882757e-02
-3.231816133046368916e-02
-3.202809485539426237e-02
-3.172597231754491903e-02
-3.141390074372132218e-02
-3.109355129480683572e-02
-3.076614982451098337e-02
-3.043247600807872516e-02
-3.009287089217220490e-02
-2.974725274785515461e-02
-2.939514051301049188e-02
-2.903568441519950236e-02
-2.866770299938329464e-02
-2.828972580376294330e-02
-2.790004066846266464e-02
-2.749674483320682650e-02
-2.707779869914030829e-02
-2.664108126493476905e-02
-2.618444611633236746e-02
-2.570577687987820117e-02
-2.520304124001457660e-02
-2.467434243193347351e-02
-2.411796724171549888e-02
-2.353242975864308639e-02
-2.291651010573747538e-02
-2.226928754870918792e-02
-2.159016736338016662e-02
-2.087890110304036276e-02
-2.013560000574123737e-02
-1.936074138584334414e-02
-1.855516804076935700e-02
-1.772008072325045522e-02
-1.685702397048105886e-02
-1.596786562492318040e-02
-1.505477055260968748e-02
-1.412016909561175995e-02
-1.316672099428121967e-02
-1.219727537027916892e-02
-1.121482770957691298e-02
-1.022247462414617794e-02
-9.223367206488664385e-03
-8.220663910880943170e-03
-7.217483871495514007e-03
-6.216861298555980027e-03
-5.221701963579722557e-03
-4.234742561005941895e-03
-3.258513494221767452e-03
-2.295305736038671506e-03
-1.347142429526898598e-03
-4.157555026109227905e-04
4.974322188401390614e-04
1.391319162527090980e-03
2.265131409706409946e-03
3.118423181739667094e-03
3.951071540007325758e-03
4.763265447048031440e-03
5.555489490792773870e-03
6.328502580453808021e-03
7.083312160206509979e-03
7.821144323276491006e-03
8.543410481987987262e-03
9.251671249949659434e-03
9.947598178271208763e-03
1.063293396750449905e-02
1.130945191565826610e-02
1.197891541948363330e-02
1.264303804233777445e-02
1.330344497758819376e-02
1.396163641958159465e-02
1.461895355843064771e-02
1.527654769900607841e-02
1.593535289084045334e-02
1.659606267373119060e-02
1.725911110389132669e-02
1.792465834615364351e-02
1.859258104814956805e-02
1.926246760559084670e-02
1.993361832929252050e-02
2.060505029590855783e-02
2.127550690236332254e-02
2.194347187248827172e-02
2.260718729599718244e-02
2.326467550391242076e-02
2.391376425161863967e-02
2.455211478254758217e-02
2.517725236409810996e-02
2.578659869024456375e-02
2.637750555951855896e-02
2.694728933286342706e-02
2.749326570013197260e-02
2.801278410541113359e-02
2.850326131104166313e-02
2.896221361143986456e-02
2.938728728506950078e-02
2.977628684464220937e-02
3.012720059676495324e-02
3.043822326713193499e-02
3.070777549552433650e-02
3.093451980610348317e-02
3.111737299738677465e-02
3.125551482879921489e-02
3.134839303206376354e-02
3.139572454065356344e-02
3.139749306025497316e-02
3.135394315490333539e-02
3.126557096282387566e-02
3.113311180528911468e-02
3.095752487594025104e-02
3.073997538097710328e-02
3.048181443826053147e-02
3.018455697012771555e-02
2.984985812374423703e-02
2.947948848997516275e-02
2.907530843821180475e-02
2.863924204490628234e-02
2.817325088680013023e-02
2.767930812395744469e-02
2.715937309667779478e-02
2.661536686762927192e-02
2.604914888696219927e-02
2.546249511287700801e-02
2.485707772696033394e-02
2.423444664289733930e-02
2.359601305992784295e-02
2.294303512500022943e-02
2.227660573568890010e-02
2.159764260461456351e-02
2.090688062365071709e-02
2.020486649388052169e-02
1.949195554291200533e-02
1.876831074513643505e-02
1.803390380978036125e-02
1.728851834903926202e-02
1.653175482675164204e-02
1.576303732990221029e-02
1.498162190747380149e-02
1.418660638806240083e-02
1.337694152934273788e-02
1.255144330021851565e-02
1.170880622100603161e-02
1.084761759527134647e-02
9.966372428847992959e-03
9.063488946323259091e-03
8.137324580309844915e-03
7.186192299732812455e-03
6.208377164353847538e-03
5.202153057556433736e-03
4.165799394368165272e-03
3.097617769677911675e-03
1.995948575460074551e-03
8.591873500491748394e-04
-3.141991283218550186e-04
-1.525657109834151898e-03
-2.776530451703613459e-03
-4.068045698458650460e-03
-5.401297694477691716e-03
-6.777235643938767269e-03
-8.196649908751983682e-03
-9.660159386483751012e-03
-1.116819972528117211e-02
-1.272101234179971903e-02
-1.431863422063379791e-02
-1.596088879448401623e-02
-1.764737775170528711e-02
-1.937747409977964158e-02
-2.115031629600584717e-02
-2.296480372247046778e-02
-2.481959352873123331e-02
-2.671309890775333887e-02
-2.864348890399889130e-02
-3.060868975881572349e-02
-3.260638793566424803e-02
-3.463403486100925105e-02
-3.668885334080887461e-02
-3.876784580406614222e-02
-4.086780427818599570e-02
-4.298532215228520470e-02
-4.511680765118919467e-02
-4.725849896976848374e-02
-4.940648108369082719e-02
-5.155670405218674285e-02
-5.370500277078432694e-02
-5.584711795850368782e-02
-5.797871830989971553e-02
-6.009542361890694157e-02
-6.219282868861126384e-02
-6.426652773745006320e-02
-6.631213922574484554e-02
-6.832533074747906832e-02
-7.030184380883054696e-02
-7.223751816571778728e-02
-7.412831559321028663e-02
-7.597034270200031525e-02
-7.775987269267850555e-02
-7.949336568645158640e-02
-8.116748742831987606e-02
-8.277912624217845239e-02
-8.432540793776095722e-02
-8.580370846160469134e-02
-8.721166424663241712e-02
-8.854718016109408563e-02
-8.980843485199126175e-02
-9.099388348402946691e-02
-9.210225783110816133e-02
-9.313256374577624785e-02
-9.408407602637690326e-02
-9.495633078230034108e-02
-9.574911537418301366e-02
-9.646245611626631800e-02
-9.709660388549169741e-02
-9.765201787669677835e-02
-9.812934773192250049e-02
-9.852941418950016128e-02
-9.885318872153282810e-02
-9.910177228402312910e-02
-9.927637358765789566e-02
-9.937828717155100522e-02
-9.940887151907053243e-02
-9.936952768954868120e-02
-9.926167865281225466e-02
-9.908674965312991301e-02
-9.884614988132262026e-02
-9.854125579016535796e-02
-9.817339610261908989e-02
-9.774383896321242604e-02
-9.725378119853739234e-02
-9.670434003054255434e-02
-9.609654718848029131e-02
-9.543134558665006262e-02
-9.470958854797291437e-02
-9.393204164382010224e-02
-9.309938696108918665e-02
-9.221222978397773662e-02
-9.127110768987939382e-02
-9.027650174432101660e-02
-8.922884954151044656e-02
-8.812856011232544917e-02
-8.697603016532268194e-02
-8.577166151834739183e-02
-8.451587947491978614e-02
-8.320915170778499237e-02
-8.185200737675098204e-02
-8.044505614733633847e-02
-7.898900681256870726e-02
-7.748468506631106534e-02
-7.593305033361585910e-02
-7.433521110060686832e-02
-7.269243861333321566e-02
-7.100617867477081180e-02
-6.927806124000264465e-02
-6.750990762861310002e-02
-6.570373527307575567e-02
-6.386175979609279296e-02
-6.198639429393842243e-02
-6.008024581012131465e-02
-5.814610901641674434e-02
-5.618695716511778321e-02
-5.420593028706115896e-02
-5.220632080906553035e-02
-5.019155676070512218e-02
-4.816518272491147196e-02
-4.613083882297350918e-02
-4.409223788165789887e-02
-4.205314113664117281e-02
-4.001733281130345765e-02
-3.798859381558480908e-02
-3.597067493727391235e-02
-3.396726990511660105e-02
-3.198198859215300310e-02
-3.001833078489845805e-02
-2.807966082870484020e-02
-2.616918346023364150e-02
-2.428992113623589313e-02
-2.244469321746514132e-02
-2.063609718571609089e-02
-1.886649217266267789e-02
-1.713798503644700308e-02
-1.545241909102328462e-02
-1.381136565854703367e-02
-1.221611856331010319e-02
-1.066769155985957361e-02
-9.166818796084965498e-03
-7.713958134713169365e-03
-6.309297499964714763e-03
-4.952763909313135857e-03
-3.644035136077610013e-03
-2.382553927735702425e-03
-1.167544392705120986e-03
1.969549868606168543e-06
1.127143959245379681e-03
2.209293175054946861e-03
3.249866974218253938e-03
4.250426850464055807e-03
5.212621700342248351e-03
6.138163274135558303e-03
7.028801797685573297e-03
7.886301912514099080e-03
8.712419377276750532e-03
9.508878775530043084e-03
1.027735245960788822e-02
1.101944102131352347e-02
1.173665550907475492e-02
1.243040164506610708e-02
1.310196602402247633e-02
1.375250469744160667e-02
1.438303397714610701e-02
1.499442372217471911e-02
1.558739310540930255e-02
1.616250873754438572e-02
1.672018527827517573e-02
1.726068834816991276e-02
1.778413971409653280e-02
1.829052459649059895e-02
1.877970093483331479e-02
1.925141044693338618e-02
1.970529124166863974e-02
2.014089183924294701e-02
2.055768634855466986e-02
2.095509054163794196e-02
2.133247848026520108e-02
2.168919966485471570e-02
2.202459620568247151e-02
2.233802000838740545e-02
2.262884947882815717e-02
2.289650574838924743e-02
2.314046801776199411e-02
2.336028790443843081e-02
2.355560257499679164e-02
2.372614652071542915e-02
2.387176184815379201e-02
2.399240687542975731e-02
2.408816304486481250e-02
2.415923998161954855e-02
2.420597872205686521e-02
2.422885308423614742e-02
2.422846911502099521e-02
2.420556277185629060e-02
2.416099575763930307e-02
2.409574971761995615e-02
2.401091878477299574e-02
2.390770060142561118e-02
2.378738603194082563e-02
2.365134768883502339e-02
2.350102738181704398e-02
2.333792272740685750e-02
2.316357302875237875e-02
2.297954468620318214e-02
2.278741633193751698e-02
2.258876377067521243e-02
2.238514508525321633e-02
2.217808591743824012e-02
2.196906521432749268e-02
2.175950159850439936e-02
2.155074051061735274e-02
2.134404223479710247e-02
2.114057092594574458e-02
2.094138493480998328e-02
2.074742829390976637e-02
2.055952357532626548e-02
2.037836619485569253e-02
2.020452019784576420e-02
2.003841555664398824e-02
1.988034696209425856e-02
1.973047413813017528e-02
1.958882372758164944e-02
1.945529260414004952e-02
1.932965258076072695e-02
1.921155639443901733e-02
1.910054509768275774e-02
1.899605648406901132e-02
1.889743461812793540e-02
1.880394025218372692e-02
1.871476210881017205e-02
1.862902876006481551e-02
1.854582103738492901e-02
1.846418483315070275e-02
1.838314402921226512e-02
1.830171358301584464e-02
1.821891252564330349e-02
1.813377665025680749e-02
1.804537084725958002e-02
1.795280093456167944e-02
1.785522478863349125e-02
1.775186269478954554e-02
1.764200687447899790e-02
1.752502984655254434e-02
1.740039180550819950e-02
1.726764679903395813e-02
1.712644757528662687e-02
1.697654921108473353e-02
1.681781132386147085e-02
1.665019902046179640e-02
1.647378241323223247e-02
1.628873476580812441e-02
1.609532933346364061e-02
1.589393489181071054e-02
1.568501006732932884e-02
1.546909645993343844e-02
1.524681076388366072e-02
1.501883586513876913e-02
1.478591114212709882e-02
1.454882200565672801e-02
1.430838885411887459e-02
1.406545557978468308e-02
1.382087779495451939e-02
1.357551088207960971e-02
1.333019812521534994e-02
1.308575893811098935e-02
1.284297750596097298e-02
1.260259182233241029e-02
1.236528345572019197e-02
1.213166809079169010e-02
1.190228697588694741e-02
1.167759941828007061e-02
1.145797645991742351e-02
1.124369573931363435e-02
1.103493776396811260e-02
1.083178359482349362e-02
1.063421397559383835e-02
1.044210992143730643e-02
1.025525479663953049e-02
1.007333789811516549e-02
9.895959448272964934e-03
9.722636984718788927e-03
9.552813106152182807e-03
9.385864419674374085e-03
9.221111594393925290e-03
9.057830401837000528e-03
8.895263604660124529e-03
8.732633544144316473e-03
8.569155195774051659e-03
8.404049627559405725e-03
8.236557480827433678e-03
8.065952502452801084e-03
7.891554827684183621e-03
7.712743749257548569e-03
7.528969901649385302e-03
7.339766629219862150e-03
7.144760334526583517e-03
6.943679675856000849e-03
6.736363392909799734e-03
6.522766772469280536e-03
6.302966487488853228e-03
6.077163748091855833e-03
5.845685763551563760e-03
5.608985409363497453e-03
5.367639010767913908e-03
5.122342374337026868e-03
4.873905030465679016e-03
4.623242704736908217e-03
4.371368155337582682e-03
4.119380466843784727e-03
3.868452889497225097e-03
3.619819446972992287e-03
3.374760371327237708e-03
3.134586693088075617e-03
2.900624102020218746e-03
2.674196285282034319e-03
2.456608058446700053e-03
2.249128442360270787e-03
2.052973909473160882e-03
1.869292134358736422e-03
1.699146430702892742e-03
1.543501048340544749e-03
1.403207624955611632e-03
1.278992980405149055e-03
1.171448420894638650e-03
1.081020704472141674e-03
1.008004816404753541e-03
9.525387471104478955e-04
9.146002485544591377e-04
8.940057011333199305e-04
8.904111032794620462e-04
9.033151557892753810e-04
9.320644982301162611e-04
9.758608918125132124e-04
1.033770422887189504e-03
1.104734496787828984e-03
1.187582510988196595e-03
1.281045952849594986e-03
1.383773852695044382e-03
1.494349315371349546e-03
1.611306842620373932e-03
1.733150280627414027e-03
1.858371069617084821e-03
1.985466648936307435e-03
2.112958543680502812e-03
2.239410027750014364e-03
2.363443073695571141e-03
2.483754262400780267e-03
2.599129542393252210e-03
2.708457539730386738e-03
2.810741237642244705e-03
2.905107829328961496e-03
2.990816631901773836e-03
3.067264994994490981e-03
3.133991981039188288e-03
3.190679881816003982e-03
3.237153527633639897e-03
3.273377435468017172e-03
3.299450792893589540e-03
3.315600424789992822e-03
3.322171768920972098e-03
3.319618158367298750e-03
3.308488437534548143e-03
3.289413270364409392e-03
3.263090232340479062e-03
3.230268014825500751e-03
3.191730028412749845e-03
3.148277594059240275e-03
3.100713078015597188e-03
3.049823216441757429e-03
2.996362972792258449e-03
2.941040104567983413e-03
2.884500836033094227e-03
2.827316763061375228e-03
2.769973327364236206e-03
2.712859986840830597e-03
2.656262283908149974e-03
2.600355981356186359e-03
2.545203390777219399e-03
2.490751888389254771e-03
2.436834785771865245e-03
2.383174454454281554e-03
2.329387776931051649e-03
2.274993756539568732e-03
2.219423218651351247e-03
2.162030425671711536e-03
2.102106516651080712e-03
2.038894446045943099e-03
1.971605272439043953e-03
1.899435484305484487e-03
1.821585081837993978e-03
1.737276116529467987e-03
1.645771415600187160e-03
1.546393120844007400e-03
1.438540743620218224e-03
1.321708417572070235e-03
1.195501004004834731e-03
1.059648839436629422e-03
9.140207959224258202e-04
7.586353633406392764e-04
5.936696030074759944e-04
4.194657400708203237e-04
2.365352580691747111e-04
4.556030150087591230e-05
-1.526075898121433507e-04
-3.569515412558275295e-04
-5.662960769158959483e-04
-7.793166143553635150e-04
-9.945515889692769802e-04
-1.210417023639336889e-03
-1.425223436958837154e-03
-1.637194755845291106e-03
-1.844489173006289787e-03
-2.045221523675884619e-03
-2.237486966564711851e-03
-2.419385566693184157e-03
-2.589047473779548282e-03
-2.744658342369423257e-03
-2.884484558227620472e-03
-3.006897981335978319e-03
-3.110399823931294522e-03
-3.193643281888955236e-03
-3.255454573101331656e-03
-3.294852084226362887e-03
-3.311063315583587848e-03
-3.303539349011506195e-03
-3.271966655615749040e-03
-3.216275952755056917e-03
-3.136648044758570241e-03
-3.033516482278006583e-03
-2.907566948250700934e-03
-2.759733500538259169e-03
-2.591191538493421796e-03
-2.403347628228627228e-03
-2.197826298339908713e-03
-1.976453951742172029e-03
-1.741240138166887889e-03
-1.494356406529832653e-03
-1.238113050974452411e-03
-9.749339756427124375e-04
-7.073301011612756917e-04
-4.378716746119272973e-04
-1.691597354085200213e-04
9.620274659336312600e-05
3.556397640507742968e-04
6.066307415468622562e-04
8.467382667489479998e-04
1.073634660258856229e-03
1.285127098656023729e-03
1.479180869404260901e-03
1.653940596824442959e-03
1.807749104020969343e-03
1.939163583757957813e-03
2.046969054167882465e-03
2.130188946206432090e-03
2.188092544136611192e-03
2.220199352583600294e-03
2.226280362557928744e-03
2.206356240863464185e-03
2.160692494389525493e-03
2.089791704134431449e-03
1.994383067792073784e-03
1.875409331327729983e-03
1.734011380418879270e-03
1.571510805427585008e-03
1.389390658290865074e-03
1.189274659512838585e-03
9.729051941245128341e-04
7.421205622475634785e-04
4.988315973070363328e-04
2.449981076469495288e-04
-1.739451056527429993e-05
-2.863582237255755123e-04
-5.599246284751327766e-04
-8.361661173147528050e-04
-1.113215731974241283e-03
-1.389285523207131135e-03
-1.662683154832841946e-03
-1.931826609557994777e-03
-2.195256814810360706e-03
-2.451648040430604893e-03
-2.699816207311855898e-03
-2.938724841462523555e-03
-3.167488786652842246e-03
-3.385375649223700770e-03
-3.591805094780768735e-03
-3.786346145242998080e-03
-3.968712507927643629e-03
-4.138756093758088478e-03
-4.296458943822798957e-03
-4.441923796861366354e-03
-4.575363452114900031e-03
-4.697089114901092759e-03
-4.807497975226483755e-03
-4.907060340172807872e-03
-4.996306398359478922e-03
-5.075812975897852838e-03
-5.146190383137813282e-03
-5.208069585431978135e-03
-5.262089975292656707e-03
-5.308887761978931322e-03
-5.349085214983344445e-03
-5.383280945691558753e-03
-5.412041216444908251e-03
-5.435892349021036359e-03
-5.455314388466046827e-03
-5.470736050471127626e-03
-5.482530772104145592e-03
-5.491014135046792984e-03
-5.496442403735925589e-03
-5.499012168667788240e-03
-5.498861117801082110e-03
-5.496069726512971439e-03
-5.490663822603113024e-03
-5.482617963956727333e-03
-5.471859311511326207e-03
-5.458272150271680639e-03
-5.441702761935596731e-03
-5.421964511186403574e-03
-5.398843146545245081e-03
-5.372102141095673467e-03
-5.341487956196774335e-03
-5.306735123797906746e-03
-5.267571104168613377e-03
-5.223720899093980963e-03
-5.174911223245636308e-03
-5.120874340388602806e-03
-5.061351467804034616e-03
-4.996095816872037770e-03
-4.924875161912848145e-03
-4.847474014879079793e-03
-4.763695459726296176e-03
-4.673362688103380180e-03
-4.576320227837898762e-03
-4.472434983788532367e-03
-4.361597112704543658e-03
-4.243720846586101006e-03
-4.118745201244240935e-03
-3.986634795862682365e-03
-3.847380797954392303e-03
-3.701001932713298727e-03
-3.547545711163579453e-03
-3.387089839326693028e-03
-3.219743860404625756e-03
-3.045651090906051697e-03
-2.864990781716598555e-03
-2.677980446616354954e-03
-2.484878343422701995e-03
-2.285986189360084738e-03
-2.081651891288704200e-03
-1.872272274058535326e-03
-1.658295672981585341e-03
-1.440224459979009891e-03
-1.218617262921677016e-03
-9.940907246788728904e-04
-7.673208343890885758e-04
-5.390437345852834529e-04
-3.100557844426774260e-04
-8.121283761178591486e-05
1.465713556770559668e-04
3.723276413430566664e-04
5.950350035356340769e-04
8.136251487009283105e-04
1.026988194147548461e-03
1.233979439660641726e-03
1.433427213580745459e-03
1.624141782245575776e-03
1.804925236983925515e-03
1.974582329903431729e-03
2.131932195171222944e-03
2.275820663998999894e-03
2.405133207559093014e-03
2.518808261816026309e-03
2.615850804353822990e-03
2.695346013405975055e-03
2.756472693280027832e-03
2.798516384551166108e-03
2.820881868477265273e-03
2.823104930429072654e-03
2.804863051392091425e-03
2.765984970074739265e-03
2.706458805795393645e-03
2.626438593929063519e-03
2.526249061690670310e-03
2.406388564240664798e-03
2.267529974634923014e-03
2.110519435067007531e-03
1.936373001615352731e-03
1.746271100635067965e-03
1.541550724161499250e-03
1.323695496180015644e-03
1.094323591430906330e-03
8.551737447004459283e-04
6.080892806501409561e-04
3.550005275901674728e-04
9.790570504624994418e-05
-1.611495093448144520e-04
-4.200933873362992289e-04
-6.768504200816625972e-04
-9.293639810139332812e-04
-1.175619212399996389e-03
-1.413665804741431843e-03
-1.641640308582435195e-03
-1.857787667335194333e-03
-2.060481736517582891e-03
-2.248244438522575394e-03
-2.419763239829766412e-03
-2.573906726960034207e-03
-2.709738124307830686e-03
-2.826526365141042614e-03
-2.923754615348878386e-03
-3.001126145173887896e-03
-3.058567424265786448e-03
-3.096228316294644470e-03
-3.114479359942647161e-03
-3.113906249525439859e-03
-3.095301423057627514e-03
-3.059652942435939129e-03
-3.008130770484714576e-03
-2.942070641174765380e-03
-2.862955750554510397e-03
-2.772396471089075189e-03
-2.672108436017343186e-03
-2.563889176195426056e-03
-2.449593767649651220e-03
-2.331109775058454962e-03
-2.210331808654234127e-03
-2.089136121287839699e-03
-1.969355587130975672e-03
-1.852755406904418346e-03
-1.741009929191391758e-03
-1.635680817638744721e-03
-1.538197069701598705e-03
-1.449836932573895414e-03
-1.371712150539935960e-03
-1.304754738307943411e-03
-1.249706393899443178e-03
-1.207110827840076825e-03
-1.177308965301737155e-03
-1.160437181320638032e-03
-1.156428593794054651e-03
-1.165017321474200087e-03
-1.185745664082915379e-03
-1.217974098093140738e-03
-1.260893880681458008e-03
-1.313542191973168707e-03
-1.374819387652573234e-03
-1.443508204558796148e-03
-1.518294625370880842e-03
-1.597790045702894568e-03
-1.680554391847912526e-03
-1.765119890394778630e-03
-1.850015010808714376e-03
-1.933788294881231499e-03
-2.015031751000617190e-03
-2.092403315993406846e-03
-2.164648134222020136e-03
-2.230618346965977401e-03
-2.289290997584832264e-03
-2.339783828058309648e-03
-2.381368784852041023e-03
-2.413482905989498047e-03
-2.435736515139844387e-03
-2.447918624421755070e-03
-2.449999361884367538e-03
-2.442129459601835237e-03
-2.424636859874062991e-03
-2.398020426854533763e-03
-2.362940883154141403e-03
-2.320209116410773976e-03
-2.270772064649893406e-03
-2.215696438923490073e-03
-2.156150462716921110e-03
-2.093384017301459527e-03
-2.028707374286318338e-03
-1.963469007517443937e-03
-1.899032790076691070e-03
-1.836754844979474532e-03
-1.777960521451156864e-03
-1.723921860626216780e-03
-1.675835879543462669e-03
-1.634803974844068310e-03
-1.601812932139860942e-03
-1.577717640391067397e-03
-1.563225983851631359e-03
-1.558885995146537529e-03
-1.565075591318781023e-03
-1.581995005277190679e-03
-1.609662077586188544e-03
-1.647910442028413915e-03
-1.696390693289478654e-03
-1.754574583163676701e-03
-1.821762007509793993e-03
-1.897090784693554423e-03
-1.979549199616807611e-03
-2.067990882579044589e-03
-2.161152032490982512e-03
-2.257670593220880220e-03
-2.356107088168787021e-03
-2.454966818399447435e-03
-2.552723138830675920e-03
-2.647841328935663600e-03
-2.738802792091324205e-03
-2.824129184540381116e-03
-2.902406006085258335e-03
-2.972305379512811541e-03
-3.032607696531432889e-03
-3.082221636745916416e-03
-3.120202377785281662e-03
-3.145767602728804201e-03
-3.158311076216464147e-03
-3.157413588965853925e-03
-3.142851093629634319e-03
-3.114599852501680807e-03
-3.072838491149971867e-03
-3.017946899927009732e-03
-2.950502027187796531e-03
-2.871270608890992733e-03
-2.781198914464171404e-03
-2.681399604331508989e-03
-2.573135897299234746e-03
-2.457803322390827733e-03
-2.336909299046664029e-03
-2.212050798505933377e-03
-2.084890515230433672e-03
-1.957131785496577046e-03
-1.830492683189080365e-03
-1.706679743988331237e-03
-1.587361590171113175e-03
-1.474142955525065222e-03
-1.368539526842132200e-03
-1.271953883189382451e-03
-1.185652991894945449e-03
-1.110747617687378496e-03
-1.048173944068352473e-03
-9.986776529134794734e-04
-9.628008441632631472e-04
-9.408719220629834998e-04
-9.329986839897925262e-04
-9.390646945166316846e-04
-9.587289622113717236e-04
-9.914291998411107251e-04
-1.036388260898462839e-03
-1.092624061962069095e-03
-1.158962648545501083e-03
-1.234054257622271659e-03
-1.316392230816703420e-03
-1.404334476251088617e-03
-1.496127146530364105e-03
-1.589930234323230773e-03
-1.683844768456044120e-03
-1.775941089438901012e-03
-1.864287864966611636e-03
-1.946981468378044654e-03
-2.022175210233049039e-03
-2.088107966454040999e-03
-2.143131898180336906e-03
-2.185738741277282182e-03
-2.214584254535851074e-03
-2.228510466295731580e-03
-2.226565415282093230e-03
-2.208020134550390569e-03
-2.172382323496113189e-03
-2.119406835511973303e-03
-2.049102513261226617e-03
-1.961735469783210204e-03
-1.857828606516854272e-03
-1.738157329723095772e-03
-1.603741566537873579e-03
-1.455834153026921247e-03
-1.295905708969706267e-03
-1.125626180364640771e-03
-9.468433490700506978e-04
-7.615585820968617759e-04
-5.719000832382443913e-04
-3.800940874058806934e-04
-1.884344398096034418e-04
7.491212829432069397e-07
1.851235035296663228e-04
3.623850680389332731e-04
5.302923241061235828e-04
6.866979447314745843e-04
8.295798205728477284e-04
9.570704342842075232e-04
1.067484333298522299e-03
1.159343221676370148e-03
1.231398279400740909e-03
1.282649364011118412e-03
1.312360792432925314e-03
1.320073543958841895e-03
1.305613560916936986e-03
1.269096111896412648e-03
1.210926073935890586e-03
1.131794092718161910e-03
1.032668754850713010e-03
9.147847218005234057e-04
7.796271179837541360e-04
6.289122826836804174e-04
4.645651455794387033e-04
2.886936008684930048e-04
1.035602130512974474e-04
-8.844840129608550427e-05
-2.848540286853385763e-04
-4.831206804222784395e-04
-6.806893812858615545e-04
-8.750133292093532520e-04
-1.063593002216434548e-03
-1.244010580618025918e-03
-1.413963408306924364e-03
-1.571295808240635557e-03
-1.714028849644681687e-03
-1.840387648748558315e-03
-1.948825809542634917e-03
-2.038046611084568752e-03
-2.107020563269075726e-03
-2.154999312568069841e-03
-2.181525438213634347e-03
-2.186438043887334922e-03
-2.169874092626809022e-03
-2.132265523099738814e-03
-2.074332081355607059e-03
-1.997069994419885166e-03
-1.901736673930983293e-03
-1.789831652837403034e-03
-1.663074012472639304e-03
-1.523376689018152326e-03
-1.372817930653257284e-03
-1.213610506004841926e-03
-1.048068889931523095e-03
-8.785750806876982053e-04
-7.075434195715411779e-04
-5.373851480232216425e-04
-3.704729530192411597e-04
-2.091062643979666282e-04
-5.547768709148911644e-05
8.835896004123501004e-05
2.205183647204051411e-04
3.393108518163615896e-04
4.432665813225476563e-04
5.311563769334236773e-04
6.020088136448656889e-04
6.551234700311612050e-04
6.900799750341878470e-04
7.067428000404511008e-04
7.052617981449272070e-04
6.860683049194234422e-04
6.498669974478176207e-04
5.976236621944491572e-04
5.305488882684489651e-04
4.500781270684843386e-04
3.578482654562177914e-04
2.556711775496319644e-04
1.455046747261488351e-04
2.942118188888799630e-05
-9.042526959461628694e-05
-2.118332407802746818e-04
-3.325888203402956197e-04
-4.505007149557439675e-04
-5.634349105574485870e-04
-6.693484937467707391e-04
-7.663219677707775075e-04
-8.525896677271248454e-04
-9.265677194638154493e-04
-9.868792288218527099e-04
-1.032376197494458935e-03
-1.062157952026314108e-03
-1.075585614545518202e-03
-1.072292600908492967e-03
-1.052190846346541834e-03
-1.015472713269738531e-03
-9.626085639168654572e-04
-8.943400342136692029e-04
-8.116690381403732354e-04
-7.158427860703852784e-04
-6.083349967068153686e-04
-4.908236018592626636e-04
-3.651652890931888183e-04
-2.333673175426893040e-04
-9.755695511632705107e-05
4.005091400536398656e-05
1.771874972963439251e-04
3.115646791995071432e-04
4.409098552381808555e-04
5.630004641657310486e-04
6.756977790690663717e-04
7.769793703716594644e-04
8.649698039374094198e-04
9.379689687715707380e-04
9.944777402833393076e-04
1.033220535118848380e-03
1.053164377437984392e-03
1.053534285929198788e-03
1.033824680783011372e-03
9.938066232420110242e-04
9.335308506689437213e-04
8.533266233390567577e-04
7.537962846893256526e-04
6.358057369372953956e-04
5.004709311866709955e-04
3.491406871483985737e-04
1.833760052996782181e-04
4.926312953130284292e-06
-1.842969386804441090e-04
-3.822490327274962016e-04
-5.867825862214207924e-04
-7.956794454490460130e-04
-1.006683418828688064e-03
-1.217533338602089536e-03
-1.425995941614997776e-03
-1.629898048949348114e-03
-1.827157536947141741e-03
-2.015812652493495071e-03
-2.194049194053648150e-03
-2.360225174259989334e-03
-2.512892647597239366e-03
-2.650816343503556612e-03
-2.772988852481029012e-03
-2.878642156608508546e-03
-2.967255427109757523e-03
-3.038558923907865809e-03
-3.092534037949273579e-03
-3.129409522960463225e-03
-3.149654042569144385e-03
-3.153965129568306065e-03
-3.143254872290225568e-03
-3.118632577386913109e-03
-3.081384621768867675e-03
-3.032952038564310816e-03
-2.974906142199430000e-03
-2.908922586364284368e-03
-2.836754317016060897e-03
-2.760203888440289355e-03
-2.681095535855047493e-03
-2.601247590779811030e-03
-2.522445487473526718e-03
-2.446415995867617498e-03
-2.374802873814919803e-03
-2.309144451871332406e-03
-2.250853327274027031e-03
-2.201198551840429819e-03
-2.161290566202134396e-03
-2.132068956023772718e-03
-2.114293207308936672e-03
-2.108536590761679423e-03
-2.115183128789087982e-03
-2.134427586059771832e-03
-2.166278459117766154e-03
-2.210563816570333077e-03
-2.266939700391653462e-03
-2.334901036323987124e-03
-2.413794715440883108e-03
-2.502834446920438379e-03
-2.601117175648926839e-03
-2.707640735863755220e-03
-2.821322322964696892e-03
-2.941017426038940435e-03
-3.065538900383333893e-03
-3.193675758806589163e-03
-3.324211531369916043e-03
-3.455941674010272208e-03
-3.587689837149243399e-03
-3.718322693288143074e-03
-3.846763202614846781e-03
-3.972002031763859423e-03
-4.093107086924982312e-03
-4.209230951206881927e-03
-4.319616304940186030e-03
-4.423599310800897452e-03
-4.520610923108917857e-03
-4.610176303997331332e-03
-4.691912410001218212e-03
-4.765524022350768954e-03
-4.830798268394890377e-03
-4.887597992152700743e-03
-4.935854178995570905e-03
-4.975557677074500008e-03
-5.006750525744061917e-03
-5.029517133173721892e-03
-5.043975599388733980e-03
-5.050269479034866053e-03
-5.048560171404678325e-03
-5.039020235179519046e-03
-5.021827755439294862e-03
-4.997161997056272578e-03
-4.965200476355428535e-03
-4.926117536961497657e-03
-4.880084372854631529e-03
-4.827270700248033862e-03
-4.767847941749807014e-03
-4.701993845623310755e-03
-4.629898418869660658e-03
-4.551771011112390117e-03
-4.467848346591852399e-03
-4.378403354715270507e-03
-4.283754380076864807e-03
-4.184274656177106554e-03
-4.080401626497510113e-03
-3.972645783914941983e-03
-3.861598862590386646e-03
-3.747940983837432048e-03
-3.632446366457267855e-03
-3.515987473578503168e-03
-3.399537271133135693e-03
-3.284169368873599178e-03
-3.171055786066401521e-03
-3.061462367300044583e-03
-2.956741655335027707e-03
-2.858323169077233838e-03
-2.767701083381713442e-03
-2.686419388709914736e-03
-2.616054720446982056e-03
-2.558196950921201585e-03
-2.514427823168317866e-03
-2.486297889986173459e-03
-2.475302083309785257e-03
-2.482854347120442683e-03
-2.510261649339722359e-03
-2.558697928019940809e-03
-2.629178360497418619e-03
-2.722534513011532105e-03
-2.839390787246452285e-03
-2.980142661341983641e-03
-3.144937233869397365e-03
-3.333656501379373728e-03
-3.545903815813620640e-03
-3.780993829871671669e-03
-4.037946418832947214e-03
-4.315484657560176088e-03
-4.612037264124737961e-03
-4.925745489337485933e-03
-5.254474650132079545e-03
-5.595830316321949091e-03
-5.947178939572381716e-03
-6.305672854400837420e-03
-6.668279462357548995e-03
-7.031814179829218303e-03
-7.392976846550652383e-03
-7.748391084944928134e-03
-8.094646118735065662e-03
-8.428340423537699147e-03
-8.746126668780001764e-03
-9.044757243854230702e-03
-9.321129588745367608e-03
-9.572330812981305961e-03
-9.795680740367065584e-03
-9.988772761589716567e-03
-1.014951172082398032e-02
-1.027614824765570381e-02
-1.036730888393552069e-02
-1.042202154517095879e-02
-1.043973563957293141e-02
-1.042033654866163402e-02
-1.036415416971638546e-02
-1.027196511002229605e-02
-1.014498849241754486e-02
-9.984875333169759837e-03
-9.793691476937382151e-03
-9.573894217889251240e-03
-9.328302925933777690e-03
-9.060063971917631589e-03
-8.772610466424645564e-03
-8.469617255490195437e-03
-8.154951839700672403e-03
-7.832621903692278675e-03
-7.506720238101815754e-03
-7.181367856529940856e-03
-6.860656123477103241e-03
-6.548588768651738765e-03
-6.249024704394658646e-03
-5.965622530487570824e-03
-5.701787570566470634e-03
-5.460622303999749898e-03
-5.244880983516673860e-03
-5.056929218226618138e-03
-4.898709080947772146e-03
-4.771710406739331639e-03
-4.676948837192921975e-03
-4.614950862773626455e-03
-4.585746219324175928e-03
-4.588867853245214880e-03
-4.623359433093900649e-03
-4.687790414747690891e-03
-4.780278361116338005e-03
-4.898518352450473463e-03
-5.039818961564936778e-03
-5.201144338478221572e-03
-5.379161777817728120e-03
-5.570293977336614882e-03
-5.770775239656152251e-03
-5.976710844520807114e-03
-6.184138529413793668e-03
-6.389091170121768623e-03
-6.587659690472060653e-03
-6.776055270078571065e-03
-6.950669840069683553e-03
-7.108133821354186907e-03
-7.245370289480618405e-03
-7.359644679753135112e-03
-7.448609224236350107e-03
-7.510341439614696447e-03
-7.543375963771040138e-03
-7.546729403811842755e-03
-7.519917570460118474e-03
-7.462964935395156180e-03
-7.376406198440687775e-03
-7.261279816049458734e-03
-7.119113702602254852e-03
-6.951903163640221761e-03
-6.762081655353722326e-03
-6.552484565711605077e-03
-6.326306798834812825e-03
-6.087054698117516649e-03
-5.838493132998152577e-03
-5.584588585853048938e-03
-5.329449119098625051e-03
-5.077262123938009949e-03
-4.832231052881627228e-03
-4.598511781285906201e-03
-4.380149878281019808e-03
-4.181019684805155519e-03
-4.004766062889990839e-03
-3.854749788562562233e-03
-3.733997438088708289e-03
-3.645156481589776395e-03
-3.590456259720573289e-03
-3.571675361983882822e-03
-3.590115920831830985e-03
-3.646585143687272948e-03
-3.741384280788987490e-03
-3.874305035672748372e-03
-4.044633539044850158e-03
-4.251161591907889718e-03
-4.492204980168558806e-03
-4.765628347659258204e-03
-5.068876171775863436e-03
-5.399009259078488450e-03
-5.752746032973861910e-03
-6.126507803802885149e-03
-6.516467272993638725e-03
-6.918599307976879345e-03
-7.328733041104465787e-03
-7.742604491426816928e-03
-8.155908732824410437e-03
-8.564350698365624098e-03
-8.963693757925840153e-03
-9.349805221292447135e-03
-9.718698094366618259e-03
-1.006656836674563009e-02
-1.038982735330812139e-02
-1.068512841297023994e-02
-1.094938788327947700e-02
-1.117979991989364631e-02
-1.137384511514400939e-02
-1.152929287177036945e-02
-1.164419765701486635e-02
-1.171688949820671316e-02
-1.174595889240814123e-02
-1.173023667523756704e-02
-1.166876947668370190e-02
-1.156079131590655867e-02
-1.140569212728218852e-02
-1.120298400330627629e-02
-1.095226597820668848e-02
-1.065318816398207018e-02
-1.030541627827812404e-02
-9.908597255981801619e-03
-9.462326923940372198e-03
-8.966120449892539188e-03
-8.419386389525594996e-03
-7.821405025165586652e-03
-7.171311629809295519e-03
-6.468085037924461468e-03
-5.710542026776078625e-03
-4.897337709611418975e-03
-4.026972202842638709e-03
-3.097803515521654547e-03
-2.108066504039482047e-03
-1.055897768305721863e-03
6.063396557145758813e-05
1.243492416902625824e-03
2.494633916567786085e-03
3.815963811099684719e-03
5.209290011401902960e-03
6.676274527784197693e-03
8.218383890284406204e-03
9.836839471935287724e-03
1.153256879616644873e-02
1.330615877879282559e-02
1.515781192121822170e-02
1.708730644536444326e-02
1.909396141422263493e-02
2.117660754237819798e-02
2.333356458844114759e-02
2.556262595907729876e-02
2.786105109128634086e-02
3.022556603457473429e-02
3.265237254458493860e-02
3.513716584016195188e-02
3.767516092099692376e-02
4.026112743026070973e-02
4.288943255040263830e-02
4.555409157994589481e-02
4.824882553966675786e-02
5.096712499351244846e-02
5.370231918570072399e-02
5.644764956015447394e-02
5.919634645227507541e-02
6.194170788185572596e-02
6.467717907977173220e-02
6.739643156874401686e-02
7.009344044198684287e-02
7.276255859359466449e-02
7.539858661210674384e-02
7.799683715229187297e-02
8.055319268423398460e-02
8.306415553921518702e-02
8.552688942438764486e-02
8.793925157275533921e-02
9.029981491640368119e-02
9.260787992398718249e-02
9.486347570110445493e-02
9.706735032664220997e-02
9.922095052506199608e-02
1.013263909243650174e-01
1.033864133726937889e-01
1.054043369069925518e-01
1.073839993127886500e-01
1.093296910456830057e-01
1.112460827542410963e-01
1.131381475965160810e-01
1.150110795536066349e-01
1.168702093073208520e-01
1.187209189625393901e-01
1.205685571951751883e-01
1.224183561076711557e-01
1.242753513666918774e-01
1.261443069434118047e-01
1.280296457211267391e-01
1.299353871694762796e-01
1.318650930298969348e-01
1.338218219645108675e-01
1.358080939452678826e-01
1.378258647410116611e-01
1.398765109892413927e-01
1.419608259094871650e-01
1.440790255374543305e-01
1.462307653313404954e-01
1.484151664847246366e-01
1.506308513801777049e-01
1.528759872822629817e-01
1.551483372321774690e-01
1.574453170176536021e-01
1.597640569091667850e-01
1.621014667938151244e-01
1.644543032559721840e-01
1.668192371694215692e-01
1.691929202567870882e-01
1.715720492761357574e-01
1.739534263721309870e-01
1.763340143656270675e-01
1.787109858213957736e-01
1.810817649407799046e-01
1.834440613450757929e-01
1.857958952467495262e-01
1.881356136011213542e-01
1.904618970469288131e-01
1.927737577005202430e-01
1.950705282101326543e-01
1.973518425404992838e-01
1.996176093511129457e-01
2.018679790038895860e-01
2.041033053782267959e-01
2.063241039687788159e-01
2.085310077742345003e-01
2.107247227317387561e-01
2.129059842798434743e-01
2.150755170468175159e-01
2.172339993455895124e-01
2.193820341856898559e-01
2.215201284757220002e-01
2.236486818909226015e-01
2.257679867196480672e-01
2.278782396484961281e-01
2.299795663773636090e-01
2.320720593798117626e-01
2.341558290583023727e-01
2.362310678641925399e-01
2.382981268194985791e-01
2.403576032625490688e-01
2.424104383532136586e-01
2.444580223869866065e-01
2.465023056155289938e-01
2.485459118380702326e-01
2.505922516974701253e-01
2.526456322288810896e-01
2.547113591559920232e-01
2.567958279365332719e-01
2.589065996432253769e-01
2.610524575318052265e-01
2.632434402689946551e-01
2.654908477535708466e-01
2.678072158063838359e-01
2.702062560224588461e-01
2.727027576825936106e-01
2.753124488309926510e-01
2.780518142853459773e-01
2.809378688852020023e-01
2.839878850056133386e-01
2.872190739773711754e-01
2.906482221127408838e-01
2.942912825244840547e-01
2.981629251510546363e-01
3.022760481657305043e-01
3.066412548718477349e-01
3.112663011161722060e-01
3.161555191460393988e-01
3.213092247402921098e-01
3.267231151990330762e-01
3.323876666304979577e-01
3.382875395101699323e-01
3.444010020173056130e-01
3.506993812796233012e-01
3.571465528516059584e-01
3.636984789753415215e-01
3.703028062013299926e-01
3.768985328387237099e-01
3.834157562810619480e-01
3.897755100722391508e-01
3.958896997678098550e-01
4.016611458276056479e-01
4.069837409672601436e-01
4.117427282307316583e-01
4.158151046836092712e-01
4.190701544223737196e-01
4.213701129205367768e-01
4.225709632058968768e-01
4.225233625739583943e-01
4.210736968619447906e-01
4.180652574163426505e-01
4.133395340430838227e-01
4.067376154158234280e-01
3.981016866416743349e-01
3.872766119335396828e-01
3.741115884927497248e-01
3.584618565238876231e-01
3.401904485409685264e-01
3.191699600113964697e-01
2.952843223021481278e-01
2.684305580752153753e-01
2.385204985331680072e-01
2.054824416023535993e-01
1.692627299455890522e-01
1.298272277460038315e-01
8.716267581035325174e-02
4.127790499481566455e-02
-7.795111066933682956e-03
-6.000038171458199621e-02
-1.152572197501189055e-01
-1.734597713413684184e-01
-2.344767679649685799e-01
-2.981515109442487987e-01
-3.643020965974061443e-01
-4.327218875724759828e-01
-5.031802335452263408e-01
-5.754234411654302050e-01
-6.491759907569285559e-01
-7.241419940939025635e-01
-8.000068849556135619e-01
-8.764393310450185881e-01
-9.530933533946889247e-01
-1.029610636270598345e+00
-1.105623008587896638e+00
-1.180755075201813220e+00
-1.254626974321385813e+00
-1.326857235529774748e+00
-1.397065711248790532e+00
-1.464876553229174760e+00
-1.529921204436937909e+00
-1.591841376513890127e+00
-1.650291982192127582e+00
-1.704943992467715219e+00
-1.755487188532116827e+00
-1.801632779418761210e+00
-1.843115857441037564e+00
-1.879697664779418576e+00
-1.911167646686348309e+00
-1.937345268772537654e+00
-1.958081578204047268e+00
-1.973260491340770972e+00
-1.982799793345956241e+00
-1.986651838363587608e+00
-1.984803941924866644e+00
-1.977278460849097863e+00
-1.964132559247584675e+00
-1.945457662572346536e+00
-1.921378605369065573e+00
-1.892052481538052833e+00
-1.857667209388819130e+00
-1.818439826727695108e+00
-1.774614534309211233e+00
-1.726460508748581590e+00
-1.674269508443408272e+00
-1.618353298280277519e+00
-1.559040920695412558e+00
-1.496675842365160269e+00
-1.431613006895312568e+00
-1.364215824767085916e+00
-1.294853132237770099e+00
-1.223896150928287296e+00
-1.151715479454271662e+00
-1.078678147985772329e+00
-1.005144765336193569e+00
-9.314667868789978655e-01
-8.579839298249214430e-01
-7.850217603118906373e-01
-7.128894745770104624e-01
-6.418778937236839788e-01
-5.722576889515974541e-01
-5.042778512572718697e-01
-4.381644162929093089e-01
-3.741194520919300937e-01
-3.123203141887391232e-01
-2.529191692815571102e-01
-1.960427855683548881e-01
-1.417925847205487311e-01
-9.024494753025961991e-02
-4.145176235096657141e-02
4.558797193717495887e-03
4.778128103572708979e-02
8.823177605202768559e-02
1.259465440261877123e-01
1.609805055786523720e-01
1.934055931477182966e-01
2.233089965052811599e-01
2.507913254264638736e-01
2.759647141168284912e-01
2.989508920536690928e-01
3.198792457284723167e-01
3.388848948433667574e-01
3.561068057330198378e-01
3.716859634426588621e-01
3.857636225556369536e-01
3.984796549929637832e-01
4.099710113573968306e-01
4.203703099161483214e-01
4.298045654771018298e-01
4.383940680211014795e-01
4.462514185044682002e-01
4.534807268762410803e-01
4.601769750412087467e-01
4.664255450702678440e-01
4.723019107417351092e-01
4.778714882237835582e-01
4.831896397958220235e-01
4.883018225229831533e-01
4.932438720852677649e-01
4.980424105400834689e-01
5.027153654860893051e-01
5.072725869367782359e-01
5.117165474261468061e-01
5.160431103534359742e-01
5.202423511653763155e-01
5.242994158486119494e-01
5.281954014437703071e-01
5.319082435757709337e-01
5.354135964919296553e-01
5.386856920905370716e-01
5.416981651043953905e-01
5.444248329675279718e-01
5.468404199510811248e-01
5.489212165491289541e-01
5.506456666495823660e-01
5.519948764229237748e-01
5.529530403781252046e-01
5.535077817146858425e-01
5.536504056414296437e-01
5.533760656747074291e-01
5.526838444685977514e-01
5.515767521512003890e-01
5.500616463481828866e-01
5.481490791787128058e-01
5.458530775249772482e-01
5.431908638594291627e-01
5.401825254845475932e-01
5.368506406505043627e-01
5.332198703635148140e-01
5.293165250349419759e-01
5.251681149398966797e-01
5.208028937664297420e-01
5.162494037718305950e-01
5.115360310827447021e-01
5.066905789968160212e-01
5.017398664625586369e-01
4.967093582895766302e-01
4.916228327192537217e-01
4.865020911898764733e-01
4.813667139480756751e-01
4.762338645660740277e-01
4.711181450963435324e-01
4.660315027869654236e-01
4.609831882043235463e-01
4.559797637686395233e-01
4.510251607495388559e-01
4.461207819086805970e-01
4.412656464586772187e-01
4.364565731240900304e-01
4.316883965970049197e-01
4.269542122096744441e-01
4.222456434273927361e-01
4.175531263980278296e-01
4.128662057255182982e-01
4.081738355738164237e-01
4.034646803839241902e-01
3.987274095218981684e-01
3.939509807644301920e-01
3.891249075811228919e-01
3.842395058432795940e-01
3.792861160348884320e-01
3.742572974926207108e-01
3.691469921378764396e-01
3.639506555238510854e-01
3.586653537779970757e-01
3.532898257451639323e-01
3.478245103004577454e-01
3.422715393080195678e-01
3.366346974878147158e-01
3.309193510173180641e-01
3.251323470151177286e-01
3.192818868789532027e-01
3.133773765059399974e-01
3.074292569425798316e-01
3.014488191845132725e-01
2.954480071841646405e-01
2.894392129545821923e-01
2.834350679993245525e-01
2.774482349456506847e-01
2.714912034062337831e-01
2.655760936654642523e-01
2.597144717512288592e-01
2.539171789055629791e-01
2.481941782806983965e-01
2.425544213305766139e-01
2.370057356590511699e-01
2.315547358935710898e-01
2.262067586916183815e-01
2.209658222197817268e-01
2.158346102739831518e-01
2.108144806537406712e-01
2.059054968775758110e-01
2.011064820125147423e-01
1.964150929820670521e-01
1.918279134641813211e-01
1.873405629000507999e-01
1.829478193406324227e-01
1.786437534164497520e-01
1.744218704696812450e-01
1.702752581181152525e-01
1.661967362907253720e-01
1.621790067822749259e-01
1.582147997731885303e-01
1.542970144663658449e-01
1.504188515113890623e-01
1.465739349095896149e-01
1.427564215738933995e-01
1.389610967162106803e-01
1.351834538449117051e-01
1.314197582526699937e-01
1.276670933951531972e-01
1.239233897706927684e-01
1.201874363303348098e-01
1.164588748000424806e-01
1.127381774799654096e-01
1.090266095666232171e-01
1.053261771405142183e-01
1.016395623286880379e-01
9.797004730711761367e-02
9.432142889176081679e-02
9.069792573539602054e-02
8.710408016740889270e-02
8.354465675087223431e-02
8.002453964391087471e-02
7.654863077353374345e-02
7.312175081897011319e-02
6.974854489050197337e-02
6.643339458170118006e-02
6.318033794170879736e-02
5.999299876397017756e-02
5.687452617807550737e-02
5.382754559894890184e-02
5.085412160707019485e-02
4.795573310058388189e-02
4.513326096157790207e-02
4.238698802098728874e-02
3.971661100868129068e-02
3.712126401027964623e-02
3.459955250594384801e-02
3.214959708381631698e-02
2.976908567040570039e-02
2.745533299306194067e-02
2.520534595687834098e-02
2.301589341815962406e-02
2.088357879447624507e-02
1.880491403704317652e-02
1.677639347121862023e-02
1.479456593945554371e-02
1.285610383132883110e-02
1.095786783967175708e-02
9.096966099268974718e-03
7.270806667315624083e-03
5.477142518741638134e-03
3.714108229772113481e-03
1.980247933709750226e-03
2.745340722636449896e-04
-1.403623215077158017e-03
-3.054375938377401189e-03
-4.677447274803983764e-03
-6.272149228990612363e-03
-7.837408594805032186e-03
-9.371800308922163467e-03
-1.087358749490696837e-02
-1.234076718971207839e-02
-1.377112081116501144e-02
-1.516226815726698200e-02
-1.651172384215192357e-02
-1.781695498771964509e-02
-1.907543901051937316e-02
-2.028472035637531729e-02
-2.144246497288165160e-02
-2.254651165688659892e-02
-2.359491917394137411e-02
-2.458600839384779413e-02
-2.551839869529960031e-02
-2.639103791683420838e-02
-2.720322556125154972e-02
-2.795462879415822402e-02
-2.864529107937241123e-02
-2.927563350777306547e-02
-2.984644883942286220e-02
-3.035888852245626976e-02
-3.081444308217805295e-02
-3.121491642584482001e-02
-3.156239465434059616e-02
-3.185920999734712100e-02
-3.210790092762742104e-02
-3.231116892574899258e-02
-3.247183309783723687e-02
-3.259278338118044849e-02
-3.267693342260664935e-02
-3.272717396450201821e-02
-3.274632758969259205e-02
-3.273710567617300199e-02
-3.270206840594104547e-02
-3.264358854762678536e-02
-3.256381952568486449e-02
-3.246466840503955953e-02
-3.234777414279192687e-02
-3.221449145656681001e-02
-3.206588041692732399e-02
-3.190270197869742030e-02
-3.172541927291428615e-02
-3.153420464690162572e-02
-3.132895204780453136e-02
-3.110929445385322498e-02
-3.087462596885593227e-02
-3.062412795512146901e-02
-3.035679861534933133e-02
-3.007148541481827198e-02
-2.976691966433870837e-02
-2.944175246725320994e-02
-2.909459136071719867e-02
-2.872403695317081798e-02
-2.832871874981679125e-02
-2.790732953636650138e-02
-2.745865769162350589e-02
-2.698161682145593793e-02
-2.647527224786122915e-02
-2.593886386159400051e-02
-2.537182492365879297e-02
-2.477379660918256621e-02
-2.414463815081971387e-02
-2.348443238589181803e-02
-2.279348670880073854e-02
-2.207232963294230785e-02
-2.132170299580050249e-02
-2.054255012385167514e-02
-1.973600031018356987e-02
-1.890334994952095823e-02
-1.804604079749175596e-02
-1.716563593464482188e-02
-1.626379387191525736e-02
-1.534224136895316788e-02
-1.440274564348939697e-02
-1.344708648302615078e-02
-1.247702883519941595e-02
-1.149429640748002648e-02
-1.050054683697981828e-02
-9.497348914561654781e-03
-8.486162314446543675e-03
-7.468320127064916394e-03
-6.445014571259810934e-03
-5.417286138388436451e-03
-4.386016301447836704e-03
-3.351923879240741987e-03
-2.315565143381320603e-03
-1.277337574302532096e-03
-2.374870990712834153e-04
8.038812274754451610e-04
1.846789526450690923e-03
2.891370581066189400e-03
3.937848950357389008e-03
4.986519999487338400e-03
6.037727422448798710e-03
7.091839576476843647e-03
8.149225234417575153e-03
9.210229175316593173e-03
1.027514810650304380e-02
1.134420734796101095e-02
1.241753883029046712e-02
1.349516072447435808e-02
1.457695912406942705e-02
1.566267217122931099e-02
1.675187679993693154e-02
1.784397840402519517e-02
1.893820365510797896e-02
2.003359652441469296e-02
2.112901757548229023e-02
2.222314652721812250e-02
2.331448804248509310e-02
2.440138059896540187e-02
2.548200827952416120e-02
2.655441526207975508e-02
2.761652273530176838e-02
2.866614790757269354e-02
2.970102482876436217e-02
3.071882658555929665e-02
3.171718849167375065e-02
3.269373197141795667e-02
3.364608861155346520e-02
3.457192398056460614e-02
3.546896101949916641e-02
3.633500240066556142e-02
3.716795164563662518e-02
3.796583260816797922e-02
3.872680716109634658e-02
3.944919075772765349e-02
4.013146571086103481e-02
4.077229195653866295e-02
4.137051533106112650e-02
4.192517319688577465e-02
4.243549749828159912e-02
4.290091517663277565e-02
4.332104609278700225e-02
4.369569859305917625e-02
4.402486280004785923e-02
4.430870194960649655e-02
4.454754181533700230e-02
4.474185862944839859e-02
4.489226564774568412e-02
4.499949867884668608e-02
4.506440087459413074e-02
4.508790697544083625e-02
4.507102735859194048e-02
4.501483213785383714e-02
4.492043558068678499e-02
4.478898098317616455e-02
4.462162630697051602e-02
4.441953071240117151e-02
4.418384216224694599e-02
4.391568615467746073e-02
4.361615568479347560e-02
4.328630255596688237e-02
4.292713001907044745e-02
4.253958667616040967e-02
4.212456167459653622e-02
4.168288105405362071e-02
4.121530530792568564e-02
4.072252783114466146e-02
4.020517422173194161e-02
3.966380239300837385e-02
3.909890312965846881e-02
3.851090111914585307e-02
3.790015620466304774e-02
3.726696476205629965e-02
3.661156100289880699e-02
3.593411806217412796e-02
3.523474882761033766e-02
3.451350637873334959e-02
3.377038394762545831e-02
3.300531438972463538e-02
3.221816909432489301e-02
3.140875643602913936e-02
3.057681964580264908e-02
2.972203431843460295e-02
2.884400555646947015e-02
2.794226484230383570e-02
2.701626687477711938e-02
2.606538640122459810e-02
2.508891528981622987e-02
2.408605997422637660e-02
2.305593954402774051e-02
2.199758449410484443e-02
2.090993649070512633e-02
1.979184926765840610e-02
1.864209085679589123e-02
1.745934722079580878e-02
1.624222756916170532e-02
1.498927131860019329e-02
1.369895692617852274e-02
1.236971248676880381e-02
1.099992830384824254e-02
9.587971335029013900e-03
8.132201422336426608e-03
6.630989270797596480e-03
5.082736056591050447e-03
3.485894524213817552e-03
1.838991312006564788e-03
1.406503841338770273e-04
-1.610382760244124644e-03
-3.415216390753791301e-03
-5.274787595011832739e-03
-7.189837501858517554e-03
-9.160886911223187212e-03
-1.118821273627326578e-02
-1.327182558908433264e-02
-1.541144885044879245e-02
-1.760649961033950578e-02
-1.985607167626691344e-02
-2.215892113310848413e-02
-2.451345457216322007e-02
-2.691772035634148325e-02
-2.936940307572434225e-02
-3.186582133668973416e-02
-3.440392915617512815e-02
-3.698032094962352967e-02
-3.959124016461448153e-02
-4.223259151432550568e-02
-4.489995688860814321e-02
-4.758861469829184926e-02
-5.029356266745577120e-02
-5.300954370578522812e-02
-5.573107471481770353e-02
-5.845247804449730383e-02
-6.116791528428820734e-02
-6.387142295664484382e-02
-6.655694983732442227e-02
-6.921839546918133468e-02
-7.184964943255160719e-02
-7.444463092933359394e-02
-7.699732826289748533e-02
-7.950183779524333527e-02
-8.195240188664930370e-02
-8.434344544316375869e-02
-8.666961070284116830e-02
-8.892578982044906100e-02
-9.110715492891895140e-02
-9.320918542426699649e-02
-9.522769212823704865e-02
-9.715883806587011229e-02
-9.899915581371893092e-02
-1.007455611136834905e-01
-1.023953627985366849e-01
-1.039462689022148806e-01
-1.053963889983963731e-01
-1.067442328398473805e-01
-1.079887053151719484e-01
-1.091290979694186924e-01
-1.101650773016618484e-01
-1.110966699603539720e-01
-1.119242451780134984e-01
-1.126484946956104044e-01
-1.132704105764508473e-01
-1.137912611864544538e-01
-1.142125656805206835e-01
-1.145360674403552992e-01
-1.147637067671751221e-01
-1.148975932896262458e-01
-1.149399783006861131e-01
-1.148932275277195075e-01
-1.147597945779589984e-01
-1.145421954320763325e-01
-1.142429842172016374e-01
-1.138647305755998845e-01
-1.134099988418977717e-01
-1.128813291841944538e-01
-1.122812209213790435e-01
-1.116121180603638213e-01
-1.108763972408907117e-01
-1.100763580260231272e-01
-1.092142156209276738e-01
-1.082920958820864782e-01
-1.073120326424632509e-01
-1.062759672242647307e-01
-1.051857500260759692e-01
-1.040431439430491156e-01
-1.028498295457861283e-01
-1.016074116737226279e-01
-1.003174274007945094e-01
-9.898135501484495169e-02
-9.760062378377697134e-02
-9.617662431518006483e-02
-9.471071919703170916e-02
-9.320425378990225551e-02
-9.165856684112373698e-02
-9.007500073922262984e-02
-8.845491122853932353e-02
-8.679967637420693549e-02
-8.511070466568919357e-02
-8.338944209100951355e-02
-8.163737803107261326e-02
-7.985604995176942555e-02
-7.804704685164838562e-02
-7.621201136004193688e-02
-7.435264053512521953e-02
-7.247068533815161084e-02
-7.056794886108085085e-02
-6.864628334625418049e-02
-6.670758614182357993e-02
-6.475379464986241729e-02
-6.278688037073028305e-02
-6.080884225518964209e-02
-5.882169944533228306e-02
-5.682748350764695727e-02
-5.482823042592320506e-02
-5.282597243345148880e-02
-5.082272984336231453e-02
-4.882050306348923591e-02
-4.682126490119110224e-02
-4.482695324677005155e-02
-4.283946435079154236e-02
-4.086064667416738211e-02
-3.889229549322049256e-02
-3.693614828313567661e-02
-3.499388091688086788e-02
-3.306710473409543022e-02
-3.115736446674475732e-02
-2.926613702002340764e-02
-2.739483108901853009e-02
-2.554478757223923105e-02
-2.371728069811875408e-02
-2.191351983853648266e-02
-2.013465183201381889e-02
-1.838176374311825678e-02
-1.665588612995072201e-02
-1.495799645986497541e-02
-1.328902266097198304e-02
-1.164984673797470928e-02
-1.004130832790034976e-02
-8.464208065891458063e-03
-6.919310570426990929e-03
-5.407347133409725823e-03
-3.929017964940276914e-03
-2.484993845181377586e-03
-1.075917229425368696e-03
2.975973293224124698e-04
1.634963354920876888e-03
2.935623344395361673e-03
4.199050275074557061e-03
5.424749780947889233e-03
6.612262927932086899e-03
7.761169528090922608e-03
8.871091921473582553e-03
9.941699236645978877e-03
1.097271192039602286e-02
1.196390644199589459e-02
1.291512020028299026e-02
1.382625638418573909e-02
1.469728869500738083e-02
1.552826586591794268e-02
1.631931584797410850e-02
1.707064947447405751e-02
1.778256373053684058e-02
1.845544417430917267e-02
1.908976670701014941e-02
1.968609856964183974e-02
2.024509838123230571e-02
2.076751531325337838e-02
2.125418723399413734e-02
2.170603794752743246e-02
2.212407336171369823e-02
2.250937677827991729e-02
2.286310317101719614e-02
2.318647263304738845e-02
2.348076294628799465e-02
2.374730139358731049e-02
2.398745597852807235e-02
2.420262600403270264e-02
2.439423220191308528e-02
2.456370654667059880e-02
2.471248183523819253e-02
2.484198119844389929e-02
2.495360762213076622e-02
2.504873370003224409e-02
2.512869168355217828e-02
2.519476392107414253e-02
2.524817392182481315e-02
2.529007802837545879e-02
2.532155787931055294e-02
2.534361374282555895e-02
2.535715882451989797e-02
2.536301451408155827e-02
2.536190672585953917e-02
2.535446333144024747e-02
2.534121270718982591e-02
2.532258345963882967e-02
2.529890521220348396e-02
2.527041045414740381e-02
2.523723749994283977e-02
2.519943441268976750e-02
2.515696386931671330e-02
2.510970886531699309e-02
2.505747915703612771e-02
2.500001841750203180e-02
2.493701190853367389e-02
2.486809467401339055e-02
2.479286003262255039e-02
2.471086828851307843e-02
2.462165552650415895e-02
2.452474246378156739e-02
2.441964313450965124e-02
2.430587345448714798e-02
2.418295933942079395e-02
2.405044447352284315e-02
2.390789761356130680e-02
2.375491930406924482e-02
2.359114792490145038e-02
2.341626505616640347e-02
2.323000014274083022e-02
2.303213448090505461e-02
2.282250429150637847e-02
2.260100308129807736e-02
2.236758321955992571e-02
2.212225679737657089e-02
2.186509578041313795e-02
2.159623134838979316e-02
2.131585266998681921e-02
2.102420510723602975e-02
2.072158781503737057e-02
2.040835091726717412e-02
2.008489223120183895e-02
1.975165369376977523e-02
1.940911744641006867e-02
1.905780176105320925e-02
1.869825688039037856e-02
1.833106076095045514e-02
1.795681475374168515e-02
1.757613942245752139e-02
1.718967048845965531e-02
1.679805490139315086e-02
1.640194709665275877e-02
1.600200552312659383e-02
1.559888945556913917e-02
1.519325609496789166e-02
1.478575796635398995e-02
1.437704066960123102e-02
1.396774088311193533e-02
1.355848473814940010e-02
1.314988650268156603e-02
1.274254750034437000e-02
1.233705530990039136e-02
1.193398318725379624e-02
1.153388969805958092e-02
1.113731853323687501e-02
