-7.505991261803181616e-04
4.411848504755178958e-03
1.091829822285236493e-02
1.061292923748703709e-02
3.365691179741624010e-03
-2.780394304638863882e-03
-3.662753912678444468e-03
1.923161945782544350e-03
1.147320441093668819e-02
1.421378101326381191e-02
7.601995618921836805e-03
-4.482263489638528726e-03
-1.491698479967058268e-02
-1.926740943526441402e-02
-1.897395656251938539e-02
-1.340899253135090230e-02
-6.133600247510266092e-03
-1.398142349029710303e-03
4.384562620773365706e-03
1.300268463544734104e-02
1.755326007034026595e-02
1.386182835803726615e-02
8.091441024520114669e-03
1.011664348954811020e-03
-7.279042715080377181e-03
-8.962681453663414247e-03
-3.299385384635181943e-03
4.905580142166058970e-03
8.973799633265644102e-03
5.248481526902603299e-03
-2.555791495468034486e-05
-3.504899978224475503e-03
-7.327402045950078165e-03
-9.944499279686798768e-03
-1.023180732623867224e-02
-7.026389642722668562e-03
-3.399079107938590520e-03
2.191190602093867797e-03
9.328148962052505017e-03
1.105068165446918341e-02
7.880954736439273189e-03
3.848671024017944441e-03
7.643047625126383365e-05
-3.239798668111219457e-03
-3.779697299915708852e-03
-3.353845461509644566e-03
-3.934810180151602360e-03
-2.467461391814806948e-03
1.502978983487620636e-03
2.474899186045995906e-03
1.655704251836532127e-03
2.384811738255377539e-03
2.352614232630776889e-03
1.631762812577652172e-04
-3.138022550458005860e-03
-4.672331064889326604e-03
-1.251754141689227946e-03
3.145968512967474342e-03
5.923576675687596861e-03
6.017782871601210642e-03
-6.742897178729563188e-05
-9.257982289907297491e-03
-1.374150361677486769e-02
-1.073516937236549708e-02
-2.184650875447354153e-03
8.434391953132003295e-03
1.519420065918220854e-02
1.337128151050218441e-02
8.445840087331029158e-03
1.911478427229316469e-03
-4.905926962135885409e-03
-8.094444484543146176e-03
-8.013802270623817184e-03
-5.929862627699180981e-03
-4.981080418852232988e-04
3.238138822308672757e-03
-8.101239928324365392e-04
-4.520012613923807092e-03
-4.328813408411015876e-03
-1.545040853692035811e-03
-6.712159670457677806e-05
2.000556765349412874e-03
5.625500888882912012e-03
6.415024999990435149e-03
5.445297085584893323e-03
5.597746585840194730e-03
7.136194812125503349e-03
5.423797484180833614e-03
-1.286292739357606900e-03
-1.031468645738528069e-02
-1.408766331495141244e-02
-1.096252187725688110e-02
-7.664206527150487988e-03
-4.941858619047468162e-03
7.482872886915700392e-04
8.995038345769444665e-03
9.776323710267778577e-03
5.726778458773235624e-03
4.042111705190525039e-03
5.029692687120511201e-03
5.006277352095974721e-03
2.556636476452955366e-03
-6.974743747589335317e-04
-1.461995243948835095e-03
-4.064101907844915647e-04
-6.273928423689983935e-03
-1.847853539777238874e-02
-1.794494952649151528e-02
-2.508356322824882058e-03
9.114709069101025601e-03
1.485604294533532203e-02
1.662248615493499074e-02
9.911963226628546855e-03
1.344872739997499198e-04
-6.393761225067321093e-03
-1.130159813450539591e-02
-1.256627387421690480e-02
-9.702000777821717312e-03
-1.778212957817698787e-03
5.710575755709012581e-03
7.859653555743563447e-03
9.048083562528938528e-03
1.347691909478444805e-02
1.159103524011737517e-02
2.363215159707499936e-03
-4.559565748532810187e-03
-9.595484732306442527e-03
-1.100763734985350274e-02
-1.008044499939212899e-02
-8.212474615738617201e-03
-2.793391880431033737e-03
2.723187540446684977e-03
-1.034528084938185228e-03
-3.732215845955442948e-03
7.415466769101605217e-03
1.329937636066206956e-02
3.644661493212876351e-03
-3.925504452958683381e-03
3.297313313990502502e-03
8.842766283289501400e-03
1.852954386506327350e-03
-5.060185962661328286e-03
-2.510385900379336586e-03
1.939284975518320957e-03
1.791841874468069317e-03
-2.575438053835755071e-03
-6.954099046474688725e-03
-5.891875348950935398e-03
-2.454521588911874434e-03
-4.410684604095281396e-03
-9.891706811128431892e-03
-3.735734457261347813e-03
9.239594359749882940e-03
1.551914816540519992e-02
1.073428252757398400e-02
3.776262558758265199e-03
1.687088485991102178e-03
2.793822611174136099e-03
1.442788903000204962e-03
-5.433155617277022308e-03
-1.144169108706879524e-02
-1.522158800222725601e-02
-1.570986057488267876e-02
-9.548764233161382078e-03
4.637151055424682151e-03
2.165638502705630880e-02
2.730180666237136053e-02
1.497776115776527223e-02
-1.635770589096047049e-03
-5.973758247631425801e-03
-2.838909732587208048e-03
-5.725908696252946829e-03
-1.636383343934779550e-02
-1.936725872637846957e-02
-1.061353610293155371e-02
-2.956135176718352117e-04
6.450738475974572388e-03
1.304722360706093293e-02
1.818761356095865978e-02
1.643926598487558538e-02
7.087743690284834149e-03
-4.185979726488350643e-03
-1.232202955826220379e-02
-1.608116019269581823e-02
-1.376722955757353484e-02
-2.613356975908355702e-03
9.622300729689694382e-03
9.690289611590713337e-03
-9.640685573672438567e-05
-3.544856469103427853e-03
8.801402053109942929e-04
4.020402405646372572e-03
2.044265942866187007e-03
-6.547972084893797715e-04
-2.138507797416923720e-03
8.930806629383468854e-04
4.102253113267280253e-03
4.520673675144333027e-03
4.019138977457905205e-04
-6.484207269344951369e-03
-7.947071587343436036e-03
-1.730313858730941207e-03
3.913694402291480190e-03
3.500421049852572245e-03
2.094878847253897353e-03
-1.474847583786341801e-03
-6.381066026342915171e-03
-1.025887584355294514e-02
-8.296752451887184909e-03
2.636164655779266695e-03
1.757331335671796085e-02
1.764482696412320722e-02
1.962785579768520396e-03
-1.009260197800767450e-02
-7.558916379077227667e-03
6.677018970465522021e-04
7.047438674126712405e-03
5.860837882281289511e-03
-3.756518327087956469e-04
-8.532110068455025370e-03
-1.165440111753031360e-02
-6.435972468500046791e-03
1.902266319132960189e-03
6.173875743909745112e-03
4.855041808186908066e-03
5.896933051718533138e-03
5.665955685501694768e-03
-8.352164196252726339e-04
-9.135924897016381441e-03
-1.079272736846036661e-02
-6.819734916158095607e-03
-6.278286155386553181e-05
8.763431283533887686e-03
1.252585933764420456e-02
9.113589387919368567e-03
4.335415866735551835e-03
1.891176355146935488e-05
-7.359647058427207927e-03
-1.095415947487116820e-02
-7.124401002823013349e-03
-4.282686009061005376e-03
-3.513732206336986873e-03
6.617996750941561659e-04
9.451428519873267264e-03
1.460018345572393524e-02
8.001548885834850605e-03
-5.638371391473997844e-03
-1.490327721098473439e-02
-9.751424881619643464e-03
8.263958377795550120e-03
1.958897361826895597e-02
9.560146303772975793e-03
-1.114585043971151254e-02
-1.978458188858558953e-02
-1.053378520174428831e-02
1.844227917709033264e-03
1.683398851239088344e-03
-1.804276879933429129e-03
3.949198724244388538e-03
1.029374500719815351e-02
1.161636508123518527e-02
8.236303932172969397e-03
-3.098213402974578021e-04
-7.941791087584979328e-03
-9.660886023109618859e-03
-6.427346341089796612e-03
-2.561213110972781863e-03
-1.160577865780798058e-03
1.394373169091348529e-03
6.440412851295596042e-03
8.912688808744455293e-03
9.248078529581848714e-03
5.300169689335240339e-03
-4.606277739291881820e-03
-1.648478975412009245e-02
-2.190673047861984440e-02
-1.547972335148606327e-02
-1.871902202937457578e-03
1.501332414708336782e-02
2.638132461517490868e-02
2.021532665213269034e-02
4.463699526653141895e-03
-5.168290975515598719e-03
-7.950342250329145433e-03
-5.607447945918698183e-03
-1.852866848746019535e-03
-2.531576254048292611e-03
-8.593800607352625187e-03
-1.151275796000940203e-02
-5.643110748561905830e-03
2.621379433533970078e-03
6.744317692681946197e-03
6.905892214900238510e-03
6.028019039636373089e-03
4.274755625456061817e-03
2.405061640400624028e-03
5.507378515795342475e-04
5.067419796981314367e-04
-6.735210823468936858e-04
-2.127450780869470995e-03
6.710584625645417758e-04
9.651645987598846815e-04
-2.951371231522983453e-03
-5.897723462759135379e-03
-5.873295702921089122e-03
-1.615232156668849200e-03
2.669749613433207783e-03
2.003208492696340081e-04
-3.737407414334163215e-03
-3.089331720008682731e-03
-4.482683723728254167e-05
2.736415443368107707e-03
1.233985554951891328e-02
1.888722799718172904e-02
4.841198148557547022e-03
-1.837360542857666493e-02
-2.120169591364692158e-02
-2.186635509848356383e-03
1.096549936082244665e-02
1.021876562589803250e-02
3.244679516967590143e-03
-7.631964274506693180e-04
-3.908671560136547777e-04
-1.657692160282817344e-04
1.317422544147806788e-04
5.924787461414123425e-04
-2.783217981184322315e-03
-5.417058291267953969e-03
-8.190027680919155159e-03
-1.042583847362591951e-02
-9.591893199515035343e-03
6.748196452171124904e-04
1.377107142204836085e-02
1.408189096197997453e-02
6.113300726750168189e-03
4.565682413502841937e-03
4.117325080385703107e-03
1.397777787977214081e-03
-2.870886724591337029e-03
-2.034615586965968052e-03
-1.289797911621861249e-04
-2.102411260255464525e-03
-4.192737595227042334e-03
-7.041262067199923098e-03
-1.034670423268417225e-02
-8.743585451303770295e-03
5.660999838438983064e-04
8.499086482022895003e-03
7.662573293395584517e-03
1.804882009596033010e-03
1.380891041704811889e-03
4.165300779542032740e-03
3.181298835855283797e-03
-1.095821469044817170e-03
-2.112861778634143872e-03
1.471135547651618650e-03
9.053036083089065992e-04
-1.896457111645254070e-03
-1.063759843720538589e-03
1.944845045009936267e-03
-4.312891091777086051e-04
-2.165282131300182676e-03
7.983570279286342046e-04
4.768761611386588325e-04
-4.532493340174324759e-03
-7.525889641646494634e-03
-6.206198799547990759e-03
-3.973525389621519396e-04
6.272486033509985445e-03
6.212776702013957097e-03
3.887003080800572816e-03
5.127515988726487860e-03
1.240344816473623601e-02
1.139361192479017466e-02
-6.885378904231254267e-03
-2.379708751966963867e-02
-2.085229883905279774e-02
-5.646974970687401903e-03
5.836790471725548067e-03
1.074135656912511734e-02
1.139263745897139621e-02
5.680471924079472969e-03
4.811414304470955361e-04
-1.925754135266238756e-03
1.099204994612305034e-04
1.660357470721685264e-03
1.752853925705578778e-03
1.544704880597102224e-03
-7.054055378723387768e-04
-3.526955843582823841e-03
-4.214953637619374416e-03
-3.402780486584706336e-03
-5.822553108569477470e-03
-7.030099050394740187e-03
-3.478706033847425976e-03
4.576251910637393547e-03
9.102855530718989563e-03
6.034178305069608748e-03
1.517373271316404919e-03
4.643204738125619388e-04
1.208145626685591320e-03
2.521863388824591937e-03
4.078073387098126758e-03
1.570026232892863171e-03
-5.195966944755520123e-03
-6.496341797915224439e-03
-2.978927074936983405e-03
-1.691305937196467719e-03
-4.634200397183453439e-03
-6.472233145712990264e-03
-1.859716910352104870e-03
8.300172405119092545e-03
1.273179981315578253e-02
8.552069823264880563e-03
3.529626121940949643e-04
-3.918413984686205769e-03
-5.012668508416836914e-03
-4.441018999357363058e-03
-2.946885865199118729e-03
-1.419712348684344476e-03
2.309778155558927897e-03
2.329610608923169020e-03
-3.148813225195367868e-03
-5.843325511691266523e-03
-2.053873617374586680e-03
2.449599773214160454e-03
9.668283538504251779e-04
-1.014995805210278752e-03
5.630358002519131842e-03
1.444068858045022621e-02
8.707339251170696792e-03
-3.119842725192439360e-03
-4.209621361540166924e-03
-3.671956920171865878e-03
-8.318754881888601460e-03
-8.615945109700623439e-03
-3.429986282826114410e-04
8.545969002724277883e-03
7.537763619579273579e-03
-2.401938126227289201e-03
-1.188294563874226807e-02
-1.377676897153153925e-02
-4.902745258584869682e-03
8.926407044534543506e-03
1.304522965427772248e-02
2.843997622122331100e-03
-5.256314825012483455e-03
-1.584038796959427557e-03
4.570335817941543512e-03
8.145386349191204717e-03
1.349866852137669021e-02
