-2.140643072667864494e-02
-1.382316900488963184e-02
7.584238583466388142e-04
1.257541726260622342e-02
1.553683825074755540e-02
1.240366141879047784e-02
5.016122979760304600e-03
-2.175695053900908373e-04
3.533696472518181933e-04
-1.531124726229637651e-03
-1.166160361185395464e-03
-3.917703244546250248e-03
-1.056941718354089191e-02
-1.335197095358925043e-02
-7.233221880813553786e-03
3.061756471452225896e-03
1.540754394305567966e-02
2.081467210977449439e-02
1.273530891832503481e-02
3.390285121631176311e-03
-7.966521704061221495e-03
-1.734375155667712554e-02
-1.890780151298349435e-02
-1.657799162427401468e-02
-7.702088046280040727e-03
7.018786758236402433e-03
2.336767303598378046e-02
2.169900883855067908e-02
3.245165683652967946e-03
-8.516111104824012137e-03
-8.146365121429754302e-03
-6.143615633077102733e-04
5.881519378916205687e-03
6.483023996137630800e-03
2.886730178021696021e-03
1.514308091467064029e-04
-1.376662382612437677e-03
-4.831291079377676885e-03
-9.796943414551310611e-03
-1.077593407416257976e-02
-4.967599365682553308e-03
-3.575487419499260439e-04
1.975616160984755825e-03
2.050966765158218023e-03
1.886919733399986931e-03
4.505412112682282214e-04
5.090103173331203594e-05
-2.363109277935728913e-04
1.523006994875278873e-03
1.484330455602152904e-02
2.004179408223203535e-02
7.302108650026991297e-03
-1.584260143501033807e-02
-1.824298506728336267e-02
-1.425222032755582395e-03
1.110401631929883517e-02
2.557123145577705828e-03
-8.894436715951196254e-03
-9.173749631617692316e-03
-4.314213955856749556e-03
-2.604161239678518154e-03
2.132676728849886439e-04
4.151441908689260628e-03
5.431715144207610417e-03
1.358735801420120175e-03
-1.752658759831577685e-03
1.240395813324342538e-04
5.822074515855720118e-03
4.857436391595551690e-03
9.251931558826647847e-04
-1.070694705078271882e-03
-1.271889303176405427e-03
-2.726504622281052462e-03
-2.230142134316897944e-03
1.895968707052330358e-03
4.010132392245184703e-03
-4.546815560644786080e-04
-7.207071112392825739e-03
-8.742514185318421907e-03
-5.025760188745450469e-03
-1.369641731961950958e-04
6.421184655510525120e-03
7.663551944297048758e-03
4.833873681567608591e-03
1.602461030216171915e-03
5.547393723159929797e-04
7.501913403440054612e-04
1.997311033892401784e-03
4.327636360060158277e-04
-3.233544002147931661e-03
-5.543782575537062156e-03
-5.474786450425883806e-03
7.543423018013537332e-04
8.546303036368125411e-03
3.095975017344980429e-03
-8.566183389507514567e-03
-1.161372868410648351e-02
-6.925793096679464314e-03
3.099053571005466051e-03
1.560527334982215672e-02
1.186314216982718023e-02
-1.537388277648447411e-03
-5.659638157916567665e-03
-8.066709491094364425e-04
2.635123385293579659e-03
3.424614260088512663e-03
1.229497073081294673e-03
-2.912374647572235978e-03
-1.055706390338485325e-02
-1.166172051028399430e-02
-5.183455571451564894e-03
2.597726640702894239e-03
7.536501969471237801e-03
8.992219440383610735e-03
9.674003173009192505e-03
9.537229580266030904e-03
7.312509600312240912e-03
2.342996071514980537e-03
-5.712206283228360958e-03
-1.290142167662075914e-02
-1.692332759957272323e-02
-2.093709373392009521e-02
-1.113242745309338602e-02
9.084741168284466567e-03
1.725052705618458637e-02
1.196040222305167107e-02
3.700619713534874893e-03
4.003554715751723829e-03
8.503491854660080729e-03
8.530959558152183611e-03
2.701256664888029152e-04
-6.385324764486850942e-03
-9.339032027682544340e-03
-1.001095668032404677e-02
-1.043097126303008104e-02
-8.198925042101172511e-03
-3.197345604151475250e-03
6.221269942213167488e-03
1.453284444796699472e-02
1.254662349388814199e-02
6.170023735540250409e-03
-1.445235601327857743e-03
-5.171211489420238054e-03
-4.460961247370220061e-03
4.716194054668254240e-04
2.652656527097263170e-04
-5.578057882273478214e-03
-7.315892039539778624e-03
-3.743923307335745090e-04
6.717461056498148265e-03
7.127442321546109509e-03
-1.536254481344897019e-03
-1.112553558126298456e-02
-1.089196249664634540e-02
-1.683313699916863700e-03
6.491260742658347578e-03
1.047644155756224070e-02
9.540376634413221327e-03
1.040727357974537137e-02
8.031959935741087020e-03
-2.188801958114753969e-03
-8.234727730641886248e-03
-1.029228610895103167e-02
-1.067533680132256788e-02
-5.426284858589289911e-03
-1.860485479616163021e-03
-1.934763599372058863e-03
-2.679001543847538483e-04
5.171420325472114894e-03
5.732145376504772794e-03
1.908923070734389570e-03
-9.375809502768636325e-04
3.904700443703414819e-03
7.254518214334921937e-03
5.858295580139920820e-03
3.767659344389261925e-03
2.123358432589333815e-03
-1.140254787397501201e-03
-4.570533435875137086e-03
-6.390418580265139897e-03
-9.830572093589416693e-03
-1.381662117362118802e-02
-1.220598969983793455e-02
-4.321319828214862692e-03
9.465131272650806338e-03
1.612224460082920321e-02
1.024071840818741030e-02
3.328809105510722836e-03
3.051514379329896449e-03
2.850016613238961702e-03
1.167642849728486344e-03
-1.597988336704990985e-03
-2.477535434347314519e-03
-1.719084760115111542e-03
-3.365874159151180552e-04
-2.388642904775820953e-03
-6.119445849881121474e-03
-6.087925869730051974e-03
-2.928712211627571352e-03
3.058535017788169622e-03
7.483505121156477750e-03
4.914348189791931110e-03
-4.452963089767933424e-04
-4.527076726734238429e-03
-6.913490598263543306e-03
-9.471619198893580990e-03
-5.222299901857892744e-03
3.798191594934654733e-03
1.415860695021595519e-02
1.476893225881258619e-02
7.016964042233294653e-03
4.945499524967337732e-04
-5.157668965965422903e-03
-7.274201486129272358e-03
-4.276341189496848244e-03
-2.987397814676224193e-03
-4.280879798165211463e-03
-3.683477405432472422e-03
2.985067614448715968e-03
8.782716345242889272e-03
9.076346777531121846e-03
4.138638232884845995e-03
-3.748621803213214414e-03
-9.682432613312245973e-03
-9.647863095744087583e-03
-1.242217057536823370e-02
-1.241966032468159661e-02
2.822687551057437468e-03
1.784387125492660833e-02
1.930657080915345464e-02
5.904566120486075091e-03
-4.625836919520642278e-03
-3.890585012972000867e-03
1.438572020992045879e-04
4.211994653175447911e-03
3.347717913221086913e-03
-1.172085569636353722e-03
-5.326911619275970927e-03
-4.631156049339298260e-03
-2.281823603561602542e-04
1.269928602458406976e-03
-4.430467696314728532e-03
-8.468609456489662249e-03
-5.920113626423921700e-03
-1.294232220304645815e-03
3.208562448290763758e-03
6.924869438524935278e-03
8.582653080327915310e-03
6.750130275928488410e-03
1.049265911838760494e-03
-3.271554022383252672e-03
-6.021388079816607231e-03
-5.201170916299594112e-03
-1.275798769095494618e-03
6.946971635366359921e-03
9.195942416982927706e-03
-2.527759150497931040e-03
-9.380184494210373758e-03
-4.121996310421191523e-03
7.818676680763173362e-03
1.308196283544212080e-02
2.436275684970639569e-03
-6.785752044249159821e-03
-8.981851509926443849e-03
-1.287054196080982156e-02
-1.616037979190570670e-02
-2.194914216131897168e-03
1.853861737044869284e-02
2.183041887645028808e-02
6.667693218735517256e-03
-2.786905237690906999e-03
-5.110697131516006401e-03
-4.074033352561357187e-03
-4.214666157725446144e-03
-6.106821510914681346e-03
-6.208693031240680553e-03
-5.561315996899502019e-03
1.269931917622602816e-04
8.727943878159036967e-03
1.138487040317659807e-02
1.036369940985515381e-02
4.252581378581884661e-03
-1.048129269232843559e-03
-2.085093300955011882e-03
-3.184353876101558498e-03
-4.998626772134529862e-03
-6.025666392479021340e-03
-7.180864308341755251e-03
-1.103278273222660713e-02
-1.005642131056705933e-02
-1.898518018499987213e-03
8.934336324283795316e-03
1.594732687623668516e-02
1.659773278910042782e-02
1.045593802761731611e-02
1.185288329272045880e-03
-9.713242322736903578e-03
-9.316110553852641543e-03
-1.651540988887929828e-03
-2.351183976605707507e-03
-6.599469137445588066e-03
-4.386608138471317919e-03
5.304777398989104879e-03
9.619221417488773435e-03
3.344381916019528028e-03
-3.764531231697219350e-03
-6.974196754481016940e-03
-5.048457003556013241e-03
-2.691867036769341609e-03
-4.821596270462519609e-04
2.378999376519867065e-03
4.857177337323197869e-03
5.912260707840755539e-03
3.427749901039412687e-03
4.586191919879340981e-03
7.713032137874309933e-03
3.501343467451866354e-03
-5.756480971045366962e-03
-8.451431618807389579e-03
-9.745254749513881584e-03
-1.203653193956035622e-02
-1.297806320284384911e-02
-8.533865655036648040e-03
4.265212908145380073e-03
1.952813522589798984e-02
2.401811247024722776e-02
1.560681211192189305e-02
6.760374860608269962e-04
-9.085456811961302448e-03
-9.188071902139868796e-03
-6.604409508187653738e-03
-2.210925087783676898e-03
-3.137211579972990633e-03
-6.888081603706128382e-03
-3.167971282516156631e-03
8.575899437281903070e-03
1.198445964262106339e-02
5.526313918326691312e-03
-7.061671532986625588e-04
-6.817181143680953702e-03
-1.731056525603585222e-02
-1.332215061979183553e-02
2.666025180015571712e-03
1.414131443775707396e-02
5.961335620969573403e-03
-6.207562661629258995e-03
-6.195816643295545996e-04
9.496444744433526694e-03
7.975464696294634614e-03
1.654563620335156894e-03
6.912933607142054092e-04
1.784817794838759221e-03
1.002191282982009286e-03
-3.311418921564456691e-03
-5.485260377866232710e-03
-3.497448700901097801e-03
-9.480865129961801516e-04
1.493886260017620975e-03
1.450437937663252928e-04
-6.960365359868802768e-03
-1.305301073629905328e-02
-5.838105185701935283e-03
2.741262878943283993e-03
4.111181457724137449e-03
8.923380769064355456e-03
1.271069617475814595e-02
1.052537443525606783e-02
-3.210657930052289097e-04
-7.443223653965126523e-03
-5.506150762733907737e-03
-2.019945526659623018e-03
1.434129570810295864e-03
1.886010704150325751e-03
2.308129724816386941e-03
1.704460492886416233e-03
3.056482856507480080e-04
-1.192028173979209571e-04
-4.801933274026078287e-03
-7.050678338982127417e-03
-5.948751376230605216e-03
-7.576970352780655962e-03
-6.402615156279202642e-03
1.895868781699075467e-03
1.523193798963652645e-02
1.609921687411092206e-02
5.133371544376400149e-03
-3.622635865268549436e-03
-4.997372115211731573e-03
-2.993824747411589181e-03
-1.171581761310313283e-03
4.988972731521632703e-03
7.799798067470649875e-03
3.394622231337390134e-03
-5.059241839228273592e-03
-1.376318796045629747e-02
-1.629946174453870619e-02
-8.513062216211109839e-03
8.040767101882449405e-04
8.064316969228102483e-03
9.992266975086329037e-03
9.260600656939801945e-03
5.783802798067293888e-03
3.425929493667369437e-03
2.368482515117539648e-03
3.688685823842052444e-03
5.127773240046740698e-04
-9.161542850872259752e-03
-1.544069286130303822e-02
-1.117939542705600683e-02
-5.406446112729745325e-03
-1.963210538069333835e-03
6.291587132574783144e-03
1.596282453851232200e-02
1.647257101430393833e-02
9.132834115088217866e-03
5.470160231091631894e-03
3.123801902843610472e-03
-8.193276317698488381e-03
-1.814926012748833278e-02
-1.500963840136322787e-02
-1.019755139036153738e-02
-8.385553063526519565e-03
-2.770235769357619511e-03
6.454578696292963269e-03
1.345755242543841823e-02
1.209562229068940516e-02
5.055692088651146839e-03
4.872981173821731501e-04
2.536134288686799076e-03
7.528077229145281081e-03
5.650854310624109193e-03
-6.069034938493055899e-03
-1.216005480967504576e-02
-7.228774688936242566e-03
8.336325829710106888e-05
3.893765143889682707e-03
3.679610288911082383e-03
6.203518845689919448e-04
-4.231064573354852837e-03
-6.896584549349583926e-03
-8.410350641603005564e-03
-1.024651554181807769e-02
-3.493454008867274974e-03
9.469085503732880410e-03
1.572297300206392662e-02
1.530192818294332999e-02
1.187892132950051777e-02
6.815395943260278179e-03
8.450316781588437451e-04
-7.595224388794057958e-03
-1.396107019350739317e-02
-1.643944311523533666e-02
-1.075176617661523226e-02
-3.730129963841775052e-03
-8.064422758724534498e-04
8.474274807710631408e-04
1.475249477271243885e-03
3.301109960160904765e-03
8.532497113313707374e-03
1.095635003463710233e-02
1.103702160423382719e-02
9.351384793807402535e-03
-2.760911188113982298e-04
-8.641776429236490420e-03
-9.463504056922204116e-03
-7.455903929888231356e-03
-1.604640532592008153e-04
1.923655025453323286e-03
-2.373717554662968781e-03
-3.095176702670879645e-04
4.869734309914111429e-03
3.848477486244056625e-03
-1.362496084026934649e-03
-8.719109171843701656e-03
-7.144943966401691264e-03
-2.629650181306539963e-03
-2.520520036300558098e-03
3.366848235508668424e-04
6.071917574194534394e-03
7.322448692346058587e-03
9.365501748877127011e-03
7.986943382795021196e-03
2.906654042232780476e-03
-2.830319350956018130e-03
-4.374792732869561655e-03
-6.052647166139856622e-03
-7.013488042765684237e-03
-4.427200655743316476e-03
2.665539291299970012e-04
3.194411419688440550e-03
5.529599514383164161e-03
3.881220473241859658e-03
1.892486162892392148e-03
-1.660133638316999352e-03
-2.643168741756327794e-03
-3.926440609564890542e-03
-6.535170163894946961e-03
-5.839457007231812526e-03
-5.903872212258590157e-03
-1.795524887082949796e-03
3.316626473719911858e-03
7.460183735855933918e-03
1.198767946121239054e-02
1.058562471496601355e-02
5.601370214143329418e-03
3.165534735490657323e-03
3.589361229851282652e-03
7.025057231222721875e-03
-2.538786272076054302e-03
-1.743419826639732231e-02
-1.896314005098822045e-02
-1.187146179597274760e-02
-8.017668571831835719e-03
-8.828531448725895556e-03
-2.410357662820675206e-03
7.138027966355651663e-03
1.847432059608064905e-02
2.292252254852530577e-02
1.452717557079297173e-02
-9.554220809407749579e-04
-1.201352947851144770e-02
-1.007717694763626826e-02
-1.110219247878294676e-03
7.519596338979532731e-03
7.354664223725233992e-03
-7.670016544350671296e-04
-9.448905503609094161e-03
-1.205175436556281399e-02
-8.637773787739397649e-03
-2.609942093375615911e-03
6.918140927963238075e-03
1.276068015894770216e-02
4.843980813659084020e-03
-3.247616796817882553e-03
-5.861702446832370468e-03
-4.366199396973570630e-03
-8.068555022414432981e-03
-4.311957871500475895e-03
9.325679469754787065e-03
2.075756872372053197e-02
1.529051362596371352e-02
6.146337768686061832e-03
1.369241987801495051e-04
-8.581991515549100558e-03
-1.835869939625476774e-02
-2.263093127381908889e-02
-1.938214655800138062e-02
-1.007530667727001006e-02
6.289889522856174052e-03
1.775261315626756875e-02
2.104329736051223712e-02
2.202762944480077950e-02
1.540293638077006727e-02
-4.628441291381400709e-05
-1.259519998979387150e-02
-1.801745133033987381e-02
-1.362378693900448065e-02
-5.575935684528412865e-03
4.396897025557637041e-03
3.744783362144306522e-03
-1.450586157902271573e-03
6.963738585314577755e-03
1.007845955193594975e-02
1.970186912832710101e-03
-4.348446288267945707e-03
-4.700855065055149946e-03
-7.105302305680963153e-03
-1.148407323632576714e-02
-7.380059110149400463e-03
2.232028769649624898e-03
9.328990858291719493e-03
9.527396353079413405e-03
8.026624294815102451e-03
6.176138485514504756e-03
1.779590558991279645e-03
2.368832553603320435e-04
-2.386114189307217848e-03
-3.325956845524333846e-03
-1.654947262436125711e-03
-5.578770504369593222e-04
-1.217083661253689705e-03
-2.039677904827397626e-03
-2.617358101971889017e-03
-4.332264086673329705e-03
-3.947207695365056654e-03
-3.068693351285730047e-03
-3.270271931644788167e-03
-2.744976317292441119e-03
-2.844317433832832358e-04
6.844170956001206264e-03
7.320862403983161189e-03
2.616508047739346358e-03
-1.103500186855331869e-03
2.437656696337546936e-03
1.031917116412556408e-02
1.607167174666831316e-02
5.412456347749865747e-03
-9.563380202099274613e-03
-1.463059217191005172e-02
-1.111978063979267989e-02
-8.580842927391684263e-03
-7.226723030155974940e-03
-4.032929860577432433e-03
4.667862623609399415e-03
1.326329426725011626e-02
1.295827940404567329e-02
9.315381081437562605e-03
-5.217745865992890440e-03
-2.064402018891103863e-02
-1.934042983391424247e-02
8.958055657641234362e-04
1.722845435815893028e-02
1.671945651587518344e-02
9.752916079622475642e-03
7.146323031347494477e-03
1.385523921525356507e-03
-6.360419789273033184e-03
-1.065529040105068354e-02
-1.414606219635832808e-02
-1.183876091696644053e-02
-5.132147496820913500e-03
5.049304891773040947e-03
1.077567983630382809e-02
7.482320014707397396e-03
9.827307315399781348e-04
-2.302735106763823675e-03
2.236678065738036895e-04
4.435138557555301335e-03
2.836193318810325235e-03
-1.246111727843900435e-03
-2.968071037092539621e-03
-4.053440022166571698e-03
-4.244830050336265322e-03
1.294208420110952787e-03
7.182121365971767292e-03
8.199360438139843138e-03
4.633204201977738496e-03
-7.695531226788619381e-04
-3.713887958733552968e-03
-7.661245501433685927e-03
-1.574147215520920601e-02
-1.534393146952005293e-02
-5.742520821511150862e-03
2.656652249521634056e-03
9.358923918165274608e-03
1.705295353188732502e-02
1.511875762899531420e-02
9.374040681613460269e-03
7.728399145290773715e-03
2.639411061047285643e-03
-5.227062187576086809e-03
-1.446076504922131148e-02
-1.602627541334265479e-02
-1.201800833581033803e-02
-3.290208237957372751e-03
9.481453250917083048e-03
1.679996246508186700e-02
9.044397460422902088e-03
-7.205029592923457675e-03
-1.527351916616522150e-02
-1.174187810763703370e-02
-2.332500562552723526e-03
5.712431031748607668e-03
1.018344404252543092e-02
9.012213413285272146e-03
7.283346059223240465e-03
3.344299660588686413e-03
-9.725829157815101336e-04
-3.400124477315064238e-03
-5.199580686172221994e-03
-6.730322755408553806e-03
-6.223679655217538402e-03
-9.988026195187956618e-04
5.827323872416780015e-03
6.410974107258189149e-03
4.511111712442040199e-03
3.590080941342698936e-03
-1.575939121229451984e-03
-1.222929262688531721e-02
-1.220073422428152865e-02
-2.567591047953048794e-04
1.508829817252850189e-02
1.877535353967744666e-02
4.915313315337811566e-03
-1.512566127231479256e-02
-2.249392948410396803e-02
-1.419757452988614464e-02
2.228876121303909920e-03
1.176863615043607751e-02
1.129232585212362402e-02
8.633693489656155476e-03
4.272365184336221824e-03
9.435284529557353209e-04
2.815094503115164737e-04
6.877043582547185622e-04
-9.838535089547900160e-04
-2.093215833793152843e-03
-2.902095329520421735e-03
-2.596853993831168932e-03
-4.162785297662455024e-03
-4.306789590650264912e-03
-2.761274442438968468e-03
-1.467711481611768981e-04
1.416151772477362934e-03
8.970072749925043663e-04
-1.650184825968916379e-03
1.010048977780228898e-03
7.418639395992934933e-03
5.584439220388937204e-03
-5.353847293378008639e-03
-6.739610937962606935e-03
-1.599992407480872346e-03
5.188931479841380097e-03
7.664831290367543799e-03
5.341719264656646406e-03
1.076834714926100996e-03
-2.977517713067109537e-04
-2.497464608462379894e-03
-4.503310803572891340e-03
-7.422054248869490098e-03
-9.446001273902836920e-03
-5.392613152911478712e-03
9.480967280462904503e-03
1.262046940652626452e-02
7.104394205803381268e-04
-5.294236222708800961e-03
-9.131036921512199808e-04
1.093347200178563117e-03
-4.407922353354247653e-03
-5.923213045046856091e-03
2.691917349321174251e-03
9.717386246110569156e-03
4.944877936952057039e-03
-6.395147934227162975e-04
-7.949358614590467612e-04
2.506341397823743956e-05
-2.033123854649933251e-03
-5.031783102937725793e-03
-2.611801439807539312e-03
5.988541296019726096e-04
4.314128443334984582e-04
1.417507347980086077e-03
1.580065791548465354e-04
-3.331046486405728137e-04
-8.861083017666763790e-05
3.305803634261640124e-03
3.573635139654347034e-03
2.075844833261738121e-03
6.409655123480214982e-04
4.110229128538847636e-05
-2.447891318041493965e-03
-8.162931674539068705e-03
-1.003557963997243722e-02
-8.769406169932884160e-03
-4.453010237795294174e-03
4.958643408312843164e-03
1.646465744803438103e-02
1.926465801790690907e-02
1.260738063495975975e-02
2.128392826190231464e-03
-5.333825197895789537e-03
-1.378502778642395551e-02
-1.700947238857637017e-02
-1.305805710097347055e-02
-5.006204590885090198e-03
4.693487972317291444e-03
1.131056908998680222e-02
1.546278396053550608e-02
1.563574314037496915e-02
-6.695151768733300854e-04
-1.665393328178130239e-02
-1.292264504241950190e-02
-3.037124509439452849e-03
-4.523630893431693049e-03
-1.033079667725535569e-03
1.096411713606805505e-02
1.362977441467953625e-02
7.733310816253790437e-03
-7.770274230137113117e-04
-5.198343433381192279e-03
-7.836361609298687914e-03
-8.863639702001357631e-03
-8.758648597590734663e-03
-2.658974675106805241e-03
1.155116020787834430e-02
1.798087015730700025e-02
9.434311780045986917e-03
-6.333468449750935363e-03
-1.775454445908088152e-02
-1.493973403408114554e-02
-2.952487603309972460e-03
1.451836743687938240e-02
1.730544273904260563e-02
5.078396861215104217e-03
-5.249337083951596296e-03
-9.273027601479548118e-03
-5.327745380132627682e-03
5.057494400295029814e-03
6.329237417436827003e-03
-2.706615457223856321e-03
-3.695379005322596902e-03
-2.372649854902554513e-04
-2.324712929414290367e-03
-8.187557732661297771e-03
-9.791322453931024586e-03
-2.915050303819378269e-03
9.635927888227712595e-03
1.435909098338034907e-02
1.100326935288677144e-02
1.576991628062786484e-03
-4.312947635175300512e-03
-1.514530927147374542e-03
-1.685934301548586926e-03
-2.314145077936028815e-03
-5.476383394012203538e-03
-5.320985046615693374e-03
1.868148498061513070e-03
5.622621260171866212e-03
8.302305178837704469e-03
5.873358561183215747e-03
-5.069154294891555813e-03
-1.326036744314349272e-02
-1.137992820357621414e-02
-2.003671044700853533e-03
4.987048809934378248e-03
3.080814495843397453e-03
1.793722254910982711e-03
2.400315450327604721e-03
5.556150561769424533e-03
3.968428659281869955e-03
1.619223910555129056e-03
2.931497936326562213e-03
5.294588003587117828e-03
2.730738336305982110e-03
-6.317114324297490313e-03
-1.592744564224663970e-02
-1.422077728241842413e-02
-4.718723102599378834e-03
8.762957050301450543e-03
1.692494051255869630e-02
1.093276346290067598e-02
2.673414611810845734e-04
-4.823759485261415632e-03
-6.448751600714132913e-03
-4.117205881249028261e-03
-3.131749533711983106e-03
-3.601967430644941771e-03
-1.361342318131864362e-03
7.605199110303094770e-03
9.915703519879207062e-03
3.779666030572481714e-03
-5.887619122589757108e-03
-1.143470078881166779e-02
-1.025813215834432690e-02
-5.110060216318585910e-03
6.275016098069729868e-03
1.759741006916215600e-02
1.353330323106566660e-02
-8.143905234016266328e-04
-3.573348023946589999e-03
8.811106647779598164e-03
8.921935953374284661e-03
-7.448946798523113644e-03
-1.945811548407521546e-02
-2.056919714743513442e-02
-1.305489192901639582e-02
8.523736053216253092e-04
1.254533617539583049e-02
1.389745044685852457e-02
4.115998627697912797e-03
-3.405094054196558702e-03
-2.459838001904148495e-03
3.671083162560418150e-03
6.180552064160842185e-03
4.464075734871726479e-03
6.261680596633279611e-04
-2.042595119823461397e-03
-4.328721937953575270e-04
1.525435177437679899e-03
2.181179820734967505e-03
4.945259519534253752e-04
-2.120913343604932146e-03
-6.975808920487294035e-03
-7.720642914973261002e-03
-4.072740674255835233e-03
1.543336200317069543e-03
6.283926041529486889e-03
1.541944980040755100e-03
-5.239301519842648990e-03
-4.307225707798482614e-03
-6.994657590459012458e-04
1.156814021053074581e-03
4.855834546894262360e-04
1.219334627460756399e-03
5.886128792099278549e-03
7.667798522706573312e-03
3.365687485231048069e-03
-1.259500330483214348e-03
-1.097855268552778551e-03
1.449463706056227383e-03
3.498141441531924922e-03
2.149271130630164579e-03
-9.211170289846189012e-04
-2.959547570231328608e-03
-7.600831540723797068e-03
-9.295142719035788537e-03
-7.187716610790691706e-03
-1.454784013866184007e-03
1.201266118557670938e-03
1.431948375714838309e-03
4.030491727566296901e-03
6.936561200560973153e-03
7.788790136879082150e-03
1.170748926321366935e-03
-5.525362301616974260e-03
-1.714962287607190664e-03
5.778425115335956291e-03
6.456729819935350979e-03
-3.322030345108990118e-03
-5.844815416745000221e-03
-9.499371621726994050e-04
-3.582350466595669858e-03
-1.052706817647154625e-02
-7.131899096601036769e-04
1.595780328883282181e-02
1.005499575249905499e-02
-7.416489327111538445e-03
-1.217771059147066195e-02
-2.077869514995316774e-03
4.582320462615523983e-03
1.549571794498552039e-03
-3.248325982016470569e-03
-2.505992742273295201e-03
2.065362204256690828e-03
6.451083860262426216e-03
1.150563295835954625e-02
8.307217898368106021e-03
1.203989532461951194e-03
-4.080358859279518274e-03
-7.457126117839367289e-03
-1.293865737044424397e-02
-1.276321972556929141e-02
-4.634868919427994997e-03
-7.276276707843028907e-04
2.521624771124889725e-03
8.230839355425262349e-03
1.387573797362452038e-02
1.021329715473981090e-02
1.569624110658882597e-03
-3.929156979844515042e-03
-5.649156151777494882e-03
-5.869830909846979368e-03
-3.373072946777001813e-03
-4.599680397160263098e-04
1.027527632345608333e-04
-4.910901344918230764e-04
-1.206335018293307410e-03
-1.623726853582342210e-03
5.079924806052967846e-03
1.214429860062679958e-02
1.051986588964656279e-02
1.079219542655319303e-03
-1.178603495952783124e-02
-1.146174497484383353e-02
-2.980565516965498311e-03
-2.185254787969352283e-03
-8.568139755821171932e-03
-5.732297295697979037e-03
4.422420157179627644e-03
1.099889957591512583e-02
1.057321641277598340e-02
1.998350620240213656e-03
-6.125368308795499546e-03
-2.015329365896752732e-03
7.929940483033243517e-03
1.042364566877575401e-02
2.689287869428914988e-03
-7.534071584776660946e-03
-1.144609759054067422e-02
-9.707856515765674044e-03
-6.181330377595387754e-03
-2.129043240425677365e-03
4.548428874938554960e-03
8.323799539864371738e-03
7.026294809405054902e-03
3.212296365238825630e-03
1.264965051568184458e-03
2.054402554869765030e-03
9.566813032503293859e-04
-1.308222111513220043e-03
-1.265385073958469938e-03
-2.750686675337567135e-03
-5.004753310565439491e-03
-7.400645378224816016e-03
-5.934077138992677018e-03
1.128518801503670954e-03
3.632221085625008533e-03
-7.890871814457481315e-04
7.566716872917155032e-04
8.031195329878794073e-03
8.270122688080853990e-03
4.102608571391071386e-03
-7.934302075814836028e-04
-7.747346363312112606e-04
-2.878008774407075400e-03
-6.979098266146067410e-03
-9.908131482470945717e-03
-4.224537178041357262e-03
1.003708902328794873e-02
1.682465507676102201e-02
7.721938534536846449e-03
-3.400631612771726035e-03
-1.105373960883278273e-02
-1.889040750060995422e-02
-1.849640945404597628e-02
-3.278685697274837628e-03
1.688044707336956024e-02
2.049856627234446921e-02
1.202241925927525004e-02
4.580414053217330382e-03
7.550773505555921986e-04
-3.294746747999561035e-03
-8.215610586443267138e-03
-8.553614639738494133e-03
-5.412722819428792201e-03
-3.398078903266211516e-03
-4.815114417183298870e-03
-5.652782316281897097e-05
5.540034391871812881e-03
4.658336907386218147e-03
2.648002394799604895e-03
4.703760599807466254e-03
6.860782609717798984e-03
3.318703919511512175e-03
-3.028251543575829346e-03
-6.691936537736723097e-03
-5.995652119971583635e-03
-4.597203563224519333e-03
-3.400233018555070142e-03
-2.690683798196088789e-03
1.981149075665853548e-03
9.116344469119967014e-03
1.141640313154227739e-02
-8.629541314143203759e-04
-1.382142702694329206e-02
-6.089547112786649653e-03
7.683520589627221287e-03
1.055226788092849394e-02
4.790759219442935514e-03
-1.380654151893033997e-03
-5.999693875354886186e-03
-8.781481375385927907e-03
-6.233070223904151573e-03
7.187300599926053912e-04
2.607631941012209138e-03
2.941651500468824357e-03
4.620951577430014272e-03
5.968664346904553955e-03
-1.406746928413073368e-03
-6.519625549587341161e-03
-1.284940916008369674e-03
3.002647040637199984e-03
-6.795157249410568390e-04
-3.179644079835545860e-03
3.822758999117927166e-04
5.121930290879705104e-03
4.173394993603773452e-03
1.202290718905698165e-03
-1.647519479414094427e-03
-4.668356618942467832e-03
-6.468238966339052466e-03
-4.886801926284875704e-03
4.089366280483602151e-04
2.733398448532036763e-03
2.800431515901774786e-04
-5.263769127800284851e-04
-4.455254845208954113e-04
2.340917658633935670e-03
7.345037582905368512e-03
1.085821496128317430e-02
1.083794777141100681e-02
7.220102032986068681e-03
-2.649101422683181051e-03
-1.194778437133413480e-02
-1.947454537563944252e-02
-1.789227056245462633e-02
-1.142660789380619407e-02
-8.241166552942874937e-03
-1.527284615337041150e-03
1.537468356068254910e-02
2.637561410407056675e-02
2.024089653604702055e-02
4.312834935773100266e-03
-6.021891367733481389e-03
-2.282865278895921356e-03
4.295696430753697358e-03
3.225086665664707222e-03
1.867741779636450904e-03
-5.827053627540981426e-03
-1.779370104041431630e-02
-2.002480315515943812e-02
-1.174306668849974325e-02
-5.097891472698398881e-03
-1.522871063490186493e-03
6.266413806148090314e-03
1.731788059292464071e-02
1.876347258376434915e-02
1.021871929157969205e-02
1.942342039241220196e-03
4.899992110789256824e-04
3.377030140394368489e-03
7.655512161356477392e-04
-3.771251444640677346e-03
-7.273062055948993111e-03
-9.056968088425033231e-03
-8.722029564268636223e-03
-5.530879595535625852e-03
-5.578058979889249924e-03
-4.244151131305823679e-03
3.879668330761505170e-03
8.044515851764914155e-03
4.067513267470919576e-03
1.178690752566399286e-04
-2.215162131128795876e-03
1.681897056463131819e-03
9.980578353619770984e-03
1.318784611655225529e-02
7.728755240880656914e-03
-2.215857038034458291e-03
-6.835275608169105385e-03
-6.240191372309930248e-03
-6.482188769484826391e-03
-6.724442437779785259e-03
-5.183543666648963988e-03
-6.500553730899782598e-04
2.324693566673877165e-03
-1.538742748033504557e-03
-5.436673964047234776e-03
-2.392855087660812358e-03
3.439600188736110196e-03
8.516457846236858212e-03
1.248591822867949237e-02
7.498807117171626263e-03
-3.792061473389189176e-03
-1.067639800933054169e-02
-6.899246708306818951e-03
3.229261343369071356e-05
5.178170596366485010e-03
3.116604013629346165e-03
-7.605920775931684745e-04
-1.076845644988562445e-03
1.889515366570230365e-03
5.722045968392742120e-03
4.958934996185418789e-03
2.088352302706381579e-03
6.912568603280601050e-04
-5.841417079762684095e-03
-7.751481371992335542e-03
-8.511554409857203032e-03
-8.650934084058748558e-03
-7.896979545512555418e-03
-4.727603317178282263e-03
-2.947288354817251266e-03
-2.854816948487822609e-03
1.942230531454227499e-03
1.688080589604254445e-02
3.300181995806158314e-02
3.533681776368102073e-02
1.435553759900046189e-02
-1.387958025061504855e-02
-2.600346828939525956e-02
-2.092629818361031735e-02
-1.324909146447607496e-02
-1.600361876247026471e-02
-1.775494137525828603e-02
-6.252826094349115717e-03
6.992300357516040114e-03
1.156490914570789535e-02
1.262012422753058111e-02
1.346838580468890864e-02
1.098063247576989802e-02
7.936422391018979616e-03
8.441922957045355433e-03
1.198201100048312123e-02
3.816850536197179643e-03
-1.524906480826287124e-02
-2.854516942476467006e-02
-2.152455759717233560e-02
-3.419612785131721615e-03
5.886808883320575857e-03
3.785362851044884319e-03
1.578940550257192706e-03
6.775260429002173158e-03
1.331314770647521600e-02
1.269418816065270503e-02
3.590537412429714061e-03
-1.029402704255055929e-02
-1.335821663050061614e-02
-3.584832956725258514e-03
2.271789500619165666e-03
1.186693903148792247e-03
-5.597573059751065859e-03
-7.080145361387756020e-03
2.694309567637554782e-03
1.227330138613286561e-02
1.141056648310960313e-02
5.562149268123941191e-03
-1.048086162441665310e-03
-4.812783714674248765e-03
-1.970953981186764764e-03
-1.967092564468540035e-04
-3.027879954921082993e-03
-7.418871988003941306e-03
-8.010014745575562423e-03
-5.977829548873762888e-03
-4.938244541151833034e-04
2.570998806025891117e-03
2.497209023869046080e-04
-1.732845955089219302e-03
6.604309727202496184e-03
1.278670057052658064e-02
1.056505552068607440e-02
5.406721642864872196e-03
3.054318458414857600e-03
-2.369187126433725497e-03
-7.445936939466298379e-03
-8.607052173419527455e-03
-9.598508553155048195e-03
-6.366153431068888313e-03
-3.529721837102657578e-03
1.030267471110849625e-03
3.658560614866347011e-03
3.618303465143723682e-03
4.916230494057783999e-03
2.410965802891567623e-03
8.809253137743418630e-04
9.818971929527729216e-04
7.701456426371859447e-04
3.178046804600970394e-03
2.281471422988708489e-03
-1.745135748408433839e-03
-3.236909843587513699e-03
-1.564783158251303917e-03
-8.284606209099571773e-04
-4.820263730151098415e-03
-7.107695059271748779e-03
-6.752518489719772435e-03
-6.855538451290849739e-04
4.996469705458372185e-03
5.553928194670004585e-03
9.349119963801858987e-03
1.495608603066885325e-02
9.636242468178724679e-03
-2.885187582108533245e-03
-8.971534125125166931e-03
-7.493988912938545112e-03
-2.801083633282667844e-03
-1.199186829730637151e-03
-6.825652859885779529e-03
-1.264316410972052100e-02
-8.223254942167194242e-03
-2.030180678389980828e-03
3.288457417002626712e-03
8.905766908471812390e-03
1.354666939832989067e-02
1.301898881115626065e-02
8.903283455122153189e-03
3.056561209428596167e-03
-1.775842375226891791e-03
-7.600744312908887593e-03
-1.201446052952257794e-02
-1.338324813708559324e-02
-8.853710050254266772e-03
-1.673786838458230820e-03
1.706689072242769008e-03
4.909173212802159757e-03
1.307868405543980567e-02
1.548684222910775773e-02
1.177743414378220124e-02
6.324396292095640568e-03
-9.165052965844884894e-04
-1.272021386889047624e-02
-2.374969258728471672e-02
-2.527973709306064257e-02
-1.251948038915659187e-02
1.050075102032447735e-02
2.466405535368461355e-02
1.910035712670960992e-02
-3.486216504065948150e-03
-1.157018341666074361e-02
-2.949584697524333752e-03
5.776684055264587857e-03
3.162164025135584013e-03
-1.523333337943856905e-03
4.466721349752096962e-03
1.279491400097486700e-02
8.392141748431572457e-03
-2.912432048156806189e-03
-9.789610277952049203e-03
-8.672091163547579820e-03
-5.574116969201942280e-03
-6.165478410544617677e-03
-1.149622742757269028e-02
-1.174334582155881802e-02
-4.529540356789430768e-03
8.115732177343577824e-03
1.424755258648531531e-02
1.045276051631716802e-02
1.038115777868244514e-02
1.223489912713775218e-02
6.241504294841603538e-03
-4.134422792949582308e-03
-1.301795554372340950e-02
-1.074020018002825282e-02
-6.562090278500618858e-03
4.814538378770565411e-04
9.689926102971799238e-03
1.214457772933969816e-02
5.821685491874399772e-03
-5.317456584154607417e-03
-1.681620099602233742e-02
-2.128066998215693076e-02
-1.357147402111847853e-02
1.253119950235268530e-03
1.250178333971356873e-02
1.482063182770189738e-02
6.346065106798018905e-03
4.560109469231811950e-03
9.965032959896313880e-03
7.147472194339596699e-03
1.805841204415379187e-04
-2.627732687476044653e-03
-4.592869480895982182e-03
-2.481945835079518714e-03
-1.453105943019282996e-03
-4.055846195667496198e-03
-8.236443982182584805e-03
-8.551287862857583424e-03
-6.539811473101482878e-03
-2.486322828405297496e-03
2.285309193656503285e-03
4.944689244652146140e-03
4.653328031618496861e-03
5.605084863680610298e-03
7.403162317946173319e-03
5.357907114368667609e-03
2.484227471588624364e-04
-4.571519205614172840e-04
-1.367081941604327520e-03
1.591403483559855267e-03
3.326540883993923427e-03
-3.238360631988272936e-03
-9.762157228717215779e-03
-7.127810712647226869e-03
-3.901190656434828929e-03
-3.899093116079586224e-03
-3.922027048516877820e-04
8.022076133459579705e-03
8.564361965459236364e-03
6.654910793662625196e-04
-2.359866030207950251e-03
1.201092620745289330e-03
6.035010920344422575e-03
5.752971121617821669e-03
-1.004911446315879912e-03
-6.752696831727102861e-03
-6.295088056599416025e-03
-6.948857924417766417e-03
-4.585841785454884516e-03
-1.181499255690608360e-03
3.422327665591561215e-03
8.004460488054143674e-03
6.451456286942425927e-03
2.098491821892356328e-03
8.623129895115448119e-04
1.171936962914025149e-03
5.334002246013551558e-04
2.649507926641626225e-04
3.148578679151579126e-04
-2.411208666209127983e-03
-7.636432437583173978e-03
-8.962834630904867664e-03
-7.450466546905201021e-03
-1.548119440213499912e-03
4.052635979833258545e-03
1.016116203850403119e-02
1.194293760360779638e-02
7.154415549878195835e-03
8.703829921361408775e-04
-3.061461333587242595e-03
-6.291515417074666598e-03
-6.200204461022299288e-03
-3.372502952135370859e-03
-4.648554621793555934e-03
-4.203373195377473580e-03
-3.339574551449800421e-04
6.978167150029933319e-03
7.669878273146972687e-03
-2.502117147976682873e-04
-4.907107085377501038e-03
-1.618759982096810990e-03
3.896180213479056437e-04
3.164026925712456681e-03
6.750123123804008078e-03
9.199202357728340079e-03
6.729331991099939819e-03
-3.127814036602985862e-04
-2.403753569269000221e-03
7.064028697934697423e-04
-4.517231865540313491e-04
-1.147808915500674910e-02
-2.387644423221521942e-02
-3.031661137772779721e-02
-1.991566419311562031e-02
6.026414877158514129e-03
2.820357277068724633e-02
3.430131910556898783e-02
2.400810564857189244e-02
1.006650417433320455e-02
2.606571683267224285e-04
-3.953967978179981531e-03
-7.743982613139227707e-03
-1.097843544781132094e-02
-8.971070186426087500e-03
-3.751143692935815684e-03
-1.908784311917987274e-03
-5.730272112724933350e-03
-5.558610892829208422e-03
-5.402616254290221534e-04
3.359143284884387980e-03
7.236993189961106465e-03
2.127006474921756867e-05
-5.984923175556524678e-03
-3.341854263295691244e-03
1.666367482817192021e-03
7.942281877667151449e-03
6.290198919839840030e-03
-2.979033216933589870e-04
-3.820246740015320955e-03
-1.339948001581657642e-03
2.572009163783427026e-03
2.856430691152602244e-03
3.429014415051702402e-03
-5.752737848834976519e-05
-3.422583370118810041e-03
5.566590056632785867e-04
5.368702869564895286e-03
1.609710017607772969e-03
-7.750057838289902204e-03
-1.041162592478020281e-02
-5.952677871480779002e-03
-3.689601373508933670e-03
8.199809114370210095e-04
1.066757717895655544e-02
1.294052030980829930e-02
7.403311457781548872e-03
-1.899322176022416424e-03
-9.697948281813726507e-03
-1.453717138011311957e-02
-1.481210129488788607e-02
-2.211938383214204391e-03
1.508066406580871321e-02
1.787650336176364527e-02
1.122265737048777287e-02
2.427701719819178212e-03
-2.446216047149532731e-03
-2.392899912003024730e-03
-4.963897963585479738e-03
-7.949156371604430144e-03
-9.286883885836259497e-03
-4.157725053332531236e-03
2.354666491916256911e-03
3.047260215547672145e-03
2.024877183360708141e-03
3.711948697788946920e-03
3.389548595912025061e-03
2.451704834567886016e-03
-5.993367532270603773e-04
-1.609716021475143029e-03
-2.355613565574865966e-04
-2.492607240759517123e-04
-4.658046560050469430e-03
-4.109333273785991877e-03
-1.002448352822037612e-03
-9.474062215410353292e-04
-5.292422970639002085e-03
-1.667916992583786187e-03
9.459369465755235185e-03
1.630999991856417475e-02
1.135616606081880052e-02
2.769522718068432796e-03
-3.424346173688717909e-03
-6.845468707417740224e-03
-6.492218117752986302e-03
-8.970623491470913063e-03
-9.718154687387325560e-03
-3.986011358835070406e-03
3.430089009016914700e-04
-7.989729817559184028e-06
-1.124659508316299501e-03
1.220933438811055202e-03
4.691496561825801888e-03
3.729392909340335880e-03
5.568035830822493093e-03
1.084584694010264257e-02
7.346636128766398724e-03
-1.313102403963996821e-03
-2.240591691425550605e-03
-1.029590831840060091e-03
-2.829286760157330612e-03
-7.298111532200251238e-03
-9.967084078054836219e-03
-9.708662014696139986e-03
-3.400244886508313420e-05
1.031005457431597924e-02
1.092137249626550649e-02
2.863784466688803348e-03
-2.860480123601292710e-03
-2.097013081089076861e-03
-2.881181065422835572e-03
-4.687685423274437664e-03
2.025200048804792242e-03
1.109370402364396116e-02
3.544348075270555530e-03
-1.243205476980931319e-02
-1.689656347264062788e-02
-5.786345265409630935e-03
2.974784541430222119e-03
8.683640030523636852e-03
1.213365691925864798e-02
1.087916220062456508e-02
6.099773745104091448e-03
1.839762733034532374e-03
8.948949057930579917e-04
3.977306873121997776e-04
-4.507683450438179987e-03
-8.750901463501253169e-03
-1.395547884922616194e-02
-1.515520921628128390e-02
-5.825155667580280382e-03
8.537789170404824421e-03
1.605644820265214601e-02
9.605557989169571584e-03
2.520833663299563814e-03
-1.925487515616788013e-03
-3.511242456381961224e-03
-5.068826927147954998e-03
-2.265608651655696970e-03
-4.512079146444594735e-03
-4.447958649072920531e-03
6.918226789609295026e-04
8.768720646232101498e-03
1.090748606199551385e-02
6.297205971317286315e-03
1.278507106881557331e-03
-2.638822876577799799e-04
-1.775965674996502278e-03
-6.395743300374146303e-03
-9.772173558956157718e-03
-4.176850672540341307e-03
2.886254673761961577e-03
3.332466092603359516e-03
1.009039951566230312e-03
-1.276923401298062826e-03
-3.288711656073538096e-03
-5.077528324554203380e-03
-3.938866514391493011e-03
-4.187731503378033793e-03
-6.182788215746320808e-03
-2.332345562155934912e-04
1.737054953050267553e-02
3.260200646242058381e-02
2.559946948882131992e-02
1.494195129893232700e-03
-2.102265632890511216e-02
-2.585951559529928862e-02
-1.934563611125299232e-02
-1.496032100459351866e-02
-5.555742414528926608e-03
4.599080357522757241e-03
1.064559043432014400e-02
9.719374516923361129e-03
8.110162023794487834e-03
5.076983331445770325e-03
4.437251760292051234e-03
6.018207293735918645e-03
6.573054154033581079e-03
9.062282037129719447e-05
-7.396175277324421732e-03
-1.077134924737139718e-02
-1.009944982430495755e-02
-9.245149188886556818e-03
-2.441179096650613646e-03
6.944563198156714946e-03
1.068004015380242394e-02
7.567899158174938752e-03
8.508519798622585955e-05
-4.246893328632773620e-03
-2.782466147917664161e-03
-6.528731329277706738e-04
2.202357338493060677e-03
8.105470918307536169e-04
-1.102864453910746938e-03
-2.560301354587866951e-03
-5.029085517061808279e-03
-1.590286131622361014e-03
5.358163941353417080e-03
6.997622772397262686e-03
2.581874124512489790e-03
-4.684780894795233068e-03
-1.024270859747071147e-02
-6.956668810642174100e-03
1.914422858622914780e-03
1.172117509184639889e-02
1.596831062977461385e-02
1.333822705338971390e-02
4.036122712420210992e-03
-6.538156201281759318e-03
-1.495073321676861772e-02
-1.606135060872420153e-02
-1.400253041995218675e-02
-7.223725985225501293e-03
-1.312257999728738862e-03
2.441803964846666307e-03
5.812007214244844198e-03
9.806110448587970416e-03
1.007439734954895978e-02
9.410746951074674960e-03
7.980505020867376120e-03
6.829078377073646323e-03
1.325360472540668307e-03
-3.112191479549057845e-03
-4.430489112875427883e-03
-6.369166979684170483e-03
-1.066549251570068912e-02
-1.277177724020002111e-02
-1.207319549314028566e-02
-5.021174820980062355e-03
4.638023464508309220e-03
9.821101309379753203e-03
1.016657329731810930e-02
7.902649595668661403e-03
5.090091657900172421e-03
8.681182665888067737e-04
3.006452109002733658e-04
-1.340557001391546633e-03
-2.704008543988725959e-03
-1.694187147992261668e-03
1.177786159829576768e-03
2.648364323895827533e-03
6.755529779069343026e-04
-5.402523663502494487e-03
-8.606867558111760616e-03
-5.606393309343260523e-03
3.832257126710637146e-04
1.123260759237105968e-03
-2.461719529693127267e-03
-2.578389530779505792e-03
3.985097978114133903e-03
1.020789254860125610e-02
1.058205704238304561e-02
9.656653703207283487e-03
4.950489430769057335e-03
1.301301963827920620e-03
-5.452799735030265313e-03
-1.518906746684015041e-02
-2.044051587088385746e-02
-1.783544320110998574e-02
-2.604299452687803933e-03
1.585154026073977429e-02
1.700310070892196296e-02
8.704122669882217306e-03
2.157472197643071736e-03
1.591591877578507695e-04
2.991769407965708116e-04
-1.224183039359906175e-03
-1.972772169871159047e-03
-1.046628303141192021e-03
1.073535166905462135e-03
-1.588359354735063497e-03
-3.714267746394717563e-03
-4.099484993513100375e-03
3.962977682135183748e-03
5.217551042065457848e-03
-6.426704755764086827e-03
-1.584414200383725893e-02
-9.127159498350401884e-03
5.808673250297896433e-03
1.264569269104432597e-02
1.244519031066974001e-02
9.147209214626647947e-03
5.144475320497887694e-03
6.467206045960518406e-05
-1.898615322459220982e-03
-1.436918668148794674e-03
-4.574058318330934299e-03
-8.312856064579121976e-03
-1.420765313555784337e-02
-1.401681399932686381e-02
-2.520228561854058295e-03
9.658876069637676101e-03
1.374637355701277194e-02
9.521713207585283389e-03
3.325111743353619496e-03
1.154764069387073173e-04
-4.164168763048526484e-03
-4.736805598467169233e-03
1.021136246235804278e-03
3.051322229339915523e-03
-1.758880646276256190e-04
-6.237712449634229446e-03
-8.146959834320684213e-03
1.565537485256271184e-04
9.006851884319069107e-03
1.025652433646817921e-02
9.944754553616715065e-03
1.141259612846405071e-03
-1.087083732917521264e-02
-1.087738677148617113e-02
-3.634619791618310357e-03
-4.374213274410451019e-04
-2.333292016478805565e-03
-3.022976591368199337e-03
2.132856101599873728e-03
4.205843917796968541e-03
2.970729494559255605e-03
1.841906040726112241e-04
-1.032320502402581976e-03
1.512862563046430894e-03
2.973816115833944652e-03
2.450778094835836477e-03
3.142032247382319388e-03
1.969125054358345037e-03
-2.333061795595911623e-03
-5.092209359538007324e-03
-7.290044189591001617e-04
-1.471104706929974020e-04
-2.042042474644381947e-03
-1.442286596433807813e-03
-1.303147969364743582e-03
3.124718344763538318e-04
1.537520307938158599e-03
2.804598814817756830e-03
2.573400648575088594e-03
-3.807164112138330773e-04
-3.610059616838250714e-03
-2.215608525101890776e-03
1.081719241397214150e-03
3.569734014696368876e-03
1.781035421636432189e-03
1.893121487131418912e-04
-2.361508803011573749e-04
-3.405462166811282394e-03
-7.429194165957028577e-03
-5.231726900575750169e-03
3.351414209754736327e-05
2.151171528408206413e-03
2.520537507142762458e-03
8.015614853108098820e-03
1.389344357914034864e-02
1.172956699013245549e-02
-3.545798310742422424e-04
-1.005552592803306625e-02
-1.453055884257532793e-02
-1.108168740467805474e-02
-2.032173836175197625e-03
1.309383617589423947e-03
-5.992025710216206807e-04
1.906532096568606851e-04
3.243931674447593939e-03
4.466025266081711555e-03
1.894985430051876994e-03
1.037083982522752669e-03
5.097997135725173233e-03
8.878399051814546070e-03
5.947180366761426612e-03
-2.962333232896375949e-03
-7.047662623165705346e-03
-1.076063677132961527e-02
-9.387946836203340389e-03
-3.848715822288055304e-03
1.442596450248588395e-03
7.729784880712230535e-03
1.092501181201839533e-02
6.888175328917259602e-04
-7.836094760819090066e-03
-7.445660372257506716e-03
-2.387486234156725555e-03
6.589802306772912267e-03
1.216358365461230572e-02
6.692454343609783446e-03
-2.218892163174712544e-03
-5.907464357047468272e-03
-3.497610446293041974e-03
2.224130506123063108e-03
3.593567699515247144e-03
-3.686895625870291286e-03
-1.215272627014939849e-02
-1.051039283114699879e-02
3.402743616497082291e-04
8.981934655262768102e-03
9.802698038444706066e-03
9.400648773954276699e-03
6.133807827329746179e-03
1.104798701497187313e-03
-5.806526027822567389e-03
-1.212762536837715122e-02
-1.050399608380318817e-02
-3.806389556281013740e-03
-6.354731616418097737e-03
-1.050679316785709319e-02
5.095246765129973592e-03
2.455375638164315061e-02
2.873822035642268138e-02
1.206959865560975655e-02
-4.962213080849846823e-03
-1.195096271417663003e-02
-1.023785753796423344e-02
-5.571371286358458089e-03
-1.580851718263635776e-04
-5.163902815220663273e-03
-1.507339824130854954e-02
-1.425118467733693141e-02
-8.076168584250267846e-03
1.460457508971111859e-03
1.512853167298025894e-02
1.767235556552450640e-02
1.059972456608815165e-02
6.217117482748410993e-03
1.833696917008441514e-03
-4.067149979665728686e-03
-1.906869317791403708e-03
4.581422470611995479e-03
4.924657291350163432e-03
-2.056145847793245870e-03
-1.052190787246932470e-02
-1.584344791466809829e-02
-7.267954375155244624e-03
8.061921991237069526e-04
3.010744990608362794e-03
3.005551457847723679e-03
2.640086457846256823e-03
2.862795376361241227e-03
2.341318557880147679e-03
4.780852988093946439e-03
3.203018971415937458e-03
-9.836045140342525653e-04
-1.646863637132116960e-03
-2.904804767059866125e-04
2.949818883133035335e-03
-1.067967300503363691e-03
-6.686685898406767754e-03
-5.960992198987693537e-03
-2.237332522001291880e-03
1.289348799480363912e-03
3.099646289004915657e-03
3.652419099654558542e-03
2.330605541851236973e-03
9.489540796744095480e-04
-6.717418244024081064e-04
4.839042136604573352e-04
1.930200010904614205e-03
1.176532511437461924e-03
4.615409150989669015e-04
9.594041337862913629e-04
2.021835466905995242e-03
1.945783899817947991e-03
-2.327741797161360718e-03
-9.870560053241675402e-03
-1.530924710679144700e-02
-1.706747168792253216e-02
6.584593493267271343e-03
1.665042834207854094e-02
1.334290146327012441e-02
7.694552109598999483e-03
4.462225192997644994e-03
3.498814758177127247e-03
2.960175940148781527e-03
-4.503605489335740265e-03
-6.868323958641156003e-03
-5.686105582477641966e-03
-4.023631525368527063e-03
-7.372967022133203492e-03
-1.495297908261711273e-02
-1.513467050157783246e-02
5.624311685693392286e-05
2.379108975257629432e-02
3.213954153750160636e-02
1.854656377853654281e-02
-4.645549421060916721e-03
-2.282826073202072481e-02
-1.973218703904231972e-02
-5.496299837372472206e-03
8.668735847806981198e-03
1.430139638965396455e-02
7.525535658579825954e-03
-1.026723492545947823e-03
-6.047006283706701964e-03
-1.014089693559137341e-02
-8.414231117571925600e-03
-5.562935778165902130e-03
-2.142921025980872723e-03
3.898604226281160434e-03
9.128730412673435185e-03
1.133493535538400952e-02
5.856016254472913574e-03
-2.063387416468906964e-03
-4.294631785141687051e-03
-4.626791101489565773e-03
-3.507088667190643230e-03
-1.243676778143138015e-03
1.233289164792480703e-03
5.272808154438315791e-03
6.112878417832058424e-03
-4.031234353753226224e-04
-6.379495979594221496e-03
-6.818874442545149774e-03
-4.502431462649662819e-03
3.134559692498244815e-03
1.133896880117043690e-02
7.582477583287994087e-03
-4.634521148825856106e-03
-1.341221916966120475e-02
-9.590524705650612172e-03
7.146465578809979395e-03
1.377269633425702230e-02
-2.360587332464650356e-03
-1.285757489308604617e-02
-3.212223101997851299e-03
1.025226172639788838e-02
1.044173462370664995e-02
4.667750213172118003e-03
-1.138601367813202141e-03
-4.407527567444587471e-03
-4.095497219977627286e-03
-2.054197552048625357e-03
-2.568971877937911794e-03
-4.421691961882596306e-03
-2.720908599667723211e-03
2.094613915386722529e-03
4.406080292740714201e-03
2.775940201572367049e-04
-3.392662679596669152e-03
-3.830180400578584929e-03
1.884598089845681591e-03
8.573622208177509446e-03
7.689879361389801056e-03
3.949727650863217587e-03
1.144586030324520626e-03
-1.822039232625538747e-03
-4.215095482445029539e-03
-6.666493390659076167e-03
-6.287372351768531244e-03
-3.989326612343563512e-03
-2.500355051212037327e-03
-4.078389246479269259e-03
-2.276312847052940330e-03
3.250608087205425923e-03
9.636981901585291860e-03
1.186933106997017928e-02
8.427928417797032543e-03
3.422235467547199775e-03
-2.729248849952445322e-04
-2.995459870393202620e-03
-6.457648301689273250e-03
-7.940297043877988722e-03
-8.068609758632360948e-03
-9.282894021061315754e-03
-5.615236673182274693e-03
-5.459115313503470207e-04
5.349720900413509027e-03
1.134136354715787297e-02
1.272113177842128240e-02
7.206124685031055702e-03
-1.860276577250133227e-03
-2.608734940997239470e-03
2.166425563534914514e-03
-1.019387780263800039e-03
-5.053168561208483574e-03
-3.121411647277770162e-03
-6.055110371315283041e-04
-6.379685615578792324e-03
-1.236219199184209958e-02
-6.180996027685987416e-03
4.408510584811010415e-03
1.135417894709559068e-02
9.199638292950170632e-03
6.522365342802812632e-03
3.651727939199994263e-03
9.072002645339489330e-04
-9.428344847317339517e-04
-5.255743796943401248e-03
-1.401757173922115428e-02
-1.120720494495708493e-02
1.004573619693368766e-02
1.999652318588895222e-02
4.775968646205271811e-03
-1.285773268028280424e-02
-1.426041334324683330e-02
-3.976519091772482382e-03
2.618235799055946417e-03
4.642842616339441612e-03
4.720149290914579625e-03
4.852417264515318865e-03
-7.540308842384404325e-04
-4.481316519517832345e-03
1.424447110901741042e-03
5.170819116491220425e-03
7.313298430387296309e-03
8.400946646048170971e-03
2.574557235657900633e-03
-8.234801429137378337e-03
-1.536613507968687294e-02
-1.318796390023815705e-02
-3.062443029651160629e-03
4.670248682605131381e-03
3.199428649223431346e-03
-2.524208271106662300e-03
-3.427821004170730768e-03
-3.650060374091785870e-04
4.724434661344162172e-03
1.048504356164747277e-02
1.980318170425502539e-02
1.920745349124703891e-02
-1.442687092226078126e-03
-1.858266636200834460e-02
-1.567160935148216583e-02
-8.509367527415339152e-03
-5.705759618025518266e-03
-5.469548112493374283e-03
-2.014957807942871840e-03
4.365482281565474451e-03
6.685330360860613705e-03
5.447833292937566581e-03
3.908298456671322439e-03
2.727050703480536804e-03
1.795810862679016878e-03
6.929658699403595801e-04
-2.486338287570354945e-04
