-2.081579571607620471e-01
-1.889438432001785684e-01
-1.703356790771686224e-01
-1.522993066146501040e-01
-1.347991409902808135e-01
-1.177990454183606983e-01
-1.012631478483999176e-01
-8.515658998236640131e-02
-6.944620033912188295e-02
-5.410108460871573821e-02
-3.909312836975896432e-02
-2.439740879339983778e-02
-9.992513549720454663e-03
4.139233200057854806e-03
1.801163627166979531e-02
3.163458348586409286e-02
4.501408414176186201e-02
5.815238629946215682e-02
7.104816643915332075e-02
8.369678386942082382e-02
9.609059163576924578e-02
1.082192950884500737e-01
1.200703487630099681e-01
1.316293820147910187e-01
1.428806438056057782e-01
1.538074570892954962e-01
1.643926734815047142e-01
1.746191194647677136e-01
1.844700257285588896e-01
1.939294321295107759e-01
2.029825613751065072e-01
2.116161554528546707e-01
2.198187700099383801e-01
2.275810224937717674e-01
2.348957912076185539e-01
2.417583634210593857e-01
2.481665316077490691e-01
2.541206381228459099e-01
2.596235694021421514e-01
2.646807018085498564e-01
2.692998020229335210e-01
2.734908857469476873e-01
2.772660389552195070e-01
2.806392067402161961e-01
2.836259549988051076e-01
2.862432107048957786e-01
2.885089865987464641e-01
2.904420963445810688e-01
2.920618659817943441e-01
2.933878475309437128e-01
2.944395401953776026e-01
2.952361244525718020e-01
2.957962138042078415e-01
2.961376282613698563e-01
2.962771933598483121e-01
2.962305676656748488e-01
2.960121011490240983e-01
2.956347261086024747e-01
2.951098815368913275e-01
2.944474712027312369e-01
2.936558551447711607e-01
2.927418733730349776e-01
2.917109000863053470e-01
2.905669262761358396e-01
2.893126679014316749e-01
2.879496964900721823e-01
2.864785886582122409e-01
2.848990907304195797e-01
2.832102945534454852e-01
2.814108203241153516e-01
2.794990024516834648e-01
2.774730743139278144e-01
2.753313480010098901e-01
2.730723854523404714e-01
2.706951575073623939e-01
2.681991878391070672e-01
2.655846790775148181e-01
2.628526188438377598e-01
2.600048641005180960e-01
2.570442022783496205e-01
2.539743886106859416e-01
2.508001593140604668e-01
2.475272209029531212e-01
2.441622162747450198e-01
2.407126688156147054e-01
2.371869060326205481e-01
2.335939647834625321e-01
2.299434803145357087e-01
2.262455616778794032e-01
2.225106564349071669e-01
2.187494075185179299e-01
2.149725052426369187e-01
2.111905377591539734e-01
2.074138428027197389e-01
2.036523637791220753e-01
1.999155131286807219e-01
1.962120454163277516e-01
1.925499426510498546e-01
1.889363139447092499e-01
1.853773112684604651e-01
1.818780626714184279e-01
1.784426242000180240e-01
1.750739509596027921e-01
1.717738878414819537e-01
1.685431796260198900e-01
1.653815002183676719e-01
1.622874999578618194e-01
1.592588699501647498e-01
1.562924219797760250e-01
1.533841821992565635e-01
1.505294966277787860e-01
1.477231463843000081e-01
1.449594701956722076e-01
1.422324918914503744e-01
1.395360505187340228e-01
1.368639303582722122e-01
1.342099887028133653e-01
1.315682789580255030e-01
1.289331669159788640e-01
1.262994381941565658e-01
1.236623951123815013e-01
1.210179413298959894e-01
1.183626529605644739e-01
1.156938352898722044e-01
1.130095642465518135e-01
1.103087121848002616e-01
1.075909579680080358e-01
1.048567814233907075e-01
1.021074427488497666e-01
9.934494750162323196e-02
9.657199819314625511e-02
9.379193377544144117e-02
9.100865833657409421e-02
8.822656069116963096e-02
8.545042653249911024e-02
8.268534493868483215e-02
7.993661122698429711e-02
7.720962792610794323e-02
7.450980585806053769e-02
7.184246717365773416e-02
6.921275204550202120e-02
6.662553073564900230e-02
6.408532251982856920e-02
6.159622288765092407e-02
5.916184004684871961e-02
5.678524176978465982e-02
5.446891334570535398e-02
5.221472710835339121e-02
5.002392385231462651e-02
4.789710613827879299e-02
4.583424334151350865e-02
4.383468807361307756e-02
4.189720340122969622e-02
4.002000002415961183e-02
3.820078243497249115e-02
3.643680312004618504e-02
3.472492347807589613e-02
3.306168013770361541e-02
3.144335538924311613e-02
2.986605017457526212e-02
2.832575836660573138e-02
2.681844077262753381e-02
2.534009766909344624e-02
2.388683839287605165e-02
2.245494690987809294e-02
2.104094218064299707e-02
1.964163227670290626e-02
1.825416157535508094e-02
1.687605023861096093e-02
1.550522551486315653e-02
1.414004453115230708e-02
1.277930827090067653e-02
1.142226686786761841e-02
1.006861629357436866e-02
8.718486780843885328e-03
7.372423427582059513e-03
6.031359576104208635e-03
4.696583761421397989e-03
3.369700864779359879e-03
2.052588512095598720e-03
7.473496459981497381e-04
-5.437377603152579930e-04
-1.818272736060015573e-03
-3.073784145598263892e-03
-4.307783245279151949e-03
-5.517815012802139256e-03
-6.701507260210640138e-03
-7.856616784889856528e-03
-8.981071575264771775e-03
-1.007300860121190279e-02
-1.113080649525360379e-02
-1.215311261995100783e-02
-1.313886429893355856e-02
-1.408730390318896353e-02
-1.499798763508948529e-02
-1.587078807197324012e-02
-1.670589070472111928e-02
-1.750378454398696104e-02
-1.826524721078640057e-02
-1.899132501797302572e-02
-1.968330845358602296e-02
-2.034270370891381324e-02
-2.097120094449021407e-02
-2.157063990047982868e-02
-2.214297358041631900e-02
-2.269023077979049133e-02
-2.321447824955123057e-02
-2.371778306669397596e-02
-2.420217604280303081e-02
-2.466961679580697772e-02
-2.512196096085319436e-02
-2.556093022093035988e-02
-2.598808566821394703e-02
-2.640480473541297057e-02
-2.681226210020148937e-02
-2.721141489500706126e-02
-2.760299220783962379e-02
-2.798748901719518012e-02
-2.836516463680727532e-02
-2.873604533544677625e-02
-2.909993118411480922e-02
-2.945640681108627201e-02
-2.980485574254901696e-02
-3.014447792938747955e-02
-3.047431015510921812e-02
-3.079324875170674075e-02
-3.110007424391716610e-02
-3.139347731551126591e-02
-3.167208577055655866e-02
-3.193449180085049244e-02
-3.217927914220949925e-02
-3.240504959304758154e-02
-3.261044862541639250e-02
-3.279418939870912958e-02
-3.295507502327194721e-02
-3.309201859708881671e-02
-3.320406079483568390e-02
-3.329038483901229639e-02
-3.335032856657391825e-02
-3.338339356225977078e-02
-3.338925120718132245e-02
-3.336774572247552806e-02
-3.331889430983803191e-02
-3.324288432636034185e-02
-3.314006769902116956e-02
-3.301095285607528323e-02
-3.285619422850442201e-02
-3.267657979167390425e-02
-3.247301679074406089e-02
-3.224651595175126451e-02
-3.199817452153301545e-02
-3.172915844839501592e-02
-3.144068406374197350e-02
-3.113399950643436220e-02
-3.081036636664171227e-02
-3.047104164068539442e-02
-3.011726034652021516e-02
-2.975021916845761033e-02
-2.937106116515560833e-02
-2.898086187730772312e-02
-2.858061695760932830e-02
-2.817123150352948691e-02
-2.775351116814835442e-02
-2.732815505880157800e-02
-2.689575054210277191e-02
-2.645676989200841656e-02
-2.601156887358327743e-02
-2.556038704565899433e-02
-2.510334985338237221e-02
-2.464047238048333241e-02
-2.417166455024014060e-02
-2.369673769244461450e-02
-2.321541236464355271e-02
-2.272732718070652816e-02
-2.223204854293645699e-02
-2.172908108400596616e-02
-2.121787866232355269e-02
-2.069785563694302374e-02
-2.016839839918586202e-02
-1.962887689669823993e-02
-1.907865600297631650e-02
-1.851710663190248365e-02
-1.794361643850429094e-02
-1.735759995301835307e-02
-1.675850806921138497e-02
-1.614583683657078161e-02
-1.551913536418213224e-02
-1.487801292987811323e-02
-1.422214508305584720e-02
-1.355127882164169906e-02
-1.286523677696118501e-02
-1.216392040536176666e-02
-1.144731216434127959e-02
-1.071547676530358248e-02
-9.968561433752951007e-03
-9.206795248178301083e-03
-8.430487606236181444e-03
-7.640025877338150855e-03
-6.835872223991026030e-03
-6.018559772750795359e-03
-5.188688107887846554e-03
-4.346918193626889658e-03
-3.493966757491490365e-03
-2.630600235985741230e-03
-1.757628326980950574e-03
-8.758972931172259594e-04
1.371701599687047217e-05
9.103162487257949412e-04
1.812986750842619354e-03
2.720806734100801073e-03
3.632853410605557491e-03
4.548209964167135126e-03
5.465972378503085143e-03
6.385255956184528528e-03
7.305201515986715043e-03
8.224981158975772783e-03
9.143803675837869002e-03
1.006091940871786661e-02
1.097562456219115627e-02
1.188726492418784760e-02
1.279523898190044508e-02
1.369900038347158719e-02
1.459805967848842173e-02
1.549198538969108301e-02
1.638040437612648878e-02
1.726300144044351503e-02
1.813951822598737842e-02
1.900975149030394509e-02
1.987355060507501811e-02
2.073081445192558742e-02
2.158148765294070140e-02
2.242555626214915582e-02
2.326304298921124183e-02
2.409400188808286797e-02
2.491851273559087671e-02
2.573667504584874199e-02
2.654860187174050770e-02
2.735441345244728206e-02
2.815423084624496530e-02
2.894816955435507155e-02
2.973633327454182698e-02
3.051880789104682509e-02
3.129565577833730294e-02
3.206691046611849505e-02
3.283257176826961943e-02
3.359260150904618686e-02
3.434691984496739819e-02
3.509540226215257519e-02
3.583787733270314690e-02
3.657412522171699792e-02
3.730387698490089665e-02
3.802681470696581134e-02
3.874257245495511814e-02
3.945073805110644455e-02
4.015085555618271018e-02
4.084242860806294728e-02
4.152492443995282195e-02
4.219777853043031601e-02
4.286039987926208022e-02
4.351217673189968632e-02
4.415248274959307495e-02
4.478068347871251575e-02
4.539614307254347114e-02
4.599823102766413541e-02
4.658632902915590263e-02
4.715983756663503362e-02
4.771818243574732499e-02
4.826082084635952701e-02
4.878724710482331556e-02
4.929699779718606928e-02
4.978965635429733610e-02
5.026485686105136574e-02
5.072228712769600439e-02
5.116169096080251666e-02
5.158286960068213245e-02
5.198568214535803644e-02
5.237004515570889418e-02
5.273593132104412162e-02
5.308336723841506483e-02
5.341243027294327594e-02
5.372324459298478960e-02
5.401597649629538006e-02
5.429082892173210662e-02
5.454803538757062309e-02
5.478785336122859312e-02
5.501055716418776914e-02
5.521643057690314715e-02
5.540575917306971021e-02
5.557882254501941149e-02
5.573588654304839629e-02
5.587719557127480280e-02
5.600296515820771259e-02
5.611337480938198563e-02
5.620856134589267278e-02
5.628861274482479388e-02
5.635356265306497997e-02
5.640338553723806686e-02
5.643799263958247658e-02
5.645722877322283118e-02
5.646087000430250608e-02
5.644862221308345057e-02
5.642012061442940735e-02
5.637493014811646719e-02
5.631254689313768685e-02
5.623240032085341511e-02
5.613385642010929738e-02
5.601622169786190514e-02
5.587874785189392984e-02
5.572063724888621367e-02
5.554104893055836212e-02
5.533910528089656944e-02
5.511389907836655028e-02
5.486450090968876536e-02
5.458996690441446364e-02
5.428934660833943660e-02
5.396169094190687160e-02
5.360606018578042281e-02
5.322153175770550498e-02
5.280720790385570740e-02
5.236222306128746062e-02
5.188575084261842080e-02
5.137701065833293057e-02
5.083527380892214481e-02
5.025986902999210471e-02
4.965018746035983199e-02
4.900568705948082221e-02
4.832589632291144077e-02
4.761041734213778548e-02
4.685892820798642777e-02
4.607118481782957603e-02
4.524702198459845670e-02
4.438635392223499315e-02
4.348917416582013390e-02
4.255555488061343872e-02
4.158564575394999713e-02
4.057967233367002630e-02
3.953793395867054306e-02
3.846080129697346250e-02
3.734871360779271759e-02
3.620217575484615397e-02
3.502175491161629850e-02
3.380807722323306286e-02
3.256182433169432788e-02
3.128372982615373193e-02
2.997457576952036046e-02
2.863518919093235512e-02
2.726643869870420608e-02
2.586923124670442026e-02
2.444450898838194247e-02
2.299324637386063533e-02
2.151644741633384691e-02
2.001514319644155313e-02
1.849038956354338847e-02
1.694326512402174675e-02
1.537486943761094335e-02
1.378632144966338187e-02
1.217875815972122022e-02
1.055333349790692557e-02
8.911217351047193841e-03
7.253594873544705682e-03
5.581665888471910170e-03
3.896644485879174891e-03
2.199758632500322091e-03
4.922499384293735391e-04
-1.224626489492109532e-03
-2.949602217988196457e-03
-4.681395660421272878e-03
-6.418712244234810356e-03
-8.160244628546801937e-03
-9.904673042303246966e-03
-1.165066563811334097e-02
-1.339687909146971591e-02
-1.514195923874369666e-02
-1.688454189942585268e-02
-1.862325392333409949e-02
-2.035671439948863112e-02
-2.208353604873204701e-02
-2.380232689240037100e-02
-2.551169208763553325e-02
-2.721023600747910290e-02
-2.889656450123651021e-02
-3.056928740926513274e-02
-3.222702125586163896e-02
-3.386839215269277920e-02
-3.549203888863804168e-02
-3.709661617444380555e-02
-3.868079801513999577e-02
-4.024328120852533469e-02
-4.178278901332774936e-02
-4.329807478902347045e-02
-4.478792572694637042e-02
-4.625116656542123394e-02
-4.768666330398801945e-02
-4.909332680708518998e-02
-5.047011636940408608e-02
-5.181604309598292213e-02
-5.313017313279625592e-02
-5.441163068145458276e-02
-5.565960079695744106e-02
-5.687333187389367883e-02
-5.805213782085671959e-02
-5.919539986277913557e-02
-6.030256805657661923e-02
-6.137316233553061912e-02
-6.240677318020215747e-02
-6.340306177907351071e-02
-6.436175983347638963e-02
-6.528266884724229224e-02
-6.616565898939688606e-02
-6.701066741697550566e-02
-6.781769621946674709e-02
-6.858680991775473190e-02
-6.931813253030116861e-02
-7.001184427260330467e-02
-7.066817785892229309e-02
-7.128741453158825292e-02
-7.186987975201553080e-02
-7.241593874289038724e-02
-7.292599175023577185e-02
-7.340046928024564210e-02
-7.383982723362714218e-02
-7.424454197757331120e-02
-7.461510556247630266e-02
-7.495202101313513943e-02
-7.525579778509758344e-02
-7.552694752865903027e-02
-7.576598008243996818e-02
-7.597339985969100984e-02
-7.614970264002725309e-02
-7.629537278423784152e-02
-7.641088097863872608e-02
-7.649668249970584255e-02
-7.655321596343722668e-02
-7.658090271602205346e-02
-7.658014678028950140e-02
-7.655133532068711388e-02
-7.649483967042113031e-02
-7.641101696656725506e-02
-7.630021223477763403e-02
-7.616276091512498569e-02
-7.599899192805008308e-02
-7.580923101258965624e-02
-7.559380438466598018e-02
-7.535304263272513126e-02
-7.508728476959468379e-02
-7.479688244460931668e-02
-7.448220409965687627e-02
-7.414363902203638390e-02
-7.378160130424070429e-02
-7.339653350855068759e-02
-7.298891000575138954e-02
-7.255923997880284193e-02
-7.210806993225477024e-02
-7.163598564538237179e-02
-7.114361352437161001e-02
-7.063162138532086409e-02
-7.010071849461674276e-02
-6.955165490816393736e-02
-6.898522013919151930e-02
-6.840224107304015977e-02
-6.780357917239659971e-02
-6.719012704542209891e-02
-6.656280429300881485e-02
-6.592255279377605415e-02
-6.527033139566840170e-02
-6.460711022710913243e-02
-6.393386448398022393e-02
-6.325156795542725974e-02
-6.256118628417145500e-02
-6.186367021405552585e-02
-6.115994873449827340e-02
-6.045092229856855598e-02
-5.973745635168933171e-02
-5.902037502705605176e-02
-5.830045530410739307e-02
-5.757842166717037913e-02
-5.685494137520934188e-02
-5.613062041505496869e-02
-5.540600022333359853e-02
-5.468155517823169998e-02
-5.395769097511741302e-02
-5.323474393069926869e-02
-5.251298119961309713e-02
-5.179260195143078199e-02
-5.107373947989460317e-02
-5.035646419533486295e-02
-4.964078744157759959e-02
-4.892666618252267813e-02
-4.821400845176538469e-02
-4.750267945324261609e-02
-4.679250818787655114e-02
-4.608329460141300654e-02
-4.537481712575174714e-02
-4.466684041265830268e-02
-4.395912319240283944e-02
-4.325142613180230078e-02
-4.254351960461538046e-02
-4.183519118023971278e-02
-4.112625265014415582e-02
-4.041654667394663225e-02
-3.970595276331174983e-02
-3.899439250983025018e-02
-3.828183412188417012e-02
-3.756829598978288220e-02
-3.685384932474639746e-02
-3.613861980429080439e-02
-3.542278828167139126e-02
-3.470659037270824171e-02
-3.399031501083607520e-02
-3.327430202118578095e-02
-3.255893871885332663e-02
-3.184465556424186106e-02
-3.113192100729297168e-02
-3.042123552460681418e-02
-2.971312504154372675e-02
-2.900813371420992923e-02
-2.830681632209583118e-02
-2.760973037791814716e-02
-2.691742798980586993e-02
-2.623044772405055264e-02
-2.554930655966856576e-02
-2.487449203492732297e-02
-2.420645480512977760e-02
-2.354560164398430966e-02
-2.289228909473729409e-02
-2.224681786091164612e-02
-2.160942799125298297e-02
-2.098029494970194558e-02
-2.035952670794400829e-02
-1.974716181016197489e-02
-1.914316856078423709e-02
-1.854744530191325749e-02
-1.795982169111016297e-02
-1.738006115687803707e-02
-1.680786435130643755e-02
-1.624287354503012662e-02
-1.568467800527802852e-02
-1.513282018923169971e-02
-1.458680263728063392e-02
-1.404609555641862795e-02
-1.351014489362400810e-02
-1.297838074430443002e-02
-1.245022611854289772e-02
-1.192510573691677421e-02
-1.140245481879973398e-02
-1.088172776080688700e-02
-1.036240645038381293e-02
-9.844008219317084904e-03
-9.326093275836621482e-03
-8.808271427216159480e-03
-8.290208099978100750e-03
-7.771629489500853430e-03
-7.252326798899175891e-03
-6.732159579972786523e-03
-6.211058004809809872e-03
