-2.652897213340011523e-02
-2.652452905425517482e-02
-2.652008537934240698e-02
-2.651564110858238565e-02
-2.651119624189558419e-02
-2.650675077920239264e-02
-2.650230472042312477e-02
-2.649785806547801797e-02
-2.649341081428722641e-02
-2.648896296677083137e-02
-2.648451452284884128e-02
-2.648006548244118130e-02
-2.647561584546770722e-02
-2.647116561184819153e-02
-2.646671478150233736e-02
-2.646226335434976457e-02
-2.645781133031002361e-02
-2.645335870930259556e-02
-2.644890549124685394e-02
-2.644445167606207861e-02
-2.643999726366748002e-02
-2.643554225398218882e-02
-2.643108664692527324e-02
-2.642663044241572168e-02
-2.642217364037243929e-02
-2.641771624071425142e-02
-2.641325824335990710e-02
-2.640879964822806514e-02
-2.640434045523730802e-02
-2.639988066430614191e-02
-2.639542027535299665e-02
-2.639095928829622573e-02
-2.638649770305410633e-02
-2.638203551954485665e-02
-2.637757273768663591e-02
-2.637310935739755474e-02
-2.636864537859567523e-02
-2.636418080119900045e-02
-2.635971562512547800e-02
-2.635524985029299647e-02
-2.635078347661938547e-02
-2.634631650402240524e-02
-2.634184893241976050e-02
-2.633738076172909698e-02
-2.633291199186800144e-02
-2.632844262275398084e-02
-2.632397265430447622e-02
-2.631950208643685923e-02
-2.631503091906843214e-02
-2.631055915211642782e-02
-2.630608678549802362e-02
-2.630161381913033100e-02
-2.629714025293041282e-02
-2.629266608681526604e-02
-2.628819132070182168e-02
-2.628371595450696221e-02
-2.627923998814751805e-02
-2.627476342154026756e-02
-2.627028625460194056e-02
-2.626580848724920439e-02
-2.626133011939866396e-02
-2.625685115096687561e-02
-2.625237158187031933e-02
-2.624789141202539880e-02
-2.624341064134845872e-02
-2.623892926975578826e-02
-2.623444729716361765e-02
-2.622996472348812849e-02
-2.622548154864545386e-02
-2.622099777255169559e-02
-2.621651339512290346e-02
-2.621202841627508565e-02
-2.620754283592420172e-02
-2.620305665398615577e-02
-2.619856987037678595e-02
-2.619408248501187142e-02
-2.618959449780713586e-02
-2.618510590867825089e-02
-2.618061671754084649e-02
-2.617612692431051449e-02
-2.617163652890280856e-02
-2.616714553123324072e-02
-2.616265393121727095e-02
-2.615816172877031068e-02
-2.615366892380770539e-02
-2.614917551624476241e-02
-2.614468150599674051e-02
-2.614018689297884640e-02
-2.613569167710623475e-02
-2.613119585829404290e-02
-2.612669943645737694e-02
-2.612220241151129441e-02
-2.611770478337081813e-02
-2.611320655195092238e-02
-2.610870771716656408e-02
-2.610420827893264462e-02
-2.609970823716404806e-02
-2.609520759177562377e-02
-2.609070634268217601e-02
-2.608620448979847781e-02
-2.608170203303927098e-02
-2.607719897231925918e-02
-2.607269530755311829e-02
-2.606819103865549297e-02
-2.606368616554100362e-02
-2.605918068812424285e-02
-2.605467460631975818e-02
-2.605016792004204509e-02
-2.604566062920557479e-02
-2.604115273372476641e-02
-2.603664423351401830e-02
-2.603213512848771838e-02
-2.602762541856022682e-02
-2.602311510364585176e-02
-2.601860418365888050e-02
-2.601409265851358996e-02
-2.600958052812421886e-02
-2.600506779240497474e-02
-2.600055445127001999e-02
-2.599604050463345112e-02
-2.599152595240934380e-02
-2.598701079451174595e-02
-2.598249503085468468e-02
-2.597797866135215239e-02
-2.597346168591811374e-02
-2.596894410446650217e-02
-2.596442591691124416e-02
-2.595990712316624885e-02
-2.595538772314539763e-02
-2.595086771676255802e-02
-2.594634710393156976e-02
-2.594182588456625874e-02
-2.593730405858042307e-02
-2.593278162588784699e-02
-2.592825858640228701e-02
-2.592373494003747184e-02
-2.591921068670711981e-02
-2.591468582632491455e-02
-2.591016035880451540e-02
-2.590563428405956783e-02
-2.590110760200369303e-02
-2.589658031255049134e-02
-2.589205241561354232e-02
-2.588752391110640122e-02
-2.588299479894259902e-02
-2.587846507903567364e-02
-2.587393475129915604e-02
-2.586940381564654598e-02
-2.586487227199132585e-02
-2.586034012024697112e-02
-2.585580736032693991e-02
-2.585127399214468685e-02
-2.584674001561365966e-02
-2.584220543064727482e-02
-2.583767023715893493e-02
-2.583313443506203913e-02
-2.582859802426999696e-02
-2.582406100469619020e-02
-2.581952337625398677e-02
-2.581498513885673030e-02
-2.581044629241775051e-02
-2.580590683685035983e-02
-2.580136677206787410e-02
-2.579682609798361267e-02
-2.579228481451088101e-02
-2.578774292156300191e-02
-2.578320041905331900e-02
-2.577865730689516549e-02
-2.577411358500187807e-02
-2.576956925328678649e-02
-2.576502431166323784e-02
-2.576047876004456880e-02
-2.575593259834412299e-02
-2.575138582647526486e-02
-2.574683844435135538e-02
-2.574229045188576592e-02
-2.573774184899186093e-02
-2.573319263558301526e-02
-2.572864281157260027e-02
-2.572409237687399430e-02
-2.571954133140055831e-02
-2.571498967506565328e-02
-2.571043740778262629e-02
-2.570588452946483485e-02
-2.570133104002566074e-02
-2.569677693937848922e-02
-2.569222222743670556e-02
-2.568766690411370540e-02
-2.568311096932290177e-02
-2.567855442297771115e-02
-2.567399726499155002e-02
-2.566943949527782445e-02
-2.566488111374994746e-02
-2.566032212032134940e-02
-2.565576251490547452e-02
-2.565120229741578439e-02
-2.564664146776576142e-02
-2.564208002586892271e-02
-2.563751797163879229e-02
-2.563295530498890112e-02
-2.562839202583280448e-02
-2.562382813408408191e-02
-2.561926362965631643e-02
-2.561469851246311186e-02
-2.561013278241809979e-02
-2.560556643943490834e-02
-2.560099948342718645e-02
-2.559643191430860734e-02
-2.559186373199285811e-02
-2.558729493639363972e-02
-2.558272552742465317e-02
-2.557815550499962370e-02
-2.557358486903230435e-02
-2.556901361943647935e-02
-2.556444175612596070e-02
-2.555986927901457428e-02
-2.555529618801615985e-02
-2.555072248304457797e-02
-2.554614816401371002e-02
-2.554157323083745129e-02
-2.553699768342971438e-02
-2.553242152170441884e-02
-2.552784474557551891e-02
-2.552326735495700008e-02
-2.551868934976287903e-02
-2.551411072990719675e-02
-2.550953149530401851e-02
-2.550495164586744426e-02
-2.550037118151160867e-02
-2.549579010215069497e-02
-2.549120840769892454e-02
-2.548662609807054655e-02
-2.548204317317983442e-02
-2.547745963294108587e-02
-2.547287547726864027e-02
-2.546829070607687512e-02
-2.546370531928017836e-02
-2.545911931679295526e-02
-2.545453269852964232e-02
-2.544994546440470032e-02
-2.544535761433261781e-02
-2.544076914822793190e-02
-2.543618006600522480e-02
-2.543159036757910649e-02
-2.542700005286420081e-02
-2.542240912177516285e-02
-2.541781757422667196e-02
-2.541322541013344219e-02
-2.540863262941021536e-02
-2.540403923197178185e-02
-2.539944521773297020e-02
-2.539485058660864367e-02
-2.539025533851370017e-02
-2.538565947336308623e-02
-2.538106299107178304e-02
-2.537646589155482385e-02
-2.537186817472728353e-02
-2.536726984050428901e-02
-2.536267088880098802e-02
-2.535807131953258034e-02
-2.535347113261430738e-02
-2.534887032796146258e-02
-2.534426890548936717e-02
-2.533966686511338745e-02
-2.533506420674894177e-02
-2.533046093031149013e-02
-2.532585703571655147e-02
-2.532125252287970030e-02
-2.531664739171655618e-02
-2.531204164214276991e-02
-2.530743527407403395e-02
-2.530282828742608583e-02
-2.529822068211472555e-02
-2.529361245805579819e-02
-2.528900361516520784e-02
-2.528439415335890714e-02
-2.527978407255289384e-02
-2.527517337266321426e-02
-2.527056205360596677e-02
-2.526595011529730872e-02
-2.526133755765344602e-02
-2.525672438059065050e-02
-2.525211058402525993e-02
-2.524749616787366410e-02
-2.524288113205230139e-02
-2.523826547647767607e-02
-2.523364920106635836e-02
-2.522903230573497052e-02
-2.522441479040020418e-02
-2.521979665497883424e-02
-2.521517789938770154e-02
-2.521055852354371282e-02
-2.520593852736383034e-02
-2.520131791076507186e-02
-2.519669667366454188e-02
-2.519207481597937615e-02
-2.518745233762677629e-02
-2.518282923852401337e-02
-2.517820551858840697e-02
-2.517358117773735998e-02
-2.516895621588835855e-02
-2.516433063295895126e-02
-2.515970442886674568e-02
-2.515507760352942226e-02
-2.515045015686473776e-02
-2.514582208879049749e-02
-2.514119339922455537e-02
-2.513656408808485204e-02
-2.513193415528940100e-02
-2.512730360075629554e-02
-2.512267242440372264e-02
-2.511804062614994212e-02
-2.511340820591329015e-02
-2.510877516361217227e-02
-2.510414149916507034e-02
-2.509950721249054259e-02
-2.509487230350720272e-02
-2.509023677213374423e-02
-2.508560061828895085e-02
-2.508096384189167222e-02
-2.507632644286081347e-02
-2.507168842111534568e-02
-2.506704977657430930e-02
-2.506241050915681765e-02
-2.505777061878204995e-02
-2.505313010536926524e-02
-2.504848896883780582e-02
-2.504384720910708684e-02
-2.503920482609658243e-02
-2.503456181972583613e-02
-2.502991818991444697e-02
-2.502527393658209726e-02
-2.502062905964854214e-02
-2.501598355903361312e-02
-2.501133743465722842e-02
-2.500669068643941728e-02
-2.500204331430029570e-02
-2.499739531816008373e-02
-2.499274669793909165e-02
-2.498809745355771647e-02
-2.498344758493642806e-02
-2.497879709199577261e-02
-2.497414597465640040e-02
-2.496949423283903804e-02
-2.496484186646451622e-02
-2.496018887545374196e-02
-2.495553525972771247e-02
-2.495088101920750479e-02
-2.494622615381428959e-02
-2.494157066346934168e-02
-2.493691454809399827e-02
-2.493225780760967639e-02
-2.492760044193789021e-02
-2.492294245100025799e-02
-2.491828383471847430e-02
-2.491362459301431700e-02
-2.490896472580964721e-02
-2.490430423302639543e-02
-2.489964311458657195e-02
-2.489498137041228076e-02
-2.489031900042572298e-02
-2.488565600454916912e-02
-2.488099238270498684e-02
-2.487632813481566868e-02
-2.487166326080380435e-02
-2.486699776059208070e-02
-2.486233163410328170e-02
-2.485766488126030238e-02
-2.485299750198612448e-02
-2.484832949620383036e-02
-2.484366086383661340e-02
-2.483899160480775373e-02
-2.483432171904062166e-02
-2.482965120645868815e-02
-2.482498006698552126e-02
-2.482030830054478970e-02
-2.481563590706026279e-02
-2.481096288645579656e-02
-2.480628923865533728e-02
-2.480161496358293527e-02
-2.479694006116273108e-02
-2.479226453131895547e-02
-2.478758837397595713e-02
-2.478291158905817151e-02
-2.477823417649013468e-02
-2.477355613619648678e-02
-2.476887746810197202e-02
-2.476419817213144220e-02
-2.475951824820985664e-02
-2.475483769626226488e-02
-2.475015651621383789e-02
-2.474547470798985419e-02
-2.474079227151570679e-02
-2.473610920671689278e-02
-2.473142551351900642e-02
-2.472674119184774949e-02
-2.472205624162891746e-02
-2.471737066278841682e-02
-2.471268445525226162e-02
-2.470799761894658386e-02
-2.470331015379760922e-02
-2.469862205973166053e-02
-2.469393333667514387e-02
-2.468924398455457636e-02
-2.468455400329656879e-02
-2.467986339282783950e-02
-2.467517215307520745e-02
-2.467048028396558873e-02
-2.466578778542599312e-02
-2.466109465738354142e-02
-2.465640089976546545e-02
-2.465170651249909764e-02
-2.464701149551189879e-02
-2.464231584873143727e-02
-2.463761957208536121e-02
-2.463292266550143675e-02
-2.462822512890754795e-02
-2.462352696223167603e-02
-2.461882816540191324e-02
-2.461412873834644896e-02
-2.460942868099355932e-02
-2.460472799327163840e-02
-2.460002667510919477e-02
-2.459532472643483417e-02
-2.459062214717726638e-02
-2.458591893726529143e-02
-2.458121509662780646e-02
-2.457651062519382312e-02
-2.457180552289245715e-02
-2.456709978965294222e-02
-2.456239342540461612e-02
-2.455768643007691723e-02
-2.455297880359938456e-02
-2.454827054590167854e-02
-2.454356165691357755e-02
-2.453885213656497449e-02
-2.453414198478586633e-02
-2.452943120150635412e-02
-2.452471978665665686e-02
-2.452000774016709767e-02
-2.451529506196811758e-02
-2.451058175199028952e-02
-2.450586781016430779e-02
-2.450115323642098816e-02
-2.449643803069127823e-02
-2.449172219290625743e-02
-2.448700572299712316e-02
-2.448228862089518038e-02
-2.447757088653184504e-02
-2.447285251983865456e-02
-2.446813352074725043e-02
-2.446341388918939555e-02
-2.445869362509694653e-02
-2.445397272840190567e-02
-2.444925119903638283e-02
-2.444452903693261278e-02
-2.443980624202295518e-02
-2.443508281423987724e-02
-2.443035875351595027e-02
-2.442563405978385657e-02
-2.442090873297641726e-02
-2.441618277302657139e-02
-2.441145617986736904e-02
-2.440672895343198867e-02
-2.440200109365374403e-02
-2.439727260046607032e-02
-2.439254347380254151e-02
-2.438781371359685299e-02
-2.438308331978282506e-02
-2.437835229229439252e-02
-2.437362063106559770e-02
-2.436888833603060786e-02
-2.436415540712371861e-02
-2.435942184427936086e-02
-2.435468764743209044e-02
-2.434995281651659155e-02
-2.434521735146768714e-02
-2.434048125222032510e-02
-2.433574451870956432e-02
-2.433100715087059204e-02
-2.432626914863874820e-02
-2.432153051194952190e-02
-2.431679124073851672e-02
-2.431205133494146811e-02
-2.430731079449425375e-02
-2.430256961933287621e-02
-2.429782780939346298e-02
-2.429308536461228032e-02
-2.428834228492571246e-02
-2.428359857027028931e-02
-2.427885422058266227e-02
-2.427410923579959370e-02
-2.426936361585795010e-02
-2.426461736069472630e-02
-2.425987047024704552e-02
-2.425512294445216280e-02
-2.425037478324746157e-02
-2.424562598657046403e-02
-2.424087655435884850e-02
-2.423612648655043902e-02
-2.423137578308320189e-02
-2.422662444389521788e-02
-2.422187246892472737e-02
-2.421711985811009910e-02
-2.421236661138985446e-02
-2.420761272870265712e-02
-2.420285820998730603e-02
-2.419810305518273197e-02
-2.419334726422799411e-02
-2.418859083706229735e-02
-2.418383377362497491e-02
-2.417907607385548843e-02
-2.417431773769344525e-02
-2.416955876507857065e-02
-2.416479915595073566e-02
-2.416003891024994313e-02
-2.415527802791633816e-02
-2.415051650889019422e-02
-2.414575435311191662e-02
-2.414099156052207026e-02
-2.413622813106137965e-02
-2.413146406467070113e-02
-2.412669936129103673e-02
-2.412193402086350649e-02
-2.411716804332936226e-02
-2.411240142862997385e-02
-2.410763417670684292e-02
-2.410286628750158908e-02
-2.409809776095594991e-02
-2.409332859701178095e-02
-2.408855879561107305e-02
-2.408378835669593848e-02
-2.407901728020861790e-02
-2.407424556609148031e-02
-2.406947321428703004e-02
-2.406470022473790674e-02
-2.405992659738689227e-02
-2.405515233217692811e-02
-2.405037742905109452e-02
-2.404560188795261746e-02
-2.404082570882485129e-02
-2.403604889161128563e-02
-2.403127143625555934e-02
-2.402649334270145695e-02
-2.402171461089288099e-02
-2.401693524077389355e-02
-2.401215523228870594e-02
-2.400737458538166474e-02
-2.400259329999724842e-02
-2.399781137608008458e-02
-2.399302881357493616e-02
-2.398824561242671183e-02
-2.398346177258046594e-02
-2.397867729398138470e-02
-2.397389217657480351e-02
-2.396910642030619654e-02
-2.396432002512114551e-02
-2.395953299096538827e-02
-2.395474531778479452e-02
-2.394995700552535883e-02
-2.394516805413321112e-02
-2.394037846355461310e-02
-2.393558823373597225e-02
-2.393079736462384519e-02
-2.392600585616495162e-02
-2.392121370830615698e-02
-2.391642092099444811e-02
-2.391162749417694716e-02
-2.390683342780092202e-02
-2.390203872181378975e-02
-2.389724337616313046e-02
-2.389244739079665961e-02
-2.388765076566220016e-02
-2.388285350070770696e-02
-2.387805559588124238e-02
-2.387325705113100410e-02
-2.386845786640533901e-02
-2.386365804165271540e-02
-2.385885757682174729e-02
-2.385405647186119790e-02
-2.384925472671995186e-02
-2.384445234134702565e-02
-2.383964931569157106e-02
-2.383484564970288905e-02
-2.383004134333042631e-02
-2.382523639652377873e-02
-2.382043080923268094e-02
-2.381562458140701680e-02
-2.381081771299682973e-02
-2.380601020395230888e-02
-2.380120205422380647e-02
-2.379639326376182737e-02
-2.379158383251699441e-02
-2.378677376044007613e-02
-2.378196304748196599e-02
-2.377715169359369274e-02
-2.377233969872643085e-02
-2.376752706283150052e-02
-2.376271378586034336e-02
-2.375789986776453977e-02
-2.375308530849580546e-02
-2.374827010800598798e-02
-2.374345426624706670e-02
-2.373863778317115633e-02
-2.373382065873050686e-02
-2.372900289287754177e-02
-2.372418448556480597e-02
-2.371936543674497966e-02
-2.371454574637087837e-02
-2.370972541439546680e-02
-2.370490444077184150e-02
-2.370008282545324821e-02
-2.369526056839308184e-02
-2.369043766954489691e-02
-2.368561412886237977e-02
-2.368078994629936249e-02
-2.367596512180981244e-02
-2.367113965534786355e-02
-2.366631354686779889e-02
-2.366148679632404730e-02
-2.365665940367116943e-02
-2.365183136886387164e-02
-2.364700269185700601e-02
-2.364217337260560159e-02
-2.363734341106482617e-02
-2.363251280718997940e-02
-2.362768156093650318e-02
-2.362284967225998858e-02
-2.361801714111617587e-02
-2.361318396746095102e-02
-2.360835015125034575e-02
-2.360351569244053746e-02
-2.359868059098783888e-02
-2.359384484684868416e-02
-2.358900845997963930e-02
-2.358417143033740213e-02
-2.357933375787883007e-02
-2.357449544256092627e-02
-2.356965648434083960e-02
-2.356481688317586462e-02
-2.355997663902342776e-02
-2.355513575184110461e-02
-2.355029422158661997e-02
-2.354545204821783047e-02
-2.354060923169272457e-02
-2.353576577196944686e-02
-2.353092166900629806e-02
-2.352607692276172807e-02
-2.352123153319432211e-02
-2.351638550026282151e-02
-2.351153882392610986e-02
-2.350669150414320605e-02
-2.350184354087325039e-02
-2.349699493407552547e-02
-2.349214568370946998e-02
-2.348729578973468221e-02
-2.348244525211091657e-02
-2.347759407079806973e-02
-2.347274224575617366e-02
-2.346788977694540951e-02
-2.346303666432610069e-02
-2.345818290785870938e-02
-2.345332850750382614e-02
-2.344847346322218723e-02
-2.344361777497466076e-02
-2.343876144272224668e-02
-2.343390446642607330e-02
-2.342904684604742507e-02
-2.342418858154771480e-02
-2.341932967288851142e-02
-2.341447012003151570e-02
-2.340960992293855680e-02
-2.340474908157158876e-02
-2.339988759589269399e-02
-2.339502546586408674e-02
-2.339016269144812352e-02
-2.338529927260731348e-02
-2.338043520930431843e-02
-2.337557050150193202e-02
-2.337070514916309363e-02
-2.336583915225086752e-02
-2.336097251072845674e-02
-2.335610522455918922e-02
-2.335123729370652129e-02
-2.334636871813403763e-02
-2.334149949780547559e-02
-2.333662963268469739e-02
-2.333175912273570754e-02
-2.332688796792263888e-02
-2.332201616820977347e-02
-2.331714372356154599e-02
-2.331227063394254728e-02
-2.330739689931750347e-02
-2.330252251965127946e-02
-2.329764749490889630e-02
-2.329277182505552421e-02
-2.328789551005646871e-02
-2.328301854987716024e-02
-2.327814094448315413e-02
-2.327326269384015836e-02
-2.326838379791400582e-02
-2.326350425667065430e-02
-2.325862407007621077e-02
-2.325374323809690016e-02
-2.324886176069909660e-02
-2.324397963784929910e-02
-2.323909686951413159e-02
-2.323421345566035329e-02
-2.322932939625485527e-02
-2.322444469126467778e-02
-2.321955934065698252e-02
-2.321467334439906646e-02
-2.320978670245837580e-02
-2.320489941480250243e-02
-2.320001148139917355e-02
-2.319512290221625167e-02
-2.319023367722174503e-02
-2.318534380638377981e-02
-2.318045328967064181e-02
-2.317556212705077640e-02
-2.317067031849275038e-02
-2.316577786396525201e-02
-2.316088476343709790e-02
-2.315599101687723302e-02
-2.315109662425474807e-02
-2.314620158553886559e-02
-2.314130590069895382e-02
-2.313640956970449553e-02
-2.313151259252508793e-02
-2.312661496913046011e-02
-2.312171669949047298e-02
-2.311681778357512970e-02
-2.311191822135455834e-02
-2.310701801279900491e-02
-2.310211715787883341e-02
-2.309721565656453271e-02
-2.309231350882670619e-02
-2.308741071463608560e-02
-2.308250727396351371e-02
-2.307760318677997205e-02
-2.307269845305655320e-02
-2.306779307276447810e-02
-2.306288704587508218e-02
-2.305798037235979800e-02
-2.305307305219018305e-02
-2.304816508533793010e-02
-2.304325647177485684e-02
-2.303834721147289544e-02
-2.303343730440411338e-02
-2.302852675054069959e-02
-2.302361554985496786e-02
-2.301870370231935692e-02
-2.301379120790641303e-02
-2.300887806658881776e-02
-2.300396427833936372e-02
-2.299904984313096146e-02
-2.299413476093665337e-02
-2.298921903172960676e-02
-2.298430265548309648e-02
-2.297938563217051533e-02
-2.297446796176536021e-02
-2.296954964424126333e-02
-2.296463067957197832e-02
-2.295971106773137330e-02
-2.295479080869344823e-02
-2.294986990243233840e-02
-2.294494834892230745e-02
-2.294002614813772309e-02
-2.293510330005307102e-02
-2.293017980464296529e-02
-2.292525566188215180e-02
-2.292033087174547706e-02
-2.291540543420788820e-02
-2.291047934924444682e-02
-2.290555261683032903e-02
-2.290062523694082544e-02
-2.289569720955135154e-02
-2.289076853463743733e-02
-2.288583921217471340e-02
-2.288090924213893526e-02
-2.287597862450598679e-02
-2.287104735925185248e-02
-2.286611544635262436e-02
-2.286118288578451591e-02
-2.285624967752385162e-02
-2.285131582154705313e-02
-2.284638131783066697e-02
-2.284144616635134725e-02
-2.283651036708586948e-02
-2.283157392001110633e-02
-2.282663682510405190e-02
-2.282169908234179395e-02
-2.281676069170152782e-02
-2.281182165316055291e-02
-2.280688196669627271e-02
-2.280194163228621215e-02
-2.279700064990800371e-02
-2.279205901953939434e-02
-2.278711674115822122e-02
-2.278217381474242909e-02
-2.277723024027006674e-02
-2.277228601771927319e-02
-2.276734114706830195e-02
-2.276239562829550714e-02
-2.275744946137934696e-02
-2.275250264629838023e-02
-2.274755518303126292e-02
-2.274260707155676547e-02
-2.273765831185377284e-02
-2.273270890390128099e-02
-2.272775884767840038e-02
-2.272280814316432820e-02
-2.271785679033838656e-02
-2.271290478918000857e-02
-2.270795213966872450e-02
-2.270299884178417563e-02
-2.269804489550608304e-02
-2.269309030081427536e-02
-2.268813505768866451e-02
-2.268317916610926993e-02
-2.267822262605620476e-02
-2.267326543750966192e-02
-2.266830760044991067e-02
-2.266334911485731393e-02
-2.265838998071235955e-02
-2.265343019799564289e-02
-2.264846976668783221e-02
-2.264350868676968248e-02
-2.263854695822203889e-02
-2.263358458102583681e-02
-2.262862155516211574e-02
-2.262365788061200186e-02
-2.261869355735670814e-02
-2.261372858537752384e-02
-2.260876296465581109e-02
-2.260379669517301876e-02
-2.259882977691066858e-02
-2.259386220985036553e-02
-2.258889399397379788e-02
-2.258392512926273715e-02
-2.257895561569904161e-02
-2.257398545326466666e-02
-2.256901464194166138e-02
-2.256404318171217199e-02
-2.255907107255843841e-02
-2.255409831446279420e-02
-2.254912490740765621e-02
-2.254415085137553496e-02
-2.253917614634903116e-02
-2.253420079231082535e-02
-2.252922478924367783e-02
-2.252424813713042526e-02
-2.251927083595399448e-02
-2.251429288569741644e-02
-2.250931428634381226e-02
-2.250433503787639331e-02
-2.249935514027843336e-02
-2.249437459353329297e-02
-2.248939339762441592e-02
-2.248441155253531887e-02
-2.247942905824959134e-02
-2.247444591475091999e-02
-2.246946212202306434e-02
-2.246447768004984288e-02
-2.245949258881512964e-02
-2.245450684830288188e-02
-2.244952045849712627e-02
-2.244453341938195887e-02
-2.243954573094152777e-02
-2.243455739316004699e-02
-2.242956840602182769e-02
-2.242457876951126083e-02
-2.241958848361281370e-02
-2.241459754831101603e-02
-2.240960596359046347e-02
-2.240461372943581761e-02
-2.239962084583179899e-02
-2.239462731276318716e-02
-2.238963313021481022e-02
-2.238463829817154485e-02
-2.237964281661831631e-02
-2.237464668554009495e-02
-2.236964990492189623e-02
-2.236465247474882234e-02
-2.235965439500604487e-02
-2.235465566567880827e-02
-2.234965628675241248e-02
-2.234465625821222337e-02
-2.233965558004366234e-02
-2.233465425223220627e-02
-2.232965227476340145e-02
-2.232464964762284620e-02
-2.231964637079617703e-02
-2.231464244426909632e-02
-2.230963786802734466e-02
-2.230463264205672855e-02
-2.229962676634308569e-02
-2.229462024087230237e-02
-2.228961306563031694e-02
-2.228460524060311629e-02
-2.227959676577672202e-02
-2.227458764113720083e-02
-2.226957786667066105e-02
-2.226456744236325613e-02
-2.225955636820118808e-02
-2.225454464417071787e-02
-2.224953227025814814e-02
-2.224451924644983355e-02
-2.223950557273218082e-02
-2.223449124909162786e-02
-2.222947627551465771e-02
-2.222446065198777770e-02
-2.221944437849754372e-02
-2.221442745503057759e-02
-2.220940988157354273e-02
-2.220439165811314078e-02
-2.219937278463610456e-02
-2.219435326112922935e-02
-2.218933308757934861e-02
-2.218431226397334088e-02
-2.217929079029810555e-02
-2.217426866654057666e-02
-2.216924589268771603e-02
-2.216422246872653060e-02
-2.215919839464407237e-02
-2.215417367042742114e-02
-2.214914829606370178e-02
-2.214412227154007040e-02
-2.213909559684369352e-02
-2.213406827196176194e-02
-2.212904029688149421e-02
-2.212401167159013665e-02
-2.211898239607497374e-02
-2.211395247032332464e-02
-2.210892189432254670e-02
-2.210389066806002153e-02
-2.209885879152317587e-02
-2.209382626469946764e-02
-2.208879308757636523e-02
-2.208375926014136126e-02
-2.207872478238197961e-02
-2.207368965428575802e-02
-2.206865387584024812e-02
-2.206361744703303276e-02
-2.205858036785169826e-02
-2.205354263828387257e-02
-2.204850425831720098e-02
-2.204346522793934268e-02
-2.203842554713799154e-02
-2.203338521590085183e-02
-2.202834423421564172e-02
-2.202330260207011753e-02
-2.201826031945204251e-02
-2.201321738634920422e-02
-2.200817380274940060e-02
-2.200312956864042269e-02
-2.199808468401007883e-02
-2.199303914884618086e-02
-2.198799296313653368e-02
-2.198294612686895952e-02
-2.197789864003128063e-02
-2.197285050261133313e-02
-2.196780171459695660e-02
-2.196275227597600799e-02
-2.195770218673635810e-02
-2.195265144686587774e-02
-2.194760005635244815e-02
-2.194254801518395748e-02
-2.193749532334830429e-02
-2.193244198083339758e-02
-2.192738798762715671e-02
-2.192233334371751149e-02
-2.191727804909239519e-02
-2.191222210373971677e-02
-2.190716550764740603e-02
-2.190210826080338583e-02
-2.189705036319555473e-02
-2.189199181481179743e-02
-2.188693261564000209e-02
-2.188187276566803258e-02
-2.187681226488375277e-02
-2.187175111327504043e-02
-2.186668931082976983e-02
-2.186162685753581178e-02
-2.185656375338103363e-02
-2.185149999835328191e-02
-2.184643559244039968e-02
-2.184137053563020223e-02
-2.183630482791049793e-02
-2.183123846926907086e-02
-2.182617145969369815e-02
-2.182110379917213266e-02
-2.181603548769213072e-02
-2.181096652524141047e-02
-2.180589691180769008e-02
-2.180082664737864953e-02
-2.179575573194194454e-02
-2.179068416548522735e-02
-2.178561194799613285e-02
-2.178053907946226816e-02
-2.177546555987122309e-02
-2.177039138921057007e-02
-2.176531656746785032e-02
-2.176024109463058076e-02
-2.175516497068624364e-02
-2.175008819562228995e-02
-2.174501076942613603e-02
-2.173993269208517390e-02
-2.173485396358676783e-02
-2.172977458391825781e-02
-2.172469455306694566e-02
-2.171961387102010546e-02
-2.171453253776498352e-02
-2.170945055328878451e-02
-2.170436791757868189e-02
-2.169928463062181789e-02
-2.169420069240529311e-02
-2.168911610291615957e-02
-2.168403086214143113e-02
-2.167894497006809043e-02
-2.167385842668306112e-02
-2.166877123197322869e-02
-2.166368338592544046e-02
-2.165859488852650908e-02
-2.165350573976320900e-02
-2.164841593962228694e-02
-2.164332548809044798e-02
-2.163823438515435557e-02
-2.163314263080061417e-02
-2.162805022501579702e-02
-2.162295716778643573e-02
-2.161786345909903068e-02
-2.161276909894003714e-02
-2.160767408729585143e-02
-2.160257842415283167e-02
-2.159748210949728395e-02
-2.159238514331546580e-02
-2.158728752559358616e-02
-2.158218925631777418e-02
-2.157709033547410352e-02
-2.157199076304856800e-02
-2.156689053902710596e-02
-2.156178966339559674e-02
-2.155668813613985033e-02
-2.155158595724561768e-02
-2.154648312669857693e-02
-2.154137964448433681e-02
-2.153627551058841585e-02
-2.153117072499626666e-02
-2.152606528769325511e-02
-2.152095919866467075e-02
-2.151585245789573372e-02
-2.151074506537159828e-02
-2.150563702107735620e-02
-2.150052832499804722e-02
-2.149541897711862437e-02
-2.149030897742395391e-02
-2.148519832589883619e-02
-2.148008702252801605e-02
-2.147497506729617589e-02
-2.146986246018791136e-02
-2.146474920118772098e-02
-2.145963529028001651e-02
-2.145452072744911606e-02
-2.144940551267924406e-02
-2.144428964595453471e-02
-2.143917312725904245e-02
-2.143405595657674190e-02
-2.142893813389150359e-02
-2.142381965918711481e-02
-2.141870053244724834e-02
-2.141358075365546940e-02
-2.140846032279523567e-02
-2.140333923984989034e-02
-2.139821750480267598e-02
-2.139309511763673802e-02
-2.138797207833510391e-02
-2.138284838688069359e-02
-2.137772404325631245e-02
-2.137259904744465144e-02
-2.136747339942829740e-02
-2.136234709918972963e-02
-2.135722014671133373e-02
-2.135209254197539125e-02
-2.134696428496407269e-02
-2.134183537565943756e-02
-2.133670581404343777e-02
-2.133157560009790038e-02
-2.132644473380454139e-02
-2.132131321514495192e-02
-2.131618104410059819e-02
-2.131104822065283191e-02
-2.130591474478288685e-02
-2.130078061647189269e-02
-2.129564583570089237e-02
-2.129051040245081433e-02
-2.128537431670249336e-02
-2.128023757843665667e-02
-2.127510018763392741e-02
-2.126996214427479687e-02
-2.126482344833963839e-02
-2.125968409980870388e-02
-2.125454409866213076e-02
-2.124940344487992808e-02
-2.124426213844196956e-02
-2.123912017932800753e-02
-2.123397756751768325e-02
-2.122883430299049926e-02
-2.122369038572582967e-02
-2.121854581570293066e-02
-2.121340059290093005e-02
-2.120825471729882727e-02
-2.120310818887550380e-02
-2.119796100760972316e-02
-2.119281317348013088e-02
-2.118766468646522683e-02
-2.118251554654338939e-02
-2.117736575369286167e-02
-2.117221530789174105e-02
-2.116706420911797573e-02
-2.116191245734936124e-02
-2.115676005256355782e-02
-2.115160699473809039e-02
-2.114645328385034162e-02
-2.114129891987756582e-02
-2.113614390279687852e-02
-2.113098823258525646e-02
-2.112583190921955151e-02
-2.112067493267644550e-02
-2.111551730293247456e-02
-2.111035901996401870e-02
-2.110520008374730180e-02
-2.110004049425839856e-02
-2.109488025147324836e-02
-2.108971935536766221e-02
-2.108455780591730888e-02
-2.107939560309770796e-02
-2.107423274688422637e-02
-2.106906923725209574e-02
-2.106390507417640195e-02
-2.105874025763209562e-02
-2.105357478759397466e-02
-2.104840866403667049e-02
-2.104324188693466186e-02
-2.103807445626227138e-02
-2.103290637199365168e-02
-2.102773763410282007e-02
-2.102256824256364121e-02
-2.101739819734982015e-02
-2.101222749843489196e-02
-2.100705614579223904e-02
-2.100188413939507379e-02
-2.099671147921643513e-02
-2.099153816522921628e-02
-2.098636419740616127e-02
-2.098118957571986840e-02
-2.097601430014276597e-02
-2.097083837064713310e-02
-2.096566178720508586e-02
-2.096048454978859110e-02
-2.095530665836946652e-02
-2.095012811291937019e-02
-2.094494891340979714e-02
-2.093976905981208628e-02
-2.093458855209740649e-02
-2.092940739023676361e-02
-2.092422557420101428e-02
-2.091904310396084862e-02
-2.091385997948679021e-02
-2.090867620074918221e-02
-2.090349176771821166e-02
-2.089830668036390601e-02
-2.089312093865613659e-02
-2.088793454256460472e-02
-2.088274749205885211e-02
-2.087755978710826438e-02
-2.087237142768205711e-02
-2.086718241374925856e-02
-2.086199274527870962e-02
-2.085680242223906383e-02
-2.085161144459880128e-02
-2.084641981232622857e-02
-2.084122752538946147e-02
-2.083603458375646311e-02
-2.083084098739503010e-02
-2.082564673627278554e-02
-2.082045183035717215e-02
-2.081525626961545222e-02
-2.081006005401470765e-02
-2.080486318352184338e-02
-2.079966565810358048e-02
-2.079446747772645265e-02
-2.078926864235682709e-02
-2.078406915196089055e-02
-2.077886900650463900e-02
-2.077366820595388450e-02
-2.076846675027425176e-02
-2.076326463943118858e-02
-2.075806187338995190e-02
-2.075285845211562175e-02
-2.074765437557309425e-02
-2.074244964372708167e-02
-2.073724425654210890e-02
-2.073203821398252392e-02
-2.072683151601248039e-02
-2.072162416259593423e-02
-2.071641615369666442e-02
-2.071120748927826605e-02
-2.070599816930414339e-02
-2.070078819373749601e-02
-2.069557756254132921e-02
-2.069036627567845746e-02
-2.068515433311150092e-02
-2.067994173480288897e-02
-2.067472848071486360e-02
-2.066951457080948296e-02
-2.066430000504861433e-02
-2.065908478339391341e-02
-2.065386890580682769e-02
-2.064865237224862773e-02
-2.064343518268037594e-02
-2.063821733706293696e-02
-2.063299883535698112e-02
-2.062777967752297756e-02
-2.062255986352120457e-02
-2.061733939331173923e-02
-2.061211826685443657e-02
-2.060689648410894692e-02
-2.060167404503471245e-02
-2.059645094959098102e-02
-2.059122719773678889e-02
-2.058600278943097106e-02
-2.058077772463215091e-02
-2.057555200329876099e-02
-2.057032562538901876e-02
-2.056509859086094391e-02
-2.055987089967235837e-02
-2.055464255178088284e-02
-2.054941354714392987e-02
-2.054418388571871076e-02
-2.053895356746223214e-02
-2.053372259233128549e-02
-2.052849096028245071e-02
-2.052325867127210643e-02
-2.051802572525642659e-02
-2.051279212219139780e-02
-2.050755786203279848e-02
-2.050232294473618502e-02
-2.049708737025690564e-02
-2.049185113855008650e-02
-2.048661424957063174e-02
-2.048137670327323384e-02
-2.047613849961237367e-02
-2.047089963854232739e-02
-2.046566012001715257e-02
-2.046041994399069863e-02
-2.045517911041660336e-02
-2.044993761924828943e-02
-2.044469547043896787e-02
-2.043945266394164503e-02
-2.043420919970910868e-02
-2.042896507769392453e-02
-2.042372029784845014e-02
-2.041847486012482102e-02
-2.041322876447495757e-02
-2.040798201085055122e-02
-2.040273459920306787e-02
-2.039748652948375485e-02
-2.039223780164363745e-02
-2.038698841563354319e-02
-2.038173837140408451e-02
-2.037648766890565871e-02
-2.037123630808843414e-02
-2.036598428890236054e-02
-2.036073161129717257e-02
-2.035547827522238631e-02
-2.035022428062730968e-02
-2.034496962746103199e-02
-2.033971431567243790e-02
-2.033445834521020040e-02
-2.032920171602278780e-02
-2.032394442805844637e-02
-2.031868648126519683e-02
-2.031342787559083443e-02
-2.030816861098293929e-02
-2.030290868738887644e-02
-2.029764810475576803e-02
-2.029238686303050723e-02
-2.028712496215977212e-02
-2.028186240209003260e-02
-2.027659918276752959e-02
-2.027133530413828544e-02
-2.026607076614811431e-02
-2.026080556874259794e-02
-2.025553971186710295e-02
-2.025027319546677390e-02
-2.024500601948652639e-02
-2.023973818387102969e-02
-2.023446968856472059e-02
-2.022920053351180691e-02
-2.022393071865627445e-02
-2.021866024394187999e-02
-2.021338910931214788e-02
-2.020811731471038042e-02
-2.020284486007965091e-02
-2.019757174536280370e-02
-2.019229797050244024e-02
-2.018702353544093303e-02
-2.018174844012043251e-02
-2.017647268448284625e-02
-2.017119626846984939e-02
-2.016591919202289154e-02
-2.016064145508318292e-02
-2.015536305759170824e-02
-2.015008399948920934e-02
-2.014480428071619561e-02
-2.013952390121294747e-02
-2.013424286091950594e-02
-2.012896115977567610e-02
-2.012367879772103754e-02
-2.011839577469493046e-02
-2.011311209063645911e-02
-2.010782774548449878e-02
-2.010254273917767842e-02
-2.009725707165439454e-02
-2.009197074285280771e-02
-2.008668375271085299e-02
-2.008139610116623300e-02
-2.007610778815640748e-02
-2.007081881361861414e-02
-2.006552917748985476e-02
-2.006023887970688827e-02
-2.005494792020623418e-02
-2.004965629892418652e-02
-2.004436401579680338e-02
-2.003907107075992081e-02
-2.003377746374913199e-02
-2.002848319469978725e-02
-2.002318826354700099e-02
-2.001789267022564128e-02
-2.001259641467034375e-02
-2.000729949681551503e-02
-2.000200191659531890e-02
-1.999670367394367626e-02
-1.999140476879427211e-02
-1.998610520108055552e-02
-1.998080497073573963e-02
-1.997550407769279474e-02
-1.997020252188445519e-02
-1.996490030324323331e-02
-1.995959742170140550e-02
-1.995429387719102610e-02
-1.994898966964391354e-02
-1.994368479899165728e-02
-1.993837926516561429e-02
-1.993307306809690219e-02
-1.992776620771639223e-02
-1.992245868395472325e-02
-1.991715049674229812e-02
-1.991184164600929424e-02
-1.990653213168565652e-02
-1.990122195370109745e-02
-1.989591111198508663e-02
-1.989059960646684735e-02
-1.988528743707535656e-02
-1.987997460373935529e-02
-1.987466110638733824e-02
-1.986934694494754683e-02
-1.986403211934798657e-02
-1.985871662951642358e-02
-1.985340047538038805e-02
-1.984808365686716036e-02
-1.984276617390379194e-02
-1.983744802641709132e-02
-1.983212921433361725e-02
-1.982680973757969603e-02
-1.982148959608142497e-02
-1.981616878976466892e-02
-1.981084731855507416e-02
-1.980552518237806148e-02
-1.980020238115880876e-02
-1.979487891482225800e-02
-1.978955478329310833e-02
-1.978422998649580905e-02
-1.977890452435456317e-02
-1.977357839679334817e-02
-1.976825160373589865e-02
-1.976292414510572026e-02
-1.975759602082608271e-02
-1.975226723082001631e-02
-1.974693777501031200e-02
-1.974160765331951090e-02
-1.973627686566991821e-02
-1.973094541198359281e-02
-1.972561329218235418e-02
-1.972028050618777201e-02
-1.971494705392116964e-02
-1.970961293530363104e-02
-1.970427815025599730e-02
-1.969894269869887707e-02
-1.969360658055263266e-02
-1.968826979573739047e-02
-1.968293234417303403e-02
-1.967759422577921094e-02
-1.967225544047532595e-02
-1.966691598818053402e-02
-1.966157586881374375e-02
-1.965623508229363478e-02
-1.965089362853864735e-02
-1.964555150746697537e-02
-1.964020871899658030e-02
-1.963486526304518420e-02
-1.962952113953026975e-02
-1.962417634836908023e-02
-1.961883088947862994e-02
-1.961348476277569378e-02
-1.960813796817681767e-02
-1.960279050559831510e-02
-1.959744237495626706e-02
-1.959209357616651867e-02
-1.958674410914468950e-02
-1.958139397380617361e-02
-1.957604317006614650e-02
-1.957069169783955120e-02
-1.956533955704109831e-02
-1.955998674758526942e-02
-1.955463326938631022e-02
-1.954927912235822698e-02
-1.954392430641479356e-02
-1.953856882146954438e-02
-1.953321266743576756e-02
-1.952785584422652571e-02
-1.952249835175466977e-02
-1.951714018993282174e-02
-1.951178135867337807e-02
-1.950642185788850277e-02
-1.950106168749012395e-02
-1.949570084738992681e-02
-1.949033933749935374e-02
-1.948497715772962852e-02
-1.947961430799174595e-02
-1.947425078819647534e-02
-1.946888659825436046e-02
-1.946352173807571612e-02
-1.945815620757062811e-02
-1.945279000664895327e-02
-1.944742313522029864e-02
-1.944205559319404919e-02
-1.943668738047936786e-02
-1.943131849698519209e-02
-1.942594894262022684e-02
-1.942057871729294810e-02
-1.941520782091159594e-02
-1.940983625338418145e-02
-1.940446401461849019e-02
-1.939909110452207527e-02
-1.939371752300225737e-02
-1.938834326996612470e-02
-1.938296834532052954e-02
-1.937759274897208825e-02
-1.937221648082718822e-02
-1.936683954079199133e-02
-1.936146192877244085e-02
-1.935608364467425110e-02
-1.935070468840291436e-02
-1.934532505986369388e-02
-1.933994475896162399e-02
-1.933456378560151692e-02
-1.932918213968794208e-02
-1.932379982112523639e-02
-1.931841682981751129e-02
-1.931303316566865616e-02
-1.930764882858232792e-02
-1.930226381846195452e-02
-1.929687813521075573e-02
-1.929149177873172930e-02
-1.928610474892765436e-02
-1.928071704570107070e-02
-1.927532866895428909e-02
-1.926993961858941215e-02
-1.926454989450831351e-02
-1.925915949661264476e-02
-1.925376842480382850e-02
-1.924837667898305141e-02
-1.924298425905126425e-02
-1.923759116490919574e-02
-1.923219739645736295e-02
-1.922680295359605052e-02
-1.922140783622530019e-02
-1.921601204424494558e-02
-1.921061557755459823e-02
-1.920521843605365112e-02
-1.919982061964128559e-02
-1.919442212821646440e-02
-1.918902296167792829e-02
-1.918362311992418898e-02
-1.917822260285355004e-02
-1.917282141036409301e-02
-1.916741954235367737e-02
-1.916201699871995442e-02
-1.915661377936034651e-02
-1.915120988417204698e-02
-1.914580531305204447e-02
-1.914040006589710907e-02
-1.913499414260378534e-02
-1.912958754306839232e-02
-1.912418026718704089e-02
-1.911877231485561990e-02
-1.911336368596979265e-02
-1.910795438042500738e-02
-1.910254439811650759e-02
-1.909713373893931823e-02
-1.909172240278824567e-02
-1.908631038955787423e-02
-1.908089769914258008e-02
-1.907548433143651731e-02
-1.907007028633362841e-02
-1.906465556372765463e-02
-1.905924016351212558e-02
-1.905382408558036270e-02
-1.904840732982545151e-02
-1.904298989614026591e-02
-1.903757178441745773e-02
-1.903215299454947065e-02
-1.902673352642852977e-02
-1.902131337994663815e-02
-1.901589255499559067e-02
-1.901047105146697752e-02
-1.900504886925218420e-02
-1.899962600824238457e-02
-1.899420246832852349e-02
-1.898877824940133074e-02
-1.898335335135131405e-02
-1.897792777406877296e-02
-1.897250151744380234e-02
-1.896707458136627500e-02
-1.896164696572583824e-02
-1.895621867041192080e-02
-1.895078969531374669e-02
-1.894536004032033871e-02
-1.893992970532050457e-02
-1.893449869020284032e-02
-1.892906699485574079e-02
-1.892363461916739611e-02
-1.891820156302578826e-02
-1.891276782631867021e-02
-1.890733340893358330e-02
-1.890189831075786073e-02
-1.889646253167863443e-02
-1.889102607158284208e-02
-1.888558893035719929e-02
-1.888015110788819964e-02
-1.887471260406213200e-02
-1.886927341876509442e-02
-1.886383355188297334e-02
-1.885839300330144352e-02
-1.885295177290596813e-02
-1.884750986058180908e-02
-1.884206726621400971e-02
-1.883662398968741561e-02
-1.883118003088665726e-02
-1.882573538969614657e-02
-1.882029006600007687e-02
-1.881484405968244025e-02
-1.880939737062701719e-02
-1.880394999871736611e-02
-1.879850194383682338e-02
-1.879305320586851721e-02
-1.878760378469536418e-02
-1.878215368020008658e-02
-1.877670289226519851e-02
-1.877125142077300246e-02
-1.876579926560557887e-02
-1.876034642664478960e-02
-1.875489290377228141e-02
-1.874943869686950676e-02
-1.874398380581770995e-02
-1.873852823049792365e-02
-1.873307197079097583e-02
-1.872761502657748975e-02
-1.872215739773788398e-02
-1.871669908415237241e-02
-1.871124008570094338e-02
-1.870578040226337710e-02
-1.870032003371924212e-02
-1.869485897994790230e-02
-1.868939724082850640e-02
-1.868393481623999153e-02
-1.867847170606110052e-02
-1.867300791017036804e-02
-1.866754342844612058e-02
-1.866207826076648341e-02
-1.865661240700937362e-02
-1.865114586705250710e-02
-1.864567864077339154e-02
-1.864021072804934037e-02
-1.863474212875746577e-02
-1.862927284277467177e-02
-1.862380286997766463e-02
-1.861833221024295631e-02
-1.861286086344686105e-02
-1.860738882946549183e-02
-1.860191610817476388e-02
-1.859644269945039119e-02
-1.859096860316789696e-02
-1.858549381920259272e-02
-1.858001834742959574e-02
-1.857454218772382551e-02
-1.856906533996000030e-02
-1.856358780401264758e-02
-1.855810957975609701e-02
-1.855263066706448402e-02
-1.854715106581174972e-02
-1.854167077587163398e-02
-1.853618979711766507e-02
-1.853070812942319082e-02
-1.852522577266136131e-02
-1.851974272670512192e-02
-1.851425899142723763e-02
-1.850877456670028953e-02
-1.850328945239666442e-02
-1.849780364838854441e-02
-1.849231715454791383e-02
-1.848682997074656623e-02
-1.848134209685608348e-02
-1.847585353274785666e-02
-1.847036427829308949e-02
-1.846487433336279141e-02
-1.845938369782778449e-02
-1.845389237155870346e-02
-1.844840035442600265e-02
-1.844290764629994209e-02
-1.843741424705058404e-02
-1.843192015654779303e-02
-1.842642537466123928e-02
-1.842092990126040220e-02
-1.841543373621457036e-02
-1.840993687939283807e-02
-1.840443933066410881e-02
-1.839894108989709870e-02
-1.839344215696033305e-02
-1.838794253172214635e-02
-1.838244221405068574e-02
-1.837694120381390059e-02
-1.837143950087955641e-02
-1.836593710511523134e-02
-1.836043401638831271e-02
-1.835493023456599704e-02
-1.834942575951529695e-02
-1.834392059110304118e-02
-1.833841472919585727e-02
-1.833290817366018191e-02
-1.832740092436225404e-02
-1.832189298116814261e-02
-1.831638434394374654e-02
-1.831087501255478783e-02
-1.830536498686681154e-02
-1.829985426674516844e-02
-1.829434285205503233e-02
-1.828883074266139316e-02
-1.828331793842906047e-02
-1.827780443922265297e-02
-1.827229024490661588e-02
-1.826677535534521057e-02
-1.826125977040251799e-02
-1.825574348994242826e-02
-1.825022651382866151e-02
-1.824470884192477479e-02
-1.823919047409413435e-02
-1.823367141019991908e-02
-1.822815165010512051e-02
-1.822263119367255324e-02
-1.821711004076486187e-02
-1.821158819124451059e-02
-1.820606564497378663e-02
-1.820054240181479682e-02
-1.819501846162946412e-02
-1.818949382427952760e-02
-1.818396848962653203e-02
-1.817844245753183485e-02
-1.817291572785660267e-02
-1.816738830046183556e-02
-1.816186017520834625e-02
-1.815633135195676706e-02
-1.815080183056754989e-02
-1.814527161090096277e-02
-1.813974069281710372e-02
-1.813420907617589034e-02
-1.812867676083705290e-02
-1.812314374666014818e-02
-1.811761003350456298e-02
-1.811207562122951406e-02
-1.810654050969404821e-02
-1.810100469875703874e-02
-1.809546818827716813e-02
-1.808993097811296275e-02
-1.808439306812276853e-02
-1.807885445816476144e-02
-1.807331514809696130e-02
-1.806777513777722138e-02
-1.806223442706323193e-02
-1.805669301581251662e-02
-1.805115090388241875e-02
-1.804560809113010811e-02
-1.804006457741258104e-02
-1.803452036258666041e-02
-1.802897544650898867e-02
-1.802342982903603133e-02
-1.801788351002408042e-02
-1.801233648932925452e-02
-1.800678876680749871e-02
-1.800124034231457421e-02
-1.799569121570606528e-02
-1.799014138683739314e-02
-1.798459085556381246e-02
-1.797903962174041484e-02
-1.797348768522213924e-02
-1.796793504586374421e-02
-1.796238170351981828e-02
-1.795682765804477304e-02
-1.795127290929284664e-02
-1.794571745711811064e-02
-1.794016130137447707e-02
-1.793460444191570177e-02
-1.792904687859537410e-02
-1.792348861126691340e-02
-1.791792963978357592e-02
-1.791236996399845835e-02
-1.790680958376449430e-02
-1.790124849893445086e-02
-1.789568670936092509e-02
-1.789012421489634408e-02
-1.788456101539296836e-02
-1.787899711070287806e-02
-1.787343250067798678e-02
-1.786786718517005892e-02
-1.786230116403069237e-02
-1.785673443711131153e-02
-1.785116700426318814e-02
-1.784559886533743089e-02
-1.784003002018498193e-02
-1.783446046865662035e-02
-1.782889021060296564e-02
-1.782331924587447769e-02
-1.781774757432144640e-02
-1.781217519579400207e-02
-1.780660211014211541e-02
-1.780102831721559753e-02
-1.779545381686409647e-02
-1.778987860893708681e-02
-1.778430269328389046e-02
-1.777872606975367323e-02
-1.777314873819542396e-02
-1.776757069845797538e-02
-1.776199195039000062e-02
-1.775641249384000281e-02
-1.775083232865634630e-02
-1.774525145468723933e-02
-1.773966987178072705e-02
-1.773408757978470196e-02
-1.772850457854690392e-02
-1.772292086791490279e-02
-1.771733644773610880e-02
-1.771175131785777956e-02
-1.770616547812700614e-02
-1.770057892839073041e-02
-1.769499166849574159e-02
-1.768940369828867973e-02
-1.768381501761603219e-02
-1.767822562632413025e-02
-1.767263552425915943e-02
-1.766704471126715956e-02
-1.766145318719401780e-02
-1.765586095188546520e-02
-1.765026800518708361e-02
-1.764467434694430223e-02
-1.763907997700240454e-02
-1.763348489520652485e-02
-1.762788910140163784e-02
-1.762229259543256210e-02
-1.761669537714396008e-02
-1.761109744638033811e-02
-1.760549880298607067e-02
-1.759989944680537266e-02
-1.759429937768231672e-02
-1.758869859546082631e-02
-1.758309709998467224e-02
-1.757749489109747959e-02
-1.757189196864272773e-02
-1.756628833246372950e-02
-1.756068398240364856e-02
-1.755507891830550282e-02
-1.754947314001217840e-02
-1.754386664736640525e-02
-1.753825944021077110e-02
-1.753265151838772143e-02
-1.752704288173955252e-02
-1.752143353010841148e-02
-1.751582346333630316e-02
-1.751021268126509711e-02
-1.750460118373652063e-02
-1.749898897059216224e-02
-1.749337604167347168e-02
-1.748776239682174605e-02
-1.748214803587813324e-02
-1.747653295868363890e-02
-1.747091716507913339e-02
-1.746530065490534134e-02
-1.745968342800284512e-02
-1.745406548421208834e-02
-1.744844682337337236e-02
-1.744282744532687016e-02
-1.743720734991260901e-02
-1.743158653697047047e-02
-1.742596500634018691e-02
-1.742034275786135539e-02
-1.741471979137343765e-02
-1.740909610671574625e-02
-1.740347170372745847e-02
-1.739784658224761624e-02
-1.739222074211513314e-02
-1.738659418316879091e-02
-1.738096690524723598e-02
-1.737533890818898641e-02
-1.736971019183242843e-02
-1.736408075601581988e-02
-1.735845060057729025e-02
-1.735281972535483025e-02
-1.734718813018630568e-02
-1.734155581490945050e-02
-1.733592277936185991e-02
-1.733028902338100419e-02
-1.732465454680421138e-02
-1.731901934946868810e-02
-1.731338343121149870e-02
-1.730774679186957571e-02
-1.730210943127970594e-02
-1.729647134927853047e-02
-1.729083254570257244e-02
-1.728519302038821620e-02
-1.727955277317170732e-02
-1.727391180388916300e-02
-1.726827011237655821e-02
-1.726262769846973952e-02
-1.725698456200441822e-02
-1.725134070281616680e-02
-1.724569612074042940e-02
-1.724005081561252525e-02
-1.723440478726764868e-02
-1.722875803554086913e-02
-1.722311056026711723e-02
-1.721746236128119528e-02
-1.721181343841778066e-02
-1.720616379151142933e-02
-1.720051342039657233e-02
-1.719486232490751582e-02
-1.718921050487845145e-02
-1.718355796014344600e-02
-1.717790469053643090e-02
-1.717225069589121619e-02
-1.716659597604149046e-02
-1.716094053082081045e-02
-1.715528436006260801e-02
-1.714962746360018664e-02
-1.714396984126671797e-02
-1.713831149289524527e-02
-1.713265241831868693e-02
-1.712699261736982601e-02
-1.712133208988132760e-02
-1.711567083568573192e-02
-1.711000885461545426e-02
-1.710434614650277463e-02
-1.709868271117985852e-02
-1.709301854847877430e-02
-1.708735365823148625e-02
-1.708168804026985108e-02
-1.707602169442561102e-02
-1.707035462053037994e-02
-1.706468681841565027e-02
-1.705901828791279995e-02
-1.705334902885310283e-02
-1.704767904106770787e-02
-1.704200832438764260e-02
-1.703633687864380269e-02
-1.703066470366695895e-02
-1.702499179928776071e-02
-1.701931816533674632e-02
-1.701364380164434309e-02
-1.700796870804086036e-02
-1.700229288435648606e-02
-1.699661633042130401e-02
-1.699093904606529745e-02
-1.698526103111832816e-02
-1.697958228541016079e-02
-1.697390280877044549e-02
-1.696822260102872140e-02
-1.696254166201440969e-02
-1.695685999155681703e-02
-1.695117758948515296e-02
-1.694549445562851600e-02
-1.693981058981588669e-02
-1.693412599187613457e-02
-1.692844066163802508e-02
-1.692275459893021611e-02
-1.691706780358125800e-02
-1.691138027541959701e-02
-1.690569201427357532e-02
-1.690000301997143101e-02
-1.689431329234130155e-02
-1.688862283121121341e-02
-1.688293163640908895e-02
-1.687723970776274993e-02
-1.687154704509991748e-02
-1.686585364824820868e-02
-1.686015951703514343e-02
-1.685446465128813756e-02
-1.684876905083450283e-02
-1.684307271550145382e-02
-1.683737564511610107e-02
-1.683167783950545102e-02
-1.682597929849639559e-02
-1.682028002191572613e-02
-1.681458000959013682e-02
-1.680887926134622470e-02
-1.680317777701047580e-02
-1.679747555640927204e-02
-1.679177259936889127e-02
-1.678606890571550381e-02
-1.678036447527517933e-02
-1.677465930787388343e-02
-1.676895340333748111e-02
-1.676324676149174367e-02
-1.675753938216234182e-02
-1.675183126517484911e-02
-1.674612241035473154e-02
-1.674041281752734756e-02
-1.673470248651796541e-02
-1.672899141715174925e-02
-1.672327960925376611e-02
-1.671756706264899625e-02
-1.671185377716231241e-02
-1.670613975261849363e-02
-1.670042498884222182e-02
-1.669470948565809215e-02
-1.668899324289060265e-02
-1.668327626036415420e-02
-1.667755853790306095e-02
-1.667184007533155377e-02
-1.666612087247377680e-02
-1.666040092915376664e-02
-1.665468024519547660e-02
-1.664895882042277328e-02
-1.664323665465942959e-02
-1.663751374772913863e-02
-1.663179009945549985e-02
-1.662606570966202943e-02
-1.662034057817214638e-02
-1.661461470480919342e-02
-1.660888808939642997e-02
-1.660316073175701485e-02
-1.659743263171403055e-02
-1.659170378909048671e-02
-1.658597420370930969e-02
-1.658024387539333219e-02
-1.657451280396530710e-02
-1.656878098924791098e-02
-1.656304843106374755e-02
-1.655731512923535112e-02
-1.655158108358516580e-02
-1.654584629393554898e-02
-1.654011076010878864e-02
-1.653437448192709297e-02
-1.652863745921259037e-02
-1.652289969178733289e-02
-1.651716117947329282e-02
-1.651142192209235915e-02
-1.650568191946634108e-02
-1.649994117141697844e-02
-1.649419967776592777e-02
-1.648845743833478317e-02
-1.648271445294506241e-02
-1.647697072141821387e-02
-1.647122624357560960e-02
-1.646548101923855228e-02
-1.645973504822827518e-02
-1.645398833036594913e-02
-1.644824086547268596e-02
-1.644249265336951774e-02
-1.643674369387740711e-02
-1.643099398681726123e-02
-1.642524353200992826e-02
-1.641949232927618352e-02
-1.641374037843673986e-02
-1.640798767931224769e-02
-1.640223423172328457e-02
-1.639648003549036906e-02
-1.639072509043393647e-02
-1.638496939637437352e-02
-1.637921295313200798e-02
-1.637345576052709820e-02
-1.636769781837982621e-02
-1.636193912651030813e-02
-1.635617968473859762e-02
-1.635041949288468938e-02
-1.634465855076849827e-02
-1.633889685820986981e-02
-1.633313441502858010e-02
-1.632737122104434974e-02
-1.632160727607683687e-02
-1.631584257994563719e-02
-1.631007713247027702e-02
-1.630431093347020979e-02
-1.629854398276484040e-02
-1.629277628017351473e-02
-1.628700782551550930e-02
-1.628123861861004509e-02
-1.627546865927630149e-02
-1.626969794733340580e-02
-1.626392648260043330e-02
-1.625815426489639337e-02
-1.625238129404023985e-02
-1.624660756985087454e-02
-1.624083309214714721e-02
-1.623505786074785212e-02
-1.622928187547173495e-02
-1.622350513613748935e-02
-1.621772764256376731e-02
-1.621194939456916881e-02
-1.620617039197224177e-02
-1.620039063459146819e-02
-1.619461012224527804e-02
-1.618882885475205619e-02
-1.618304683193014931e-02
-1.617726405359784514e-02
-1.617148051957338628e-02
-1.616569622967497372e-02
-1.615991118372076679e-02
-1.615412538152889016e-02
-1.614833882291742684e-02
-1.614255150770442168e-02
-1.613676343570787097e-02
-1.613097460674572589e-02
-1.612518502063589598e-02
-1.611939467719625263e-02
-1.611360357624462211e-02
-1.610781171759878561e-02
-1.610201910107649306e-02
-1.609622572649545627e-02
-1.609043159367335579e-02
-1.608463670242782709e-02
-1.607884105257646398e-02
-1.607304464393683949e-02
-1.606724747632649886e-02
-1.606144954956294918e-02
-1.605565086346366979e-02
-1.604985141784610186e-02
-1.604405121252764493e-02
-1.603825024732566731e-02
-1.603244852205750262e-02
-1.602664603654044631e-02
-1.602084279059175567e-02
-1.601503878402866024e-02
-1.600923401666835832e-02
-1.600342848832801354e-02
-1.599762219882474787e-02
-1.599181514797565554e-02
-1.598600733559779261e-02
-1.598019876150818391e-02
-1.597438942552383001e-02
-1.596857932746170022e-02
-1.596276846713873612e-02
-1.595695684437185846e-02
-1.595114445897795677e-02
-1.594533131077389976e-02
-1.593951739957653185e-02
-1.593370272520266626e-02
-1.592788728746908841e-02
-1.592207108619255601e-02
-1.591625412118980593e-02
-1.591043639227755421e-02
-1.590461789927249611e-02
-1.589879864199129564e-02
-1.589297862025059946e-02
-1.588715783386703342e-02
-1.588133628265719910e-02
-1.587551396643767723e-02
-1.586969088502502775e-02
-1.586386703823579325e-02
-1.585804242588649896e-02
-1.585221704779365623e-02
-1.584639090377376949e-02
-1.584056399364332582e-02
-1.583473631721880187e-02
-1.582890787431666738e-02
-1.582307866475338165e-02
-1.581724868834539707e-02
-1.581141794490916255e-02
-1.580558643426111659e-02
-1.579975415621769769e-02
-1.579392111059534434e-02
-1.578808729721048118e-02
-1.578225271587952588e-02
-1.577641736641888573e-02
-1.577058124864495411e-02
-1.576474436237411750e-02
-1.575890670742276928e-02
-1.575306828360729244e-02
-1.574722909074407345e-02
-1.574138912864949877e-02
-1.573554839713996872e-02
-1.572970689603189060e-02
-1.572386462514167166e-02
-1.571802158428572613e-02
-1.571217777328048210e-02
-1.570633319194236072e-02
-1.570048784008778661e-02
-1.569464171753319134e-02
-1.568879482409502035e-02
-1.568294715958973989e-02
-1.567709872383381969e-02
-1.567124951664373295e-02
-1.566539953783596326e-02
-1.565954878722699423e-02
-1.565369726463331293e-02
-1.564784496987142726e-02
-1.564199190275786591e-02
-1.563613806310917148e-02
-1.563028345074189696e-02
-1.562442806547260747e-02
-1.561857190711788551e-02
-1.561271497549433264e-02
-1.560685727041856603e-02
-1.560099879170722716e-02
-1.559513953917697308e-02
-1.558927951264448171e-02
-1.558341871192644133e-02
-1.557755713683955934e-02
-1.557169478720056045e-02
-1.556583166282618676e-02
-1.555996776353319941e-02
-1.555410308913838038e-02
-1.554823763945853941e-02
-1.554237141431050878e-02
-1.553650441351115026e-02
-1.553063663687734644e-02
-1.552476808422600940e-02
-1.551889875537407031e-02
-1.551302865013849328e-02
-1.550715776833626151e-02
-1.550128610978438598e-02
-1.549541367429991059e-02
-1.548954046169990530e-02
-1.548366647180147646e-02
-1.547779170442176166e-02
-1.547191615937794189e-02
-1.546603983648723452e-02
-1.546016273556689510e-02
-1.545428485643420349e-02
-1.544840619890647943e-02
-1.544252676280108427e-02
-1.543664654793541410e-02
-1.543076555412690835e-02
-1.542488378119304289e-02
-1.541900122895133521e-02
-1.541311789721933230e-02
-1.540723378581461932e-02
-1.540134889455482131e-02
-1.539546322325759629e-02
-1.538957677174064044e-02
-1.538368953982169676e-02
-1.537780152731855858e-02
-1.537191273404906952e-02
-1.536602315983112872e-02
-1.536013280448268563e-02
-1.535424166782173479e-02
-1.534834974966632973e-02
-1.534245704983457602e-02
-1.533656356814463301e-02
-1.533066930441470861e-02
-1.532477425846305932e-02
-1.531887843010799020e-02
-1.531298181916785663e-02
-1.530708442546106426e-02
-1.530118624880608298e-02
-1.529528728902143468e-02
-1.528938754592570719e-02
-1.528348701933754210e-02
