2.173992843981850664e-02
2.173752603754729520e-02
2.173512305302017708e-02
2.173271948650840404e-02
2.173031533828331460e-02
2.172791060861633400e-02
2.172550529777898115e-02
2.172309940604286865e-02
2.172069293367969584e-02
2.171828588096123488e-02
2.171587824815934473e-02
2.171347003554597102e-02
2.171106124339313576e-02
2.170865187197294766e-02
2.170624192155759871e-02
2.170383139241935030e-02
2.170142028483054014e-02
2.169900859906359614e-02
2.169659633539101212e-02
2.169418349408534785e-02
2.169177007541923594e-02
2.168935607966539572e-02
2.168694150709662635e-02
2.168452635798579289e-02
2.168211063260582980e-02
2.167969433122975478e-02
2.167727745413067925e-02
2.167486000158179438e-02
2.167244197385634688e-02
2.167002337122764591e-02
2.166760419396909082e-02
2.166518444235413648e-02
2.166276411665631757e-02
2.166034321714921732e-02
2.165792174410648141e-02
2.165549969780184575e-02
2.165307707850912255e-02
2.165065388650220038e-02
2.164823012205501634e-02
2.164580578544157002e-02
2.164338087693591997e-02
2.164095539681218025e-02
2.163852934534453779e-02
2.163610272280721419e-02
2.163367552947449354e-02
2.163124776562071888e-02
2.162881943152028530e-02
2.162639052744764340e-02
2.162396105367730623e-02
2.162153101048384235e-02
2.161910039814188625e-02
2.161666921692611751e-02
2.161423746711125735e-02
2.161180514897207902e-02
2.160937226278342518e-02
2.160693880882020440e-02
2.160450478735740504e-02
2.160207019867008138e-02
2.159963504303333628e-02
2.159719932072235241e-02
2.159476303201238179e-02
2.159232617717872851e-02
2.158988875649674177e-02
2.158745077024182973e-02
2.158501221868945261e-02
2.158257310211512264e-02
2.158013342079442495e-02
2.157769317500298975e-02
2.157525236501649582e-02
2.157281099111069481e-02
2.157036905356138345e-02
2.156792655264442096e-02
2.156548348863571163e-02
2.156303986181121526e-02
2.156059567244694719e-02
2.155815092081896436e-02
2.155570560720336537e-02
2.155325973187629043e-02
2.155081329511391100e-02
2.154836629719244362e-02
2.154591873838813954e-02
2.154347061897728469e-02
2.154102193923621011e-02
2.153857269944127462e-02
2.153612289986888556e-02
2.153367254079549889e-02
2.153122162249761912e-02
2.152877014525178892e-02
2.152631810933458914e-02
2.152386551502263531e-02
2.152141236259257767e-02
2.151895865232110114e-02
2.151650438448492533e-02
2.151404955936081845e-02
2.151159417722559378e-02
2.150913823835610625e-02
2.150668174302925589e-02
2.150422469152196356e-02
2.150176708411120907e-02
2.149930892107401390e-02
2.149685020268744112e-02
2.149439092922858160e-02
2.149193110097456783e-02
2.148947071820258778e-02
2.148700978118987109e-02
2.148454829021367168e-02
2.148208624555126775e-02
2.147962364747997913e-02
2.147716049627714993e-02
2.147469679222016245e-02
2.147223253558643713e-02
2.146976772665344299e-02
2.146730236569868722e-02
2.146483645299971169e-02
2.146236998883408950e-02
2.145990297347942846e-02
2.145743540721334330e-02
2.145496729031345570e-02
2.145249862305743244e-02
2.145002940572298192e-02
2.144755963858782991e-02
2.144508932192972298e-02
2.144261845602643893e-02
2.144014704115578332e-02
2.143767507759560334e-02
2.143520256562376006e-02
2.143272950551815617e-02
2.143025589755671867e-02
2.142778174201738495e-02
2.142530703917810628e-02
2.142283178931684781e-02
2.142035599271155735e-02
2.141787964964018964e-02
2.141540276038072371e-02
2.141292532521116287e-02
2.141044734440953126e-02
2.140796881825387382e-02
2.140548974702224244e-02
2.140301013099268207e-02
2.140052997044324459e-02
2.139804926565199925e-02
2.139556801689701526e-02
2.139308622445636535e-02
2.139060388860812914e-02
2.138812100963041751e-02
2.138563758780135521e-02
2.138315362339908085e-02
2.138066911670171918e-02
2.137818406798739149e-02
2.137569847753424332e-02
2.137321234562042371e-02
2.137072567252408170e-02
2.136823845852335937e-02
2.136575070389638148e-02
2.136326240892127276e-02
2.136077357387616837e-02
2.135828419903917919e-02
2.135579428468841953e-02
2.135330383110202804e-02
2.135081283855813986e-02
2.134832130733489361e-02
2.134582923771044527e-02
2.134333662996292999e-02
2.134084348437047252e-02
2.133834980121116984e-02
2.133585558076310507e-02
2.133336082330434744e-02
2.133086552911294190e-02
2.132836969846690911e-02
2.132587333164425586e-02
2.132337642892297505e-02
2.132087899058104224e-02
2.131838101689642606e-02
2.131588250814706390e-02
2.131338346461087926e-02
2.131088388656577487e-02
2.130838377428963260e-02
2.130588312806033433e-02
2.130338194815572725e-02
2.130088023485365856e-02
2.129837798843197891e-02
2.129587520916852161e-02
2.129337189734109917e-02
2.129086805322749631e-02
2.128836367710548738e-02
2.128585876925283629e-02
2.128335332994729309e-02
2.128084735946658007e-02
2.127834085808839523e-02
2.127583382609041229e-02
2.127332626375027028e-02
2.127081817134557351e-02
2.126830954915389857e-02
2.126580039745279427e-02
2.126329071651976432e-02
2.126078050663226388e-02
2.125826976806771337e-02
2.125575850110348469e-02
2.125324670601690460e-02
2.125073438308525131e-02
2.124822153258576138e-02
2.124570815479564709e-02
2.124319424999207215e-02
2.124067981845217598e-02
2.123816486045305985e-02
2.123564937627178684e-02
2.123313336618537495e-02
2.123061683047080053e-02
2.122809976940500179e-02
2.122558218326488569e-02
2.122306407232731409e-02
2.122054543686911765e-02
2.121802627716708189e-02
2.121550659349796461e-02
2.121298638613848889e-02
2.121046565536532577e-02
2.120794440145510121e-02
2.120542262468438216e-02
2.120290032532969743e-02
2.120037750366752377e-02
2.119785415997430325e-02
2.119533029452643977e-02
2.119280590760029559e-02
2.119028099947218094e-02
2.118775557041834012e-02
2.118522962071497581e-02
2.118270315063823517e-02
2.118017616046422372e-02
2.117764865046899148e-02
2.117512062092854336e-02
2.117259207211882530e-02
2.117006300431572771e-02
2.116753341779508205e-02
2.116500331283268505e-02
2.116247268970426060e-02
2.115994154868547361e-02
2.115740989005190920e-02
2.115487771407907266e-02
2.115234502104242423e-02
2.114981181121736512e-02
2.114727808487925839e-02
2.114474384230341161e-02
2.114220908376507682e-02
2.113967380953945402e-02
2.113713801990168076e-02
2.113460171512682867e-02
2.113206489548990000e-02
2.112952756126581025e-02
2.112698971272941595e-02
2.112445135015549383e-02
2.112191247381875123e-02
2.111937308399383650e-02
2.111683318095531475e-02
2.111429276497767474e-02
2.111175183633534277e-02
2.110921039530266191e-02
2.110666844215391275e-02
2.110412597716329955e-02
2.110158300060493985e-02
2.109903951275287140e-02
2.109649551388106947e-02
2.109395100426345038e-02
2.109140598417387838e-02
2.108886045388613448e-02
2.108631441367393375e-02
2.108376786381090107e-02
2.108122080457056763e-02
2.107867323622636749e-02
2.107612515905165143e-02
2.107357657331967310e-02
2.107102747930357858e-02
2.106847787727644805e-02
2.106592776751128882e-02
2.106337715028102145e-02
2.106082602585846938e-02
2.105827439451636932e-02
2.105572225652738508e-02
2.105316961216409724e-02
2.105061646169898576e-02
2.104806280540444038e-02
2.104550864355277454e-02
2.104295397641621143e-02
2.104039880426688408e-02
2.103784312737685264e-02
2.103528694601809051e-02
2.103273026046249133e-02
2.103017307098186892e-02
2.102761537784794688e-02
2.102505718133233087e-02
2.102249848170653287e-02
2.101993927924196773e-02
2.101737957420995659e-02
2.101481936688171306e-02
2.101225865752835709e-02
2.100969744642090103e-02
2.100713573383026014e-02
2.100457352002725250e-02
2.100201080528261294e-02
2.099944758986697912e-02
2.099688387405087425e-02
2.099431965810472436e-02
2.099175494229887570e-02
2.098918972690355655e-02
2.098662401218889112e-02
2.098405779842490645e-02
2.098149108588151512e-02
2.097892387482851520e-02
2.097635616553562149e-02
2.097378795827246206e-02
2.097121925330854356e-02
2.096865005091326506e-02
2.096608035135593892e-02
2.096351015490577688e-02
2.096093946183190046e-02
2.095836827240331324e-02
2.095579658688889735e-02
2.095322440555742738e-02
2.095065172867757383e-02
2.094807855651788578e-02
2.094550488934681862e-02
2.094293072743272366e-02
2.094035607104384467e-02
2.093778092044831438e-02
2.093520527591416838e-02
2.093262913770934860e-02
2.093005250610167553e-02
2.092747538135887250e-02
2.092489776374854143e-02
2.092231965353817322e-02
2.091974105099513037e-02
2.091716195638666786e-02
2.091458236997991577e-02
2.091200229204188965e-02
2.090942172283948020e-02
2.090684066263944971e-02
2.090425911170845988e-02
2.090167707031303362e-02
2.089909453871956549e-02
2.089651151719430777e-02
2.089392800600338440e-02
2.089134400541280134e-02
2.088875951568843620e-02
2.088617453709603819e-02
2.088358906990122818e-02
2.088100311436951254e-02
2.087841667076627619e-02
2.087582973935678612e-02
2.087324232040619482e-02
2.087065441417955067e-02
2.086806602094177024e-02
2.086547714095766254e-02
2.086288777449189086e-02
2.086029792180900400e-02
2.085770758317342932e-02
2.085511675884946931e-02
2.085252544910129111e-02
2.084993365419294392e-02
2.084734137438834511e-02
2.084474860995129408e-02
2.084215536114546533e-02
2.083956162823439456e-02
2.083696741148147874e-02
2.083437271114996908e-02
2.083177752750297804e-02
2.082918186080348621e-02
2.082658571131433892e-02
2.082398907929824960e-02
2.082139196501779990e-02
2.081879436873544653e-02
2.081619629071350744e-02
2.081359773121416873e-02
2.081099869049948467e-02
2.080839916883138463e-02
2.080579916647165920e-02
2.080319868368196018e-02
2.080059772072380062e-02
2.079799627785855129e-02
2.079539435534744074e-02
2.079279195345155873e-02
2.079018907243185624e-02
2.078758571254914547e-02
2.078498187406411027e-02
2.078237755723730262e-02
2.077977276232913229e-02
2.077716748959987023e-02
2.077456173930964517e-02
2.077195551171844359e-02
2.076934880708610973e-02
2.076674162567235596e-02
2.076413396773675937e-02
2.076152583353876868e-02
2.075891722333768688e-02
2.075630813739268166e-02
2.075369857596277845e-02
2.075108853930685004e-02
2.074847802768363045e-02
2.074586704135170795e-02
2.074325558056952512e-02
2.074064364559538923e-02
2.073803123668747223e-02
2.073541835410378995e-02
2.073280499810221250e-02
2.073019116894048858e-02
2.072757686687621767e-02
2.072496209216684315e-02
2.072234684506965227e-02
2.071973112584179696e-02
2.071711493474027305e-02
2.071449827202192021e-02
2.071188113794343935e-02
2.070926353276138915e-02
2.070664545673216519e-02
2.070402691011203125e-02
2.070140789315711230e-02
2.069878840612339455e-02
2.069616844926672888e-02
2.069354802284283784e-02
2.069092712710729823e-02
2.068830576231553767e-02
2.068568392872285194e-02
2.068306162658438765e-02
2.068043885615515956e-02
2.067781561769004711e-02
2.067519191144378751e-02
2.067256773767097225e-02
2.066994309662604362e-02
2.066731798856328434e-02
2.066469241373682098e-02
2.066206637240064481e-02
2.065943986480859446e-02
2.065681289121436628e-02
2.065418545187151095e-02
2.065155754703343685e-02
2.064892917695339974e-02
2.064630034188449925e-02
2.064367104207968581e-02
2.064104127779175721e-02
2.063841104927337244e-02
2.063578035677704828e-02
2.063314920055514534e-02
2.063051758085987161e-02
2.062788549794327894e-02
2.062525295205727000e-02
2.062261994345361560e-02
2.061998647238394086e-02
2.061735253909972865e-02
2.061471814385230569e-02
2.061208328689284608e-02
2.060944796847236776e-02
2.060681218884172911e-02
2.060417594825162541e-02
2.060153924695260277e-02
2.059890208519505814e-02
2.059626446322924270e-02
2.059362638130524115e-02
2.059098783967298896e-02
2.058834883858227244e-02
2.058570937828272523e-02
2.058306945902382140e-02
2.058042908105488233e-02
2.057778824462506984e-02
2.057514694998339999e-02
2.057250519737873970e-02
2.056986298705979280e-02
2.056722031927511046e-02
2.056457719427308428e-02
2.056193361230193931e-02
2.055928957360973405e-02
2.055664507844438826e-02
2.055400012705366902e-02
2.055135471968519770e-02
2.054870885658644647e-02
2.054606253800472446e-02
2.054341576418719506e-02
2.054076853538086903e-02
2.053812085183259750e-02
2.053547271378907552e-02
2.053282412149684544e-02
2.053017507520227963e-02
2.052752557515160128e-02
2.052487562159087744e-02
2.052222521476602946e-02
2.051957435492283641e-02
2.051692304230692127e-02
2.051427127716375087e-02
2.051161905973863248e-02
2.050896639027672066e-02
2.050631326902302431e-02
2.050365969622238924e-02
2.050100567211950511e-02
2.049835119695891938e-02
2.049569627098501295e-02
2.049304089444200713e-02
2.049038506757396016e-02
2.048772879062476723e-02
2.048507206383815699e-02
2.048241488745769501e-02
2.047975726172679076e-02
2.047709918688869410e-02
2.047444066318650571e-02
2.047178169086318403e-02
2.046912227016152788e-02
2.046646240132417999e-02
2.046380208459362693e-02
2.046114132021218876e-02
2.045848010842202941e-02
2.045581844946515668e-02
2.045315634358341877e-02
2.045049379101851472e-02
2.044783079201199089e-02
2.044516734680523057e-02
2.044250345563945748e-02
2.043983911875574613e-02
2.043717433639502534e-02
2.043450910879807819e-02
2.043184343620554552e-02
2.042917731885790858e-02
2.042651075699549942e-02
2.042384375085849746e-02
2.042117630068693290e-02
2.041850840672068679e-02
2.041584006919948749e-02
2.041317128836290032e-02
2.041050206445034834e-02
2.040783239770109503e-02
2.040516228835424772e-02
2.040249173664875071e-02
2.039982074282340602e-02
2.039714930711686997e-02
2.039447742976764968e-02
2.039180511101409271e-02
2.038913235109439392e-02
2.038645915024659555e-02
2.038378550870859063e-02
2.038111142671812648e-02
2.037843690451280124e-02
2.037576194233007426e-02
2.037308654040725225e-02
2.037041069898148232e-02
2.036773441828975892e-02
2.036505769856891690e-02
2.036238054005564888e-02
2.035970294298649827e-02
2.035702490759786973e-02
2.035434643412601177e-02
2.035166752280702374e-02
2.034898817387683842e-02
2.034630838757122903e-02
2.034362816412581959e-02
2.034094750377608146e-02
2.033826640675732642e-02
2.033558487330471357e-02
2.033290290365326325e-02
2.033022049803784662e-02
2.032753765669318563e-02
2.032485437985385654e-02
2.032217066775427253e-02
2.031948652062870453e-02
2.031680193871126389e-02
2.031411692223591969e-02
2.031143147143649186e-02
2.030874558654665457e-02
2.030605926779994325e-02
2.030337251542974758e-02
2.030068532966931849e-02
2.029799771075175424e-02
2.029530965891000044e-02
2.029262117437685004e-02
2.028993225738495373e-02
2.028724290816679918e-02
2.028455312695471788e-02
2.028186291398088870e-02
2.027917226947734131e-02
2.027648119367593885e-02
2.027378968680840915e-02
2.027109774910633780e-02
2.026840538080115078e-02
2.026571258212411103e-02
2.026301935330634268e-02
2.026032569457882071e-02
2.025763160617235700e-02
2.025493708831762468e-02
2.025224214124515462e-02
2.024954676518533545e-02
2.024685096036841006e-02
2.024415472702448607e-02
2.024145806538352882e-02
2.023876097567536489e-02
2.023606345812968207e-02
2.023336551297603286e-02
2.023066714044383443e-02
2.022796834076235478e-02
2.022526911416071271e-02
2.022256946086788479e-02
2.021986938111269144e-02
2.021716887512381780e-02
2.021446794312982062e-02
2.021176658535913176e-02
2.020906480204004776e-02
2.020636259340072988e-02
2.020365995966919709e-02
2.020095690107332614e-02
2.019825341784085848e-02
2.019554951019938982e-02
2.019284517837639098e-02
2.019014042259918706e-02
2.018743524309496093e-02
2.018472964009076012e-02
2.018202361381349341e-02
2.017931716448993079e-02
2.017661029234669653e-02
2.017390299761029349e-02
2.017119528050708918e-02
2.016848714126330544e-02
2.016577858010501836e-02
2.016306959725817222e-02
2.016036019294859330e-02
2.015765036740196220e-02
2.015494012084382072e-02
2.015222945349957537e-02
2.014951836559451120e-02
2.014680685735379187e-02
2.014409492900244222e-02
2.014138258076534835e-02
2.013866981286725755e-02
2.013595662553279569e-02
2.013324301898645335e-02
2.013052899345259966e-02
2.012781454915547538e-02
2.012509968631918944e-02
2.012238440516771198e-02
2.011966870592489520e-02
2.011695258881446291e-02
2.011423605406001056e-02
2.011151910188500869e-02
2.010880173251278560e-02
2.010608394616653777e-02
2.010336574306933327e-02
2.010064712344411877e-02
2.009792808751372298e-02
2.009520863550084621e-02
2.009248876762806738e-02
2.008976848411784741e-02
2.008704778519252235e-02
2.008432667107429639e-02
2.008160514198524538e-02
2.007888319814731676e-02
2.007616083978232269e-02
2.007343806711193307e-02
2.007071488035768250e-02
2.006799127974098762e-02
2.006526726548312281e-02
2.006254283780523756e-02
2.005981799692836687e-02
2.005709274307342777e-02
2.005436707646122280e-02
2.005164099731242960e-02
2.004891450584761134e-02
2.004618760228720625e-02
2.004346028685153464e-02
2.004073255976079534e-02
2.003800442123506234e-02
2.003527587149427427e-02
2.003254691075824490e-02
2.002981753924666306e-02
2.002708775717911005e-02
2.002435756477504575e-02
2.002162696225381899e-02
2.001889594983466067e-02
2.001616452773670105e-02
2.001343269617895243e-02
2.001070045538031958e-02
2.000796780555958929e-02
2.000523474693543385e-02
2.000250127972641456e-02
1.999976740415097473e-02
1.999703312042743972e-02
1.999429842877401345e-02
1.999156332940878536e-02
1.998882782254974427e-02
1.998609190841475411e-02
1.998335558722155736e-02
1.998061885918778896e-02
1.997788172453096936e-02
1.997514418346850451e-02
1.997240623621767894e-02
1.996966788299565226e-02
1.996692912401948003e-02
1.996418995950608941e-02
1.996145038967231736e-02
1.995871041473489330e-02
1.995597003491043214e-02
1.995322925041543780e-02
1.995048806146631007e-02
1.994774646827934123e-02
1.994500447107072291e-02
1.994226207005653576e-02
1.993951926545276324e-02
1.993677605747528128e-02
1.993403244633987215e-02
1.993128843226221400e-02
1.992854401545787399e-02
1.992579919614231518e-02
1.992305397453088614e-02
1.992030835083882095e-02
1.991756232528124615e-02
1.991481589807319111e-02
1.991206906942957072e-02
1.990932183956518192e-02
1.990657420869470715e-02
1.990382617703271781e-02
1.990107774479366737e-02
1.989832891219189825e-02
1.989557967944164188e-02
1.989283004675703251e-02
1.989008001435210032e-02
1.988732958244077142e-02
1.988457875123687477e-02
1.988182752095413869e-02
1.987907589180619092e-02
1.987632386400655510e-02
1.987357143776864038e-02
1.987081861330575530e-02
1.986806539083111126e-02
1.986531177055782249e-02
1.986255775269891305e-02
1.985980333746730289e-02
1.985704852507582871e-02
1.985429331573722658e-02
1.985153770966413891e-02
1.984878170706911443e-02
1.984602530816459084e-02
1.984326851316292259e-02
1.984051132227637043e-02
1.983775373571711534e-02
1.983499575369723419e-02
1.983223737642870674e-02
1.982947860412342250e-02
1.982671943699317041e-02
1.982395987524964223e-02
1.982119991910442913e-02
1.981843956876903207e-02
1.981567882445485138e-02
1.981291768637320413e-02
1.981015615473531027e-02
1.980739422975228911e-02
1.980463191163516629e-02
1.980186920059488070e-02
1.979910609684228454e-02
1.979634260058814321e-02
1.979357871204312849e-02
1.979081443141781152e-02
1.978804975892267670e-02
1.978528469476811130e-02
1.978251923916440891e-02
1.977975339232179025e-02
1.977698715445037198e-02
1.977422052576018399e-02
1.977145350646117294e-02
1.976868609676319527e-02
1.976591829687602067e-02
1.976315010700933558e-02
1.976038152737273970e-02
1.975761255817574599e-02
1.975484319962779456e-02
1.975207345193823877e-02
1.974930331531635219e-02
1.974653278997132860e-02
1.974376187611227504e-02
1.974099057394820833e-02
1.973821888368806898e-02
1.973544680554070729e-02
1.973267433971487989e-02
1.972990148641927399e-02
1.972712824586249011e-02
1.972435461825304895e-02
1.972158060379939487e-02
1.971880620270989246e-02
1.971603141519283342e-02
1.971325624145641581e-02
1.971048068170874398e-02
1.970770473615784252e-02
1.970492840501165618e-02
1.970215168847806383e-02
1.969937458676486453e-02
1.969659710007978445e-02
1.969381922863046308e-02
1.969104097262446007e-02
1.968826233226926223e-02
1.968548330777227309e-02
1.968270389934083722e-02
1.967992410718220550e-02
1.967714393150355595e-02
1.967436337251200415e-02
1.967158243041458587e-02
1.966880110541826404e-02
1.966601939772993912e-02
1.966323730755643179e-02
1.966045483510448291e-02
1.965767198058076745e-02
1.965488874419189444e-02
1.965210512614441046e-02
1.964932112664479272e-02
1.964653674589944207e-02
1.964375198411468654e-02
1.964096684149678126e-02
1.963818131825189814e-02
1.963539541458612925e-02
1.963260913070550423e-02
1.962982246681597986e-02
1.962703542312344701e-02
1.962424799983373408e-02
1.962146019715259662e-02
1.961867201528571733e-02
1.961588345443870257e-02
1.961309451481710320e-02
1.961030519662641455e-02
1.960751550007206259e-02
1.960472542535941082e-02
1.960193497269375335e-02
1.959914414228031837e-02
1.959635293432427858e-02
1.959356134903074420e-02
1.959076938660475956e-02
1.958797704725130651e-02
1.958518433117530447e-02
1.958239123858161040e-02
1.957959776967501883e-02
1.957680392466027569e-02
1.957400970374205407e-02
1.957121510712496459e-02
1.956842013501354505e-02
1.956562478761227075e-02
1.956282906512556499e-02
1.956003296775779554e-02
1.955723649571326772e-02
1.955443964919623134e-02
1.955164242841086683e-02
1.954884483356130256e-02
1.954604686485161141e-02
1.954324852248580380e-02
1.954044980666783463e-02
1.953765071760161023e-02
1.953485125549098492e-02
1.953205142053975399e-02
1.952925121295167113e-02
1.952645063293044145e-02
1.952364968067971454e-02
1.952084835640308449e-02
1.951804666030409335e-02
1.951524459258621724e-02
1.951244215345288024e-02
1.950963934310744746e-02
1.950683616175322155e-02
1.950403260959346699e-02
1.950122868683141011e-02
1.949842439367021479e-02
1.949561973031299980e-02
1.949281469696283187e-02
1.949000929382273262e-02
1.948720352109567511e-02
1.948439737898457688e-02
1.948159086769229650e-02
1.947878398742164049e-02
1.947597673837535293e-02
1.947316912075612930e-02
1.947036113476663041e-02
1.946755278060946850e-02
1.946474405848721070e-02
1.946193496860237557e-02
1.945912551115744349e-02
1.945631568635484282e-02
1.945350549439695334e-02
1.945069493548609585e-02
1.944788400982455645e-02
1.944507271761456921e-02
1.944226105905831961e-02
1.943944903435793417e-02
1.943663664371548042e-02
1.943382388733297036e-02
1.943101076541236052e-02
1.942819727815556577e-02
1.942538342576446628e-02
1.942256920844089366e-02
1.941975462638664482e-02
1.941693967980346811e-02
1.941412436889307022e-02
1.941130869385712665e-02
1.940849265489727471e-02
1.940567625221511355e-02
1.940285948601220417e-02
1.940004235649007286e-02
1.939722486385021122e-02
1.939440700829409003e-02
1.939158879002313152e-02
1.938877020923872319e-02
1.938595126614222133e-02
1.938313196093493021e-02
1.938031229381811590e-02
1.937749226499301675e-02
1.937467187466082943e-02
1.937185112302272638e-02
1.936903001027984877e-02
1.936620853663331004e-02
1.936338670228418893e-02
1.936056450743353294e-02
1.935774195228234795e-02
1.935491903703159128e-02
1.935209576188219247e-02
1.934927212703504637e-02
1.934644813269102703e-02
1.934362377905098768e-02
1.934079906631575030e-02
1.933797399468609179e-02
1.933514856436275436e-02
1.933232277554646286e-02
1.932949662843792479e-02
1.932667012323781644e-02
1.932384326014678286e-02
1.932101603936544482e-02
1.931818846109439533e-02
1.931536052553420313e-02
1.931253223288540224e-02
1.930970358334848508e-02
1.930687457712391281e-02
1.930404521441212579e-02
1.930121549541353662e-02
1.929838542032854404e-02
1.929555498935752247e-02
1.929272420270080821e-02
1.928989306055871669e-02
1.928706156313152870e-02
1.928422971061949723e-02
1.928139750322286142e-02
1.927856494114185693e-02
1.927573202457670207e-02
1.927289875372758046e-02
1.927006512879466185e-02
1.926723114997809516e-02
1.926439681747801197e-02
1.926156213149451610e-02
1.925872709222769749e-02
1.925589169987761487e-02
1.925305595464430961e-02
1.925021985672780919e-02
1.924738340632812378e-02
1.924454660364525657e-02
1.924170944887919343e-02
1.923887194222988900e-02
1.923603408389727709e-02
1.923319587408127418e-02
1.923035731298177592e-02
1.922751840079866756e-02
1.922467913773181700e-02
1.922183952398107132e-02
1.921899955974626373e-02
1.921615924522721008e-02
1.921331858062371931e-02
1.921047756613559337e-02
1.920763620196262039e-02
1.920479448830456418e-02
1.920195242536117120e-02
1.919911001333216710e-02
1.919626725241727408e-02
1.919342414281620043e-02
1.919058068472864406e-02
1.918773687835429592e-02
1.918489272389284350e-02
1.918204822154397082e-02
1.917920337150736190e-02
1.917635817398270076e-02
1.917351262916966101e-02
1.917066673726790932e-02
1.916782049847711583e-02
1.916497391299694722e-02
1.916212698102706322e-02
1.915927970276712008e-02
1.915643207841674980e-02
1.915358410817558435e-02
1.915073579224324876e-02
1.914788713081936808e-02
1.914503812410357428e-02
1.914218877229548893e-02
1.913933907559473013e-02
1.913648903420092293e-02
1.913363864831369235e-02
1.913078791813264956e-02
1.912793684385739879e-02
1.912508542568754424e-02
1.912223366382267628e-02
1.911938155846237483e-02
1.911652910980621983e-02
1.911367631805379122e-02
1.911082318340467240e-02
1.910796970605845024e-02
1.910511588621472204e-02
1.910226172407308853e-02
1.909940721983315395e-02
1.909655237369451905e-02
1.909369718585679498e-02
1.909084165651959986e-02
1.908798578588256911e-02
1.908512957414533473e-02
1.908227302150752175e-02
1.907941612816876908e-02
1.907655889432871565e-02
1.907370132018702813e-02
1.907084340594336971e-02
1.906798515179740708e-02
1.906512655794881037e-02
1.906226762459725318e-02
1.905940835194242650e-02
1.905654874018402473e-02
1.905368878952175618e-02
1.905082850015532916e-02
1.904796787228446586e-02
1.904510690610889539e-02
1.904224560182837811e-02
1.903938395964268476e-02
1.903652197975159999e-02
1.903365966235492229e-02
1.903079700765247101e-02
1.902793401584407934e-02
1.902507068712960825e-02
1.902220702170893257e-02
1.901934301978194450e-02
1.901647868154855009e-02
1.901361400720866582e-02
1.901074899696222897e-02
1.900788365100918725e-02
1.900501796954950223e-02
1.900215195278315977e-02
1.899928560091015614e-02
1.899641891413050149e-02
1.899355189264421984e-02
1.899068453665135950e-02
1.898781684635199654e-02
1.898494882194622438e-02
1.898208046363415724e-02
1.897921177161592671e-02
1.897634274609170252e-02
1.897347338726168217e-02
1.897060369532606317e-02
1.896773367048507075e-02
1.896486331293896141e-02
1.896199262288800549e-02
1.895912160053250806e-02
1.895625024607280190e-02
1.895337855970923371e-02
1.895050654164218487e-02
1.894763419207206798e-02
1.894476151119931645e-02
1.894188849922438800e-02
1.893901515634776114e-02
1.893614148276995951e-02
1.893326747869154836e-02
1.893039314431312764e-02
1.892751847983532160e-02
1.892464348545877528e-02
1.892176816138417192e-02
1.891889250781221207e-02
1.891601652494362754e-02
1.891314021297918826e-02
1.891026357211969891e-02
1.890738660256598841e-02
1.890450930451891345e-02
1.890163167817936543e-02
1.889875372374826348e-02
1.889587544142655798e-02
1.889299683141522357e-02
1.889011789391527307e-02
1.888723862912776094e-02
1.888435903725377285e-02
1.888147911849442917e-02
1.887859887305088150e-02
1.887571830112432306e-02
1.887283740291597484e-02
1.886995617862709945e-02
1.886707462845898381e-02
1.886419275261295297e-02
1.886131055129037712e-02
1.885842802469266111e-02
1.885554517302125491e-02
1.885266199647763971e-02
1.884977849526334182e-02
1.884689466957992915e-02
1.884401051962899740e-02
1.884112604561217347e-02
1.883824124773113978e-02
1.883535612618761693e-02
1.883247068118336018e-02
1.882958491292015951e-02
1.882669882159984306e-02
1.882381240742428061e-02
1.882092567059538354e-02
1.881803861131510491e-02
1.881515122978544285e-02
1.881226352620844061e-02
1.880937550078620041e-02
1.880648715372087998e-02
1.880359848521467522e-02
1.880070949546982714e-02
1.879782018468861837e-02
1.879493055307336971e-02
1.879204060082644012e-02
1.878915032815023367e-02
1.878625973524719606e-02
1.878336882231980420e-02
1.878047758957058014e-02
1.877758603720209446e-02
1.877469416541696287e-02
1.877180197441786352e-02
1.876890946440751273e-02
1.876601663558865804e-02
1.876312348816409556e-02
1.876023002233668038e-02
1.875733623830930577e-02
1.875444213628492049e-02
1.875154771646652188e-02
1.874865297905714198e-02
1.874575792425986140e-02
1.874286255227780584e-02
1.873996686331415307e-02
1.873707085757211899e-02
1.873417453525497850e-02
1.873127789656605854e-02
1.872838094170875198e-02
1.872548367088649329e-02
1.872258608430276555e-02
1.871968818216109345e-02
1.871678996466504680e-02
1.871389143201826477e-02
1.871099258442443861e-02
1.870809342208730117e-02
1.870519394521063042e-02
1.870229415399826678e-02
1.869939404865411312e-02
1.869649362938213821e-02
1.869359289638636290e-02
1.869069184987087739e-02
1.868779049003983436e-02
1.868488881709744892e-02
1.868198683124799170e-02
1.867908453269578883e-02
1.867618192164521851e-02
1.867327899830071095e-02
1.867037576286674841e-02
1.866747221554786867e-02
1.866456835654866850e-02
1.866166418607378974e-02
1.865875970432792630e-02
1.865585491151583800e-02
1.865294980784234016e-02
1.865004439351230711e-02
1.864713866873067213e-02
1.864423263370242750e-02
1.864132628863261407e-02
1.863841963372634206e-02
1.863551266918877722e-02
1.863260539522513387e-02
1.862969781204068531e-02
1.862678991984076729e-02
1.862388171883078494e-02
1.862097320921619545e-02
1.861806439120252191e-02
1.861515526499536374e-02
1.861224583080038977e-02
1.860933608882334861e-02
1.860642603927005131e-02
1.860351568234636793e-02
1.860060501825824830e-02
1.859769404721169084e-02
1.859478276941276681e-02
1.859187118506762035e-02
1.858895929438244762e-02
1.858604709756351073e-02
1.858313459481713767e-02
1.858022178634971891e-02
1.857730867236772471e-02
1.857439525307769818e-02
1.857148152868625876e-02
1.856856749940007795e-02
1.856565316542589661e-02
1.856273852697052154e-02
1.855982358424080811e-02
1.855690833744368454e-02
1.855399278678615538e-02
1.855107693247528070e-02
1.854816077471820382e-02
1.854524431372214788e-02
1.854232754969438804e-02
1.853941048284227580e-02
1.853649311337322511e-02
1.853357544149472624e-02
1.853065746741433886e-02
1.852773919133968508e-02
1.852482061347844947e-02
1.852190173403839291e-02
1.851898255322735956e-02
1.851606307125328033e-02
1.851314328832416589e-02
1.851022320464811369e-02
1.850730282043328359e-02
1.850438213588790487e-02
1.850146115122028312e-02
1.849853986663878638e-02
1.849561828235187985e-02
1.849269639856808423e-02
1.848977421549598960e-02
1.848685173334427626e-02
1.848392895232170430e-02
1.848100587263711361e-02
1.847808249449942389e-02
1.847515881811762767e-02
1.847223484370079383e-02
1.846931057145807104e-02
1.846638600159868082e-02
1.846346113433192798e-02
1.846053596986719017e-02
1.845761050841391096e-02
1.845468475018162066e-02
1.845175869537991897e-02
1.844883234421848192e-02
1.844590569690706186e-02
1.844297875365549788e-02
1.844005151467371234e-02
1.843712398017172474e-02
1.843419615035962744e-02
1.843126802544759607e-02
1.842833960564587217e-02
1.842541089116477362e-02
1.842248188221469810e-02
1.841955257900612999e-02
1.841662298174961965e-02
1.841369309065579718e-02
1.841076290593537598e-02
1.840783242779915271e-02
1.840490165645800730e-02
1.840197059212288905e-02
1.839903923500483054e-02
1.839610758531494417e-02
1.839317564326441862e-02
1.839024340906451546e-02
1.838731088292656565e-02
1.838437806506198688e-02
1.838144495568229397e-02
1.837851155499909198e-02
1.837557786322407266e-02
1.837264388056900413e-02
1.836970960724572041e-02
1.836677504346613879e-02
1.836384018944225635e-02
1.836090504538614998e-02
1.835796961150998677e-02
1.835503388802600319e-02
1.835209787514651900e-02
1.834916157308393372e-02
1.834622498205073365e-02
1.834328810225949527e-02
1.834035093392287138e-02
1.833741347725360502e-02
1.833447573246452939e-02
1.833153769976857139e-02
1.832859937937874814e-02
1.832566077150816347e-02
1.832272187637000449e-02
1.831978269417754157e-02
1.831684322514412488e-02
1.831390346948318787e-02
1.831096342740824029e-02
1.830802309913289252e-02
1.830508248487085210e-02
1.830214158483592021e-02
1.829920039924198827e-02
1.829625892830302400e-02
1.829331717223309575e-02
1.829037513124636208e-02
1.828743280555706827e-02
1.828449019537954634e-02
1.828154730092821506e-02
1.827860412241757992e-02
1.827566066006222970e-02
1.827271691407684681e-02
1.826977288467619698e-02
1.826682857207513958e-02
1.826388397648862419e-02
1.826093909813168020e-02
1.825799393721942027e-02
1.825504849396705764e-02
1.825210276858989580e-02
1.824915676130331801e-02
1.824621047232281162e-02
1.824326390186395419e-02
1.824031705014242041e-02
1.823736991737397867e-02
1.823442250377448060e-02
1.823147480955987151e-02
1.822852683494618001e-02
1.822557858014951793e-02
1.822263004538609427e-02
1.821968123087220823e-02
1.821673213682424922e-02
1.821378276345868644e-02
1.821083311099207583e-02
1.820788317964106354e-02
1.820493296962238591e-02
1.820198248115286951e-02
1.819903171444943110e-02
1.819608066972907764e-02
1.819312934720889938e-02
1.819017774710606980e-02
1.818722586963785609e-02
1.818427371502161563e-02
1.818132128347479948e-02
1.817836857521494889e-02
1.817541559045971616e-02
1.817246232942684378e-02
1.816950879233417485e-02
1.816655497939964961e-02
1.816360089084129506e-02
1.816064652687722492e-02
1.815769188772564657e-02
1.815473697360485764e-02
1.815178178473326326e-02
1.814882632132936227e-02
1.814587058361174718e-02
1.814291457179910069e-02
1.813995828611020267e-02
1.813700172676392663e-02
1.813404489397923633e-02
1.813108778797517182e-02
1.812813040897086336e-02
1.812517275718552798e-02
1.812221483283847981e-02
1.811925663614913362e-02
1.811629816733700132e-02
1.811333942662168503e-02
1.811038041422288400e-02
1.810742113036038423e-02
1.810446157525408273e-02
1.810150174912397020e-02
1.809854165219013100e-02
1.809558128467276053e-02
1.809262064679214785e-02
1.808965973876866529e-02
1.808669856082278232e-02
1.808373711317506211e-02
1.808077539604615799e-02
1.807781340965681702e-02
1.807485115422788682e-02
1.807188862998031914e-02
1.806892583713515937e-02
1.806596277591353619e-02
1.806299944653667888e-02
1.806003584922592775e-02
1.805707198420270984e-02
1.805410785168855281e-02
1.805114345190506758e-02
1.804817878507395529e-02
1.804521385141701767e-02
1.804224865115613974e-02
1.803928318451328977e-02
1.803631745171054360e-02
1.803335145297007072e-02
1.803038518851413086e-02
1.802741865856509126e-02
1.802445186334542329e-02
1.802148480307769543e-02
1.801851747798457332e-02
1.801554988828881626e-02
1.801258203421328419e-02
1.800961391598095498e-02
1.800664553381491062e-02
1.800367688793832327e-02
1.800070797857446572e-02
1.799773880594671138e-02
1.799476937027853773e-02
1.799179967179352635e-02
1.798882971071535594e-02
1.798585948726780584e-02
1.798288900167474905e-02
1.797991825416015918e-02
1.797694724494812088e-02
1.797397597426279858e-02
1.797100444232846081e-02
1.796803264936947669e-02
1.796506059561031252e-02
1.796208828127553517e-02
1.795911570658980869e-02
1.795614287177789078e-02
1.795316977706465367e-02
1.795019642267507709e-02
1.794722280883423796e-02
1.794424893576731378e-02
1.794127480369957922e-02
1.793830041285641996e-02
1.793532576346333271e-02
1.793235085574591131e-02
1.792937568992985370e-02
1.792640026624096189e-02
1.792342458490514198e-02
1.792044864614839375e-02
1.791747245019681758e-02
1.791449599727660755e-02
1.791151928761406525e-02
1.790854232143559641e-02
1.790556509896769691e-02
1.790258762043695634e-02
1.789960988607006837e-02
1.789663189609384114e-02
1.789365365073519037e-02
1.789067515022112198e-02
1.788769639477873555e-02
1.788471738463524169e-02
1.788173812001795510e-02
1.787875860115428414e-02
1.787577882827174822e-02
1.787279880159797427e-02
1.786981852136068291e-02
1.786683798778769192e-02
1.786385720110693354e-02
1.786087616154642330e-02
1.785789486933428080e-02
1.785491332469872280e-02
1.785193152786806320e-02
1.784894947907071303e-02
1.784596717853517353e-02
1.784298462649004310e-02
1.784000182316402769e-02
1.783701876878593384e-02
1.783403546358467567e-02
1.783105190778926097e-02
1.782806810162879466e-02
1.782508404533249963e-02
1.782209973912969592e-02
1.781911518324980070e-02
1.781613037792234566e-02
1.781314532337696308e-02
1.781016001984339278e-02
1.780717446755147523e-02
1.780418866673114456e-02
1.780120261761243550e-02
1.779821632042548341e-02
1.779522977540052425e-02
1.779224298276789462e-02
1.778925594275802477e-02
1.778626865560143863e-02
1.778328112152876075e-02
1.778029334077071977e-02
1.777730531355816226e-02
1.777431704012203545e-02
1.777132852069338020e-02
1.776833975550333802e-02
1.776535074478313714e-02
1.776236148876411680e-02
1.775937198767772035e-02
1.775638224175549520e-02
1.775339225122909981e-02
1.775040201633029668e-02
1.774741153729094204e-02
1.774442081434299961e-02
1.774142984771853379e-02
1.773843863764970954e-02
1.773544718436879247e-02
1.773245548810814878e-02
1.772946354910024183e-02
1.772647136757763212e-02
1.772347894377299116e-02
1.772048627791908415e-02
1.771749337024876997e-02
1.771450022099500810e-02
1.771150683039086210e-02
1.770851319866947882e-02
1.770551932606410916e-02
1.770252521280811855e-02
1.769953085913495913e-02
1.769653626527818713e-02
1.769354143147145245e-02
1.769054635794851255e-02
1.768755104494322203e-02
1.768455549268953264e-02
1.768155970142150021e-02
1.767856367137329160e-02
1.767556740277917079e-02
1.767257089587349894e-02
1.766957415089074127e-02
1.766657716806545320e-02
1.766357994763229425e-02
1.766058248982602108e-02
1.765758479488148749e-02
1.765458686303364097e-02
1.765158869451753307e-02
1.764859028956832290e-02
1.764559164842126673e-02
1.764259277131172143e-02
1.763959365847514796e-02
1.763659431014711482e-02
1.763359472656329460e-02
1.763059490795945358e-02
1.762759485457145170e-02
1.762459456663524951e-02
1.762159404438691859e-02
1.761859328806262073e-02
1.761559229789861833e-02
1.761259107413128480e-02
1.760958961699708378e-02
1.760658792673257256e-02
1.760358600357441253e-02
1.760058384775936915e-02
1.759758145952430852e-02
1.759457883910620080e-02
1.759157598674209941e-02
1.758857290266915493e-02
1.758556958712460816e-02
1.758256604034579701e-02
1.757956226257016696e-02
1.757655825403527799e-02
1.757355401497879069e-02
1.757054954563844890e-02
1.756754484625209015e-02
1.756453991705763523e-02
1.756153475829309515e-02
1.755852937019657806e-02
1.755552375300628229e-02
1.755251790696048253e-02
1.754951183229755754e-02
1.754650552925598669e-02
1.754349899807435345e-02
1.754049223899133494e-02
1.753748525224569504e-02
1.753447803807628436e-02
1.753147059672204022e-02
1.752846292842199366e-02
1.752545503341527630e-02
1.752244691194112386e-02
1.751943856423886225e-02
1.751642999054791108e-02
1.751342119110778014e-02
1.751041216615807639e-02
1.750740291593850043e-02
1.750439344068884309e-02
1.750138374064899582e-02
1.749837381605895414e-02
1.749536366715880725e-02
1.749235329418873802e-02
1.748934269738902300e-02
1.748633187700003588e-02
1.748332083326224404e-02
1.748030956641621544e-02
1.747729807670260135e-02
1.747428636436214669e-02
1.747127442963569699e-02
1.746826227276418800e-02
1.746524989398864913e-02
1.746223729355020002e-02
1.745922447169006089e-02
1.745621142864953179e-02
1.745319816467000643e-02
1.745018467999296871e-02
1.744717097485999277e-02
1.744415704951274640e-02
1.744114290419298413e-02
1.743812853914254030e-02
1.743511395460332902e-02
1.743209915081734424e-02
1.742908412802666659e-02
1.742606888647347738e-02
1.742305342640004806e-02
1.742003774804872646e-02
1.741702185166194711e-02
1.741400573748224170e-02
1.741098940575223908e-02
1.740797285671465480e-02
1.740495609061227730e-02
1.740193910768798521e-02
1.739892190818473003e-02
1.739590449234556038e-02
1.739288686041362206e-02
1.738986901263214063e-02
1.738685094924443189e-02
1.738383267049388448e-02
1.738081417662397030e-02
1.737779546787824453e-02
1.737477654450034908e-02
1.737175740673401261e-02
1.736873805482304009e-02
1.736571848901131282e-02
1.736269870954278149e-02
1.735967871666146620e-02
1.735665851061147028e-02
1.735363809163696994e-02
1.735061745998222466e-02
1.734759661589156676e-02
1.734457555960939798e-02
1.734155429138020330e-02
1.733853281144854402e-02
1.733551112005905434e-02
1.733248921745644128e-02
1.732946710388549166e-02
1.732644477959107213e-02
1.732342224481812562e-02
1.732039949981166449e-02
1.731737654481676700e-02
1.731435338007858080e-02
1.731133000584232640e-02
1.730830642235329717e-02
1.730528262985685933e-02
1.730225862859845892e-02
1.729923441882361135e-02
1.729621000077790488e-02
1.729318537470700759e-02
1.729016054085667081e-02
1.728713549947272221e-02
1.728411025080105884e-02
1.728108479508765408e-02
1.727805913257856457e-02
1.727503326351993718e-02
1.727200718815798466e-02
1.726898090673899266e-02
1.726595441950931967e-02
1.726292772671539702e-02
1.725990082860372893e-02
1.725687372542088205e-02
1.725384641741349590e-02
1.725081890482827243e-02
1.724779118791199689e-02
1.724476326691152736e-02
1.724173514207378438e-02
1.723870681364576135e-02
1.723567828187452453e-02
1.723264954700720608e-02
1.722962060929099717e-02
1.722659146897314447e-02
1.722356212630096403e-02
1.722053258152183436e-02
1.721750283488320682e-02
1.721447288663261257e-02
1.721144273701765565e-02
1.720841238628600597e-02
1.720538183468541329e-02
1.720235108246369674e-02
1.719932012986872746e-02
1.719628897714844604e-02
1.719325762455085199e-02
1.719022607232401079e-02
1.718719432071605727e-02
1.718416236997518526e-02
1.718113022034965451e-02
1.717809787208778721e-02
1.717506532543796802e-02
1.717203258064864402e-02
1.716899963796832476e-02
1.716596649764557531e-02
1.716293315992902316e-02
1.715989962506736174e-02
1.715686589330935388e-02
1.715383196490383524e-02
1.715079784009971089e-02
1.714776351914595182e-02
1.714472900229160532e-02
1.714169428978577422e-02
1.713865938187763074e-02
1.713562427881639219e-02
1.713258898085132792e-02
1.712955348823177668e-02
1.712651780120714659e-02
1.712348192002691172e-02
1.712044584494060162e-02
1.711740957619780484e-02
1.711437311404817585e-02
1.711133645874142808e-02
1.710829961052732009e-02
1.710526256965565900e-02
1.710222533637630049e-02
1.709918791093916271e-02
1.709615029359422278e-02
1.709311248459150639e-02
1.709007448418109129e-02
1.708703629261312112e-02
1.708399791013778812e-02
1.708095933700534003e-02
1.707792057346608008e-02
1.707488161977037053e-02
1.707184247616861522e-02
1.706880314291127354e-02
1.706576362024886731e-02
1.706272390843196346e-02
1.705968400771118096e-02
1.705664391833718388e-02
1.705360364056068487e-02
1.705056317463244167e-02
1.704752252080326408e-02
1.704448167932401392e-02
1.704144065044559814e-02
1.703839943441896876e-02
1.703535803149513680e-02
1.703231644192515840e-02
1.702927466596014169e-02
1.702623270385122262e-02
1.702319055584958218e-02
1.702014822220645346e-02
1.701710570317311114e-02
1.701406299900087501e-02
1.701102010994111347e-02
1.700797703624523996e-02
1.700493377816471655e-02
1.700189033595103302e-02
1.699884670985571042e-02
1.699580290013032874e-02
1.699275890702652003e-02
1.698971473079596492e-02
1.698667037169038219e-02
1.698362582996152878e-02
1.698058110586119981e-02
1.697753619964121816e-02
1.697449111155342055e-02
1.697144584184967844e-02
1.696840039078191878e-02
1.696535475860211015e-02
1.696230894556225929e-02
1.695926295191441113e-02
1.695621677791065221e-02
1.695317042380311071e-02
1.695012388984394602e-02
1.694707717628534879e-02
1.694403028337954434e-02
1.694098321137879268e-02
1.693793596053537465e-02
1.693488853110159884e-02
1.693184092332979812e-02
1.692879313747232967e-02
1.692574517378158880e-02
1.692269703250999513e-02
1.691964871391000297e-02
1.691660021823409785e-02
1.691355154573478611e-02
1.691050269666459493e-02
1.690745367127607576e-02
1.690440446982181821e-02
1.690135509255443619e-02
1.689830553972657481e-02
1.689525581159089657e-02
1.689220590840009167e-02
1.688915583040687465e-02
1.688610557786399125e-02
1.688305515102421495e-02
1.688000455014035048e-02
1.687695377546523032e-02
1.687390282725170776e-02
1.687085170575264303e-02
1.686780041122093107e-02
1.686474894390948068e-02
1.686169730407122841e-02
1.685864549195913512e-02
1.685559350782617552e-02
1.685254135192535904e-02
1.684948902450970551e-02
1.684643652583224863e-02
1.684338385614603945e-02
1.684033101570413943e-02
1.683727800475963085e-02
1.683422482356560640e-02
1.683117147237518652e-02
1.682811795144151593e-02
1.682506426101774630e-02
1.682201040135703624e-02
1.681895637271256516e-02
1.681590217533752984e-02
1.681284780948515134e-02
1.680979327540866111e-02
1.680673857336130103e-02
1.680368370359633032e-02
1.680062866636701513e-02
1.679757346192662162e-02
1.679451809052841943e-02
1.679146255242569205e-02
1.678840684787174034e-02
1.678535097711985821e-02
1.678229494042334999e-02
1.677923873803551999e-02
1.677618237020967254e-02
1.677312583719912237e-02
1.677006913925718073e-02
1.676701227663717278e-02
1.676395524959242711e-02
1.676089805837628274e-02
1.675784070324208563e-02
1.675478318444319215e-02
1.675172550223295864e-02
1.674866765686473108e-02
1.674560964859184847e-02
1.674255147766764637e-02
1.673949314434546379e-02
1.673643464887862239e-02
1.673337599152042998e-02
1.673031717252419781e-02
1.672725819214321979e-02
1.672419905063078638e-02
1.672113974824018107e-02
1.671808028522468043e-02
1.671502066183755061e-02
1.671196087833203003e-02
1.670890093496135362e-02
1.670584083197874589e-02
1.670278056963743138e-02
1.669972014819062420e-02
1.669665956789152458e-02
1.669359882899332237e-02
1.669053793174919698e-02
1.668747687641232089e-02
1.668441566323585271e-02
1.668135429247293369e-02
1.667829276437669817e-02
1.667523107920027003e-02
1.667216923719675239e-02
1.666910723861923793e-02
1.666604508372080892e-02
1.666298277275451989e-02
1.665992030597341841e-02
1.665685768363053820e-02
1.665379490597889908e-02
1.665073197327150353e-02
1.664766888576132281e-02
1.664460564370131429e-02
1.664154224734441107e-02
1.663847869694351500e-02
1.663541499275149674e-02
1.663235113502120610e-02
1.662928712400546169e-02
1.662622295995705435e-02
1.662315864312874369e-02
1.662009417377325118e-02
1.661702955214326358e-02
1.661396477849143641e-02
1.661089985307040440e-02
1.660783477613278492e-02
1.660476954793115717e-02
1.660170416871807608e-02
1.659863863874606882e-02
1.659557295826762785e-02
1.659250712753522136e-02
1.658944114680130713e-02
1.658637501631829436e-02
1.658330873633855063e-02
1.658024230711440533e-02
1.657717572889816013e-02
1.657410900194207851e-02
1.657104212649838926e-02
1.656797510281929342e-02
1.656490793115696428e-02
1.656184061176354388e-02
1.655877314489113267e-02
1.655570553079179288e-02
1.655263776971753475e-02
1.654956986192033033e-02
1.654650180765209616e-02
1.654343360716472450e-02
1.654036526071007290e-02
1.653729676853996425e-02
1.653422813090618324e-02
1.653115934806045906e-02
1.652809042025447581e-02
1.652502134773986900e-02
1.652195213076822905e-02
1.651888276959110821e-02
1.651581326446003445e-02
1.651274361562648715e-02
1.650967382334189021e-02
1.650660388785761892e-02
1.650353380942500697e-02
1.650046358829534640e-02
1.649739322471987374e-02
1.649432271894977695e-02
1.649125207123618847e-02
1.648818128183018872e-02
1.648511035098280605e-02
1.648203927894502374e-02
1.647896806596777647e-02
1.647589671230194688e-02
1.647282521819836212e-02
1.646975358390779728e-02
1.646668180968096154e-02
1.646360989576850856e-02
1.646053784242103996e-02
1.645746564988908450e-02
1.645439331842310157e-02
1.645132084827349850e-02
1.644824823969062710e-02
1.644517549292477329e-02
1.644210260822616052e-02
1.643902958584497059e-02
1.643595642603132290e-02
1.643288312903528128e-02
1.642980969510683675e-02
1.642673612449591092e-02
1.642366241745237335e-02
1.642058857422603810e-02
1.641751459506665678e-02
1.641444048022392549e-02
1.641136622994747093e-02
1.640829184448686431e-02
1.640521732409160743e-02
1.640214266901113965e-02
1.639906787949482400e-02
1.639599295579196106e-02
1.639291789815178896e-02
1.638984270682349378e-02
1.638676738205619224e-02
1.638369192409893510e-02
1.638061633320071070e-02
1.637754060961044145e-02
1.637446475357698383e-02
1.637138876534911455e-02
1.636831264517554091e-02
1.636523639330489388e-02
1.636216000998574893e-02
1.635908349546661561e-02
1.635600684999593754e-02
1.635293007382207509e-02
1.634985316719330534e-02
1.634677613035783253e-02
1.634369896356378110e-02
1.634062166705918875e-02
1.633754424109200992e-02
1.633446668591012271e-02
1.633138900176132891e-02
1.632831118889335395e-02
1.632523324755384697e-02
1.632215517799038770e-02
1.631907698045048649e-02
1.631599865518157041e-02
1.631292020243099716e-02
1.630984162244604116e-02
1.630676291547391091e-02
1.630368408176174552e-02
1.630060512155660432e-02
1.629752603510547376e-02
1.629444682265527439e-02
1.629136748445285388e-02
1.628828802074499399e-02
1.628520843177840363e-02
1.628212871779970844e-02
1.627904887905546119e-02
1.627596891579213487e-02
1.627288882825612265e-02
1.626980861669374140e-02
1.626672828135122123e-02
1.626364782247470553e-02
1.626056724031026135e-02
1.625748653510386901e-02
1.625440570710142210e-02
1.625132475654873787e-02
1.624824368369154684e-02
1.624516248877548932e-02
1.624208117204611890e-02
1.623899973374890934e-02
1.623591817412925117e-02
1.623283649343244123e-02
1.622975469190368267e-02
1.622667276978809539e-02
1.622359072733070215e-02
1.622050856477644937e-02
1.621742628237020367e-02
1.621434388035673801e-02
1.621126135898072473e-02
1.620817871848674943e-02
1.620509595911931444e-02
1.620201308112283189e-02
1.619893008474162718e-02
1.619584697021994243e-02
1.619276373780191569e-02
1.618968038773160173e-02
1.618659692025296859e-02
1.618351333560991145e-02
1.618042963404622836e-02
1.617734581580561673e-02
1.617426188113167684e-02
1.617117783026793265e-02
1.616809366345782831e-02
1.616500938094471776e-02
1.616192498297186475e-02
1.615884046978242894e-02
1.615575584161946590e-02
1.615267109872593407e-02
1.614958624134470860e-02
1.614650126971856753e-02
1.614341618409020560e-02
1.614033098470221694e-02
1.613724567179710551e-02
1.613416024561727807e-02
1.613107470640504429e-02
1.612798905440262012e-02
1.612490328985212093e-02
1.612181741299556839e-02
1.611873142407488704e-02
1.611564532333191122e-02
1.611255911100837462e-02
1.610947278734591731e-02
1.610638635258607870e-02
1.610329980697029068e-02
1.610021315073988796e-02
1.609712638413610120e-02
1.609403950740008471e-02
1.609095252077289567e-02
1.608786542449549412e-02
1.608477821880876374e-02
1.608169090395349110e-02
1.607860348017036908e-02
1.607551594769998995e-02
1.607242830678284190e-02
1.606934055765930902e-02
1.606625270056968521e-02
1.606316473575416376e-02
1.606007666345283039e-02
1.605698848390568062e-02
1.605390019735260937e-02
1.605081180403341093e-02
1.604772330418778245e-02
1.604463469805532741e-02
1.604154598587554173e-02
1.603845716788782766e-02
1.603536824433149377e-02
1.603227921544576537e-02
1.602919008146977409e-02
1.602610084264254747e-02
1.602301149920301940e-02
1.601992205139003353e-02
1.601683249944233292e-02
1.601374284359856001e-02
1.601065308409726357e-02
1.600756322117690214e-02
1.600447325507583368e-02
1.600138318603231899e-02
1.599829301428451825e-02
1.599520274007049450e-02
1.599211236362820324e-02
1.598902188519549933e-02
1.598593130501014051e-02
1.598284062330979083e-02
1.597974984033200679e-02
1.597665895631423388e-02
1.597356797149383084e-02
1.597047688610805580e-02
1.596738570039406280e-02
1.596429441458889834e-02
1.596120302892950829e-02
1.595811154365272752e-02
1.595501995899527639e-02
1.595192827519378159e-02
1.594883649248477267e-02
1.594574461110466468e-02
1.594265263128975818e-02
1.593956055327624965e-02
1.593646837730023150e-02
1.593337610359767814e-02
1.593028373240446341e-02
1.592719126395634663e-02
1.592409869848896917e-02
1.592100603623787872e-02
1.591791327743852236e-02
1.591482042232623614e-02
1.591172747113625899e-02
1.590863442410371878e-02
1.590554128146363586e-02
1.590244804345092994e-02
1.589935471030040973e-02
1.589626128224678331e-02
1.589316775952465122e-02
1.589007414236851684e-02
1.588698043101277255e-02
1.588388662569171356e-02
1.588079272663953448e-02
1.587769873409032237e-02
1.587460464827804632e-02
1.587151046943656094e-02
1.586841619779962020e-02
1.586532183360087403e-02
1.586222737707385436e-02
1.585913282845198211e-02
1.585603818796859146e-02
1.585294345585689518e-02
1.584984863235000194e-02
1.584675371768091284e-02
1.584365871208251453e-02
1.584056361578756872e-02
1.583746842902874347e-02
1.583437315203861315e-02
1.583127778504964805e-02
1.582818232829421440e-02
1.582508678200457777e-02
1.582199114641289275e-02
1.581889542175120983e-02
1.581579960825146847e-02
1.581270370614551099e-02
1.580960771566508952e-02
1.580651163704183820e-02
1.580341547050728712e-02
1.580031921629286920e-02
1.579722287462989247e-02
1.579412644574956087e-02
1.579102992988297080e-02
1.578793332726110415e-02
1.578483663811483528e-02
1.578173986267492057e-02
1.577864300117201579e-02
1.577554605383667263e-02
1.577244902089933523e-02
1.576935190259032629e-02
1.576625469913986444e-02
1.576315741077805727e-02
1.576006003773488748e-02
1.575696258024024757e-02
1.575386503852393982e-02
1.575076741281566939e-02
1.574766970334503385e-02
1.574457191034152673e-02
1.574147403403453396e-02
1.573837607465333049e-02
1.573527803242707676e-02
1.573217990758483606e-02
1.572908170035557801e-02
1.572598341096816121e-02
1.572288503965134018e-02
1.571978658663377576e-02
1.571668805214402817e-02
1.571358943641054315e-02
1.571049073966165194e-02
1.570739196212557476e-02
1.570429310403042775e-02
1.570119416560422296e-02
1.569809514707486489e-02
1.569499604867016090e-02
1.569189687061782468e-02
1.568879761314547622e-02
1.568569827648065226e-02
1.568259886085079588e-02
1.567949936648322523e-02
1.567639979360515093e-02
1.567330014244367256e-02
1.567020041322578910e-02
1.566710060617839198e-02
1.566400072152827894e-02
1.566090075950215058e-02
1.565780072032660342e-02
1.565470060422811255e-02
1.565160041143305938e-02
1.564850014216773513e-02
1.564539979665833039e-02
1.564229937513094207e-02
1.563919887781156648e-02
1.563609830492610625e-02
1.563299765670035993e-02
1.562989693336002545e-02
1.562679613513071053e-02
1.562369526223792403e-02
1.562059431490707244e-02
1.561749329336344777e-02
1.561439219783225182e-02
1.561129102853858752e-02
1.560818978570745717e-02
1.560508846956375727e-02
1.560198708033227848e-02
1.559888561823771953e-02
1.559578408350467509e-02
1.559268247635764090e-02
1.558958079702102775e-02
1.558647904571914405e-02
1.558337722267620976e-02
1.558027532811634593e-02
1.557717336226356782e-02
1.557407132534178833e-02
1.557096921757481801e-02
1.556786703918636335e-02
1.556476479040003538e-02
1.556166247143934457e-02
1.555856008252769901e-02
1.555545762388841659e-02
1.555235509574472152e-02
1.554925249831973222e-02
1.554614983183647166e-02
1.554304709651786048e-02
1.553994429258672566e-02
1.553684142026578660e-02
1.553373847977766210e-02
1.553063547134487729e-02
1.552753239518985147e-02
1.552442925153490680e-02
1.552132604060227350e-02
1.551822276261409506e-02
1.551511941779241607e-02
1.551201600635918401e-02
1.550891252853626306e-02
1.550580898454542028e-02
1.550270537460831863e-02
1.549960169894652393e-02
1.549649795778151873e-02
1.549339415133468845e-02
1.549029027982733002e-02
1.548718634348064498e-02
1.548408234251573770e-02
1.548097827715361890e-02
1.547787414761521430e-02
1.547476995412136111e-02
1.547166569689279944e-02
1.546856137615016877e-02
1.546545699211401663e-02
1.546235254500479689e-02
1.545924803504287147e-02
1.545614346244850862e-02
1.545303882744187597e-02
1.544993413024305096e-02
1.544682937107203294e-02
1.544372455014873628e-02
1.544061966769299209e-02
1.543751472392454298e-02
1.543440971906303617e-02
1.543130465332802695e-02
1.542819952693897864e-02
1.542509434011526612e-02
1.542198909307617057e-02
1.541888378604089165e-02
1.541577841922854575e-02
1.541267299285816773e-02
1.540956750714870746e-02
1.540646196231902285e-02
1.540335635858789028e-02
1.540025069617399767e-02
1.539714497529595487e-02
1.539403919617228847e-02
1.539093335902144005e-02
1.538782746406175753e-02
1.538472151151150380e-02
1.538161550158886025e-02
1.537850943451191978e-02
1.537540331049869029e-02
1.537229712976709468e-02
1.536919089253498127e-02
1.536608459902012377e-02
1.536297824944021263e-02
1.535987184401284983e-02
1.535676538295554366e-02
1.535365886648571571e-02
1.535055229482070079e-02
1.534744566817775394e-02
1.534433898677405733e-02
1.534123225082670641e-02
1.533812546055270988e-02
1.533501861616899144e-02
1.533191171789239846e-02
1.532880476593970025e-02
1.532569776052758806e-02
1.532259070187266987e-02
1.531948359019146867e-02
1.531637642570043110e-02
1.531326920861591535e-02
1.531016193915420327e-02
1.530705461753150212e-02
1.530394724396394457e-02
1.530083981866758175e-02
1.529773234185837806e-02
1.529462481375223025e-02
1.529151723456496047e-02
1.528840960451231801e-02
1.528530192380997237e-02
1.528219419267351324e-02
1.527908641131845921e-02
1.527597857996025252e-02
1.527287069881426256e-02
1.526976276809577891e-02
1.526665478802001485e-02
1.526354675880211946e-02
1.526043868065717936e-02
1.525733055380020659e-02
1.525422237844614899e-02
1.525111415480988504e-02
1.524800588310621860e-02
1.524489756354987721e-02
1.524178919635552076e-02
1.523868078173773628e-02
1.523557231991102927e-02
1.523246381108983583e-02
1.522935525548851921e-02
1.522624665332137153e-02
1.522313800480261901e-02
1.522002931014641500e-02
1.521692056956685385e-02
1.521381178327796575e-02
1.521070295149371671e-02
1.520759407442801373e-02
1.520448515229469270e-02
1.520137618530753403e-02
1.519826717368025562e-02
1.519515811762651124e-02
1.519204901735989044e-02
1.518893987309392207e-02
1.518583068504207427e-02
1.518272145341774577e-02
1.517961217843427288e-02
1.517650286030493810e-02
1.517339349924295804e-02
1.517028409546149550e-02
1.516717464917364394e-02
1.516406516059242912e-02
1.516095562993081958e-02
1.515784605740171966e-02
1.515473644321796605e-02
1.515162678759233474e-02
1.514851709073753751e-02
1.514540735286622371e-02
1.514229757419098543e-02
1.513918775492435580e-02
1.513607789527881067e-02
1.513296799546677042e-02
1.512985805570059121e-02
1.512674807619257197e-02
1.512363805715495092e-02
1.512052799879990382e-02
1.511741790133954919e-02
1.511430776498595176e-02
1.511119758995111556e-02
1.510808737644699085e-02
1.510497712468547409e-02
1.510186683487840624e-02
1.509875650723756929e-02
1.509564614197467930e-02
1.509253573930140375e-02
1.508942529942936504e-02
1.508631482257012831e-02
1.508320430893519276e-02
1.508009375873600559e-02
1.507698317218396193e-02
1.507387254949039967e-02
1.507076189086660641e-02
1.506765119652381073e-02
1.506454046667317706e-02
1.506142970152581431e-02
1.505831890129277588e-02
1.505520806618505965e-02
1.505209719641360626e-02
1.504898629218930604e-02
1.504587535372299556e-02
1.504276438122545065e-02
1.503965337490739164e-02
1.503654233497949723e-02
1.503343126165239754e-02
1.503032015513668281e-02
1.502720901564289814e-02
1.502409784338153489e-02
1.502098663856303064e-02
1.501787540139777090e-02
1.501476413209608222e-02
1.501165283086823218e-02
1.500854149792445018e-02
1.500543013347490663e-02
1.500231873772972686e-02
1.499920731089899109e-02
1.499609585319273443e-02
1.499298436482094168e-02
1.498987284599355603e-02
1.498676129692046513e-02
1.498364971781151328e-02
1.498053810887649273e-02
1.497742647032515237e-02
1.497431480236719945e-02
1.497120310521228743e-02
1.496809137907002298e-02
1.496497962414996934e-02
1.496186784066165509e-02
1.495875602881456892e-02
1.495564418881815787e-02
1.495253232088182907e-02
1.494942042521494978e-02
1.494630850202683173e-02
1.494319655152673981e-02
1.494008457392389556e-02
1.493697256942746847e-02
1.493386053824659332e-02
1.493074848059035981e-02
1.492763639666782119e-02
1.492452428668798563e-02
1.492141215085982311e-02
1.491829998939226548e-02
1.491518780249419945e-02
1.491207559037448054e-02
1.490896335324192780e-02
1.490585109130531175e-02
1.490273880477335951e-02
1.489962649385474791e-02
1.489651415875811215e-02
1.489340179969205098e-02
1.489028941686511287e-02
1.488717701048579770e-02
1.488406458076257065e-02
1.488095212790386222e-02
1.487783965211806995e-02
1.487472715361354454e-02
1.487161463259859331e-02
1.486850208928148891e-02
1.486538952387047273e-02
1.486227693657375323e-02
1.485916432759949724e-02
1.485605169715583165e-02
1.485293904545085912e-02
1.484982637269264237e-02
1.484671367908921118e-02
1.484360096484855715e-02
1.484048823017862680e-02
1.483737547528732846e-02
1.483426270038252538e-02
1.483114990567203570e-02
1.482803709136363245e-02
1.482492425766504529e-02
1.482181140478396747e-02
1.481869853292805406e-02
1.481558564230493064e-02
1.481247273312218636e-02
1.480935980558737396e-02
1.480624685990801145e-02
1.480313389629158045e-02
1.480002091494552613e-02
1.479690791607725896e-02
1.479379489989414605e-02
1.479068186660352502e-02
1.478756881641269359e-02
1.478445574952891653e-02
1.478134266615942910e-02
1.477822956651142321e-02
1.477511645079205779e-02
1.477200331920846058e-02
1.476889017196771937e-02
1.476577700927688731e-02
1.476266383134297762e-02
1.475955063837297750e-02
1.475643743057384813e-02
1.475332420815252642e-02
1.475021097131590936e-02
1.474709772027086099e-02
1.474398445522421414e-02
1.474087117638276864e-02
1.473775788395329141e-02
1.473464457814251984e-02
1.473153125915716184e-02
1.472841792720388718e-02
1.472530458248933437e-02
1.472219122522011071e-02
1.471907785560278015e-02
1.471596447384387711e-02
1.471285108014990482e-02
1.470973767472734395e-02
1.470662425778263872e-02
1.470351082952219696e-02
1.470039739015239870e-02
1.469728393987959451e-02
1.469417047891011241e-02
1.469105700745025785e-02
1.468794352570630679e-02
1.468483003388450225e-02
1.468171653219105428e-02
1.467860302083213650e-02
1.467548950001389997e-02
1.467237596994246975e-02
1.466926243082393791e-02
1.466614888286437574e-02
1.466303532626981980e-02
1.465992176124627892e-02
1.465680818799974285e-02
1.465369460673618222e-02
1.465058101766153996e-02
1.464746742098173467e-02
1.464435381690264680e-02
1.464124020563012905e-02
1.463812658737000810e-02
1.463501296232807246e-02
1.463189933071008635e-02
1.462878569272179491e-02
1.462567204856892421e-02
1.462255839845718296e-02
1.461944474259224865e-02
1.461633108117976927e-02
1.461321741442537028e-02
1.461010374253464417e-02
1.460699006571315045e-02
1.460387638416641917e-02
1.460076269809995782e-02
1.459764900771924959e-02
1.459453531322974819e-02
1.459142161483688478e-02
1.458830791274606624e-02
1.458519420716267688e-02
1.458208049829207327e-02
1.457896678633959636e-02
1.457585307151056976e-02
1.457273935401029452e-02
1.456962563404405088e-02
1.456651191181710520e-02
1.456339818753468913e-02
1.456028446140200661e-02
1.455717073362424591e-02
1.455405700440655890e-02
1.455094327395407838e-02
1.454782954247190938e-02
1.454471581016513436e-02
1.454160207723881673e-02
1.453848834389800081e-02
1.453537461034771008e-02
1.453226087679295418e-02
1.452914714343872191e-02
1.452603341048998124e-02
1.452291967815168110e-02
1.451980594662874609e-02
1.451669221612609563e-02
1.451357848684862832e-02
1.451046475900122368e-02
1.450735103278874907e-02
1.450423730841605280e-02
1.450112358608795886e-02
1.449800986600927218e-02
1.449489614838477165e-02
1.449178243341923272e-02
1.448866872131740653e-02
1.448555501228402514e-02
1.448244130652379461e-02
1.447932760424141055e-02
1.447621390564154432e-02
1.447310021092885167e-02
1.446998652030797271e-02
1.446687283398352154e-02
1.446375915216010014e-02
1.446064547504229483e-02
1.445753180283466943e-02
1.445441813574176171e-02
1.445130447396807821e-02
1.444819081771811162e-02
1.444507716719633898e-02
1.444196352260722696e-02
1.443884988415521792e-02
1.443573625204472473e-02
1.443262262648014639e-02
1.442950900766585935e-02
1.442639539580621577e-02
1.442328179110555914e-02
1.442016819376821211e-02
1.441705460399847483e-02
1.441394102200063178e-02
1.441082744797893972e-02
1.440771388213763285e-02
1.440460032468092975e-02
1.440148677581303514e-02
1.439837323573812597e-02
1.439525970466037225e-02
1.439214618278392144e-02
1.438903267031290539e-02
1.438591916745144382e-02
1.438280567440363561e-02
1.437969219137355710e-02
1.437657871856527249e-02
1.437346525618282689e-02
1.437035180443025154e-02
1.436723836351155512e-02
1.436412493363071682e-02
1.436101151499169851e-02
1.435789810779845854e-02
1.435478471225493970e-02
1.435167132856505698e-02
1.434855795693270632e-02
1.434544459756176282e-02
1.434233125065608253e-02
1.433921791641950411e-02
1.433610459505585411e-02
1.433299128676894518e-02
1.432987799176257092e-02
1.432676471024051275e-02
1.432365144240653997e-02
1.432053818846439758e-02
1.431742494861781151e-02
1.431431172307050075e-02
1.431119851202616519e-02
1.430808531568848740e-02
1.430497213426114474e-02
1.430185896794779546e-02
1.429874581695207356e-02
1.429563268147759567e-02
1.429251956172796108e-02
1.428940645790675694e-02
1.428629337021755825e-02
1.428318029886391574e-02
1.428006724404936971e-02
1.427695420597744312e-02
1.427384118485164159e-02
1.427072818087545339e-02
1.426761519425234943e-02
1.426450222518578330e-02
1.426138927387919642e-02
1.425827634053601981e-02
1.425516342535967582e-02
1.425205052855357639e-02
1.424893765032112479e-02
1.424582479086571388e-02
1.424271195039073130e-02
1.423959912909954738e-02
1.423648632719552373e-02
1.423337354488199945e-02
1.423026078236228932e-02
1.422714803983968559e-02
1.422403531751745796e-02
1.422092261559886571e-02
1.421780993428715077e-02
1.421469727378553254e-02
1.421158463429721477e-02
1.420847201602539085e-02
1.420535941917323158e-02
1.420224684394388523e-02
1.419913429054049138e-02
1.419602175916616707e-02
1.419290925002401199e-02
1.418979676331711716e-02
1.418668429924856665e-02
1.418357185802142199e-02
1.418045943983872736e-02
1.417734704490350613e-02
1.417423467341876776e-02
1.417112232558751135e-02
1.416801000161272035e-02
1.416489770169737650e-02
1.416178542604445284e-02
1.415867317485691550e-02
1.415556094833771497e-02
1.415244874668979309e-02
1.414933657011607782e-02
1.414622441881949536e-02
1.414311229300295632e-02
1.414000019286934355e-02
1.413688811862152429e-02
1.413377607046234323e-02
1.413066404859462423e-02
1.412755205322118422e-02
1.412444008454481932e-02
1.412132814276829788e-02
1.411821622809437266e-02
1.411510434072577383e-02
1.411199248086521772e-02
1.410888064871540677e-02
1.410576884447902260e-02
1.410265706835873815e-02
1.409954532055721771e-02
1.409643360127710472e-02
1.409332191072103745e-02
1.409021024909164893e-02
1.408709861659156355e-02
1.408398701342339007e-02
1.408087543978973032e-02
1.407776389589317223e-02
1.407465238193628988e-02
1.407154089812164520e-02
1.406842944465178796e-02
1.406531802172925234e-02
1.406220662955656384e-02
1.405909526833622886e-02
1.405598393827074861e-02
1.405287263956260350e-02
1.404976137241426698e-02
1.404665013702821250e-02
1.404353893360690136e-02
1.404042776235278969e-02
1.403731662346832665e-02
1.403420551715594752e-02
1.403109444361806853e-02
1.402798340305709546e-02
1.402487239567542718e-02
1.402176142167544000e-02
1.401865048125949809e-02
1.401553957462996214e-02
1.401242870198918071e-02
1.400931786353948848e-02
1.400620705948321491e-02
1.400309629002267041e-02
1.399998555536015321e-02
1.399687485569795116e-02
1.399376419123833995e-02
1.399065356218358140e-02
1.398754296873592519e-02
1.398443241109761058e-02
1.398132188947087164e-02
1.397821140405793028e-02
1.397510095506099802e-02
1.397199054268228116e-02
1.396888016712397387e-02
1.396576982858825991e-02
1.396265952727730568e-02
1.395954926339326718e-02
1.395643903713828828e-02
1.395332884871450067e-02
1.395021869832401874e-02
1.394710858616896032e-02
1.394399851245143283e-02
1.394088847737354024e-02
1.393777848113738303e-02
1.393466852394505649e-02
1.393155860599865244e-02
1.392844872750025401e-02
1.392533888865194087e-02
1.392222908965577710e-02
1.391911933071381634e-02
1.391600961202810009e-02
1.391289993380066120e-02
1.390979029623351688e-02
1.390668069952866702e-02
1.390357114388810107e-02
1.390046162951379984e-02
1.389735215660773716e-02
1.389424272537187650e-02
1.389113333600817089e-02
1.388802398871855255e-02
1.388491468370495023e-02
1.388180542116928921e-02
1.387869620131348784e-02
1.387558702433944885e-02
1.387247789044906629e-02
1.386936879984422728e-02
1.386625975272681027e-02
1.386315074929869197e-02
1.386004178976173520e-02
1.385693287431779414e-02
1.385382400316870037e-02
1.385071517651627858e-02
1.384760639456235343e-02
1.384449765750874091e-02
1.384138896555724835e-02
1.383828031890967092e-02
1.383517171776779686e-02
1.383206316233340574e-02
1.382895465280826498e-02
1.382584618939412813e-02
1.382273777229274699e-02
1.381962940170585429e-02
1.381652107783517061e-02
1.381341280088241655e-02
1.381030457104929880e-02
1.380719638853751714e-02
1.380408825354876613e-02
1.380098016628473513e-02
1.379787212694711350e-02
1.379476413573757845e-02
1.379165619285780894e-02
1.378854829850948566e-02
1.378544045289428407e-02
1.378233265621387274e-02
1.377922490866991673e-02
1.377611721046408458e-02
1.377300956179803096e-02
1.376990196287340706e-02
1.376679441389186756e-02
1.376368691505505323e-02
1.376057946656460140e-02
1.375747206862214765e-02
1.375436472142932236e-02
1.375125742518775070e-02
1.374815018009905437e-02
1.374504298636485856e-02
1.374193584418678497e-02
1.373882875376645878e-02
1.373572171530548780e-02
1.373261472900548334e-02
1.372950779506805496e-02
1.372640091369479662e-02
1.372329408508729184e-02
1.372018730944711551e-02
1.371708058697584075e-02
1.371397391787504416e-02
1.371086730234629888e-02
1.370776074059117632e-02
1.370465423281125479e-02
1.370154777920811785e-02
1.369844137998334557e-02
1.369533503533850935e-02
1.369222874547517364e-02
1.368912251059490118e-02
1.368601633089924600e-02
1.368291020658975524e-02
1.367980413786796905e-02
1.367669812493542067e-02
1.367359216799364334e-02
1.367048626724417029e-02
1.366738042288852782e-02
1.366427463512824222e-02
1.366116890416483286e-02
1.365806323019980520e-02
1.365495761343466473e-02
1.365185205407090999e-02
1.364874655231003431e-02
1.364564110835353276e-02
1.364253572240290042e-02
1.363943039465962716e-02
1.363632512532519762e-02
1.363321991460109128e-02
1.363011476268878412e-02
1.362700966978975387e-02
1.362390463610548517e-02
1.362079966183745751e-02
1.361769474718714686e-02
1.361458989235603094e-02
1.361148509754558922e-02
1.360838036295729248e-02
1.360527568879260976e-02
1.360217107525301186e-02
1.359906652253996436e-02
1.359596203085492935e-02
1.359285760039937244e-02
1.358975323137476439e-02
1.358664892398258814e-02
1.358354467842433008e-02
1.358044049490147315e-02
1.357733637361550373e-02
1.357423231476791343e-02
1.357112831856019906e-02
1.356802438519386957e-02
1.356492051487044083e-02
1.356181670779143394e-02
1.355871296415837521e-02
1.355560928417278918e-02
1.355250566803621257e-02
1.354940211595018901e-02
1.354629862811626735e-02
1.354319520473599645e-02
1.354009184601092687e-02
1.353698855214261441e-02
1.353388532333262180e-02
1.353078215978251349e-02
1.352767906169385220e-02
1.352457602926820067e-02
1.352147306270713202e-02
1.351837016221222806e-02
1.351526732798508448e-02
1.351216456022730390e-02
1.350906185914048895e-02
1.350595922492625091e-02
1.350285665778619762e-02
1.349975415792193344e-02
1.349665172553507313e-02
1.349354936082724707e-02
1.349044706400009258e-02
1.348734483525524872e-02
1.348424267479436667e-02
1.348114058281910284e-02
1.347803855953112924e-02
1.347493660513212656e-02
1.347183471982378762e-02
1.346873290380781046e-02
1.346563115728591047e-02
1.346252948045981342e-02
1.345942787353126245e-02
1.345632633670199897e-02
1.345322487017377132e-02
1.345012347414833304e-02
1.344702214882744114e-02
1.344392089441285784e-02
1.344081971110636618e-02
1.343771859910976307e-02
1.343461755862485930e-02
1.343151658985347087e-02
1.342841569299742591e-02
1.342531486825855949e-02
1.342221411583871364e-02
1.341911343593974598e-02
1.341601282876352108e-02
1.341291229451190871e-02
1.340981183338679425e-02
1.340671144559008564e-02
1.340361113132369948e-02
1.340051089078956106e-02
1.339741072418962342e-02
1.339431063172584133e-02
1.339121061360017996e-02
1.338811067001462185e-02
1.338501080117115820e-02
1.338191100727179408e-02
1.337881128851855020e-02
1.337571164511346632e-02
1.337261207725860129e-02
1.336951258515602439e-02
1.336641316900781529e-02
1.336331382901607100e-02
1.336021456538290589e-02
1.335711537831045168e-02
1.335401626800085916e-02
1.335091723465629820e-02
1.334781827847895778e-02
1.334471939967105461e-02
1.334162059843482274e-02
1.333852187497250666e-02
1.333542322948636644e-02
1.333232466217868298e-02
1.332922617325174933e-02
1.332612776290786546e-02
1.332302943134935046e-02
1.331993117877854418e-02
1.331683300539781081e-02
1.331373491140952839e-02
1.331063689701609404e-02
1.330753896241992050e-02
1.330444110782344307e-02
1.330134333342911958e-02
1.329824563943942349e-02
1.329514802605684214e-02
1.329205049348387326e-02
1.328895304192302500e-02
1.328585567157682633e-02
1.328275838264781662e-02
1.327966117533854740e-02
1.327656404985159445e-02
1.327346700638955095e-02
1.327037004515503951e-02
1.326727316635071402e-02
1.326417637017924742e-02
1.326107965684333000e-02
1.325798302654567808e-02
1.325488647948903399e-02
1.325179001587615917e-02
1.324869363590983583e-02
1.324559733979286530e-02
1.324250112772806798e-02
1.323940499991829202e-02
1.323630895656641160e-02
1.323321299787531997e-02
1.323011712404793122e-02
1.322702133528718196e-02
1.322392563179603138e-02
1.322083001377746640e-02
1.321773448143448784e-02
1.321463903497013120e-02
1.321154367458745454e-02
1.320844840048953847e-02
1.320535321287949308e-02
1.320225811196045970e-02
1.319916309793560220e-02
1.319606817100810701e-02
1.319297333138118485e-02
1.318987857925806376e-02
1.318678391484198915e-02
1.318368933833623073e-02
1.318059484994408420e-02
1.317750044986887824e-02
1.317440613831396407e-02
1.317131191548272413e-02
1.316821778157856865e-02
1.316512373680494077e-02
1.316202978136530796e-02
1.315893591546316369e-02
1.315584213930202223e-02
1.315274845308541871e-02
1.314965485701691597e-02
1.314656135130010985e-02
1.314346793613863085e-02
1.314037461173613204e-02
1.313728137829630119e-02
1.313418823602285554e-02
1.313109518511954184e-02
1.312800222579014152e-02
1.312490935823845684e-02
1.312181658266832647e-02
1.311872389928362033e-02
1.311563130828823781e-02
1.311253880988611474e-02
1.310944640428123205e-02
1.310635409167759495e-02
1.310326187227923295e-02
1.310016974629019289e-02
1.309707771391454764e-02
1.309398577535640304e-02
1.309089393081989613e-02
1.308780218050920388e-02
1.308471052462853619e-02
1.308161896338214114e-02
1.307852749697429977e-02
1.307543612560932780e-02
1.307234484949156179e-02
1.306925366882537298e-02
1.306616258381517945e-02
1.306307159466543223e-02
1.305998070158061880e-02
1.305688990476524917e-02
1.305379920442386807e-02
1.305070860076104969e-02
1.304761809398140640e-02
1.304452768428958527e-02
1.304143737189026805e-02
1.303834715698817467e-02
1.303525703978805628e-02
1.303216702049470217e-02
1.302907709931294504e-02
1.302598727644766266e-02
1.302289755210377271e-02
1.301980792648622931e-02
1.301671839980002472e-02
1.301362897225019286e-02
1.301053964404181446e-02
1.300745041538001537e-02
1.300436128646995440e-02
1.300127225751683893e-02
1.299818332872591624e-02
1.299509450030247350e-02
1.299200577245184125e-02
1.298891714537939342e-02
1.298582861929055074e-02
1.298274019439077387e-02
1.297965187088556682e-02
1.297656364898047698e-02
1.297347552888109337e-02
1.297038751079305011e-02
1.296729959492201947e-02
1.296421178147371539e-02
1.296112407065388820e-02
1.295803646266832643e-02
1.295494895772285847e-02
1.295186155602335784e-02
1.294877425777574836e-02
1.294568706318600763e-02
1.294259997246016702e-02
1.293951298580431689e-02
1.293642610342459268e-02
1.293333932552718363e-02
1.293025265231832061e-02
1.292716608400428999e-02
1.292407962079141978e-02
1.292099326288608484e-02
1.291790701049470684e-02
1.291482086382375084e-02
1.291173482307974608e-02
1.290864888846927731e-02
1.290556306019898479e-02
1.290247733847557123e-02
1.289939172350580351e-02
1.289630621549650059e-02
1.289322081465453344e-02
1.289013552118681814e-02
1.288705033530032108e-02
1.288396525720205896e-02
1.288088028709911438e-02
1.287779542519863589e-02
1.287471067170782579e-02
1.287162602683393324e-02
1.286854149078427330e-02
1.286545706376620787e-02
1.286237274598715438e-02
1.285928853765457881e-02
1.285620443897600787e-02
1.285312045015902203e-02
1.285003657141127117e-02
1.284695280294045200e-02
1.284386914495433060e-02
1.284078559766073033e-02
1.283770216126752309e-02
1.283461883598264498e-02
1.283153562201409630e-02
1.282845251956994150e-02
1.282536952885830230e-02
1.282228665008735766e-02
1.281920388346534552e-02
1.281612122920056107e-02
1.281303868750137062e-02
1.280995625857620640e-02
1.280687394263357350e-02
1.280379173988204292e-02
1.280070965053025159e-02
1.279762767478690236e-02
1.279454581286076573e-02
1.279146406496068679e-02
1.278838243129556962e-02
1.278530091207437207e-02
1.278221950750612831e-02
1.277913821779994019e-02
1.277605704316496851e-02
1.277297598381044175e-02
1.276989503994565775e-02
1.276681421177996989e-02
1.276373349952280092e-02
1.276065290338363606e-02
1.275757242357202989e-02
1.275449206029760640e-02
1.275141181377005203e-02
1.274833168419912954e-02
1.274525167179466414e-02
1.274217177676655217e-02
1.273909199932475415e-02
1.273601233967929999e-02
1.273293279804027685e-02
1.272985337461783606e-02
1.272677406962219315e-02
1.272369488326362784e-02
1.272061581575249095e-02
1.271753686729919230e-02
1.271445803811420590e-02
1.271137932840806992e-02
1.270830073839138846e-02
1.270522226827483156e-02
1.270214391826913515e-02
1.269906568858510804e-02
1.269598757943363708e-02
1.269290959102568027e-02
1.268983172357225631e-02
1.268675397728445155e-02
1.268367635237342521e-02
1.268059884905040936e-02
1.267752146752671588e-02
1.267444420801372255e-02
1.267136707072288176e-02
1.266829005586572049e-02
1.266521316365383162e-02
1.266213639429888266e-02
1.265905974801260180e-02
1.265598322500679877e-02
1.265290682549334404e-02
1.264983054968417397e-02
1.264675439779128566e-02
1.264367837002674556e-02
1.264060246660270170e-02
1.263752668773137494e-02
1.263445103362506247e-02
1.263137550449614475e-02
1.262830010055707511e-02
1.262522482202036930e-02
1.262214966909861943e-02
1.261907464200448352e-02
1.261599974095069590e-02
1.261292496615006205e-02
1.260985031781545508e-02
1.260677579615981578e-02
1.260370140139615951e-02
1.260062713373756929e-02
1.259755299339718540e-02
1.259447898058821749e-02
1.259140509552394982e-02
1.258833133841772908e-02
1.258525770948297658e-02
1.258218420893318992e-02
1.257911083698194481e-02
1.257603759384288457e-02
1.257296447972972193e-02
1.256989149485624076e-02
1.256681863943628560e-02
1.256374591368377563e-02
1.256067331781269940e-02
1.255760085203711483e-02
1.255452851657114927e-02
1.255145631162900635e-02
1.254838423742495913e-02
1.254531229417335698e-02
1.254224048208861866e-02
1.253916880138523232e-02
1.253609725227776243e-02
1.253302583498084287e-02
1.252995454970917688e-02
1.252688339667753017e-02
1.252381237610074478e-02
1.252074148819372519e-02
1.251767073317144527e-02
1.251460011124894134e-02
1.251152962264132432e-02
1.250845926756377277e-02
1.250538904623154333e-02
1.250231895885996897e-02
1.249924900566445028e-02
1.249617918686045728e-02
1.249310950266353630e-02
1.249003995328930305e-02
1.248697053895345480e-02
1.248390125987175643e-02
1.248083211626004226e-02
1.247776310833420901e-02
1.247469423631020896e-02
1.247162550040406374e-02
1.246855690083186960e-02
1.246548843780979736e-02
1.246242011155409418e-02
1.245935192228108182e-02
1.245628387020715662e-02
1.245321595554877564e-02
1.245014817852247054e-02
1.244708053934484235e-02
1.244401303823256671e-02
1.244094567540238692e-02
1.243787845107112086e-02
1.243481136545565927e-02
1.243174441877297441e-02
1.242867761124010796e-02
1.242561094307416923e-02
1.242254441449234040e-02
1.241947802571186435e-02
1.241641177695005163e-02
1.241334566842428565e-02
1.241027970035201572e-02
1.240721387295076403e-02
1.240414818643812041e-02
1.240108264103173541e-02
1.239801723694932377e-02
1.239495197440866614e-02
1.239188685362761083e-02
1.238882187482407034e-02
1.238575703821603001e-02
1.238269234402153592e-02
1.237962779245871218e-02
1.237656338374575407e-02
1.237349911810091581e-02
1.237043499574251582e-02
1.236737101688893670e-02
1.236430718175862697e-02
1.236124349057009242e-02
1.235817994354190298e-02
1.235511654089270148e-02
1.235205328284120184e-02
1.234899016960618046e-02
1.234592720140649004e-02
1.234286437846104575e-02
1.233980170098882695e-02
1.233673916920888410e-02
1.233367678334033705e-02
1.233061454360236814e-02
1.232755245021423599e-02
1.232449050339526168e-02
1.232142870336483571e-02
1.231836705034241100e-02
1.231530554454750813e-02
1.231224418619971533e-02
1.230918297551868330e-02
1.230612191272413038e-02
1.230306099803583561e-02
1.230000023167364051e-02
1.229693961385744556e-02
1.229387914480721718e-02
1.229081882474298941e-02
1.228775865388486224e-02
1.228469863245299637e-02
1.228163876066761320e-02
1.227857903874900007e-02
1.227551946691750155e-02
1.227246004539353334e-02
1.226940077439757013e-02
1.226634165415014556e-02
1.226328268487184535e-02
1.226022386678331938e-02
1.225716520010527305e-02
1.225410668505846901e-02
1.225104832186373408e-02
1.224799011074194366e-02
1.224493205191403734e-02
1.224187414560101196e-02
1.223881639202391985e-02
1.223575879140388276e-02
1.223270134396206923e-02
1.222964404991969470e-02
1.222658690949803180e-02
1.222352992291841564e-02
1.222047309040223337e-02
1.221741641217093284e-02
1.221435988844600876e-02
1.221130351944901479e-02
1.220824730540155147e-02
1.220519124652527307e-02
1.220213534304189808e-02
1.219907959517320395e-02
1.219602400314102886e-02
1.219296856716726128e-02
1.218991328747384001e-02
1.218685816428276107e-02
1.218380319781607775e-02
1.218074838829589536e-02
1.217769373594436259e-02
1.217463924098367671e-02
1.217158490363609048e-02
1.216853072412391219e-02
1.216547670266950563e-02
1.216242283949528317e-02
1.215936913482371096e-02
1.215631558887731584e-02
1.215326220187868712e-02
1.215020897405046096e-02
1.214715590561532034e-02
1.214410299679598813e-02
1.214105024781523059e-02
1.213799765889586428e-02
1.213494523026075952e-02
1.213189296213283350e-02
1.212884085473505368e-02
1.212578890829042397e-02
1.212273712302199165e-02
1.211968549915285256e-02
1.211663403690615287e-02
1.211358273650508209e-02
1.211053159817287138e-02
1.210748062213280046e-02
1.210442980860819071e-02
1.210137915782241204e-02
1.209832866999886736e-02
1.209527834536100466e-02
1.209222818413231183e-02
1.208917818653631668e-02
1.208612835279657821e-02
1.208307868313669535e-02
1.208002917778031211e-02
1.207697983695111589e-02
1.207393066087283917e-02
1.207088164976925782e-02
1.206783280386419105e-02
1.206478412338148759e-02
1.206173560854502391e-02
1.205868725957871812e-02
1.205563907670652302e-02
1.205259106015243130e-02
1.204954321014046169e-02
1.204649552689466760e-02
1.204344801063914235e-02
1.204040066159801914e-02
1.203735347999547109e-02
1.203430646605570253e-02
1.203125962000294903e-02
1.202821294206146870e-02
1.202516643245554219e-02
1.202212009140948140e-02
1.201907391914763465e-02
1.201602791589437801e-02
1.201298208187412224e-02
1.200993641731130761e-02
1.200689092243040386e-02
1.200384559745591197e-02
1.200080044261236413e-02
1.199775545812432030e-02
1.199471064421636646e-02
1.199166600111311286e-02
1.198862152903919405e-02
1.198557722821926193e-02
1.198253309887799961e-02
1.197948914124011277e-02
1.197644535553032789e-02
1.197340174197339402e-02
1.197035830079408274e-02
1.196731503221718645e-02
1.196427193646751840e-02
1.196122901376991260e-02
1.195818626434922219e-02
1.195514368843033151e-02
1.195210128623815093e-02
1.194905905799761685e-02
1.194601700393368993e-02
1.194297512427134819e-02
1.193993341923559222e-02
1.193689188905143646e-02
1.193385053394391791e-02
1.193080935413809614e-02
1.192776834985905150e-02
1.192472752133187132e-02
1.192168686878166198e-02
1.191864639243354201e-02
1.191560609251264384e-02
1.191256596924411201e-02
1.190952602285310150e-02
1.190648625356478460e-02
1.190344666160434231e-02
1.190040724719697122e-02
1.189736801056789049e-02
1.189432895194233314e-02
1.189129007154554087e-02
1.188825136960277792e-02
1.188521284633931550e-02
1.188217450198042306e-02
1.187913633675138740e-02
1.187609835087750573e-02
1.187306054458409435e-02
1.187002291809647475e-02
1.186698547163997711e-02
1.186394820543993332e-02
1.186091111972168398e-02
1.185787421471056965e-02
1.185483749063193787e-02
1.185180094771115175e-02
1.184876458617357443e-02
1.184572840624457252e-02
1.184269240814951780e-02
1.183965659211378731e-02
1.183662095836275456e-02
1.183358550712178270e-02
1.183055023861623832e-02
1.182751515307148976e-02
1.182448025071289148e-02
1.182144553176579793e-02
1.181841099645556357e-02
1.181537664500754287e-02
1.181234247764708159e-02
1.180930849459951512e-02
1.180627469609017016e-02
1.180324108234437168e-02
1.180020765358743250e-02
1.179717441004464636e-02
1.179414135194129659e-02
1.179110847950264745e-02
1.178807579295395626e-02
1.178504329252046470e-02
1.178201097842741275e-02
1.177897885090001956e-02
1.177594691016349560e-02
1.177291515644304093e-02
1.176988358996384522e-02
1.176685221095107210e-02
1.176382101962987134e-02
1.176079001622537534e-02
1.175775920096270612e-02
1.175472857406697005e-02
1.175169813576325793e-02
1.174866788627663798e-02
1.174563782583215414e-02
1.174260795465481393e-02
1.173957827296960230e-02
1.173654878100148513e-02
1.173351947897539535e-02
1.173049036711623291e-02
1.172746144564887003e-02
1.172443271479815113e-02
1.172140417478889814e-02
1.171837582584591038e-02
1.171534766819395772e-02
1.171231970205776490e-02
1.170929192766202026e-02
1.170626434523137395e-02
1.170323695499044143e-02
1.170020975716380349e-02
1.169718275197601312e-02
1.169415593965157478e-02
1.169112932041494954e-02
1.168810289449055510e-02
1.168507666210277275e-02
1.168205062347593866e-02
1.167902477883434390e-02
1.167599912840223270e-02
1.167297367240381460e-02
1.166994841106325752e-02
1.166692334460468772e-02
1.166389847325218984e-02
1.166087379722980516e-02
1.165784931676152984e-02
1.165482503207130975e-02
1.165180094338303871e-02
1.164877705092057583e-02
1.164575335490772648e-02
1.164272985556824222e-02
1.163970655312581738e-02
1.163668344780409598e-02
1.163366053982666654e-02
1.163063782941706550e-02
1.162761531679876864e-02
1.162459300219519966e-02
1.162157088582972328e-02
1.161854896792564353e-02
1.161552724870621583e-02
1.161250572839464708e-02
1.160948440721408688e-02
1.160646328538762068e-02
1.160344236313826972e-02
1.160042164068899630e-02
1.159740111826269675e-02
1.159438079608220672e-02
1.159136067437029419e-02
1.158834075334966643e-02
1.158532103324296826e-02
1.158230151427278205e-02
1.157928219666163293e-02
1.157626308063198009e-02
1.157324416640622376e-02
1.157022545420669304e-02
1.156720694425564591e-02
1.156418863677527269e-02
1.156117053198769430e-02
1.155815263011494842e-02
1.155513493137900333e-02
1.155211743600175790e-02
1.154910014420503991e-02
1.154608305621061121e-02
1.154306617224016250e-02
1.154004949251531340e-02
1.153703301725760369e-02
1.153401674668850553e-02
1.153100068102941474e-02
1.152798482050165253e-02
1.152496916532645167e-02
1.152195371572495991e-02
1.151893847191825387e-02
1.151592343412732693e-02
1.151290860257310131e-02
1.150989397747642640e-02
1.150687955905806310e-02
1.150386534753869081e-02
1.150085134313890214e-02
1.149783754607920129e-02
1.149482395658000221e-02
1.149181057486163039e-02
1.148879740114432287e-02
1.148578443564822991e-02
1.148277167859342203e-02
1.147975913019988643e-02
1.147674679068753749e-02
1.147373466027620109e-02
1.147072273918560946e-02
1.146771102763540807e-02
1.146469952584515395e-02
1.146168823403431389e-02
1.145867715242225929e-02
1.145566628122827134e-02
1.145265562067153062e-02
1.144964517097112056e-02
1.144663493234602050e-02
1.144362490501510919e-02
1.144061508919716474e-02
1.143760548511087681e-02
1.143459609297484136e-02
1.143158691300755550e-02
1.142857794542741917e-02
1.142556919045273345e-02
1.142256064830170399e-02
1.141955231919243412e-02
1.141654420334291611e-02
1.141353630097104339e-02
1.141052861229459488e-02
1.140752113753123673e-02
1.140451387689852235e-02
1.140150683061390453e-02
1.139849999889473546e-02
1.139549338195826669e-02
1.139248698002164051e-02
1.138948079330188816e-02
1.138647482201593855e-02
1.138346906638060436e-02
1.138046352661259246e-02
1.137745820292849000e-02
1.137445309554475925e-02
1.137144820467776360e-02
1.136844353054376061e-02
1.136543907335890377e-02
1.136243483333923901e-02
1.135943081070070124e-02
1.135642700565911087e-02
1.135342341843016863e-02
1.135042004922946594e-02
1.134741689827248323e-02
1.134441396577458294e-02
1.134141125195101130e-02
1.133840875701689829e-02
1.133540648118724729e-02
1.133240442467694196e-02
1.132940258770074801e-02
1.132640097047331838e-02
1.132339957320918460e-02
1.132039839612274980e-02
1.131739743942828877e-02
1.131439670333996353e-02
1.131139618807181467e-02
1.130839589383775788e-02
1.130539582085157875e-02
1.130239596932692756e-02
1.129939633947733141e-02
1.129639693151619946e-02
1.129339774565681596e-02
1.129039878211234027e-02
1.128740004109579295e-02
1.128440152282006795e-02
1.128140322749793950e-02
1.127840515534206216e-02
1.127540730656497077e-02
1.127240968137907355e-02
1.126941227999665555e-02
1.126641510262986652e-02
1.126341814949072262e-02
1.126042142079110991e-02
1.125742491674279130e-02
1.125442863755739438e-02
1.125143258344640969e-02
1.124843675462119594e-02
1.124544115129299388e-02
1.124244577367291241e-02
1.123945062197193034e-02
1.123645569640088944e-02
1.123346099717050309e-02
1.123046652449134937e-02
1.122747227857388320e-02
1.122447825962842767e-02
1.122148446786517574e-02
1.121849090349418508e-02
1.121549756672537458e-02
1.121250445776853476e-02
1.120951157683331909e-02
1.120651892412923879e-02
1.120352649986566806e-02
1.120053430425184404e-02
1.119754233749686856e-02
1.119455059980970814e-02
1.119155909139918532e-02
1.118856781247398388e-02
1.118557676324264880e-02
1.118258594391358628e-02
1.117959535469505682e-02
1.117660499579518213e-02
1.117361486742194515e-02
1.117062496978318831e-02
1.116763530308661351e-02
1.116464586753978389e-02
1.116165666335011686e-02
1.115866769072488239e-02
1.115567894987119953e-02
1.115269044099603812e-02
1.114970216430621539e-02
1.114671412000840627e-02
1.114372630830914174e-02
1.114073872941480359e-02
1.113775138353163136e-02
1.113476427086572233e-02
1.113177739162302983e-02
1.112879074600937705e-02
1.112580433423045016e-02
1.112281815649179655e-02
1.111983221299881266e-02
1.111684650395674580e-02
1.111386102957069230e-02
1.111087579004560108e-02
1.110789078558626838e-02
1.110490601639733954e-02
1.110192148268332110e-02
1.109893718464856696e-02
1.109595312249728356e-02
1.109296929643352990e-02
1.108998570666120537e-02
1.108700235338406885e-02
1.108401923680573178e-02
1.108103635712965988e-02
1.107805371455915580e-02
1.107507130929737300e-02
1.107208914154731230e-02
1.106910721151182012e-02
1.106612551939358674e-02
1.106314406539515155e-02
1.106016284971890473e-02
1.105718187256707515e-02
1.105420113414174246e-02
1.105122063464483023e-02
1.104824037427810414e-02
1.104526035324317375e-02
1.104228057174149250e-02
1.103930102997436116e-02
1.103632172814293134e-02
1.103334266644819157e-02
1.103036384509097773e-02
1.102738526427196261e-02
1.102440692419166986e-02
1.102142882505046176e-02
1.101845096704855489e-02
1.101547335038600972e-02
1.101249597526272883e-02
1.100951884187846216e-02
1.100654195043279313e-02
1.100356530112514553e-02
1.100058889415479052e-02
1.099761272972083447e-02
1.099463680802222586e-02
1.099166112925776574e-02
1.098868569362609383e-02
1.098571050132569026e-02
1.098273555255486859e-02
1.097976084751177590e-02
1.097678638639439271e-02
1.097381216940052605e-02
1.097083819672782859e-02
1.096786446857379860e-02
1.096489098513577475e-02
1.096191774661093438e-02
1.095894475319629351e-02
1.095597200508869988e-02
1.095299950248483992e-02
1.095002724558122656e-02
1.094705523457421142e-02
1.094408346965998306e-02
1.094111195103456696e-02
1.093814067889383596e-02
1.093516965343350328e-02
1.093219887484911911e-02
1.092922834333607228e-02
1.092625805908958338e-02
1.092328802230471685e-02
1.092031823317638102e-02
1.091734869189932289e-02
1.091437939866812118e-02
1.091141035367718462e-02
1.090844155712076061e-02
1.090547300919292827e-02
1.090250471008759672e-02
1.089953665999851204e-02
1.089656885911926415e-02
1.089360130764328166e-02
1.089063400576383879e-02
1.088766695367403975e-02
1.088470015156681875e-02
1.088173359963494000e-02
1.087876729807100637e-02
1.087580124706745248e-02
1.087283544681654814e-02
1.086986989751040009e-02
1.086690459934094681e-02
1.086393955249997066e-02
1.086097475717907705e-02
1.085801021356970833e-02
1.085504592186313857e-02
1.085208188225047880e-02
1.084911809492267697e-02
1.084615456007050581e-02
1.084319127788457328e-02
1.084022824855531038e-02
1.083726547227297464e-02
1.083430294922766053e-02
1.083134067960929078e-02
1.082837866360761292e-02
1.082541690141221313e-02
1.082245539321250762e-02
1.081949413919774255e-02
1.081653313955700108e-02
1.081357239447919630e-02
1.081061190415308002e-02
1.080765166876724269e-02
1.080469168851011172e-02
1.080173196356994623e-02
1.079877249413483710e-02
1.079581328039271211e-02
1.079285432253132906e-02
1.078989562073827575e-02
1.078693717520097170e-02
1.078397898610666816e-02
1.078102105364244813e-02
1.077806337799522805e-02
1.077510595935176133e-02
1.077214879789863654e-02
1.076919189382227401e-02
1.076623524730893448e-02
1.076327885854471214e-02
1.076032272771553985e-02
1.075736685500718048e-02
1.075441124060522169e-02
1.075145588469508459e-02
1.074850078746202378e-02
1.074554594909113252e-02
1.074259136976732712e-02
1.073963704967536952e-02
1.073668298899984816e-02
1.073372918792518498e-02
1.073077564663562841e-02
1.072782236531526039e-02
1.072486934414800322e-02
1.072191658331761270e-02
1.071896408300766941e-02
1.071601184340159954e-02
1.071305986468266448e-02
1.071010814703395389e-02
1.070715669063838395e-02
1.070420549567870430e-02
1.070125456233750501e-02
1.069830389079721132e-02
1.069535348124006982e-02
1.069240333384817443e-02
1.068945344880345427e-02
1.068650382628766674e-02
1.068355446648240267e-02
1.068060536956908814e-02
1.067765653572897225e-02
1.067470796514313931e-02
1.067175965799250191e-02
1.066881161445781649e-02
1.066586383471967471e-02
1.066291631895850342e-02
1.065996906735456641e-02
1.065702208008796441e-02
1.065407535733862120e-02
1.065112889928629056e-02
1.064818270611055627e-02
1.064523677799083905e-02
1.064229111510638440e-02
1.063934571763627650e-02
1.063640058575943646e-02
1.063345571965461714e-02
1.063051111950040310e-02
1.062756678547521587e-02
1.062462271775730868e-02
1.062167891652477519e-02
1.061873538195554946e-02
1.061579211422740421e-02
1.061284911351795084e-02
1.060990638000464115e-02
1.060696391386476735e-02
1.060402171527546206e-02
1.060107978441370523e-02
1.059813812145631896e-02
1.059519672657997444e-02
1.059225559996119018e-02
1.058931474177631817e-02
1.058637415220155774e-02
1.058343383141295037e-02
1.058049377958637446e-02
1.057755399689755058e-02
1.057461448352204139e-02
1.057167523963525521e-02
1.056873626541243727e-02
1.056579756102866800e-02
1.056285912665887172e-02
1.055992096247780967e-02
1.055698306866008178e-02
1.055404544538014050e-02
1.055110809281227524e-02
1.054817101113061234e-02
1.054523420050913068e-02
1.054229766112164957e-02
1.053936139314182868e-02
1.053642539674317334e-02
1.053348967209902058e-02
1.053055421938254264e-02
1.052761903876675911e-02
1.052468413042454212e-02
1.052174949452860594e-02
1.051881513125151393e-02
1.051588104076567158e-02
1.051294722324331958e-02
1.051001367885654597e-02
1.050708040777728960e-02
1.050414741017732627e-02
1.050121468622827389e-02
1.049828223610159601e-02
1.049535005996860004e-02
1.049241815800043554e-02
1.048948653036810459e-02
1.048655517724246186e-02
1.048362409879421281e-02
1.048069329519390851e-02
1.047776276661194043e-02
1.047483251321854741e-02
1.047190253518382776e-02
1.046897283267771844e-02
1.046604340587001247e-02
1.046311425493035886e-02
1.046018538002825397e-02
1.045725678133303631e-02
1.045432845901389345e-02
1.045140041323986725e-02
1.044847264417985040e-02
1.044554515200258812e-02
1.044261793687668166e-02
1.043969099897058134e-02
1.043676433845259002e-02
1.043383795549085620e-02
1.043091185025337223e-02
1.042798602290797606e-02
1.042506047362235996e-02
1.042213520256407566e-02
1.041921020990052051e-02
1.041628549579895306e-02
1.041336106042648271e-02
1.041043690395006965e-02
1.040751302653652836e-02
1.040458942835252587e-02
1.040166610956458695e-02
1.039874307033909588e-02
1.039582031084228773e-02
1.039289783124025535e-02
1.038997563169895104e-02
1.038705371238418315e-02
1.038413207346161604e-02
1.038121071509678049e-02
1.037828963745507198e-02
1.037536884070174546e-02
1.037244832500192060e-02
1.036952809052057653e-02
1.036660813742255362e-02
1.036368846587254998e-02
1.036076907603511975e-02
1.035784996807467308e-02
1.035493114215548308e-02
1.035201259844168581e-02
1.034909433709727683e-02
1.034617635828611638e-02
1.034325866217192420e-02
1.034034124891828124e-02
1.033742411868863141e-02
1.033450727164627984e-02
1.033159070795439290e-02
1.032867442777599815e-02
1.032575843127398960e-02
1.032284271861112074e-02
1.031992728994999935e-02
1.031701214545309615e-02
1.031409728528274831e-02
1.031118270960115595e-02
1.030826841857038732e-02
1.030535441235237888e-02
1.030244069110892828e-02
1.029952725500171001e-02
1.029661410419226847e-02
1.029370123884200752e-02
1.029078865911219574e-02
1.028787636516396986e-02
1.028496435715833476e-02
1.028205263525615830e-02
1.027914119961817821e-02
1.027623005040500040e-02
1.027331918777709546e-02
1.027040861189480563e-02
1.026749832291834127e-02
1.026458832100778269e-02
1.026167860632308006e-02
1.025876917902404997e-02
1.025586003927038241e-02
1.025295118722163029e-02
1.025004262303722165e-02
1.024713434687645267e-02
1.024422635889848769e-02
1.024131865926235750e-02
1.023841124812696450e-02
1.023550412565108272e-02
1.023259729199335610e-02
1.022969074731229326e-02
1.022678449176627966e-02
1.022387852551357584e-02
1.022097284871231575e-02
1.021806746152050666e-02
1.021516236409602749e-02
1.021225755659663226e-02
1.020935303917994835e-02
1.020644881200348346e-02
1.020354487522461343e-02
1.020064122900059267e-02
1.019773787348855244e-02
1.019483480884549563e-02
1.019193203522829848e-02
1.018902955279371060e-02
1.018612736169836018e-02
1.018322546209875397e-02
1.018032385415127729e-02
1.017742253801218362e-02
1.017452151383760675e-02
1.017162078178355730e-02
1.016872034200592446e-02
1.016582019466048120e-02
1.016292033990287905e-02
1.016002077788864463e-02
1.015712150877318143e-02
1.015422253271177321e-02
1.015132384985958577e-02
1.014842546037166351e-02
1.014552736440293632e-02
1.014262956210820917e-02
1.013973205364217083e-02
1.013683483915939210e-02
1.013393791881432061e-02
1.013104129276128605e-02
1.012814496115449839e-02
1.012524892414804964e-02
1.012235318189591386e-02
1.011945773455195062e-02
1.011656258226990499e-02
1.011366772520340927e-02
1.011077316350597263e-02
1.010787889733098799e-02
1.010498492683173377e-02
1.010209125216137739e-02
1.009919787347297003e-02
1.009630479091944318e-02
1.009341200465361729e-02
1.009051951482819835e-02
1.008762732159577957e-02
1.008473542510884488e-02
1.008184382551977239e-02
1.007895252298082051e-02
1.007606151764412969e-02
1.007317080966172937e-02
1.007028039918553275e-02
1.006739028636733507e-02
1.006450047135881536e-02
1.006161095431154159e-02
1.005872173537696555e-02
1.005583281470642971e-02
1.005294419245117074e-02
1.005005586876231947e-02
1.004716784379089747e-02
1.004428011768782221e-02
1.004139269060390534e-02
1.003850556268985790e-02
1.003561873409627471e-02
1.003273220497363609e-02
1.002984597547231481e-02
1.002696004574257435e-02
1.002407441593456891e-02
1.002118908619834860e-02
1.001830405668386118e-02
1.001541932754095032e-02
1.001253489891934523e-02
1.000965077096866579e-02
1.000676694383842782e-02
1.000388341767803960e-02
1.000100019263681222e-02
9.998117268863949275e-03
9.995234646508550230e-03
9.992352325719610490e-03
9.989470306646017900e-03
9.986588589436552754e-03
9.983707174239889529e-03
9.980826061204593411e-03
9.977945250479128975e-03
9.975064742211854976e-03
9.972184536551020884e-03
9.969304633644770347e-03
9.966425033641142933e-03
9.963545736688070656e-03
9.960666742933379711e-03
9.957788052524787006e-03
9.954909665609908836e-03
9.952031582336255677e-03
9.949153802851228717e-03
9.946276327302132000e-03
9.943399155836162018e-03
9.940522288600411177e-03
9.937645725741864333e-03
9.934769467407402257e-03
9.931893513743798169e-03
9.929017864897722936e-03
9.926142521015745082e-03
9.923267482244325574e-03
9.920392748729819563e-03
9.917518320618481584e-03
9.914644198056458621e-03
9.911770381189795309e-03
9.908896870164440873e-03
9.906023665126245659e-03
9.903150766220955928e-03
9.900278173594215594e-03
9.897405887391574897e-03
9.894533907758476521e-03
9.891662234840260803e-03
9.888790868782165733e-03
9.885919809729326949e-03
9.883049057826774272e-03
9.880178613219440381e-03
9.877308476052160807e-03
9.874438646469670469e-03
9.871569124616600202e-03
9.868699910637476758e-03
9.865831004676728008e-03
9.862962406878686417e-03
9.860094117387578627e-03
9.857226136347532405e-03
9.854358463902583576e-03
9.851491100196670819e-03
9.848624045373640876e-03
9.845757299577245075e-03
9.842890862951137604e-03
9.840024735638877237e-03
9.837158917783929077e-03
9.834293409529661079e-03
9.831428211019349259e-03
9.828563322396165550e-03
9.825698743803191679e-03
9.822834475383407024e-03
9.819970517279700759e-03
9.817106869634871849e-03
9.814243532591618649e-03
9.811380506292552775e-03
9.808517790880188700e-03
9.805655386496948955e-03
9.802793293285164133e-03
9.799931511387072885e-03
9.797070040944816718e-03
9.794208882100445199e-03
9.791348034995910748e-03
9.788487499773077319e-03
9.785627276573718655e-03
9.782767365539521767e-03
9.779907766812073050e-03
9.777048480532868693e-03
9.774189506843318151e-03
9.771330845884740671e-03
9.768472497798367030e-03
9.765614462725339534e-03
9.762756740806710284e-03
9.759899332183441176e-03
9.757042236996407367e-03
9.754185455386385137e-03
9.751328987494064029e-03
9.748472833460050321e-03
9.745616993424861818e-03
9.742761467528924385e-03
9.739906255912573682e-03
9.737051358716062102e-03
9.734196776079551833e-03
9.731342508143113121e-03
9.728488555046729477e-03
9.725634916930299412e-03
9.722781593933631228e-03
9.719928586196449963e-03
9.717075893858393917e-03
9.714223517059012922e-03
9.711371455937768335e-03
9.708519710634029576e-03
9.705668281287086266e-03
9.702817168036143025e-03
9.699966371020314268e-03
9.697115890378625938e-03
9.694265726250012039e-03
9.691415878773319836e-03
9.688566348087306393e-03
9.685717134330645503e-03
9.682868237641925960e-03
9.680019658159656759e-03
9.677171396022263630e-03
9.674323451368082097e-03
9.671475824335355742e-03
9.668628515062246617e-03
9.665781523686826568e-03
9.662934850347084173e-03
9.660088495180919541e-03
9.657242458326156451e-03
9.654396739920537152e-03
9.651551340101722359e-03
9.648706259007287789e-03
9.645861496774724153e-03
9.643017053541435429e-03
9.640172929444745797e-03
9.637329124621896170e-03
9.634485639210038990e-03
9.631642473346239963e-03
9.628799627167483263e-03
9.625957100810666328e-03
9.623114894412599860e-03
9.620273008110007823e-03
9.617431442039532652e-03
9.614590196337735248e-03
9.611749271141093245e-03
9.608908666585999278e-03
9.606068382808766182e-03
9.603228419945628730e-03
9.600388778132738429e-03
9.597549457506165255e-03
9.594710458201899383e-03
9.591871780355845992e-03
9.589033424103828723e-03
9.586195389581593160e-03
9.583357676924798146e-03
9.580520286269020996e-03
9.577683217749764430e-03
9.574846471502451370e-03
9.572010047662426677e-03
9.569173946364951944e-03
9.566338167745210702e-03
9.563502711938304951e-03
9.560667579079253423e-03
9.557832769303000256e-03
9.554998282744414997e-03
9.552164119538287396e-03
9.549330279819332606e-03
9.546496763722189458e-03
9.543663571381418714e-03
9.540830702931506549e-03
9.537998158506859336e-03
9.535165938241805389e-03
9.532334042270591487e-03
9.529502470727391553e-03
9.526671223746304915e-03
9.523840301461354574e-03
9.521009704006488938e-03
9.518179431515583558e-03
9.515349484122437654e-03
9.512519861960767181e-03
9.509690565164204828e-03
9.506861593866306956e-03
9.504032948200548392e-03
9.501204628300336311e-03
9.498376634298998089e-03
9.495548966329783042e-03
9.492721624525869359e-03
9.489894609020355434e-03
9.487067919946268538e-03
9.484241557436552672e-03
9.481415521624078982e-03
9.478589812641640550e-03
9.475764430621954129e-03
9.472939375697661882e-03
9.470114648001331376e-03
9.467290247665450381e-03
9.464466174822428607e-03
9.461642429604595964e-03
9.458819012144206034e-03
9.455995922573439544e-03
9.453173161024395685e-03
9.450350727629097322e-03
9.447528622519497932e-03
9.444706845827483335e-03
9.441885397684868231e-03
9.439064278223392723e-03
9.436243487574718855e-03
9.433423025870432341e-03
9.430602893242044302e-03
9.427783089820996471e-03
9.424963615738655986e-03
9.422144471126311926e-03
9.419325656115182244e-03
9.416507170836412033e-03
9.413689015421078735e-03
9.410871190000185196e-03
9.408053694704659672e-03
9.405236529665348885e-03
9.402419695013030168e-03
9.399603190878413200e-03
9.396787017392141741e-03
9.393971174684784958e-03
9.391155662886833955e-03
9.388340482128705242e-03
9.385525632540742472e-03
9.382711114253218174e-03
9.379896927396333753e-03
9.377083072100216021e-03
9.374269548494918933e-03
9.371456356710432256e-03
9.368643496876669433e-03
9.365830969123469310e-03
9.363018773580599613e-03
9.360206910377751738e-03
9.357395379644540753e-03
9.354584181510507135e-03
9.351773316105118500e-03
9.348962783557771342e-03
9.346152583997785826e-03
9.343342717554407525e-03
9.340533184356816093e-03
9.337723984534120059e-03
9.334915118215355093e-03
9.332106585529492682e-03
9.329298386605440127e-03
9.326490521572038811e-03
9.323682990558060726e-03
9.320875793692211947e-03
9.318068931103134361e-03
9.315262402919391796e-03
9.312456209269470014e-03
9.309650350281787126e-03
9.306844826084684913e-03
9.304039636806430563e-03
9.301234782575220142e-03
9.298430263519183794e-03
9.295626079766384012e-03
9.292822231444812162e-03
9.290018718682388488e-03
9.287215541606963845e-03
9.284412700346317965e-03
9.281610195028162924e-03
9.278808025780144880e-03
9.276006192729844071e-03
9.273204696004767877e-03
9.270403535732352554e-03
9.267602712039964968e-03
9.264802225054897394e-03
9.262002074904379656e-03
9.259202261715573923e-03
9.256402785615579915e-03
9.253603646731426227e-03
9.250804845190065129e-03
9.248006381118382968e-03
9.245208254643198439e-03
9.242410465891260848e-03
9.239613014989246642e-03
9.236815902063764613e-03
9.234019127241361105e-03
9.231222690648511336e-03
9.228426592411621138e-03
9.225630832657026950e-03
9.222835411511002765e-03
9.220040329099753185e-03
9.217245585549420361e-03
9.214451180986083997e-03
9.211657115535763080e-03
9.208863389324410675e-03
9.206070002477912198e-03
9.203276955122085407e-03
9.200484247382680406e-03
9.197691879385381380e-03
9.194899851255811801e-03
9.192108163119524014e-03
9.189316815102007915e-03
9.186525807328689217e-03
9.183735139924934648e-03
9.180944813016039818e-03
9.178154826727234414e-03
9.175365181183680469e-03
9.172575876510477566e-03
9.169786912832666309e-03
9.166998290275216177e-03
9.164210008963030729e-03
9.161422069020949341e-03
9.158634470573750672e-03
9.155847213746152666e-03
9.153060298662805613e-03
9.150273725448292150e-03
9.147487494227122054e-03
9.144701605123739183e-03
9.141916058262521474e-03
9.139130853767777479e-03
9.136345991763753296e-03
9.133561472374627371e-03
9.130777295724510495e-03
9.127993461937440600e-03
9.125209971137387965e-03
9.122426823448253480e-03
9.119644018993875584e-03
9.116861557898033736e-03
9.114079440284443209e-03
9.111297666276755094e-03
9.108516235998559765e-03
9.105735149573381676e-03
9.102954407124688035e-03
9.100174008775887072e-03
9.097393954650328032e-03
9.094614244871301184e-03
9.091834879562029140e-03
9.089055858845670327e-03
9.086277182845317255e-03
9.083498851683999981e-03
9.080720865484687848e-03
9.077943224370284281e-03
9.075165928463635456e-03
9.072388977887528572e-03
9.069612372764684904e-03
9.066836113217761547e-03
9.064060199369354878e-03
9.061284631341995355e-03
9.058509409258150985e-03
9.055734533240229062e-03
9.052960003410588305e-03
9.050185819891523251e-03
9.047411982805259045e-03
9.044638492273960120e-03
9.041865348419731926e-03
9.039092551364619199e-03
9.036320101230602489e-03
9.033547998139599897e-03
9.030776242213468807e-03
9.028004833574005891e-03
9.025233772342945368e-03
9.022463058641962477e-03
9.019692692592671743e-03
9.016922674316633912e-03
9.014153003935345548e-03
9.011383681570242499e-03
9.008614707342703365e-03
9.005846081374052972e-03
9.003077803785560634e-03
9.000309874698434950e-03
8.997542294233823804e-03
8.994775062512819566e-03
8.992008179656460834e-03
8.989241645785725487e-03
8.986475461021530692e-03
8.983709625484727693e-03
8.980944139296117429e-03
8.978179002576443593e-03
8.975414215446390898e-03
8.972649778026581605e-03
8.969885690437573791e-03
8.967121952799861351e-03
8.964358565233880929e-03
8.961595527860010194e-03
8.958832840798562624e-03
8.956070504169794458e-03
8.953308518093915092e-03
8.950546882691078412e-03
8.947785598081381062e-03
8.945024664384862434e-03
8.942264081721506414e-03
8.939503850211243108e-03
8.936743969973941909e-03
8.933984441129420168e-03
8.931225263797441458e-03
8.928466438097713842e-03
8.925707964149889873e-03
8.922949842073559651e-03
8.920192071988262972e-03
8.917434654013482384e-03
8.914677588268637987e-03
8.911920874873094367e-03
8.909164513946165806e-03
8.906408505607114542e-03
8.903652849975152508e-03
8.900897547169437860e-03
8.898142597309074975e-03
8.895388000513109253e-03
8.892633756900539255e-03
8.889879866590316704e-03
8.887126329701341282e-03
8.884373146352462364e-03
8.881620316662480752e-03
8.878867840750145207e-03
8.876115718734154184e-03
8.873363950733152358e-03
8.870612536865730632e-03
8.867861477250419192e-03
8.865110772005701384e-03
8.862360421250013720e-03
8.859610425101738934e-03
8.856860783679212923e-03
8.854111497100721276e-03
8.851362565484495806e-03
8.848613988948716286e-03
8.845865767611515648e-03
8.843117901590976521e-03
8.840370391005126019e-03
8.837623235971939217e-03
8.834876436609346087e-03
8.832129993035221088e-03
8.829383905367388374e-03
8.826638173723620057e-03
8.823892798221643144e-03
8.821147778979137807e-03
8.818403116113737381e-03
8.815658809743023155e-03
8.812914859984527852e-03
8.810171266955740821e-03
8.807428030774108046e-03
8.804685151557026940e-03
8.801942629421849809e-03
8.799200464485878656e-03
8.796458656866368644e-03
8.793717206680526366e-03
8.790976114045513309e-03
8.788235379078442391e-03
8.785495001896381426e-03
8.782754982616354858e-03
8.780015321355338562e-03
8.777276018230263308e-03
8.774537073358007824e-03
8.771798486855409208e-03
8.769060258839254246e-03
8.766322389426279421e-03
8.763584878733184785e-03
8.760847726876621819e-03
8.758110933973191695e-03
8.755374500139443544e-03
8.752638425491884866e-03
8.749902710146976320e-03
8.747167354221129995e-03
8.744432357830714611e-03
8.741697721092055520e-03
8.738963444121434707e-03
8.736229527035087317e-03
8.733495969949213802e-03
8.730762772979966044e-03
8.728029936243456022e-03
8.725297459855755819e-03
8.722565343932894150e-03
8.719833588590859830e-03
8.717102193945601776e-03
8.714371160113030743e-03
8.711640487209014114e-03
8.708910175349370703e-03
8.706180224649874219e-03
8.703450635226255006e-03
8.700721407194206974e-03
8.697992540669378936e-03
8.695264035767381536e-03
8.692535892603782052e-03
8.689808111294111334e-03
8.687080691953863801e-03
8.684353634698490504e-03
8.681626939643399127e-03
8.678900606903953985e-03
8.676174636595488168e-03
8.673449028833301808e-03
8.670723783732656870e-03
8.667998901408777157e-03
8.665274381976839635e-03
8.662550225551986574e-03
8.659826432249327285e-03
8.657103002183931181e-03
8.654379935470829510e-03
8.651657232225015356e-03
8.648934892561447110e-03
8.646212916595041528e-03
8.643491304440678938e-03
8.640770056213199768e-03
8.638049172027401079e-03
8.635328651998052177e-03
8.632608496239887672e-03
8.629888704867612684e-03
8.627169277995894170e-03
8.624450215739366127e-03
8.621731518212627857e-03
8.619013185530242233e-03
8.616295217806735698e-03
8.613577615156598269e-03
8.610860377694290468e-03
8.608143505534236392e-03
8.605426998790827176e-03
8.602710857578424464e-03
8.599995082011363881e-03
8.597279672203946357e-03
8.594564628270443332e-03
8.591849950325098489e-03
8.589135638482129492e-03
8.586421692855719309e-03
8.583708113560023154e-03
8.580994900709165013e-03
8.578282054417242855e-03
8.575569574798323422e-03
8.572857461966445700e-03
8.570145716035624389e-03
8.567434337119839496e-03
8.564723325333041537e-03
8.562012680789155006e-03
8.559302403602069703e-03
8.556592493885647674e-03
8.553882951753716268e-03
8.551173777320078551e-03
8.548464970698513299e-03
8.545756532002768066e-03
8.543048461346562650e-03
8.540340758843583888e-03
8.537633424607496066e-03
8.534926458751932246e-03
8.532219861390495999e-03
8.529513632636761405e-03
8.526807772604279995e-03
8.524102281406580744e-03
8.521397159157170081e-03
8.518692405969533615e-03
8.515988021957139609e-03
8.513284007233432038e-03
8.510580361911827124e-03
8.507877086105720271e-03
8.505174179928487802e-03
8.502471643493483486e-03
8.499769476914035074e-03
8.497067680303451234e-03
8.494366253775019818e-03
8.491665197442013063e-03
8.488964511417682393e-03
8.486264195815251474e-03
8.483564250747924890e-03
8.480864676328882940e-03
8.478165472671290309e-03
8.475466639888292603e-03
8.472768178093011138e-03
8.470070087398549885e-03
8.467372367917997203e-03
8.464675019764422367e-03
8.461978043050865164e-03
8.459281437890348032e-03
8.456585204395876063e-03
8.453889342680438734e-03
8.451193852857008179e-03
8.448498735038540916e-03
8.445803989337972648e-03
8.443109615868216525e-03
8.440415614742166617e-03
8.437721986072704849e-03
8.435028729972697537e-03
8.432335846554993644e-03
8.429643335932424791e-03
8.426951198217812189e-03
8.424259433523957966e-03
8.421568041963652107e-03
8.418877023649670721e-03
8.416186378694781242e-03
8.413496107211733757e-03
8.410806209313264475e-03
8.408116685112095728e-03
8.405427534720935970e-03
8.402738758252479775e-03
8.400050355819404374e-03
8.397362327534369647e-03
8.394674673510023333e-03
8.391987393859001026e-03
8.389300488693920976e-03
8.386613958127397961e-03
8.383927802272043289e-03
8.381242021240454393e-03
8.378556615145218295e-03
8.375871584098908140e-03
8.373186928214081462e-03
8.370502647603287119e-03
8.367818742379065297e-03
8.365135212653949243e-03
8.362452058540458324e-03
8.359769280151103238e-03
8.357086877598386004e-03
8.354404850994794768e-03
8.351723200452807264e-03
8.349041926084892554e-03
8.346361028003514496e-03
8.343680506321135212e-03
8.341000361150209888e-03
8.338320592603191972e-03
8.335641200792536648e-03
8.332962185830692162e-03
8.330283547830094615e-03
8.327605286903167967e-03
8.324927403162332706e-03
8.322249896719997181e-03
8.319572767688568002e-03
8.316896016180455251e-03
8.314219642308063804e-03
8.311543646183791600e-03
8.308868027920033109e-03
8.306192787629181062e-03
8.303517925423626461e-03
8.300843441415753365e-03
8.298169335717938896e-03
8.295495608442565380e-03
8.292822259702015142e-03
8.290149289608673977e-03
8.287476698274927681e-03
8.284804485813162048e-03
8.282132652335762873e-03
8.279461197955115953e-03
8.276790122783603612e-03
8.274119426933611646e-03
8.271449110517524114e-03
8.268779173647719874e-03
8.266109616436572577e-03
8.263440438996469753e-03
8.260771641439804136e-03
8.258103223878968460e-03
8.255435186426358929e-03
8.252767529194373480e-03
8.250100252295418726e-03
8.247433355841903013e-03
8.244766839946238157e-03
8.242100704720844648e-03
8.239434950278142974e-03
8.236769576730555362e-03
8.234104584190510973e-03
8.231439972770440705e-03
8.228775742582784131e-03
8.226111893739992964e-03
8.223448426354517185e-03
8.220785340538808508e-03
8.218122636405322118e-03
8.215460314066530545e-03
8.212798373634909790e-03
8.210136815222944529e-03
8.207475638943131577e-03
8.204814844907979896e-03
8.202154433230008854e-03
8.199494404021748228e-03
8.196834757395734736e-03
8.194175493464515500e-03
8.191516612340642850e-03
8.188858114136681257e-03
8.186199998965209071e-03
8.183542266938816784e-03
8.180884918170112236e-03
8.178227952771713674e-03
8.175571370856248021e-03
8.172915172536361281e-03
8.170259357924715068e-03
8.167603927133984879e-03
8.164948880276854878e-03
8.162294217466028318e-03
8.159639938814229262e-03
8.156986044434200861e-03
8.154332534438696670e-03
8.151679408940487592e-03
8.149026668052361880e-03
8.146374311887121661e-03
8.143722340557589881e-03
8.141070754176608568e-03
8.138419552857030156e-03
8.135768736711720961e-03
8.133118305853568111e-03
8.130468260395477820e-03
8.127818600450371911e-03
8.125169326131189557e-03
8.122520437550889011e-03
8.119871934822452814e-03
8.117223818058887791e-03
8.114576087373219851e-03
8.111928742878487045e-03
8.109281784687755179e-03
8.106635212914110877e-03
8.103989027670661580e-03
8.101343229070532073e-03
8.098697817226864493e-03
8.096052792252821789e-03
8.093408154261585996e-03
8.090763903366365167e-03
8.088120039680389908e-03
8.085476563316913376e-03
8.082833474389206074e-03
8.080190773010557589e-03
8.077548459294285263e-03
8.074906533353730723e-03
8.072264995302261617e-03
8.069623845253268146e-03
8.066983083320157857e-03
8.064342709616362584e-03
8.061702724255345384e-03
8.059063127350591868e-03
8.056423919015611931e-03
8.053785099363944960e-03
8.051146668509154627e-03
8.048508626564837565e-03
8.045870973644611221e-03
8.043233709862115596e-03
8.040596835331013242e-03
8.037960350164994466e-03
8.035324254477779066e-03
8.032688548383107655e-03
8.030053231994743398e-03
8.027418305426472014e-03
8.024783768792108710e-03
8.022149622205496447e-03
8.019515865780507680e-03
8.016882499631042616e-03
8.014249523871027486e-03
8.011616938614416275e-03
8.008984743975194193e-03
8.006352940067367266e-03
8.003721527004971012e-03
8.001090504902066969e-03
7.998459873872739226e-03
7.995829634031094424e-03
7.993199785491272163e-03
7.990570328367441535e-03
7.987941262773794182e-03
7.985312588824547766e-03
7.982684306633951177e-03
7.980056416316281057e-03
7.977428917985838336e-03
7.974801811756955169e-03
7.972175097743994937e-03
7.969548776061348774e-03
7.966922846823439042e-03
7.964297310144708916e-03
7.961672166139631066e-03
7.959047414922705913e-03
7.956423056608456432e-03
7.953799091311429884e-03
7.951175519146208223e-03
7.948552340227406365e-03
7.945929554669666980e-03
7.943307162587665698e-03
7.940685164096111109e-03
7.938063559309737824e-03
7.935442348343304739e-03
7.932821531311601976e-03
7.930201108329443943e-03
7.927581079511667600e-03
7.924961444973135927e-03
7.922342204828734455e-03
7.919723359193381676e-03
7.917104908182027306e-03
7.914486851909641879e-03
7.911869190491227152e-03
7.909251924041812640e-03
7.906635052676459080e-03
7.904018576510254968e-03
7.901402495658316552e-03
7.898786810235787839e-03
7.896171520357840590e-03
7.893556626139669116e-03
7.890942127696493752e-03
7.888328025143560851e-03
7.885714318596141054e-03
7.883101008169532756e-03
7.880488093979062109e-03
7.877875576140081285e-03
7.875263454767975416e-03
7.872651729978152185e-03
7.870040401886041828e-03
7.867429470607100600e-03
7.864818936256809043e-03
7.862208798950673719e-03
7.859599058804223742e-03
7.856989715933010779e-03
7.854380770452605576e-03
7.851772222478611840e-03
7.849164072126654096e-03
7.846556319512386357e-03
7.843948964751485189e-03
7.841342007959646240e-03
7.838735449252594648e-03
7.836129288746083305e-03
7.833523526555889391e-03
7.830918162797817841e-03
7.828313197587696143e-03
7.825708631041384741e-03
7.823104463274766635e-03
7.820500694403754310e-03
7.817897324544284543e-03
7.815294353812314923e-03
7.812691782323830797e-03
7.810089610194844399e-03
7.807487837541393985e-03
7.804886464479540362e-03
7.802285491125367754e-03
7.799684917594987277e-03
7.797084744004531727e-03
