-7.017293346255852084e-03
-7.016425483289894828e-03
-7.015557534991712779e-03
-7.014689501337919263e-03
-7.013821382305174441e-03
-7.012953177870185316e-03
-7.012084888009705724e-03
-7.011216512700534607e-03
-7.010348051919524683e-03
-7.009479505643582443e-03
-7.008610873849665558e-03
-7.007742156514786339e-03
-7.006873353616012608e-03
-7.006004465130470302e-03
-7.005135491035336531e-03
-7.004266431307842183e-03
-7.003397285925277126e-03
-7.002528054864988472e-03
-7.001658738104380580e-03
-7.000789335620912456e-03
-6.999919847392102080e-03
-6.999050273395527287e-03
-6.998180613608823153e-03
-6.997310868009688940e-03
-6.996441036575885494e-03
-6.995571119285230038e-03
-6.994701116115600512e-03
-6.993831027044943374e-03
-6.992960852051267537e-03
-6.992090591112654768e-03
-6.991220244207250155e-03
-6.990349811313266437e-03
-6.989479292408984877e-03
-6.988608687472752656e-03
-6.987737996482987213e-03
-6.986867219418173638e-03
-6.985996356256868149e-03
-6.985125406977696350e-03
-6.984254371559354968e-03
-6.983383249980615326e-03
-6.982512042220324205e-03
-6.981640748257408186e-03
-6.980769368070873643e-03
-6.979897901639805016e-03
-6.979026348943366542e-03
-6.978154709960797918e-03
-6.977282984671417769e-03
-6.976411173054633194e-03
-6.975539275089931088e-03
-6.974667290756880744e-03
-6.973795220035134725e-03
-6.972923062904427122e-03
-6.972050819344577030e-03
-6.971178489335489413e-03
-6.970306072857153368e-03
-6.969433569889649932e-03
-6.968560980413148614e-03
-6.967688304407912599e-03
-6.966815541854296141e-03
-6.965942692732748041e-03
-6.965069757023809906e-03
-6.964196734708119618e-03
-6.963323625766405268e-03
-6.962450430179486886e-03
-6.961577147928283381e-03
-6.960703778993807336e-03
-6.959830323357170216e-03
-6.958956780999584965e-03
-6.958083151902362540e-03
-6.957209436046917980e-03
-6.956335633414772145e-03
-6.955461743987550842e-03
-6.954587767746985699e-03
-6.953713704674906355e-03
-6.952839554753247400e-03
-6.951965317964048374e-03
-6.951090994289462442e-03
-6.950216583711753791e-03
-6.949342086213301968e-03
-6.948467501776595806e-03
-6.947592830384236896e-03
-6.946718072018941321e-03
-6.945843226663541391e-03
-6.944968294300989109e-03
-6.944093274914350106e-03
-6.943218168486804502e-03
-6.942342975001651248e-03
-6.941467694442309856e-03
-6.940592326792320403e-03
-6.939716872035343528e-03
-6.938841330155162170e-03
-6.937965701135683297e-03
-6.937089984960928372e-03
-6.936214181615039422e-03
-6.935338291082282502e-03
-6.934462313347050308e-03
-6.933586248393863900e-03
-6.932710096207371844e-03
-6.931833856772347605e-03
-6.930957530073692148e-03
-6.930081116096433944e-03
-6.929204614825735034e-03
-6.928328026246888434e-03
-6.927451350345316394e-03
-6.926574587106574740e-03
-6.925697736516353738e-03
-6.924820798560478961e-03
-6.923943773224914763e-03
-6.923066660495766009e-03
-6.922189460359272004e-03
-6.921312172801809097e-03
-6.920434797809895018e-03
-6.919557335370189743e-03
-6.918679785469496364e-03
-6.917802148094755882e-03
-6.916924423233044607e-03
-6.916046610871581096e-03
-6.915168710997726155e-03
-6.914290723598979366e-03
-6.913412648662987763e-03
-6.912534486177544096e-03
-6.911656236130585967e-03
-6.910777898510193223e-03
-6.909899473304589694e-03
-6.909020960502146660e-03
-6.908142360091379386e-03
-6.907263672060947983e-03
-6.906384896399665220e-03
-6.905506033096493052e-03
-6.904627082140547822e-03
-6.903748043521101135e-03
-6.902868917227575514e-03
-6.901989703249545270e-03
-6.901110401576740841e-03
-6.900231012199048788e-03
-6.899351535106512667e-03
-6.898471970289331290e-03
-6.897592317737859594e-03
-6.896712577442607774e-03
-6.895832749394244753e-03
-6.894952833583589506e-03
-6.894072830001621473e-03
-6.893192738639484021e-03
-6.892312559488479248e-03
-6.891432292540071447e-03
-6.890551937785883638e-03
-6.889671495217698435e-03
-6.888790964827461519e-03
-6.887910346607279896e-03
-6.887029640549419303e-03
-6.886148846646306804e-03
-6.885267964890534262e-03
-6.884386995274855738e-03
-6.883505937792189222e-03
-6.882624792435623577e-03
-6.881743559198407259e-03
-6.880862238073959594e-03
-6.879980829055869045e-03
-6.879099332137889738e-03
-6.878217747313947542e-03
-6.877336074578133986e-03
-6.876454313924710605e-03
-6.875572465348106337e-03
-6.874690528842918383e-03
-6.873808504403914818e-03
-6.872926392026034587e-03
-6.872044191704388370e-03
-6.871161903434252517e-03
-6.870279527211073378e-03
-6.869397063030469909e-03
-6.868514510888230201e-03
-6.867631870780315818e-03
-6.866749142702862664e-03
-6.865866326652178379e-03
-6.864983422624742343e-03
-6.864100430617209141e-03
-6.863217350626404228e-03
-6.862334182649331739e-03
-6.861450926683176216e-03
-6.860567582725301747e-03
-6.859684150773245892e-03
-6.858800630824727490e-03
-6.857917022877638852e-03
-6.857033326930049230e-03
-6.856149542980209156e-03
-6.855265671026544369e-03
-6.854381711067658416e-03
-6.853497663102333520e-03
-6.852613527129527982e-03
-6.851729303148382244e-03
-6.850844991158215429e-03
-6.849960591158526201e-03
-6.849076103148990166e-03
-6.848191527129465946e-03
-6.847306863099996040e-03
-6.846422111060804228e-03
-6.845537271012301639e-03
-6.844652342955079814e-03
-6.843767326889914175e-03
-6.842882222817757952e-03
-6.841997030739739583e-03
-6.841111750657169650e-03
-6.840226382571540018e-03
-6.839340926484527294e-03
-6.838455382397994574e-03
-6.837569750313991432e-03
-6.836684030234752192e-03
-6.835798222162693324e-03
-6.834912326100415179e-03
-6.834026342050700253e-03
-6.833140270016513189e-03
-6.832254110001005978e-03
-6.831367862007520567e-03
-6.830481526039581912e-03
-6.829595102100905792e-03
-6.828708590195391864e-03
-6.827821990327129741e-03
-6.826935302500392044e-03
-6.826048526719635280e-03
-6.825161662989499833e-03
-6.824274711314810837e-03
-6.823387671700580775e-03
-6.822500544152008614e-03
-6.821613328674480670e-03
-6.820726025273567139e-03
-6.819838633955026437e-03
-6.818951154724805196e-03
-6.818063587589033928e-03
-6.817175932554030496e-03
-6.816288189626296644e-03
-6.815400358812524935e-03
-6.814512440119598752e-03
-6.813624433554589695e-03
-6.812736339124754112e-03
-6.811848156837535702e-03
-6.810959886700568983e-03
-6.810071528721679292e-03
-6.809183082908880184e-03
-6.808294549270376035e-03
-6.807405927814557701e-03
-6.806517218550004258e-03
-6.805628421485482131e-03
-6.804739536629947697e-03
-6.803850563992549019e-03
-6.802961503582621514e-03
-6.802072355409689679e-03
-6.801183119483468834e-03
-6.800293795813862514e-03
-6.799404384410960740e-03
-6.798514885285035676e-03
-6.797625298446549440e-03
-6.796735623906148029e-03
-6.795845861674663924e-03
-6.794956011763118690e-03
-6.794066074182719510e-03
-6.793176048944859179e-03
-6.792285936061123915e-03
-6.791395735543289888e-03
-6.790505447403324957e-03
-6.789615071653381725e-03
-6.788724608305798415e-03
-6.787834057373095392e-03
-6.786943418867977772e-03
-6.786052692803338018e-03
-6.785161879192256815e-03
-6.784270978047999591e-03
-6.783379989384018260e-03
-6.782488913213952086e-03
-6.781597749551628550e-03
-6.780706498411061614e-03
-6.779815159806448256e-03
-6.778923733752171936e-03
-6.778032220262805198e-03
-6.777140619353103600e-03
-6.776248931038009182e-03
-6.775357155332648734e-03
-6.774465292252330323e-03
-6.773573341812547631e-03
-6.772681304028975620e-03
-6.771789178917473132e-03
-6.770896966494086358e-03
-6.770004666775041903e-03
-6.769112279776750250e-03
-6.768219805515804897e-03
-6.767327244008981488e-03
-6.766434595273235209e-03
-6.765541859325704260e-03
-6.764649036183705520e-03
-6.763756125864733675e-03
-6.762863128386463821e-03
-6.761970043766748865e-03
-6.761076872023626463e-03
-6.760183613175311211e-03
-6.759290267240198116e-03
-6.758396834236861730e-03
-6.757503314184051812e-03
-6.756609707100696798e-03
-6.755716013005902930e-03
-6.754822231918957733e-03
-6.753928363859327405e-03
-6.753034408846655956e-03
-6.752140366900764336e-03
-6.751246238041646100e-03
-6.750352022289466541e-03
-6.749457719664573967e-03
-6.748563330187496226e-03
-6.747668853878942448e-03
-6.746774290759795234e-03
-6.745879640851108056e-03
-6.744984904174108724e-03
-6.744090080750197655e-03
-6.743195170600947870e-03
-6.742300173748101526e-03
-6.741405090213571649e-03
-6.740509920019445607e-03
-6.739614663187985973e-03
-6.738719319741628792e-03
-6.737823889702982717e-03
-6.736928373094829871e-03
-6.736032769940120644e-03
-6.735137080261972831e-03
-6.734241304083672490e-03
-6.733345441428676553e-03
-6.732449492320605015e-03
-6.731553456783247874e-03
-6.730657334840560793e-03
-6.729761126516667705e-03
-6.728864831835860809e-03
-6.727968450822599707e-03
-6.727071983501510533e-03
-6.726175429897385954e-03
-6.725278790035187776e-03
-6.724382063940042599e-03
-6.723485251637238355e-03
-6.722588353152226907e-03
-6.721691368510626652e-03
-6.720794297738215579e-03
-6.719897140860934745e-03
-6.718999897904883063e-03
-6.718102568896315574e-03
-6.717205153861645177e-03
-6.716307652827445233e-03
-6.715410065820446965e-03
-6.714512392867536851e-03
-6.713614633995763567e-03
-6.712716789232329312e-03
-6.711818858604592410e-03
-6.710920842140067309e-03
-6.710022739866423717e-03
-6.709124551811482262e-03
-6.708226278003224033e-03
-6.707327918469786245e-03
-6.706429473239458768e-03
-6.705530942340680658e-03
-6.704632325802039293e-03
-6.703733623652272100e-03
-6.702834835920265695e-03
-6.701935962635059349e-03
-6.701037003825840652e-03
-6.700137959521944644e-03
-6.699238829752852953e-03
-6.698339614548192919e-03
-6.697440313937734133e-03
-6.696540927951391033e-03
-6.695641456619222040e-03
-6.694741899971432160e-03
-6.693842258038367778e-03
-6.692942530850516658e-03
-6.692042718438508814e-03
-6.691142820833113902e-03
-6.690242838065239492e-03
-6.689342770165931928e-03
-6.688442617166378938e-03
-6.687542379097905290e-03
-6.686642055991971929e-03
-6.685741647880178579e-03
-6.684841154794255932e-03
-6.683940576766071728e-03
-6.683039913827622941e-03
-6.682139166011041853e-03
-6.681238333348588250e-03
-6.680337415872647684e-03
-6.679436413615739282e-03
-6.678535326610511406e-03
-6.677634154889742525e-03
-6.676732898486338608e-03
-6.675831557433334860e-03
-6.674930131763890523e-03
-6.674028621511293204e-03
-6.673127026708957146e-03
-6.672225347390422362e-03
-6.671323583589354629e-03
-6.670421735339542892e-03
-6.669519802674894922e-03
-6.668617785629438188e-03
-6.667715684237318120e-03
-6.666813498532799843e-03
-6.665911228550264710e-03
-6.665008874324209430e-03
-6.664106435889247809e-03
-6.663203913280109879e-03
-6.662301306531641029e-03
-6.661398615678797673e-03
-6.660495840756647246e-03
-6.659592981800366469e-03
-6.658690038845246559e-03
-6.657787011926686281e-03
-6.656883901080194559e-03
-6.655980706341385264e-03
-6.655077427745976354e-03
-6.654174065329793337e-03
-6.653270619128767542e-03
-6.652367089178937848e-03
-6.651463475516443749e-03
-6.650559778177523619e-03
-6.649655997198513843e-03
-6.648752132615848819e-03
-6.647848184466065291e-03
-6.646944152785798018e-03
-6.646040037611776301e-03
-6.645135838980822246e-03
-6.644231556929849902e-03
-6.643327191495864391e-03
-6.642422742715967110e-03
-6.641518210627347929e-03
-6.640613595267285188e-03
-6.639708896673143963e-03
-6.638804114882376935e-03
-6.637899249932527855e-03
-6.636994301861221142e-03
-6.636089270706169684e-03
-6.635184156505170502e-03
-6.634278959296104755e-03
-6.633373679116931661e-03
-6.632468316005691103e-03
-6.631562870000503630e-03
-6.630657341139571323e-03
-6.629751729461176926e-03
-6.628846035003680380e-03
-6.627940257805520555e-03
-6.627034397905206577e-03
-6.626128455341313492e-03
-6.625222430152491807e-03
-6.624316322377458814e-03
-6.623410132055001197e-03
-6.622503859223974158e-03
-6.621597503923299689e-03
-6.620691066191969169e-03
-6.619784546069042500e-03
-6.618877943593645501e-03
-6.617971258804965576e-03
-6.617064491742248242e-03
-6.616157642444795393e-03
