2.628965653571127548e-02
2.629358179036308391e-02
2.629750565256403286e-02
2.630142812193993207e-02
2.630534919811666414e-02
2.630926888072018452e-02
2.631318716937652152e-02
2.631710406371180061e-02
2.632101956335223397e-02
2.632493366792410666e-02
2.632884637705380088e-02
2.633275769036778208e-02
2.633666760749259900e-02
2.634057612805488363e-02
2.634448325168135124e-02
2.634838897799881077e-02
2.635229330663416483e-02
2.635619623721439930e-02
2.636009776936657986e-02
2.636399790271784851e-02
2.636789663689545135e-02
2.637179397152670038e-02
2.637568990623900475e-02
2.637958444065983954e-02
2.638347757441673880e-02
2.638736930713730944e-02
2.639125963844922082e-02
2.639514856798023251e-02
2.639903609535818041e-02
2.640292222021097326e-02
2.640680694216659269e-02
2.641069026085307928e-02
2.641457217589855688e-02
2.641845268693120835e-02
2.642233179357929285e-02
2.642620949547115627e-02
2.643008579223522433e-02
2.643396068350000599e-02
2.643783416889409696e-02
2.644170624804615885e-02
2.644557692058492268e-02
2.644944618613919232e-02
2.645331404433786185e-02
2.645718049480990167e-02
2.646104553718433769e-02
2.646490917109025134e-02
2.646877139615677610e-02
2.647263221201312175e-02
2.647649161828857789e-02
2.648034961461249656e-02
2.648420620061431655e-02
2.648806137592352866e-02
2.649191514016968965e-02
2.649576749298242911e-02
2.649961843399143563e-02
2.650346796282646022e-02
2.650731607911730250e-02
2.651116278249383493e-02
2.651500807258601322e-02
2.651885194902385209e-02
2.652269441143744258e-02
2.652653545945692082e-02
2.653037509271249234e-02
2.653421331083443205e-02
2.653805011345308426e-02
2.654188550019883491e-02
2.654571947070215321e-02
2.654955202459357774e-02
2.655338316150371303e-02
2.655721288106320521e-02
2.656104118290274207e-02
2.656486806665307385e-02
2.656869353194500627e-02
2.657251757840938672e-02
2.657634020567710767e-02
2.658016141337909630e-02
2.658398120114633528e-02
2.658779956860986976e-02
2.659161651540078997e-02
2.659543204115023818e-02
2.659924614548942259e-02
2.660305882804961039e-02
2.660687008846211385e-02
2.661067992635829382e-02
2.661448834136955974e-02
2.661829533312738000e-02
2.662210090126329240e-02
2.662590504540888331e-02
2.662970776519578767e-02
2.663350906025567857e-02
2.663730893022028465e-02
2.664110737472137960e-02
2.664490439339079267e-02
2.664869998586038430e-02
2.665249415176205658e-02
2.665628689072774976e-02
2.666007820238944573e-02
2.666386808637915412e-02
2.666765654232891233e-02
2.667144356987079593e-02
2.667522916863691515e-02
2.667901333825941843e-02
2.668279607837049580e-02
2.668657738860239978e-02
2.669035726858741756e-02
2.669413571795789183e-02
2.669791273634620002e-02
2.670168832338477849e-02
2.670546247870611567e-02
2.670923520194273815e-02
2.671300649272720373e-02
2.671677635069211534e-02
2.672054477547009671e-02
2.672431176669381667e-02
2.672807732399598915e-02
2.673184144700937667e-02
2.673560413536678684e-02
2.673936538870106891e-02
2.674312520664508946e-02
2.674688358883174633e-02
2.675064053489397894e-02
2.675439604446475800e-02
2.675815011717707151e-02
2.676190275266393179e-02
2.676565395055838931e-02
2.676940371049351189e-02
2.677315203210239511e-02
2.677689891501818659e-02
2.678064435887404782e-02
2.678438836330316458e-02
2.678813092793874695e-02
2.679187205241404315e-02
2.679561173636233612e-02
2.679934997941693306e-02
2.680308678121117935e-02
2.680682214137845507e-02
2.681055605955216456e-02
2.681428853536573648e-02
2.681801956845262028e-02
2.682174915844628624e-02
2.682547730498023586e-02
2.682920400768800187e-02
2.683292926620315516e-02
2.683665308015930132e-02
2.684037544919005980e-02
2.684409637292906742e-02
2.684781585100998180e-02
2.685153388306649180e-02
2.685525046873230015e-02
2.685896560764112692e-02
2.686267929942672342e-02
2.686639154372284441e-02
2.687010234016324814e-02
2.687381168838171713e-02
2.687751958801204433e-02
2.688122603868803653e-02
2.688493104004351791e-02
2.688863459171234385e-02
2.689233669332837667e-02
2.689603734452548564e-02
2.689973654493755736e-02
2.690343429419847845e-02
2.690713059194214246e-02
2.691082543780248110e-02
2.691451883141345036e-02
2.691821077240901319e-02
2.692190126042314294e-02
2.692559029508983723e-02
2.692927787604311451e-02
2.693296400291701406e-02
2.693664867534559595e-02
2.694033189296291333e-02
2.694401365540305404e-02
2.694769396230011285e-02
2.695137281328820189e-02
2.695505020800145063e-02
2.695872614607400936e-02
2.696240062714002142e-02
2.696607365083364752e-02
2.696974521678906223e-02
2.697341532464042971e-02
2.697708397402193495e-02
2.698075116456776640e-02
2.698441689591212292e-02
2.698808116768920337e-02
2.699174397953321355e-02
2.699540533107838702e-02
2.699906522195896774e-02
2.700272365180918580e-02
2.700638062026328515e-02
2.701003612695550976e-02
2.701369017152010013e-02
2.701734275359130716e-02
2.702099387280339562e-02
2.702464352879064072e-02
2.702829172118732803e-02
2.703193844962774317e-02
2.703558371374616479e-02
2.703922751317687848e-02
2.704286984755415596e-02
2.704651071651226202e-02
2.705015011968547878e-02
2.705378805670809877e-02
2.705742452721441108e-02
2.706105953083871168e-02
2.706469306721528967e-02
2.706832513597845491e-02
2.707195573676253811e-02
2.707558486920185956e-02
2.707921253293074301e-02
2.708283872758351918e-02
2.708646345279452222e-02
2.709008670819808631e-02
2.709370849342854909e-02
2.709732880812024125e-02
2.710094765190748309e-02
2.710456502442456714e-02
2.710818092530579981e-02
2.711179535418546324e-02
2.711540831069784302e-02
2.711901979447721087e-02
2.712262980515783850e-02
2.712623834237399764e-02
2.712984540575996001e-02
2.713345099494999385e-02
2.713705510957836395e-02
2.714065774927933508e-02
2.714425891368715815e-02
2.714785860243608406e-02
2.715145681516037413e-02
2.715505355149426883e-02
2.715864881107199133e-02
2.716224259352773701e-02
2.716583489849568392e-02
2.716942572561000316e-02
2.717301507450484502e-02
2.717660294481435285e-02
2.718018933617268040e-02
2.718377424821397798e-02
2.718735768057239932e-02
2.719093963288207738e-02
2.719452010477715551e-02
2.719809909589173888e-02
2.720167660585992228e-02
2.720525263431579355e-02
2.720882718089344746e-02
2.721240024522694062e-02
2.721597182695029149e-02
2.721954192569751158e-02
2.722311054110258810e-02
2.722667767279948053e-02
2.723024332042212406e-02
2.723380748360444692e-02
2.723737016198037736e-02
2.724093135518381240e-02
2.724449106284862476e-02
2.724804928460864903e-02
2.725160602009770935e-02
2.725516126894959174e-02
2.725871503079807870e-02
2.726226730527693543e-02
2.726581809201988546e-02
2.726936739066063847e-02
2.727291520083289025e-02
2.727646152217033659e-02
2.728000635430664553e-02
2.728354969687545734e-02
2.728709154951038107e-02
2.729063191184500844e-02
2.729417078351293116e-02
2.729770816414770970e-02
2.730124405338288374e-02
2.730477845085197558e-02
2.730831135618849367e-02
2.731184276902592564e-02
2.731537268899775217e-02
2.731890111573744007e-02
2.732242804887843879e-02
2.732595348805417698e-02
2.732947743289804859e-02
2.733299988304341635e-02
2.733652083812361175e-02
2.734004029777195935e-02
2.734355826162176289e-02
2.734707472930629144e-02
2.735058970045879320e-02
2.735410317471248173e-02
2.735761515170055322e-02
2.736112563105616916e-02
2.736463461241246675e-02
2.736814209540254852e-02
2.737164807965948229e-02
2.737515256481630119e-02
2.737865555050601404e-02
2.738215703636160542e-02
2.738565702201602517e-02
2.738915550710221622e-02
2.739265249125308679e-02
2.739614797410150696e-02
2.739964195528030513e-02
2.740313443442227506e-02
2.740662541116017578e-02
2.741011488512673858e-02
2.741360285595467391e-02
2.741708932327665757e-02
2.742057428672533756e-02
2.742405774593332374e-02
2.742753970053321555e-02
2.743102015015759856e-02
2.743449909443904794e-02
2.743797653301009026e-02
2.744145246550321396e-02
2.744492689155087969e-02
2.744839981078552385e-02
2.745187122283955852e-02
2.745534112734538193e-02
2.745880952393534025e-02
2.746227641224176924e-02
2.746574179189696305e-02
2.746920566253317417e-02
2.747266802378264469e-02
2.747612887527757855e-02
2.747958821665015192e-02
2.748304604753249933e-02
2.748650236755672757e-02
2.748995717635489139e-02
2.749341047355899348e-02
2.749686225880099491e-02
2.750031253171281512e-02
2.750376129192633537e-02
2.750720853907339877e-02
2.751065427278583109e-02
2.751409849269542685e-02
2.751754119843395630e-02
2.752098238963315152e-02
2.752442206592470297e-02
2.752786022694027335e-02
2.753129687231149758e-02
2.753473200166998286e-02
2.753816561464729473e-02
2.754159771087496059e-02
2.754502828998448005e-02
2.754845735160734929e-02
2.755188489537502630e-02
2.755531092091894479e-02
2.755873542787050726e-02
2.756215841586108495e-02
2.756557988452202484e-02
2.756899983348466351e-02
2.757241826238029589e-02
2.757583517084021343e-02
2.757925055849567639e-02
2.758266442497790683e-02
2.758607676991808866e-02
2.758948759294737804e-02
2.759289689369690338e-02
2.759630467179775143e-02
2.759971092688098121e-02
2.760311565857762398e-02
2.760651886651868323e-02
2.760992055033512083e-02
2.761332070965785701e-02
2.761671934411778426e-02
2.762011645334575688e-02
2.762351203697261878e-02
2.762690609462919653e-02
2.763029862594628544e-02
2.763368963055465657e-02
2.763707910808507057e-02
2.764046705816827418e-02
2.764385348043497254e-02
2.764723837451584301e-02
2.765062174004155257e-02
2.765400357664274389e-02
2.765738388395003189e-02
2.766076266159400374e-02
2.766413990920521884e-02
2.766751562641419498e-02
2.767088981285143953e-02
2.767426246814743557e-02
2.767763359193265230e-02
2.768100318383751729e-02
2.768437124349243036e-02
2.768773777052775317e-02
2.769110276457382655e-02
2.769446622526096705e-02
2.769782815221944958e-02
2.770118854507952130e-02
2.770454740347140163e-02
2.770790472702528914e-02
2.771126051537136162e-02
2.771461476813979682e-02
2.771796748496076213e-02
2.772131866546440060e-02
2.772466830928081369e-02
2.772801641604009243e-02
2.773136298537230704e-02
2.773470801690750345e-02
2.773805151027570332e-02
2.774139346510691786e-02
2.774473388103113405e-02
2.774807275767829026e-02
2.775141009467832834e-02
2.775474589166115197e-02
2.775808014825663014e-02
2.776141286409459716e-02
2.776474403880486302e-02
2.776807367201719959e-02
2.777140176336136135e-02
2.777472831246706811e-02
2.777805331896400151e-02
2.778137678248180850e-02
2.778469870265011174e-02
2.778801907909852695e-02
2.779133791145665250e-02
2.779465519935405207e-02
2.779797094242025465e-02
2.780128514028476841e-02
2.780459779257708416e-02
2.780790889892667539e-02
2.781121845896300862e-02
2.781452647231551570e-02
2.781783293861362152e-02
2.782113785748673365e-02
2.782444122856424229e-02
2.782774305147553071e-02
2.783104332584997870e-02
2.783434205131694872e-02
2.783763922750577199e-02
2.784093485404575199e-02
2.784422893056617485e-02
2.784752145669630585e-02
2.785081243206540685e-02
2.785410185630273969e-02
2.785738972903755231e-02
2.786067604989907881e-02
2.786396081851654979e-02
2.786724403451917853e-02
2.787052569753619216e-02
2.787380580719681783e-02
2.787708436313026880e-02
2.788036136496577222e-02
2.788363681233254135e-02
2.788691070485976170e-02
2.789018304217660837e-02
2.789345382391224606e-02
2.789672304969583599e-02
2.789999071915653939e-02
2.790325683192351053e-02
2.790652138762587942e-02
2.790978438589274829e-02
2.791304582635319512e-02
2.791630570863626315e-02
2.791956403237097137e-02
2.792282079718632487e-02
2.792607600271131835e-02
2.792932964857492914e-02
2.793258173440612765e-02
2.793583225983387042e-02
2.793908122448710701e-02
2.794232862799478356e-02
2.794557446998584965e-02
2.794881875008925834e-02
2.795206146793397309e-02
2.795530262314892614e-02
2.795854221536302892e-02
2.796178024420517549e-02
2.796501670930425648e-02
2.796825161028915555e-02
2.797148494678874941e-02
2.797471671843193911e-02
2.797794692484765339e-02
2.798117556566483144e-02
2.798440264051240897e-02
2.798762814901930435e-02
2.799085209081441858e-02
2.799407446552665268e-02
2.799729527278492155e-02
2.800051451221814008e-02
2.800373218345523704e-02
2.800694828612514467e-02
2.801016281985682296e-02
2.801337578427924233e-02
2.801658717902136275e-02
2.801979700371214771e-02
2.802300525798056066e-02
2.802621194145558242e-02
2.802941705376620074e-02
2.803262059454139296e-02
2.803582256341012602e-02
2.803902296000137032e-02
2.804222178394409973e-02
2.804541903486728466e-02
2.804861471239991633e-02
2.805180881617097555e-02
2.805500134580945007e-02
2.805819230094433459e-02
2.806138168120464460e-02
2.806456948621941644e-02
2.806775571561772459e-02
2.807094036902867129e-02
2.807412344608136920e-02
2.807730494640495178e-02
2.808048486962856291e-02
2.808366321538137422e-02
2.808683998329257123e-02
2.809001517299136372e-02
2.809318878410698578e-02
2.809636081626868537e-02
2.809953126910572432e-02
2.810270014224738183e-02
2.810586743532294055e-02
2.810903314796168312e-02
2.811219727979290608e-02
2.811535983044593373e-02
2.811852079955012157e-02
2.812168018673483205e-02
2.812483799162943457e-02
2.812799421386330545e-02
2.813114885306583837e-02
2.813430190886643048e-02
2.813745338089452749e-02
2.814060326877959595e-02
2.814375157215110931e-02
2.814689829063856188e-02
2.815004342387147224e-02
2.815318697147936935e-02
2.815632893309182039e-02
2.815946930833842024e-02
2.816260809684878810e-02
2.816574529825257786e-02
2.816888091217946768e-02
2.817201493825918085e-02
2.817514737612146838e-02
2.817827822539610561e-02
2.818140748571289905e-02
2.818453515670168649e-02
2.818766123799231957e-02
2.819078572921469156e-02
2.819390862999872696e-02
2.819702993997439885e-02
2.820014965877171501e-02
2.820326778602071441e-02
2.820638432135149504e-02
2.820949926439420344e-02
2.821261261477902085e-02
2.821572437213616669e-02
2.821883453609592279e-02
2.822194310628860225e-02
2.822505008234455631e-02
2.822815546389419172e-02
2.823125925056797075e-02
2.823436144199640771e-02
2.823746203781005160e-02
2.824056103763952080e-02
2.824365844111546495e-02
2.824675424786857181e-02
2.824984845752957080e-02
2.825294106972926766e-02
2.825603208409849590e-02
2.825912150026815839e-02
2.826220931786919272e-02
2.826529553653258156e-02
2.826838015588935271e-02
2.827146317557059640e-02
2.827454459520745145e-02
2.827762441443110522e-02
2.828070263287280756e-02
2.828377925016387073e-02
2.828685426593564520e-02
2.828992767981951956e-02
2.829299949144695875e-02
2.829606970044946587e-02
2.829913830645860301e-02
2.830220530910600510e-02
2.830527070802335912e-02
2.830833450284240410e-02
2.831139669319493457e-02
2.831445727871281445e-02
2.831751625902796665e-02
2.832057363377237652e-02
2.832362940257811615e-02
2.832668356507733048e-02
2.832973612090222693e-02
2.833278706968508920e-02
2.833583641105826348e-02
2.833888414465415492e-02
2.834193027010523114e-02
2.834497478704404300e-02
2.834801769510322117e-02
2.835105899391546225e-02
2.835409868311352874e-02
2.835713676233024907e-02
2.836017323119850719e-02
2.836320808935125642e-02
2.836624133642150908e-02
2.836927297204236420e-02
2.837230299584700410e-02
2.837533140746869437e-02
2.837835820654078731e-02
2.838138339269671157e-02
2.838440696556995824e-02
2.838742892479410862e-02
2.839044927000283422e-02
2.839346800082989675e-02
2.839648511690913424e-02
2.839950061787446453e-02
2.840251450335989913e-02
2.840552677299954323e-02
2.840853742642758528e-02
2.841154646327831088e-02
2.841455388318610276e-02
2.841755968578545122e-02
2.842056387071092982e-02
2.842356643759721621e-02
2.842656738607907477e-02
2.842956671579135661e-02
2.843256442636901693e-02
2.843556051744711155e-02
2.843855498866079690e-02
2.844154783964533695e-02
2.844453907003610324e-02
2.844752867946855751e-02
2.845051666757824130e-02
2.845350303400080369e-02
2.845648777837198745e-02
2.845947090032761861e-02
2.846245239950363423e-02
2.846543227553608585e-02
2.846841052806113603e-02
2.847138715671505838e-02
2.847436216113424443e-02
2.847733554095520023e-02
2.848030729581454631e-02
2.848327742534903159e-02
2.848624592919550905e-02
2.848921280699095310e-02
2.849217805837245612e-02
2.849514168297723193e-02
2.849810368044262965e-02
2.850106405040609206e-02
2.850402279250518686e-02
2.850697990637760665e-02
2.850993539166114116e-02
2.851288924799370503e-02
2.851584147501334127e-02
2.851879207235821084e-02
2.852174103966660310e-02
2.852468837657691839e-02
2.852763408272768544e-02
2.853057815775754055e-02
2.853352060130524143e-02
2.853646141300966374e-02
2.853940059250980113e-02
2.854233813944476866e-02
2.854527405345379243e-02
2.854820833417621995e-02
2.855114098125152364e-02
2.855407199431933205e-02
2.855700137301940902e-02
2.855992911699167108e-02
2.856285522587615269e-02
2.856577969931301669e-02
2.856870253694258205e-02
2.857162373840531344e-02
2.857454330334181780e-02
2.857746123139284777e-02
2.858037752219930519e-02
2.858329217540222372e-02
2.858620519064277235e-02
2.858911656756225536e-02
2.859202630580211235e-02
2.859493440500393557e-02
2.859784086480946994e-02
2.860074568486061300e-02
2.860364886479941499e-02
2.860655040426807877e-02
2.860945030290896335e-02
2.861234856036460120e-02
2.861524517627769479e-02
2.861814015029108885e-02
2.862103348204778769e-02
2.862392517119095522e-02
2.862681521736391496e-02
2.862970362021015000e-02
2.863259037937330651e-02
2.863547549449719370e-02
2.863835896522578042e-02
2.864124079120319855e-02
2.864412097207374996e-02
2.864699950748187882e-02
2.864987639707217842e-02
2.865275164048941905e-02
2.865562523737855485e-02
2.865849718738469956e-02
2.866136749015313692e-02
2.866423614532931721e-02
2.866710315255888847e-02
2.866996851148765832e-02
2.867283222176162175e-02
2.867569428302695067e-02
2.867855469492996620e-02
2.868141345711717333e-02
2.868427056923523663e-02
2.868712603093101499e-02
2.868997984185154421e-02
2.869283200164405093e-02
2.869568250995594219e-02
2.869853136643480546e-02
2.870137857072840859e-02
2.870422412248469987e-02
2.870706802135182534e-02
2.870991026697810103e-02
2.871275085901202340e-02
2.871558979710225890e-02
2.871842708089767521e-02
2.872126271004731349e-02
2.872409668420039877e-02
2.872692900300634344e-02
2.872975966611473683e-02
2.873258867317536602e-02
2.873541602383821933e-02
2.873824171775346548e-02
2.874106575457143972e-02
2.874388813394268202e-02
2.874670885551791968e-02
2.874952791894805695e-02
2.875234532388420972e-02
2.875516106997769161e-02
2.875797515688000711e-02
2.876078758424286883e-02
2.876359835171819063e-02
2.876640745895811188e-02
2.876921490561498013e-02
2.877202069134133719e-02
2.877482481578993653e-02
2.877762727861370856e-02
2.878042807946578838e-02
2.878322721799952272e-02
2.878602469386845608e-02
2.878882050672633766e-02
2.879161465622713523e-02
2.879440714202503165e-02
2.879719796377441451e-02
2.879998712112989342e-02
2.880277461374629658e-02
2.880556044127867074e-02
2.880834460338227085e-02
2.881112709971256000e-02
2.881390792992520947e-02
2.881668709367609868e-02
2.881946459062130483e-02
2.882224042041711329e-02
2.882501458272000369e-02
2.882778707718667080e-02
2.883055790347402100e-02
2.883332706123917233e-02
2.883609455013948220e-02
2.883886036983251966e-02
2.884162451997607235e-02
2.884438700022814647e-02
2.884714781024697722e-02
2.884990694969101488e-02
2.885266441821895261e-02
2.885542021548971256e-02
2.885817434116244931e-02
2.886092679489655338e-02
2.886367757635164774e-02
2.886642668518756005e-02
2.886917412106435391e-02
2.887191988364231146e-02
2.887466397258194734e-02
2.887740638754400166e-02
2.888014712818946783e-02
2.888288619417956130e-02
2.888562358517573342e-02
2.888835930083966108e-02
2.889109334083326402e-02
2.889382570481870138e-02
2.889655639245835433e-02
2.889928540341482957e-02
2.890201273735097665e-02
2.890473839392986022e-02
2.890746237281478781e-02
2.891018467366929245e-02
2.891290529615716393e-02
2.891562423994241057e-02
2.891834150468926973e-02
2.892105709006221118e-02
2.892377099572593716e-02
2.892648322134539277e-02
2.892919376658578332e-02
2.893190263111253616e-02
2.893460981459133885e-02
2.893731531668811141e-02
2.894001913706900977e-02
2.894272127540043968e-02
2.894542173134905666e-02
2.894812050458177993e-02
2.895081759476576463e-02
2.895351300156843305e-02
2.895620672465746073e-02
2.895889876370077304e-02
2.896158911836653124e-02
2.896427778832313601e-02
2.896696477323921701e-02
2.896965007278364326e-02
2.897233368662552322e-02
2.897501561443423246e-02
2.897769585587939983e-02
2.898037441063092828e-02
2.898305127835899483e-02
2.898572645873402978e-02
2.898839995142671669e-02
2.899107175610799933e-02
2.899374187244906781e-02
2.899641030012135509e-02
2.899907703879655435e-02
2.900174208814663632e-02
2.900440544784383193e-02
2.900706711756061498e-02
2.900972709696973337e-02
2.901238538574421252e-02
2.901504198355733810e-02
2.901769689008265596e-02
2.902035010499397563e-02
2.902300162796537034e-02
2.902565145867116309e-02
2.902829959678592670e-02
2.903094604198449766e-02
2.903359079394196227e-02
2.903623385233366008e-02
2.903887521683518394e-02
2.904151488712237994e-02
2.904415286287136133e-02
2.904678914375850504e-02
2.904942372946044127e-02
2.905205661965406735e-02
2.905468781401654779e-02
2.905731731222528993e-02
2.905994511395799951e-02
2.906257121889266326e-02
2.906519562670753509e-02
2.906781833708114299e-02
2.907043934969228555e-02
2.907305866422005627e-02
2.907567628034380888e-02
2.907829219774315729e-02
2.908090641609798258e-02
2.908351893508842254e-02
2.908612975439490642e-02
2.908873887369814795e-02
2.909134629267914537e-02
2.909395201101916059e-02
2.909655602839974348e-02
2.909915834450269023e-02
2.910175895901005727e-02
2.910435787160417509e-02
2.910695508196765174e-02
2.910955058978335550e-02
2.911214439473442869e-02
2.911473649650428083e-02
2.911732689477658856e-02
2.911991558923531648e-02
2.912250257956470328e-02
2.912508786544926523e-02
2.912767144657380999e-02
2.913025332262345057e-02
2.913283349328356711e-02
2.913541195823980690e-02
2.913798871717809477e-02
2.914056376978463661e-02
2.914313711574593319e-02
2.914570875474877670e-02
2.914827868648024040e-02
2.915084691062767852e-02
2.915341342687872636e-02
2.915597823492131757e-02
2.915854133444368071e-02
2.916110272513432536e-02
2.916366240668204213e-02
2.916622037877591653e-02
2.916877664110533244e-02
2.917133119335998601e-02
2.917388403522985785e-02
2.917643516640521309e-02
2.917898458657661523e-02
2.918153229543490879e-02
2.918407829267123318e-02
2.918662257797701581e-02
2.918916515104395815e-02
2.919170601156406003e-02
2.919424515922960581e-02
2.919678259373319207e-02
2.919931831476770337e-02
2.920185232202632611e-02
2.920438461520250342e-02
2.920691519398996641e-02
2.920944405808273761e-02
2.921197120717511364e-02
2.921449664096167562e-02
2.921702035913730303e-02
2.921954236139717720e-02
2.922206264743678478e-02
2.922458121695191424e-02
2.922709806963866980e-02
2.922961320519345749e-02
2.923212662331298520e-02
2.923463832369425225e-02
2.923714830603454592e-02
2.923965657003144147e-02
2.924216311538279517e-02
2.924466794178677206e-02
2.924717104894183559e-02
2.924967243654674753e-02
2.925217210430057849e-02
2.925467005190268005e-02
2.925716627905269526e-02
2.925966078545058635e-02
2.926215357079662086e-02
2.926464463479137162e-02
2.926713397713573070e-02
2.926962159753089543e-02
2.927210749567835460e-02
2.927459167127990231e-02
2.927707412403763795e-02
2.927955485365395585e-02
2.928203385983155910e-02
2.928451114227344221e-02
2.928698670068290849e-02
2.928946053476358391e-02
2.929193264421938586e-02
2.929440302875453706e-02
2.929687168807355510e-02
2.929933862188126639e-02
2.930180382988281651e-02
2.930426731178365982e-02
2.930672906728954905e-02
2.930918909610653184e-02
2.931164739794096114e-02
2.931410397249949867e-02
2.931655881948913231e-02
2.931901193861715868e-02
2.932146332959117974e-02
2.932391299211910968e-02
2.932636092590918883e-02
2.932880713066997672e-02
2.933125160611032775e-02
2.933369435193939473e-02
2.933613536786662535e-02
2.933857465360177608e-02
2.934101220885491565e-02
2.934344803333640769e-02
2.934588212675692462e-02
2.934831448882743721e-02
2.935074511925922849e-02
2.935317401776389029e-02
2.935560118405332319e-02
2.935802661783975392e-02
2.936045031883570758e-02
2.936287228675403538e-02
2.936529252130791121e-02
2.936771102221081772e-02
2.937012778917653597e-02
2.937254282191917309e-02
2.937495612015313465e-02
2.937736768359312106e-02
2.937977751195416931e-02
2.938218560495163209e-02
2.938459196230119169e-02
2.938699658371886694e-02
2.938939946892099933e-02
2.939180061762424259e-02
2.939420002954557659e-02
2.939659770440227957e-02
2.939899364191194200e-02
2.940138784179248052e-02
2.940378030376213439e-02
2.940617102753946555e-02
2.940856001284335164e-02
2.941094725939298604e-02
2.941333276690787091e-02
2.941571653510780329e-02
2.941809856371290985e-02
2.942047885244361907e-02
2.942285740102066824e-02
2.942523420916513116e-02
2.942760927659836961e-02
2.942998260304208538e-02
2.943235418821828903e-02
2.943472403184929295e-02
2.943709213365772182e-02
2.943945849336650905e-02
2.944182311069891422e-02
2.944418598537849527e-02
2.944654711712912584e-02
2.944890650567497797e-02
2.945126415074054635e-02
2.945362005205064138e-02
2.945597420933038571e-02
2.945832662230521079e-02
2.946067729070087418e-02
2.946302621424345958e-02
2.946537339265937680e-02
2.946771882567533404e-02
2.947006251301835175e-02
2.947240445441577303e-02
2.947474464959526710e-02
2.947708309828483281e-02
2.947941980021279162e-02
2.948175475510776342e-02
2.948408796269871152e-02
2.948641942271492192e-02
2.948874913488600327e-02
2.949107709894189036e-02
2.949340331461281633e-02
2.949572778162931272e-02
2.949805049972223717e-02
2.950037146862278734e-02
2.950269068806248354e-02
2.950500815777316876e-02
2.950732387748701210e-02
2.950963784693649491e-02
2.951195006585441080e-02
2.951426053397387603e-02
2.951656925102831563e-02
2.951887621675145304e-02
2.952118143087735166e-02
2.952348489314040106e-02
2.952578660327529955e-02
2.952808656101706467e-02
2.953038476610103658e-02
2.953268121826285730e-02
2.953497591723846724e-02
2.953726886276409822e-02
2.953956005457630818e-02
2.954184949241195346e-02
2.954413717600820957e-02
2.954642310510258857e-02
2.954870727943291475e-02
2.955098969873733508e-02
2.955327036275432959e-02
2.955554927122271830e-02
2.955782642388163350e-02
2.956010182047051280e-02
2.956237546072911643e-02
2.956464734439754119e-02
2.956691747121620306e-02
2.956918584092586844e-02
2.957145245326762636e-02
2.957371730798288509e-02
2.957598040481334775e-02
2.957824174350102628e-02
2.958050132378824137e-02
2.958275914541760865e-02
2.958501520813206290e-02
2.958726951167487199e-02
2.958952205578963685e-02
2.959177284022026719e-02
2.959402186471100926e-02
2.959626912900641463e-02
2.959851463285135403e-02
2.960075837599100354e-02
2.960300035817084452e-02
2.960524057913669141e-02
2.960747903863467784e-02
2.960971573641124274e-02
2.961195067221314425e-02
2.961418384578745969e-02
2.961641525688158555e-02
2.961864490524323754e-02
2.962087279062046441e-02
2.962309891276163412e-02
2.962532327141541647e-02
2.962754586633080736e-02
2.962976669725710804e-02
2.963198576394391465e-02
2.963420306614113903e-02
2.963641860359900529e-02
2.963863237606808101e-02
2.964084438329923910e-02
2.964305462504366814e-02
2.964526310105288637e-02
2.964746981107872770e-02
2.964967475487336954e-02
2.965187793218930501e-02
2.965407934277933949e-02
2.965627898639662183e-02
2.965847686279463047e-02
2.966067297172714570e-02
2.966286731294826354e-02
2.966505988621240264e-02
2.966725069127430781e-02
2.966943972788904302e-02
2.967162699581198451e-02
2.967381249479884506e-02
2.967599622460567743e-02
2.967817818498884666e-02
2.968035837570503002e-02
2.968253679651121704e-02
2.968471344716469562e-02
2.968688832742306591e-02
2.968906143704424030e-02
2.969123277578645387e-02
2.969340234340825044e-02
2.969557013966847223e-02
2.969773616432628410e-02
2.969990041714115972e-02
2.970206289787286763e-02
2.970422360628148170e-02
2.970638254212738805e-02
2.970853970517128503e-02
2.971069509517419022e-02
2.971284871189741605e-02
2.971500055510256991e-02
2.971715062455157833e-02
2.971929892000670093e-02
2.972144544123051652e-02
2.972359018798592656e-02
2.972573316003614130e-02
2.972787435714467283e-02
2.973001377907533854e-02
2.973215142559226462e-02
2.973428729645987909e-02
2.973642139144293955e-02
2.973855371030650896e-02
2.974068425281595554e-02
2.974281301873695285e-02
2.974494000783547629e-02
2.974706521987782737e-02
2.974918865463060946e-02
2.975131031186073124e-02
2.975343019133542058e-02
2.975554829282222105e-02
2.975766461608898850e-02
2.975977916090390488e-02
2.976189192703545400e-02
2.976400291425243538e-02
2.976611212232394693e-02
2.976821955101938838e-02
2.977032520010847172e-02
2.977242906936120384e-02
2.977453115854790389e-02
2.977663146743918937e-02
2.977872999580597618e-02
2.978082674341947858e-02
2.978292171005121960e-02
2.978501489547304495e-02
2.978710629945709870e-02
2.978919592177584758e-02
2.979128376220205321e-02
2.979336982050877214e-02
2.979545409646935580e-02
2.979753658985746442e-02
2.979961730044706353e-02
2.980169622801239968e-02
2.980377337232802820e-02
2.980584873316883751e-02
2.980792231031002132e-02
2.980999410352707865e-02
2.981206411259579997e-02
2.981413233729228104e-02
2.981619877739291949e-02
2.981826343267442864e-02
2.982032630291381672e-02
2.982238738788839730e-02
2.982444668737579616e-02
2.982650420115392706e-02
2.982855992900101949e-02
2.983061387069562906e-02
2.983266602601659934e-02
2.983471639474307921e-02
2.983676497665451940e-02
2.983881177153065514e-02
2.984085677915153390e-02
2.984289999929752926e-02
2.984494143174931322e-02
2.984698107628785263e-02
2.984901893269442316e-02
2.985105500075058843e-02
2.985308928023818267e-02
2.985512177093933156e-02
2.985715247263645913e-02
2.985918138511228781e-02
2.986120850814984531e-02
2.986323384153244040e-02
2.986525738504367672e-02
2.986727913846743548e-02
2.986929910158790322e-02
2.987131727418955787e-02
2.987333365605714455e-02
2.987534824697570326e-02
2.987736104673056198e-02
2.987937205510733663e-02
2.988138127189193458e-02
2.988338869687055463e-02
2.988539432982968355e-02
2.988739817055609607e-02
2.988940021883684448e-02
2.989140047445929330e-02
2.989339893721110544e-02
2.989539560688023526e-02
2.989739048325492157e-02
2.989938356612371201e-02
2.990137485527542827e-02
2.990336435049919389e-02
2.990535205158441345e-02
2.990733795832075867e-02
2.990932207049818575e-02
2.991130438790693541e-02
2.991328491033753284e-02
2.991526363758078427e-02
2.991724056942778737e-02
2.991921570566991734e-02
2.992118904609883043e-02
2.992316059050645349e-02
2.992513033868500483e-02
2.992709829042699068e-02
2.992906444552519835e-02
2.993102880377267877e-02
2.993299136496274312e-02
2.993495212888898013e-02
2.993691109534526648e-02
2.993886826412575294e-02
2.994082363502485397e-02
2.994277720783725810e-02
2.994472898235792449e-02
2.994667895838208638e-02
2.994862713570525109e-02
2.995057351412319657e-02
2.995251809343198526e-02
2.995446087342796410e-02
2.995640185390773674e-02
2.995834103466817749e-02
2.996027841550644513e-02
2.996221399621996559e-02
2.996414777660644235e-02
2.996607975646387381e-02
2.996800993559052551e-02
2.996993831378492665e-02
2.997186489084587360e-02
2.997378966657241600e-02
2.997571264076385328e-02
2.997763381321977630e-02
2.997955318374005348e-02
2.998147075212482734e-02
2.998338651817451447e-02
2.998530048168978127e-02
2.998721264247156820e-02
2.998912300032107250e-02
2.999103155503976548e-02
2.999293830642939598e-02
2.999484325429198350e-02
2.999674639842981466e-02
2.999864773864544670e-02
3.000054727474170749e-02
3.000244500652169549e-02
3.000434093378876593e-02
3.000623505634654464e-02
3.000812737399893848e-02
3.001001788655013186e-02
3.001190659380457287e-02
3.001379349556696288e-02
3.001567859164228427e-02
3.001756188183578311e-02
3.001944336595296914e-02
3.002132304379960190e-02
3.002320091518170461e-02
3.002507697990556071e-02
3.002695123777768607e-02
3.002882368860484638e-02
3.003069433219406753e-02
3.003256316835263215e-02
3.003443019688806573e-02
3.003629541760816438e-02
3.003815883032095665e-02
3.004002043483471746e-02
3.004188023095797494e-02
3.004373821849949666e-02
3.004559439726830691e-02
3.004744876707368326e-02
3.004930132772515305e-02
3.005115207903251082e-02
3.005300102080579044e-02
3.005484815285527564e-02
3.005669347499150337e-02
3.005853698702523266e-02
3.006037868876746885e-02
3.006221858002945321e-02
3.006405666062265947e-02
3.006589293035880767e-02
3.006772738904985379e-02
3.006956003650798626e-02
3.007139087254563636e-02
3.007321989697546438e-02
3.007504710961037345e-02
3.007687251026350955e-02
3.007869609874826156e-02
3.008051787487824730e-02
3.008233783846731013e-02
3.008415598932954668e-02
3.008597232727930684e-02
3.008778685213119031e-02
3.008959956370003616e-02
3.009141046180093676e-02
3.009321954624922038e-02
3.009502681686044775e-02
3.009683227345042594e-02
3.009863591583521181e-02
3.010043774383109813e-02
3.010223775725459627e-02
3.010403595592244658e-02
3.010583233965160796e-02
3.010762690825927179e-02
3.010941966156285843e-02
3.011121059938002761e-02
3.011299972152865073e-02
3.011478702782680386e-02
