5.482144062058405543e-02
5.482504583009270571e-02
5.482864680070442115e-02
5.483224353244680466e-02
5.483583602534762569e-02
5.483942427943482717e-02
5.484300829473649774e-02
5.484658807128092034e-02
5.485016360909652361e-02
5.485373490821193743e-02
5.485730196865601371e-02
5.486086479045777786e-02
5.486442337364642874e-02
5.486797771825131093e-02
5.487152782430197023e-02
5.487507369182817452e-02
5.487861532085989286e-02
5.488215271142726781e-02
5.488568586356060847e-02
5.488921477729042514e-02
5.489273945264737387e-02
5.489625988966230496e-02
5.489977608836626999e-02
5.490328804879049396e-02
5.490679577096637537e-02
5.491029925492548619e-02
5.491379850069959268e-02
5.491729350832065537e-02
5.492078427782077360e-02
5.492427080923222016e-02
5.492775310258742050e-02
5.493123115791897354e-02
5.493470497525961699e-02
5.493817455464226202e-02
5.494163989610002102e-02
5.494510099966617295e-02
5.494855786537419795e-02
5.495201049325774967e-02
5.495545888335067602e-02
5.495890303568702617e-02
5.496234295030102968e-02
5.496577862722706181e-02
5.496921006649969216e-02
5.497263726815366375e-02
5.497606023222389310e-02
5.497947895874549101e-02
5.498289344775376952e-02
5.498630369928424882e-02
5.498970971337259483e-02
5.499311149005464694e-02
5.499650902936641800e-02
5.499990233134408740e-02
5.500329139602401496e-02
5.500667622344274088e-02
5.501005681363697192e-02
5.501343316664358829e-02
5.501680528249967839e-02
5.502017316124251101e-02
5.502353680290955618e-02
5.502689620753845046e-02
5.503025137516697612e-02
5.503360230583309587e-02
5.503694899957492503e-02
5.504029145643075938e-02
5.504362967643906812e-02
5.504696365963852173e-02
5.505029340606799881e-02
5.505361891576653066e-02
5.505694018877335671e-02
5.506025722512795234e-02
5.506357002487000107e-02
5.506687858803938768e-02
5.507018291467614263e-02
5.507348300482051151e-02
5.507677885851292726e-02
5.508007047579399629e-02
5.508335785670449847e-02
5.508664100128537328e-02
5.508991990957771978e-02
5.509319458162287297e-02
5.509646501746234826e-02
5.509973121713786920e-02
5.510299318069137448e-02
5.510625090816499011e-02
5.510950439960107805e-02
5.511275365504218759e-02
5.511599867453108315e-02
5.511923945811073727e-02
5.512247600582428214e-02
5.512570831771506502e-02
5.512893639382666910e-02
5.513216023420286493e-02
5.513537983888761734e-02
5.513859520792507851e-02
5.514180634135961573e-02
5.514501323923584608e-02
5.514821590159860176e-02
5.515141432849290232e-02
5.515460851996398933e-02
5.515779847605729869e-02
5.516098419681848136e-02
5.516416568229343120e-02
5.516734293252827104e-02
5.517051594756931798e-02
5.517368472746310426e-02
5.517684927225636332e-02
5.518000958199607842e-02
5.518316565672944790e-02
5.518631749650387136e-02
5.518946510136697736e-02
5.519260847136661652e-02
5.519574760655084067e-02
5.519888250696790288e-02
5.520201317266627827e-02
5.520513960369467094e-02
5.520826180010201395e-02
5.521137976193746938e-02
5.521449348925037276e-02
5.521760298209028861e-02
5.522070824050698962e-02
5.522380926455044969e-02
5.522690605427087174e-02
5.522999860971869457e-02
5.523308693094456517e-02
5.523617101799933177e-02
5.523925087093404379e-02
5.524232648979993804e-02
5.524539787464846641e-02
5.524846502553128896e-02
5.525152794250027394e-02
5.525458662560755324e-02
5.525764107490547389e-02
5.526069129044662576e-02
5.526373727228380689e-02
5.526677902047003044e-02
5.526981653505855241e-02
5.527284981610283698e-02
5.527587886365656344e-02
5.527890367777363312e-02
5.528192425850819713e-02
5.528494060591462866e-02
5.528795272004754374e-02
5.529096060096177351e-02
5.529396424871234339e-02
5.529696366335450086e-02
5.529995884494372238e-02
5.530294979353576196e-02
5.530593650918661647e-02
5.530891899195256728e-02
5.531189724189015250e-02
5.531487125905611146e-02
5.531784104350741249e-02
5.532080659530127370e-02
5.532376791449514220e-02
5.532672500114667324e-02
5.532967785531378579e-02
5.533262647705465553e-02
5.533557086642771489e-02
5.533851102349160445e-02
5.534144694830522154e-02
5.534437864092772025e-02
5.534730610141849749e-02
5.535022932983722777e-02
5.535314832624382148e-02
5.535606309069841802e-02
5.535897362326139964e-02
5.536187992399342617e-02
5.536478199295542801e-02
5.536767983020857153e-02
5.537057343581426594e-02
5.537346280983417024e-02
5.537634795233024876e-02
5.537922886336470868e-02
5.538210554299997923e-02
5.538497799129871862e-02
5.538784620832385569e-02
5.539071019413862457e-02
5.539356994880648838e-02
5.539642547239121556e-02
5.539927676495683129e-02
5.540212382656764523e-02
5.540496665728824460e-02
5.540780525718347338e-02
5.541063962631846695e-02
5.541346976475859665e-02
5.541629567256949745e-02
5.541911734981708887e-02
5.542193479656754712e-02
5.542474801288729130e-02
5.542755699884298337e-02
5.543036175450157671e-02
5.543316227993032308e-02
5.543595857519671710e-02
5.543875064036851708e-02
5.544153847551377967e-02
5.544432208070081136e-02
5.544710145599818923e-02
5.544987660147478875e-02
5.545264751719973517e-02
5.545541420324245907e-02
5.545817665967266857e-02
5.546093488656037712e-02
5.546368888397591040e-02
5.546643865198987861e-02
5.546918419067316947e-02
5.547192550009695522e-02
5.547466258033272729e-02
5.547739543145228935e-02
5.548012405352770182e-02
5.548284844663134430e-02
5.548556861083591557e-02
5.548828454621440587e-02
5.549099625284009685e-02
5.549370373078662405e-02
5.549640698012792139e-02
5.549910600093826973e-02
5.550180079329230382e-02
5.550449135726501226e-02
5.550717769293168208e-02
5.550985980036793332e-02
5.551253767964971220e-02
5.551521133085329796e-02
5.551788075405528211e-02
5.552054594933258924e-02
5.552320691676248393e-02
5.552586365642259852e-02
5.552851616839089843e-02
5.553116445274568214e-02
5.553380850956553261e-02
5.553644833892935895e-02
5.553908394091641720e-02
5.554171531560630343e-02
5.554434246307896755e-02
5.554696538341473422e-02
5.554958407669429582e-02
5.555219854299872639e-02
5.555480878240943304e-02
5.555741479500817676e-02
5.556001658087710016e-02
5.556261414009867894e-02
5.556520747275571492e-02
5.556779657893133606e-02
5.557038145870903806e-02
5.557296211217268439e-02
5.557553853940649935e-02
5.557811074049510275e-02
5.558067871552345440e-02
5.558324246457685414e-02
5.558580198774097647e-02
5.558835728510186369e-02
5.559090835674589809e-02
5.559345520275984359e-02
5.559599782323081801e-02
5.559853621824634162e-02
5.560107038789430939e-02
5.560360033226296322e-02
5.560612605144087811e-02
5.560864754551702455e-02
5.561116481458078242e-02
5.561367785872191327e-02
5.561618667803056720e-02
5.561869127259725515e-02
5.562119164251290437e-02
5.562368778786883072e-02
5.562617970875674556e-02
5.562866740526876269e-02
5.563115087749739840e-02
5.563363012553556447e-02
5.563610514947659597e-02
5.563857594941420265e-02
5.564104252544249674e-02
5.564350487765599984e-02
5.564596300614960828e-02
5.564841691101859306e-02
5.565086659235861377e-02
5.565331205026576022e-02
5.565575328483652467e-02
5.565819029616782265e-02
5.566062308435695827e-02
5.566305164950167278e-02
5.566547599170015848e-02
5.566789611105103092e-02
5.567031200765329424e-02
5.567272368160639667e-02
5.567513113301017502e-02
5.567753436196491712e-02
5.567993336857131326e-02
5.568232815293044924e-02
5.568471871514383414e-02
5.568710505531338645e-02
5.568948717354146177e-02
5.569186506993086677e-02
5.569423874458480361e-02
5.569660819760691162e-02
5.569897342910127419e-02
5.570133443917243965e-02
5.570369122792539346e-02
5.570604379546556517e-02
5.570839214189882149e-02
5.571073626733146628e-02
5.571307617187024747e-02
5.571541185562235710e-02
5.571774331869543129e-02
5.572007056119755025e-02
5.572239358323721747e-02
5.572471238492339440e-02
5.572702696636549352e-02
5.572933732767339915e-02
5.573164346895750215e-02
5.573394539032862360e-02
5.573624309189804255e-02
5.573853657377749599e-02
5.574082583607917196e-02
5.574311087891571648e-02
5.574539170240019187e-02
5.574766830664611844e-02
5.574994069176747447e-02
5.575220885787868230e-02
5.575447280509462922e-02
5.575673253353063963e-02
5.575898804330250286e-02
5.576123933452644538e-02
5.576348640731917244e-02
5.576572926179786810e-02
5.576796789808020904e-02
5.577020231628436464e-02
5.577243251652898304e-02
5.577465849893321892e-02
5.577688026361670576e-02
5.577909781069959050e-02
5.578131114030252663e-02
5.578352025254661173e-02
5.578572514755344991e-02
5.578792582544519346e-02
5.579012228634445264e-02
5.579231453037431648e-02
5.579450255765839445e-02
5.579668636832078171e-02
5.579886596248605224e-02
5.580104134027924490e-02
5.580321250182587040e-02
5.580537944725193211e-02
5.580754217668395384e-02
5.580970069024898672e-02
5.581185498807460232e-02
5.581400507028885793e-02
5.581615093702033126e-02
5.581829258839807878e-02
5.582043002455166353e-02
5.582256324561114813e-02
5.582469225170709481e-02
5.582681704297053765e-02
5.582893761953298950e-02
5.583105398152650445e-02
5.583316612908367088e-02
5.583527406233757678e-02
5.583737778142181668e-02
5.583947728647055408e-02
5.584157257761845905e-02
5.584366365500068041e-02
5.584575051875285273e-02
5.584783316901112404e-02
5.584991160591216280e-02
5.585198582959315788e-02
5.585405584019183939e-02
5.585612163784647866e-02
5.585818322269592295e-02
5.586024059487954690e-02
5.586229375453723861e-02
5.586434270180942741e-02
5.586638743683706998e-02
5.586842795976165038e-02
5.587046427072520777e-02
5.587249636987032947e-02
5.587452425734012323e-02
5.587654793327825886e-02
5.587856739782888493e-02
5.588058265113664269e-02
5.588259369334670074e-02
5.588460052460474115e-02
5.588660314505700111e-02
5.588860155485024517e-02
5.589059575413180686e-02
5.589258574304955401e-02
5.589457152175191651e-02
5.589655309038785852e-02
5.589853044910693403e-02
5.590050359805921742e-02
5.590247253739532435e-02
5.590443726726640472e-02
5.590639778782412195e-02
5.590835409922073618e-02
5.591030620160908349e-02
5.591225409514256894e-02
5.591419777997513885e-02
5.591613725626132236e-02
5.591807252415616214e-02
5.592000358381524205e-02
5.592193043539470110e-02
5.592385307905125419e-02
5.592577151494219218e-02
5.592768574322541653e-02
5.592959576405937688e-02
5.593150157760307106e-02
5.593340318401605893e-02
5.593530058345845546e-02
5.593719377609092380e-02
5.593908276207468222e-02
5.594096754157150408e-02
5.594284811474375257e-02
5.594472448175438067e-02
5.594659664276689648e-02
5.594846459794534238e-02
5.595032834745435751e-02
5.595218789145917082e-02
5.595404323012559411e-02
5.595589436362002206e-02
5.595774129210941139e-02
5.595958401576126701e-02
5.596142253474363504e-02
5.596325684922514448e-02
5.596508695937502109e-02
5.596691286536309429e-02
5.596873456735976249e-02
5.597055206553596535e-02
5.597236536006323232e-02
5.597417445111371737e-02
5.597597933886015731e-02
5.597778002347585796e-02
5.597957650513468719e-02
5.598136878401111655e-02
5.598315686028017268e-02
5.598494073411749289e-02
5.598672040569929037e-02
5.598849587520240284e-02
5.599026714280427169e-02
5.599203420868294201e-02
5.599379707301703479e-02
5.599555573598578168e-02
5.599731019776902491e-02
5.599906045854721737e-02
5.600080651850145030e-02
5.600254837781342560e-02
5.600428603666542104e-02
5.600601949524029732e-02
5.600774875372156042e-02
5.600947381229329919e-02
5.601119467114022005e-02
5.601291133044767473e-02
5.601462379040162559e-02
5.601633205118864561e-02
5.601803611299589758e-02
5.601973597601116878e-02
5.602143164042283630e-02
5.602312310641991561e-02
5.602481037419203974e-02
5.602649344392945929e-02
5.602817231582304242e-02
5.602984699006422625e-02
5.603151746684510021e-02
5.603318374635832266e-02
5.603484582879719733e-02
5.603650371435568017e-02
5.603815740322835165e-02
5.603980689561040979e-02
5.604145219169765629e-02
5.604309329168651738e-02
5.604473019577406456e-02
5.604636290415797306e-02
5.604799141703654952e-02
5.604961573460872509e-02
5.605123585707406236e-02
5.605285178463272761e-02
5.605446351748553935e-02
5.605607105583394756e-02
5.605767439988006140e-02
5.605927354982658678e-02
5.606086850587683329e-02
5.606245926823472114e-02
5.606404583710485751e-02
5.606562821269247404e-02
5.606720639520340610e-02
5.606878038484410659e-02
5.607035018182169456e-02
5.607191578634394130e-02
5.607347719861922875e-02
5.607503441885658413e-02
5.607658744726566613e-02
5.607813628405676487e-02
5.607968092944080885e-02
5.608122138362936493e-02
5.608275764683464532e-02
5.608428971926947282e-02
5.608581760114730169e-02
5.608734129268223151e-02
5.608886079408900716e-02
5.609037610558300496e-02
5.609188722738021188e-02
5.609339415969723935e-02
5.609489690275133722e-02
5.609639545676036593e-02
5.609788982194283818e-02
5.609937999851793977e-02
5.610086598670552260e-02
5.610234778672604922e-02
5.610382539880062747e-02
5.610529882315098971e-02
5.610676805999951361e-02
5.610823310956921522e-02
5.610969397208375592e-02
5.611115064776744932e-02
5.611260313684526130e-02
5.611405143954283775e-02
5.611549555608649764e-02
5.611693548670323300e-02
5.611837123162065344e-02
5.611980279106701386e-02
5.612123016527125613e-02
5.612265335446297437e-02
5.612407235887243578e-02
5.612548717873061532e-02
5.612689781426916102e-02
5.612830426572039400e-02
5.612970653331732229e-02
5.613110461729364092e-02
5.613249851788369715e-02
5.613388823532249050e-02
5.613527376984570050e-02
5.613665512168965893e-02
5.613803229109134985e-02
5.613940527828840954e-02
5.614077408351909881e-02
5.614213870702233766e-02
5.614349914903770528e-02
5.614485540980548861e-02
5.614620748956663382e-02
5.614755538856277400e-02
5.614889910703624309e-02
5.615023864523005503e-02
5.615157400338788990e-02
5.615290518175408696e-02
5.615423218057364468e-02
5.615555500009224849e-02
5.615687364055623604e-02
5.615818810221265972e-02
5.615949838530925886e-02
5.616080449009442505e-02
5.616210641681723681e-02
5.616340416572741107e-02
5.616469773707535168e-02
5.616598713111212171e-02
5.616727234808942260e-02
5.616855338825964272e-02
5.616983025187582274e-02
5.617110293919169023e-02
5.617237145046166669e-02
5.617363578594086054e-02
5.617489594588506718e-02
5.617615193055077588e-02
5.617740374019519756e-02
5.617865137507617457e-02
5.617989483545220847e-02
5.618113412158249470e-02
5.618236923372694341e-02
5.618360017214612395e-02
5.618482693710121628e-02
5.618604952885403875e-02
5.618726794766707583e-02
5.618848219380345038e-02
5.618969226752697221e-02
5.619089816910213808e-02
5.619209989879411088e-02
5.619329745686869187e-02
5.619449084359240398e-02
5.619568005923245707e-02
5.619686510405674795e-02
5.619804597833390203e-02
5.619922268233324553e-02
5.620039521632476387e-02
5.620156358057910168e-02
5.620272777536756970e-02
5.620388780096214482e-02
5.620504365763552557e-02
5.620619534566107661e-02
5.620734286531285651e-02
5.620848621686556218e-02
5.620962540059458445e-02
5.621076041677595253e-02
5.621189126568636174e-02
5.621301794760320825e-02
5.621414046280456128e-02
5.621525881156917703e-02
5.621637299417649863e-02
5.621748301090666311e-02
5.621858886204050137e-02
5.621969054785948272e-02
5.622078806864577033e-02
5.622188142468220046e-02
5.622297061625228243e-02
5.622405564364021252e-02
5.622513650713090172e-02
5.622621320700996184e-02
5.622728574356370551e-02
5.622835411707913927e-02
5.622941832784390803e-02
5.623047837614628813e-02
5.623153426227524981e-02
5.623258598652041557e-02
5.623363354917207402e-02
5.623467695052120074e-02
5.623571619085949991e-02
5.623675127047934180e-02
5.623778218967375592e-02
5.623880894873644481e-02
5.623983154796181189e-02
5.624084998764495441e-02
5.624186426808166356e-02
5.624287438956845214e-02
5.624388035240255462e-02
5.624488215688189935e-02
5.624587980330513631e-02
5.624687329197160940e-02
5.624786262318138413e-02
5.624884779723524769e-02
5.624982881443465338e-02
5.625080567508178309e-02
5.625177837947949178e-02
5.625274692793129361e-02
5.625371132074136887e-02
5.625467155821457094e-02
5.625562764065644011e-02
5.625657956837321061e-02
5.625752734167178970e-02
5.625847096085974386e-02
5.625941042624530569e-02
5.626034573813740863e-02
5.626127689684564531e-02
5.626220390268030225e-02
5.626312675595231128e-02
5.626404545697329118e-02
5.626496000605555464e-02
5.626587040351208741e-02
5.626677664965656217e-02
5.626767874480331083e-02
5.626857668926731060e-02
5.626947048336423951e-02
5.627036012741046256e-02
5.627124562172305944e-02
5.627212696661977598e-02
5.627300416241905190e-02
5.627387720944002081e-02
5.627474610800250326e-02
5.627561085842697902e-02
5.627647146103460091e-02
5.627732791614718788e-02
5.627818022408727361e-02
5.627902838517811340e-02
5.627987239974362177e-02
5.628071226810837241e-02
5.628154799059763291e-02
5.628237956753739252e-02
5.628320699925430659e-02
5.628403028607569664e-02
5.628484942832954335e-02
5.628566442634453520e-02
5.628647528045007536e-02
5.628728199097623314e-02
5.628808455825379947e-02
5.628888298261423145e-02
5.628967726438967312e-02
5.629046740391297626e-02
5.629125340151767964e-02
5.629203525753804366e-02
5.629281297230905035e-02
5.629358654616636870e-02
5.629435597944637548e-02
5.629512127248618991e-02
5.629588242562362510e-02
5.629663943919715335e-02
5.629739231354589923e-02
5.629814104900961874e-02
5.629888564592876177e-02
5.629962610464443740e-02
5.630036242549846248e-02
5.630109460883334083e-02
5.630182265499229788e-02
5.630254656431924604e-02
5.630326633715877771e-02
5.630398197385622083e-02
5.630469347475755559e-02
5.630540084020942138e-02
5.630610407055915145e-02
5.630680316615476605e-02
5.630749812734495846e-02
5.630818895447912975e-02
5.630887564790737487e-02
5.630955820798044104e-02
5.631023663504972770e-02
5.631091092946735599e-02
5.631158109158612701e-02
5.631224712175951497e-02
5.631290902034168100e-02
5.631356678768744545e-02
5.631422042415227397e-02
5.631486993009233999e-02
5.631551530586450388e-02
5.631615655182630603e-02
5.631679366833599459e-02
5.631742665575255324e-02
5.631805551443567343e-02
5.631868024474572659e-02
5.631930084704373646e-02
5.631991732169143450e-02
5.632052966905123220e-02
5.632113788948624883e-02
5.632174198336025589e-02
5.632234195103769797e-02
5.632293779288369967e-02
5.632352950926407253e-02
5.632411710054532894e-02
5.632470056709462658e-02
5.632527990927983091e-02
5.632585512746945272e-02
5.632642622203270361e-02
5.632699319333944743e-02
5.632755604176028358e-02
5.632811476766646369e-02
5.632866937142994024e-02
5.632921985342335958e-02
5.632976621402004114e-02
5.633030845359398436e-02
5.633084657251986871e-02
5.633138057117307446e-02
5.633191044992962027e-02
5.633243620916617705e-02
5.633295784926012351e-02
5.633347537058953219e-02
5.633398877353317652e-02
5.633449805847050296e-02
5.633500322578165187e-02
5.633550427584743669e-02
5.633600120904935088e-02
5.633649402576958870e-02
5.633698272639106608e-02
5.633746731129744834e-02
5.633794778087309468e-02
5.633842413550309292e-02
5.633889637557320390e-02
5.633936450146985464e-02
5.633982851358011745e-02
5.634028841229176549e-02
5.634074419799323802e-02
5.634119587107369598e-02
5.634164343192296642e-02
5.634208688093154255e-02
5.634252621849059062e-02
5.634296144499194997e-02
5.634339256082814690e-02
5.634381956639242239e-02
5.634424246207869053e-02
5.634466124828156619e-02
5.634507592539635124e-02
5.634548649381903446e-02
5.634589295394627079e-02
5.634629530617540905e-02
5.634669355090449194e-02
5.634708768853225608e-02
5.634747771945809725e-02
5.634786364408209819e-02
5.634824546280506330e-02
5.634862317602851861e-02
5.634899678415465629e-02
5.634936628758638322e-02
5.634973168672729321e-02
5.635009298198169481e-02
5.635045017375457654e-02
5.635080326245162086e-02
5.635115224847918325e-02
5.635149713224427148e-02
5.635183791415457333e-02
5.635217459461847045e-02
5.635250717404500370e-02
5.635283565284392171e-02
5.635316003142562535e-02
5.635348031020120246e-02
5.635379648958243476e-02
5.635410856998179091e-02
5.635441655181241960e-02
5.635472043548815646e-02
5.635502022142355183e-02
5.635531591003386381e-02
5.635560750173505828e-02
5.635589499694380888e-02
5.635617839607749702e-02
5.635645769955415635e-02
5.635673290779247974e-02
5.635700402121187474e-02
5.635727104023244977e-02
5.635753396527498627e-02
5.635779279676092490e-02
5.635804753511242104e-02
5.635829818075227537e-02
5.635854473410396165e-02
5.635878719559166833e-02
5.635902556564029164e-02
5.635925984467542171e-02
5.635949003312330091e-02
5.635971613141085856e-02
5.635993813996572482e-02
5.636015605921619598e-02
5.636036988959124139e-02
5.636057963152048961e-02
5.636078528543427696e-02
5.636098685176363365e-02
5.636118433094026298e-02
5.636137772339654128e-02
5.636156702956554576e-02
5.636175224988105442e-02
5.636193338477751141e-02
5.636211043469000620e-02
5.636228340005428050e-02
5.636245228130672136e-02
5.636261707888438194e-02
5.636277779322496073e-02
5.636293442476685706e-02
5.636308697394916412e-02
5.636323544121166901e-02
5.636337982699479721e-02
5.636352013173966807e-02
5.636365635588803935e-02
5.636378849988236961e-02
5.636391656416576273e-02
5.636404054918200957e-02
5.636416045537558789e-02
5.636427628319164856e-02
5.636438803307601553e-02
5.636449570547522742e-02
5.636459930083648207e-02
5.636469881960761569e-02
5.636479426223713063e-02
5.636488562917419537e-02
5.636497292086866534e-02
5.636505613777105517e-02
5.636513528033251785e-02
5.636521034900489335e-02
5.636528134424068082e-02
5.636534826649301083e-02
5.636541111621570094e-02
5.636546989386320705e-02
5.636552459989064429e-02
5.636557523475378001e-02
5.636562179890904078e-02
5.636566429281351237e-02
5.636570271692496054e-02
5.636573707170183800e-02
5.636576735760325668e-02
5.636579357508901544e-02
5.636581572461954459e-02
5.636583380665591975e-02
5.636584782165986879e-02
5.636585777009377879e-02
5.636586365242071683e-02
5.636586546910437451e-02
5.636586322060909565e-02
5.636585690739988330e-02
5.636584652994244826e-02
5.636583208870316747e-02
5.636581358414912563e-02
5.636579101674809439e-02
5.636576438696851848e-02
5.636573369527948796e-02
5.636569894215077287e-02
5.636566012805282327e-02
5.636561725345676233e-02
5.636557031883438623e-02
5.636551932465814346e-02
5.636546427140115556e-02
5.636540515953718244e-02
5.636534198954065711e-02
5.636527476188669256e-02
5.636520347705107487e-02
5.636512813551022849e-02
5.636504873774129953e-02
5.636496528422207941e-02
5.636487777543101180e-02
5.636478621184717874e-02
5.636469059395032150e-02
5.636459092222082662e-02
5.636448719713969824e-02
5.636437941918855110e-02
5.636426758884966609e-02
5.636415170660601798e-02
5.636403177294124767e-02
5.636390778833963444e-02
5.636377975328609596e-02
5.636364766826618827e-02
5.636351153376616130e-02
5.636337135027289641e-02
5.636322711827396192e-02
5.636307883825756454e-02
5.636292651071254239e-02
5.636277013612836506e-02
5.636260971499514050e-02
5.636244524780361503e-02
5.636227673504516644e-02
5.636210417721185251e-02
5.636192757479636245e-02
5.636174692829201693e-02
5.636156223819284439e-02
5.636137350499350468e-02
5.636118072918931687e-02
5.636098391127622453e-02
5.636078305175085817e-02
5.636057815111050751e-02
5.636036920985305898e-02
5.636015622847705131e-02
5.635993920748167546e-02
5.635971814736672608e-02
5.635949304863262233e-02
5.635926391178042866e-02
5.635903073731186180e-02
5.635879352572931156e-02
5.635855227753579222e-02
5.635830699323497728e-02
5.635805767333118554e-02
5.635780431832935339e-02
5.635754692873506944e-02
5.635728550505456763e-02
5.635702004779469948e-02
5.635675055746293405e-02
5.635647703456740654e-02
5.635619947961687665e-02
5.635591789312075633e-02
5.635563227558915145e-02
5.635534262753281315e-02
5.635504894946313792e-02
5.635475124189216062e-02
5.635444950533252673e-02
5.635414374029752010e-02
5.635383394730103523e-02
5.635352012685763967e-02
5.635320227948257404e-02
5.635288040569168266e-02
5.635255450600141353e-02
5.635222458092885994e-02
5.635189063099173279e-02
5.635155265670834662e-02
5.635121065859761968e-02
5.635086463717913635e-02
5.635051459297308468e-02
5.635016052650025642e-02
5.634980243828208168e-02
5.634944032884059428e-02
5.634907419869845946e-02
5.634870404837895308e-02
5.634832987840601021e-02
5.634795168930413489e-02
5.634756948159845569e-02
5.634718325581470483e-02
5.634679301247925293e-02
5.634639875211915061e-02
5.634600047526209382e-02
5.634559818243638218e-02
5.634519187417091901e-02
5.634478155099520436e-02
5.634436721343936277e-02
5.634394886203414332e-02
5.634352649731091955e-02
5.634310011980166177e-02
5.634266973003896478e-02
5.634223532855601319e-02
5.634179691588666467e-02
5.634135449256542916e-02
5.634090805912746192e-02
5.634045761610853575e-02
5.634000316404502023e-02
5.633954470347390248e-02
5.633908223493278716e-02
5.633861575895986878e-02
5.633814527609395245e-02
5.633767078687443308e-02
5.633719229184135091e-02
5.633670979153532904e-02
5.633622328649763589e-02
5.633573277727012968e-02
5.633523826439527232e-02
5.633473974841613635e-02
5.633423722987638410e-02
5.633373070932031629e-02
5.633322018729284425e-02
5.633270566433954546e-02
5.633218714100663577e-02
5.633166461784090695e-02
5.633113809538978223e-02
5.633060757420126768e-02
5.633007305482397309e-02
5.632953453780713965e-02
5.632899202370061920e-02
5.632844551305483949e-02
5.632789500642082503e-02
5.632734050435022483e-02
5.632678200739529156e-02
5.632621951610891631e-02
5.632565303104456605e-02
5.632508255275630454e-02
5.632450808179873675e-02
5.632392961872703663e-02
5.632334716409700959e-02
5.632276071846509247e-02
5.632217028238831191e-02
5.632157585642431213e-02
5.632097744113134102e-02
5.632037503706818771e-02
5.631976864479419642e-02
5.631915826486930815e-02
5.631854389785406756e-02
5.631792554430960912e-02
5.631730320479765017e-02
5.631667687988049786e-02
5.631604657012105608e-02
5.631541227608281852e-02
5.631477399832988950e-02
5.631413173742692846e-02
5.631348549393915687e-02
5.631283526843238602e-02
5.631218106147303781e-02
5.631152287362809622e-02
5.631086070546513500e-02
5.631019455755231079e-02
5.630952443045832839e-02
5.630885032475246854e-02
5.630817224100460178e-02
5.630749017978520926e-02
5.630680414166537584e-02
5.630611412721676923e-02
5.630542013701163306e-02
5.630472217162275916e-02
5.630402023162354996e-02
5.630331431758796301e-02
5.630260443009053178e-02
5.630189056970635875e-02
5.630117273701114311e-02
5.630045093258115307e-02
5.629972515699326052e-02
5.629899541082494796e-02
5.629826169465430158e-02
5.629752400905996962e-02
5.629678235462122482e-02
5.629603673191788810e-02
5.629528714153034241e-02
5.629453358403951196e-02
5.629377606002689688e-02
5.629301457007458709e-02
5.629224911476523457e-02
5.629147969468206031e-02
5.629070631040890282e-02
5.628992896253018352e-02
5.628914765163088585e-02
5.628836237829656225e-02
5.628757314311333415e-02
5.628677994666785728e-02
5.628598278954739798e-02
5.628518167233977770e-02
5.628437659563337303e-02
5.628356756001715033e-02
5.628275456608066579e-02
5.628193761441400295e-02
5.628111670560782820e-02
5.628029184025336307e-02
5.627946301894238418e-02
5.627863024226719552e-02
5.627779351082064924e-02
5.627695282519614567e-02
5.627610818598761250e-02
5.627525959378952558e-02
5.627440704919688119e-02
5.627355055280525847e-02
5.627269010521078474e-02
5.627182570701018405e-02
5.627095735880072863e-02
5.627008506118024583e-02
5.626920881474708341e-02
5.626832862010012343e-02
5.626744447783881692e-02
5.626655638856313535e-02
5.626566435287359141e-02
5.626476837137126680e-02
5.626386844465783993e-02
5.626296457333550272e-02
5.626205675800706463e-02
5.626114499927590412e-02
5.626022929774592007e-02
5.625930965402160117e-02
5.625838606870796343e-02
5.625745854241061272e-02
5.625652707573572386e-02
5.625559166929003374e-02
5.625465232368083435e-02
5.625370903951595197e-02
5.625276181740378190e-02
5.625181065795328145e-02
5.625085556177395613e-02
5.624989652947585961e-02
5.624893356166957986e-02
5.624796665896627385e-02
5.624699582197763281e-02
5.624602105131592394e-02
5.624504234759392790e-02
5.624405971142497351e-02
5.624307314342292391e-02
5.624208264420216957e-02
5.624108821437764916e-02
5.624008985456485643e-02
5.623908756537980558e-02
5.623808134743908671e-02
5.623707120135981036e-02
5.623605712775962828e-02
5.623503912725668491e-02
5.623401720046964508e-02
5.623299134801766630e-02
5.623196157052042649e-02
5.623092786859813785e-02
5.622989024287155385e-02
5.622884869396192059e-02
5.622780322249099766e-02
5.622675382908103037e-02
5.622570051435477750e-02
5.622464327893553909e-02
5.622358212344714945e-02
5.622251704851397719e-02
5.622144805476095991e-02
5.622037514281357645e-02
5.621929831329778443e-02
5.621821756684009658e-02
5.621713290406753216e-02
5.621604432560758924e-02
5.621495183208827240e-02
5.621385542413812747e-02
5.621275510238622763e-02
5.621165086746213874e-02
5.621054271999596091e-02
5.620943066061827309e-02
5.620831468996015379e-02
5.620719480865315337e-02
5.620607101732932182e-02
5.620494331662125725e-02
5.620381170716207825e-02
5.620267618958538214e-02
5.620153676452529362e-02
5.620039343261642312e-02
5.619924619449390146e-02
5.619809505079335910e-02
5.619694000215098156e-02
5.619578104920347483e-02
5.619461819258803059e-02
5.619345143294236095e-02
5.619228077090467066e-02
5.619110620711370574e-02
5.618992774220872566e-02
5.618874537682947562e-02
5.618755911161619349e-02
5.618636894720955427e-02
5.618517488425077422e-02
5.618397692338158306e-02
5.618277506524418929e-02
5.618156931048133573e-02
5.618035965973627865e-02
5.617914611365278782e-02
5.617792867287511871e-02
5.617670733804803335e-02
5.617548210981679335e-02
5.617425298882713913e-02
5.617301997572532457e-02
5.617178307115811009e-02
5.617054227577275571e-02
5.616929759021705576e-02
5.616804901513933884e-02
5.616679655118846093e-02
5.616554019901378453e-02
5.616427995926517175e-02
5.616301583259297736e-02
5.616174781964806267e-02
5.616047592108179554e-02
5.615920013754603646e-02
5.615792046969316637e-02
5.615663691817606579e-02
5.615534948364813567e-02
5.615405816676326961e-02
5.615276296817580531e-02
5.615146388854055232e-02
5.615016092851275731e-02
5.614885408874818046e-02
5.614754336990304684e-02
5.614622877263404643e-02
5.614491029759838270e-02
5.614358794545375175e-02
5.614226171685834238e-02
5.614093161247082908e-02
5.613959763295037902e-02
5.613825977895661734e-02
5.613691805114967570e-02
5.613557245019015068e-02
5.613422297673912459e-02
5.613286963145815156e-02
5.613151241500923677e-02
5.613015132805485030e-02
5.612878637125792713e-02
5.612741754528185328e-02
5.612604485079048661e-02
5.612466828844812905e-02
5.612328785891956134e-02
5.612190356287004994e-02
5.612051540096536784e-02
5.611912337387175986e-02
5.611772748225597740e-02
5.611632772678527836e-02
5.611492410812735782e-02
5.611351662695035492e-02
5.611210528392285984e-02
5.611069007971390687e-02
5.610927101499294661e-02
5.610784809042987376e-02
5.610642130669502708e-02
5.610499066445921029e-02
5.610355616439366422e-02
5.610211780717007379e-02
5.610067559346056804e-02
5.609922952393774087e-02
5.609777959927469970e-02
5.609632582014504459e-02
5.609486818722287521e-02
5.609340670118272837e-02
5.609194136269965436e-02
5.609047217244914063e-02
5.608899913110713953e-02
5.608752223934999892e-02
5.608604149785454546e-02
5.608455690729807069e-02
5.608306846835830334e-02
5.608157618171337455e-02
5.608008004804184571e-02
5.607858006802276390e-02
5.607707624233562727e-02
5.607556857166038494e-02
5.607405705667744406e-02
5.607254169806769051e-02
5.607102249651246123e-02
5.606949945269354418e-02
5.606797256729315060e-02
5.606644184099397743e-02
5.606490727447917266e-02
5.606336886843232836e-02
5.606182662353748070e-02
5.606028054047913767e-02
5.605873061994228607e-02
5.605717686261233595e-02
5.605561926917514148e-02
5.605405784031702865e-02
5.605249257672478835e-02
5.605092347908562783e-02
5.604935054808720535e-02
5.604777378441758856e-02
5.604619318876528228e-02
5.604460876181929091e-02
5.604302050426905601e-02
5.604142841680444936e-02
5.603983250011575906e-02
5.603823275489368955e-02
5.603662918182937547e-02
5.603502178161438863e-02
5.603341055494073797e-02
5.603179550250083490e-02
5.603017662498752105e-02
5.602855392309407517e-02
5.602692739751421319e-02
5.602529704894208124e-02
5.602366287807222789e-02
5.602202488559963195e-02
5.602038307221970242e-02
5.601873743862827160e-02
5.601708798552162277e-02
5.601543471359646947e-02
5.601377762355001094e-02
5.601211671607984888e-02
5.601045199188403600e-02
5.600878345166104139e-02
5.600711109610978511e-02
5.600543492592961053e-02
5.600375494182024960e-02
5.600207114448189222e-02
5.600038353461515850e-02
5.599869211292110571e-02
5.599699688010120746e-02
5.599529783685738837e-02
5.599359498389195472e-02
5.599188832190765686e-02
5.599017785160764066e-02
5.598846357369546833e-02
5.598674548887509067e-02
5.598502359785084009e-02
5.598329790132740291e-02
5.598156840000988177e-02
5.597983509460374013e-02
5.597809798581482310e-02
5.597635707434941293e-02
5.597461236091420128e-02
5.597286384621631000e-02
5.597111153096329811e-02
5.596935541586307850e-02
5.596759550162394570e-02
5.596583178895463140e-02
5.596406427856424198e-02
5.596229297116231405e-02
5.596051786745875889e-02
5.595873896816389720e-02
5.595695627398842437e-02
5.595516978564343130e-02
5.595337950384038361e-02
5.595158542929120488e-02
5.594978756270824888e-02
5.594798590480426492e-02
5.594618045629242559e-02
5.594437121788629896e-02
5.594255819029984866e-02
5.594074137424746851e-02
5.593892077044397559e-02
5.593709637960457559e-02
5.593526820244484193e-02
5.593343623968071582e-02
5.593160049202855477e-02
5.592976096020511184e-02
5.592791764492755641e-02
5.592607054691346724e-02
5.592421966688076312e-02
5.592236500554773060e-02
5.592050656363304478e-02
5.591864434185579019e-02
5.591677834093546073e-02
5.591490856159196665e-02
5.591303500454560677e-02
5.591115767051706847e-02
5.590927656022742082e-02
5.590739167439810753e-02
5.590550301375095399e-02
5.590361057900814640e-02
5.590171437089225259e-02
5.589981439012624287e-02
5.589791063743348998e-02
5.589600311353774831e-02
5.589409181916315389e-02
5.589217675503424521e-02
5.589025792187593544e-02
5.588833532041351249e-02
5.588640895137267361e-02
5.588447881547952550e-02
5.588254491346054259e-02
5.588060724604258789e-02
5.587866581395292687e-02
5.587672061791920664e-02
5.587477165866944206e-02
5.587281893693204354e-02
5.587086245343576146e-02
5.586890220890976255e-02
5.586693820408358130e-02
5.586497043968715465e-02
5.586299891645075955e-02
5.586102363510506846e-02
5.585904459638112163e-02
5.585706180101034091e-02
5.585507524972453675e-02
5.585308494325591511e-02
5.585109088233707053e-02
5.584909306770096532e-02
5.584709150008095035e-02
5.584508618021070264e-02
5.584307710882428777e-02
5.584106428665615296e-02
5.583904771444112708e-02
5.583702739291442757e-02
5.583500332281166045e-02
5.583297550486879257e-02
5.583094393982211689e-02
5.582890862840827334e-02
5.582686957136425571e-02
5.582482676942741168e-02
5.582278022333546363e-02
5.582072993382654336e-02
5.581867590163916426e-02
5.581661812751221446e-02
5.581455661218492903e-02
5.581249135639691772e-02
5.581042236088816499e-02
5.580834962639900226e-02
5.580627315367013563e-02
5.580419294344259040e-02
5.580210899645773881e-02
5.580002131345732780e-02
5.579792989518347901e-02
5.579583474237868185e-02
5.579373585578578654e-02
5.579163323614801107e-02
5.578952688420892037e-02
5.578741680071244713e-02
5.578530298640285712e-02
5.578318544202472140e-02
5.578106416832292330e-02
5.577893916604272084e-02
5.577681043592973287e-02
5.577467797872990435e-02
5.577254179518952026e-02
5.577040188605520560e-02
5.576825825207389065e-02
5.576611089399285959e-02
5.576395981255975048e-02
5.576180500852254140e-02
5.575964648262957124e-02
5.575748423562949807e-02
5.575531826827134080e-02
5.575314858130445139e-02
5.575097517547850101e-02
5.574879805154352164e-02
5.574661721024987832e-02
5.574443265234825529e-02
5.574224437858968373e-02
5.574005238972548626e-02
5.573785668650733938e-02
5.573565726968719020e-02
5.573345414001730502e-02
5.573124729825030405e-02
5.572903674513913358e-02
5.572682248143710770e-02
5.572460450789788050e-02
5.572238282527545300e-02
5.572015743432411766e-02
5.571792833579848614e-02
5.571569553045351009e-02
5.571345901904445341e-02
5.571121880232687146e-02
5.570897488105663875e-02
5.570672725598991432e-02
5.570447592788313473e-02
5.570222089749307659e-02
5.569996216557682872e-02
5.569769973289179221e-02
5.569543360019568040e-02
5.569316376824648418e-02
5.569089023780247200e-02
5.568861300962221761e-02
5.568633208446460703e-02
5.568404746308886627e-02
5.568175914625454748e-02
5.567946713472152892e-02
5.567717142924996643e-02
5.567487203060032114e-02
5.567256893953338726e-02
5.567026215681028511e-02
5.566795168319240567e-02
5.566563751944147292e-02
5.566331966631948153e-02
5.566099812458875223e-02
5.565867289501191112e-02
5.565634397835187569e-02
5.565401137537187570e-02
5.565167508683543929e-02
5.564933511350639989e-02
5.564699145614891707e-02
5.564464411552746959e-02
5.564229309240679988e-02
5.563993838755196264e-02
5.563758000172830398e-02
5.563521793570144064e-02
5.563285219023730160e-02
5.563048276610213505e-02
5.562810966406250834e-02
5.562573288488530110e-02
5.562335242933768437e-02
5.562096829818711369e-02
5.561858049220132910e-02
5.561618901214835514e-02
5.561379385879650084e-02
5.561139503291435970e-02
5.560899253527083058e-02
5.560658636663509680e-02
5.560417652777662617e-02
5.560176301946517102e-02
5.559934584247076816e-02
5.559692499756378053e-02
5.559450048551486945e-02
5.559207230709498071e-02
5.558964046307534462e-02
5.558720495422746211e-02
5.558476578132310469e-02
5.558232294513429372e-02
5.557987644643332809e-02
5.557742628599281198e-02
5.557497246458559248e-02
5.557251498298478726e-02
5.557005384196379155e-02
5.556758904229623652e-02
5.556512058475601701e-02
5.556264847011733315e-02
5.556017269915465573e-02
5.555769327264277468e-02
5.555521019135674365e-02
5.555272345607188689e-02
5.555023306756379925e-02
5.554773902660838786e-02
5.554524133398187902e-02
5.554273999046076965e-02
5.554023499682181342e-02
5.553772635384202766e-02
5.553521406229866564e-02
5.553269812296923735e-02
5.553017853663148873e-02
5.552765530406342243e-02
5.552512842604332560e-02
5.552259790334972134e-02
5.552006373676138945e-02
5.551752592705735956e-02
5.551498447501691802e-02
5.551243938141960793e-02
5.550989064704519443e-02
5.550733827267369941e-02
5.550478225908542923e-02
5.550222260706094007e-02
5.549965931738103792e-02
5.549709239082677853e-02
5.549452182817946749e-02
5.549194763022068794e-02
5.548936979773227279e-02
5.548678833149630479e-02
5.548420323229508871e-02
5.548161450091119995e-02
5.547902213812742900e-02
5.547642614472680922e-02
5.547382652149264459e-02
5.547122326920848889e-02
5.546861638865815958e-02
5.546600588062573778e-02
5.546339174589558219e-02
5.546077398525226659e-02
5.545815259948060072e-02
5.545552758936560245e-02
5.545289895569256028e-02
5.545026669924697782e-02
5.544763082081462235e-02
5.544499132118152485e-02
5.544234820113397300e-02
5.543970146145845573e-02
5.543705110294169791e-02
5.543439712637063255e-02
5.543173953253240083e-02
5.542907832221437986e-02
5.542641349620420349e-02
5.542374505528975537e-02
5.542107300025914812e-02
5.541839733190073031e-02
5.541571805100302395e-02
5.541303515835482862e-02
5.541034865474514515e-02
5.540765854096320331e-02
5.540496481779842719e-02
5.540226748604046292e-02
5.539956654647915091e-02
5.539686199990458831e-02
5.539415384710710127e-02
5.539144208887725879e-02
5.538872672600584496e-02
5.538600775928386594e-02
5.538328518950257767e-02
5.538055901745350673e-02
5.537782924392842254e-02
5.537509586971928882e-02
5.537235889561828439e-02
5.536961832241780318e-02
5.536687415091048892e-02
5.536412638188917268e-02
5.536137501614686596e-02
5.535862005447678841e-02
5.535586149767234010e-02
5.535309934652710845e-02
5.535033360183489598e-02
5.534756426438971338e-02
5.534479133498575870e-02
5.534201481441741038e-02
5.533923470347927587e-02
5.533645100296617075e-02
5.533366371367311187e-02
5.533087283639532422e-02
5.532807837192822015e-02
5.532528032106744098e-02
5.532247868460885010e-02
5.531967346334851210e-02
5.531686465808272751e-02
5.531405226960802585e-02
5.531123629872108233e-02
5.530841674621877341e-02
5.530559361289816983e-02
5.530276689955651581e-02
5.529993660699128455e-02
5.529710273600014353e-02
5.529426528738098229e-02
5.529142426193191240e-02
5.528857966045123973e-02
5.528573148373742974e-02
5.528287973258910748e-02
5.528002440780512700e-02
5.527716551018454355e-02
5.527430304052657201e-02
5.527143699963064233e-02
5.526856738829637877e-02
5.526569420732364846e-02
5.526281745751249891e-02
5.525993713966319276e-02
5.525705325457615918e-02
5.525416580305198000e-02
5.525127478589144520e-02
5.524838020389553905e-02
5.524548205786545402e-02
5.524258034860256295e-02
5.523967507690842604e-02
5.523676624358480475e-02
5.523385384943364090e-02
5.523093789525706371e-02
5.522801838185732726e-02
5.522509531003683830e-02
5.522216868059817707e-02
5.521923849434412501e-02
5.521630475207767175e-02
5.521336745460200812e-02
5.521042660272051927e-02
5.520748219723676381e-02
5.520453423895445300e-02
5.520158272867747851e-02
5.519862766720987773e-02
5.519566905535584767e-02
5.519270689391975182e-02
5.518974118370613413e-02
5.518677192551971200e-02
5.518379912016536243e-02
5.518082276844812201e-02
5.517784287117320080e-02
5.517485942914598235e-02
5.517187244317200978e-02
5.516888191405698583e-02
5.516588784260680750e-02
5.516289022962753835e-02
5.515988907592538071e-02
5.515688438230669649e-02
5.515387614957805579e-02
5.515086437854618828e-02
5.514784907001796244e-02
5.514483022480040630e-02
5.514180784370070060e-02
5.513878192752617868e-02
5.513575247708430577e-02
5.513271949318274134e-02
5.512968297662924205e-02
5.512664292823171025e-02
5.512359934879823564e-02
5.512055223913706059e-02
5.511750160005657317e-02
5.511444743236531413e-02
5.511138973687197684e-02
5.510832851438537960e-02
5.510526376571451418e-02
5.510219549166849029e-02
5.509912369305657032e-02
5.509604837068819011e-02
5.509296952537293124e-02
5.508988715792052099e-02
5.508680126914085318e-02
5.508371185984396734e-02
5.508061893084005567e-02
5.507752248293945607e-02
5.507442251695261054e-02
5.507131903369009984e-02
5.506821203396265046e-02
5.506510151858114849e-02
5.506198748835661877e-02
5.505886994410025964e-02
5.505574888662345678e-02
5.505262431673773466e-02
5.504949623525473568e-02
5.504636464298626186e-02
5.504322954074424012e-02
5.504009092934070146e-02
5.503694880958784341e-02
5.503380318229796758e-02
5.503065404828353518e-02
5.502750140835713927e-02
5.502434526333149778e-02
5.502118561401948132e-02
5.501802246123409235e-02
5.501485580578844431e-02
5.501168564849577558e-02
5.500851199016947024e-02
5.500533483162300952e-02
5.500215417367002729e-02
5.499897001712425459e-02
5.499578236279957510e-02
5.499259121150999741e-02
5.498939656406962029e-02
5.498619842129263274e-02
5.498299678399334867e-02
5.497979165298615134e-02
5.497658302908554201e-02
5.497337091310610518e-02
5.497015530586254334e-02
5.496693620816973241e-02
5.496371362084266632e-02
5.496048754469642916e-02
5.495725798054624384e-02
5.495402492920744425e-02
5.495078839149547534e-02
5.494754836822584448e-02
5.494430486021417009e-02
5.494105786827617466e-02
5.493780739322769169e-02
5.493455343588466572e-02
5.493129599706315230e-02
5.492803507757931802e-02
5.492477067824941273e-02
5.492150279988978340e-02
5.491823144331684642e-02
5.491495660934710143e-02
5.491167829879712442e-02
5.490839651248362319e-02
5.490511125122341657e-02
5.490182251583342748e-02
5.489853030713064130e-02
5.489523462593214054e-02
5.489193547305506321e-02
5.488863284931667225e-02
5.488532675553429302e-02
5.488201719252537580e-02
5.487870416110749577e-02
5.487538766209832525e-02
5.487206769631566144e-02
5.486874426457737097e-02
5.486541736770143840e-02
5.486208700650593850e-02
5.485875318180904320e-02
5.485541589442898686e-02
5.485207514518411487e-02
5.484873093489289059e-02
5.484538326437387451e-02
5.484203213444568958e-02
5.483867754592701427e-02
5.483531949963658253e-02
5.483195799639319079e-02
5.482859303701569792e-02
5.482522462232301136e-02
5.482185275313406631e-02
5.481847743026783265e-02
5.481509865454336355e-02
5.481171642677979544e-02
5.480833074779634106e-02
5.480494161841234502e-02
5.480154903944720740e-02
5.479815301172040465e-02
5.479475353605148952e-02
5.479135061326007028e-02
5.478794424416585929e-02
5.478453442958866604e-02
5.478112117034834860e-02
5.477770446726487608e-02
5.477428432115828694e-02
5.477086073284868212e-02
5.476743370315623888e-02
5.476400323290121080e-02
5.476056932290394863e-02
5.475713197398487248e-02
5.475369118696449960e-02
5.475024696266336116e-02
5.474679930190205768e-02
5.474334820550125907e-02
5.473989367428169772e-02
5.473643570906416150e-02
5.473297431066947299e-02
5.472950947991850335e-02
5.472604121763216534e-02
5.472256952463142726e-02
5.471909440173729211e-02
5.471561584977082532e-02
5.471213386955314784e-02
5.470864846190543612e-02
5.470515962764894990e-02
5.470166736760501136e-02
5.469817168259500512e-02
5.469467257344034355e-02
5.469117004096243906e-02
5.468766408598272483e-02
5.468415470932263406e-02
5.468064191180366240e-02
5.467712569424738184e-02
5.467360605747538516e-02
5.467008300230934148e-02
5.466655652957094075e-02
5.466302664008192841e-02
5.465949333466412624e-02
5.465595661413937684e-02
5.465241647932957136e-02
5.464887293105664262e-02
5.464532597014254423e-02
5.464177559740922285e-02
5.463822181367866682e-02
5.463466461977290606e-02
5.463110401651401216e-02
5.462754000472407750e-02
5.462397258522520838e-02
5.462040175883954574e-02
5.461682752638927218e-02
5.461324988869658420e-02
5.460966884658369214e-02
5.460608440087281329e-02
5.460249655238617189e-02
5.459890530194605462e-02
5.459531065037475511e-02
5.459171259849460861e-02
5.458811114712795731e-02
5.458450629709719892e-02
5.458089804922473115e-02
5.457728640433295864e-02
5.457367136324429296e-02
5.457005292678117347e-02
5.456643109576603951e-02
5.456280587102133040e-02
5.455917725336949242e-02
5.455554524363297186e-02
5.455190984263426357e-02
5.454827105119591790e-02
5.454462887014047828e-02
5.454098330029050895e-02
5.453733434246854639e-02
5.453368199749709933e-02
5.453002626619867649e-02
5.452636714939577967e-02
5.452270464791092452e-02
5.451903876256658510e-02
5.451536949418525624e-02
5.451169684358945361e-02
5.450802081160170676e-02
5.450434139904451053e-02
5.450065860674038060e-02
5.449697243551184650e-02
5.449328288618150024e-02
5.448958995957194074e-02
5.448589365650576000e-02
5.448219397780551532e-02
5.447849092429379869e-02
5.447478449679315354e-02
5.447107469612610942e-02
5.446736152311520279e-02
5.446364497858300485e-02
5.445992506335210065e-02
5.445620177824510993e-02
5.445247512408468021e-02
5.444874510169343124e-02
5.444501171189398969e-02
5.444127495550896839e-02
5.443753483336095239e-02
5.443379134627251981e-02
5.443004449506620018e-02
5.442629428056455776e-02
5.442254070359018453e-02
5.441878376496566555e-02
5.441502346551357894e-02
5.441125980605645424e-02
5.440749278741676548e-02
5.440372241041697976e-02
5.439994867587953642e-02
5.439617158462686786e-02
5.439239113748139259e-02
5.438860733526549446e-02
5.438482017880155728e-02
5.438102966891195794e-02
5.437723580641906640e-02
5.437343859214521791e-02
5.436963802691273384e-02
5.436583411154389395e-02
5.436202684686096409e-02
5.435821623368620320e-02
5.435440227284186326e-02
5.435058496515017545e-02
5.434676431143337788e-02
5.434294031251370172e-02
5.433911296921334344e-02
5.433528228235448565e-02
5.433144825275929013e-02
5.432761088124989785e-02
5.432377016864843589e-02
5.431992611577701052e-02
5.431607872345767946e-02
5.431222799251240324e-02
5.430837392376310080e-02
5.430451651803167024e-02
5.430065577613998190e-02
5.429679169890985757e-02
5.429292428716307045e-02
5.428905354172133824e-02
5.428517946340633699e-02
5.428130205303967337e-02
5.427742131144294713e-02
5.427353723943773023e-02
5.426964983784557384e-02
5.426575910748794584e-02
5.426186504918623782e-02
5.425796766376181357e-02
5.425406695203600221e-02
5.425016291483008429e-02
5.424625555296529178e-02
5.424234486726280113e-02
5.423843085854373330e-02
5.423451352762914679e-02
5.423059287534003764e-02
5.422666890249735333e-02
5.422274160992201358e-02
5.421881099843484098e-02
5.421487706885660257e-02
5.421093982200804462e-02
5.420699925870985092e-02
5.420305537978261506e-02
5.419910818604686820e-02
5.419515767832307901e-02
5.419120385743166068e-02
5.418724672419293620e-02
5.418328627942719383e-02
5.417932252395463166e-02
5.417535545859544083e-02
5.417138508416975695e-02
5.416741140149768097e-02
5.416343441139924442e-02
5.415945411469438864e-02
5.415547051220302027e-02
5.415148360474497657e-02
5.414749339314003235e-02
5.414349987820789994e-02
5.413950306076822927e-02
5.413550294164063553e-02
5.413149952164466455e-02
5.412749280159979970e-02
5.412348278232546189e-02
5.411946946464100267e-02
5.411545284936570416e-02
5.411143293731877912e-02
5.410740972931935011e-02
5.410338322618644946e-02
5.409935342873906788e-02
5.409532033779609894e-02
5.409128395417636681e-02
5.408724427869863322e-02
5.408320131218159743e-02
5.407915505544388240e-02
5.407510550930403476e-02
5.407105267458053866e-02
5.406699655209184358e-02
5.406293714265632960e-02
5.405887444709230744e-02
5.405480846621801838e-02
5.405073920085163436e-02
5.404666665181128565e-02
5.404259081991503316e-02
5.403851170598092390e-02
5.403442931082690776e-02
5.403034363527086520e-02
5.402625468013057958e-02
5.402216244622373709e-02
5.401806693436795453e-02
5.401396814538080710e-02
5.400986608007977280e-02
5.400576073928223253e-02
5.400165212380549778e-02
5.399754023446678292e-02
5.399342507208323289e-02
5.398930663747192327e-02
5.398518493144986025e-02
5.398105995483397368e-02
5.397693170844114485e-02
5.397280019308819260e-02
5.396866540959184555e-02
5.396452735876875600e-02
5.396038604143552769e-02
5.395624145840870189e-02
5.395209361050470193e-02
5.394794249853987478e-02
5.394378812333051887e-02
5.393963048569289098e-02
5.393546958644315076e-02
5.393130542639736763e-02
5.392713800637154858e-02
5.392296732718162428e-02
5.391879338964344903e-02
5.391461619457280779e-02
5.391043574278541611e-02
5.390625203509689933e-02
5.390206507232282035e-02
5.389787485527863797e-02
5.389368138477973469e-02
5.388948466164143053e-02
5.388528468667895532e-02
5.388108146070746257e-02
5.387687498454203638e-02
5.387266525899767067e-02
5.386845228488928994e-02
5.386423606303174932e-02
5.386001659423983456e-02
5.385579387932826895e-02
5.385156791911174107e-02
5.384733871440487013e-02
5.384310626602220595e-02
5.383887057477822896e-02
5.383463164148732244e-02
5.383038946696380722e-02
5.382614405202188618e-02
5.382189539747566503e-02
5.381764350413915932e-02
5.381338837282629434e-02
5.380913000435092602e-02
5.380486839952690337e-02
5.380060355916795739e-02
5.379633548408772198e-02
5.379206417509974081e-02
5.378778963301752286e-02
5.378351185865447998e-02
5.377923085282393378e-02
5.377494661633912265e-02
5.377065915001325719e-02
5.376636845465945780e-02
5.376207453109080325e-02
5.375777738012030987e-02
5.375347700256095929e-02
5.374917339922567067e-02
5.374486657092727993e-02
5.374055651847853970e-02
5.373624324269209163e-02
5.373192674438054262e-02
5.372760702435640245e-02
5.372328408343211847e-02
5.371895792242006168e-02
5.371462854213255450e-02
5.371029594338182916e-02
5.370596012698008320e-02
5.370162109373948639e-02
5.369727884447215299e-02
5.369293337999014176e-02
5.368858470110542819e-02
5.368423280862993918e-02
5.367987770337554615e-02
5.367551938615408580e-02
5.367115785777734627e-02
5.366679311905706712e-02
5.366242517080493241e-02
5.365805401383257067e-02
5.365367964895150638e-02
5.364930207697325010e-02
5.364492129870925691e-02
5.364053731497091942e-02
5.363615012656958864e-02
5.363175973431654614e-02
5.362736613902304578e-02
5.362296934150026506e-02
5.361856934255925661e-02
5.361416614301103140e-02
5.360975974366652408e-02
5.360535014533661380e-02
5.360093734883210337e-02
5.359652135496373315e-02
5.359210216454217413e-02
5.358767977837802093e-02
5.358325419728182659e-02
5.357882542206412330e-02
5.357439345353540161e-02
5.356995829250609659e-02
5.356551993978657389e-02
5.356107839618715061e-02
5.355663366251810914e-02
5.355218573958966943e-02
5.354773462821198204e-02
5.354328032919512814e-02
5.353882284334912645e-02
5.353436217148390547e-02
5.352989831440935903e-02
5.352543127293535319e-02
5.352096104787174707e-02
5.351648764002833042e-02
5.351201105021483051e-02
5.350753127924094688e-02
5.350304832791637211e-02
5.349856219705077104e-02
5.349407288745375993e-02
5.348958039993489261e-02
5.348508473530366042e-02
5.348058589436947841e-02
5.347608387794171303e-02
5.347157868682961279e-02
5.346707032184237068e-02
5.346255878378913112e-02
5.345804407347901077e-02
5.345352619172107772e-02
5.344900513932435149e-02
5.344448091709780302e-02
5.343995352585038938e-02
5.343542296639104683e-02
5.343088923952865610e-02
5.342635234607204936e-02
5.342181228683001715e-02
5.341726906261130836e-02
5.341272267422463027e-02
5.340817312247862075e-02
5.340362040818190381e-02
5.339906453214308957e-02
5.339450549517074651e-02
5.338994329807340150e-02
5.338537794165953976e-02
5.338080942673761181e-02
5.337623775411604043e-02
5.337166292460323452e-02
5.336708493900756134e-02
5.336250379813736039e-02
5.335791950280093648e-02
5.335333205380658750e-02
5.334874145196261130e-02
5.334414769807730577e-02
5.333955079295890633e-02
5.333495073741564146e-02
5.333034753225574659e-02
5.332574117828740856e-02
5.332113167631873096e-02
5.331651902715781738e-02
5.331190323161277139e-02
5.330728429049167577e-02
5.330266220460254389e-02
5.329803697475339608e-02
5.329340860175222488e-02
5.328877708640700206e-02
5.328414242952565771e-02
5.327950463191610808e-02
5.327486369438625552e-02
5.327021961774398157e-02
5.326557240279714694e-02
5.326092205035357768e-02
5.325626856122109287e-02
5.325161193620746997e-02
5.324695217612050724e-02
5.324228928176799602e-02
5.323762325395774153e-02
5.323295409349751428e-02
5.322828180119511254e-02
5.322360637785839010e-02
5.321892782429519381e-02
5.321424614131339131e-02
5.320956132972082253e-02
5.320487339032529961e-02
5.320018232393466939e-02
5.319548813135677873e-02
5.319079081339946752e-02
5.318609037087058261e-02
5.318138680457798473e-02
5.317668011532951378e-02
5.317197030393298190e-02
5.316725737119621514e-02
5.316254131792703258e-02
5.315782214493328800e-02
5.315309985302286988e-02
5.314837444300370833e-02
5.314364591568374735e-02
5.313891427187100031e-02
5.313417951237352221e-02
5.312944163799938890e-02
5.312470064955670396e-02
5.311995654785359178e-02
5.311520933369819758e-02
5.311045900789872209e-02
5.310570557126341462e-02
5.310094902460051752e-02
5.309618936871832867e-02
5.309142660442520145e-02
5.308666073252951700e-02
5.308189175383969116e-02
5.307711966916418139e-02
5.307234447931150068e-02
5.306756618509021750e-02
5.306278478730896975e-02
5.305800028677642999e-02
5.305321268430133325e-02
5.304842198069242842e-02
5.304362817675851299e-02
5.303883127330846076e-02
5.303403127115118021e-02
5.302922817109567699e-02
5.302442197395103307e-02
5.301961268052637205e-02
5.301480029163084529e-02
5.300998480807365965e-02
5.300516623066407057e-02
5.300034456021141677e-02
5.299551979752508551e-02
5.299069194341451960e-02
5.298586099868916877e-02
5.298102696415853824e-02
5.297618984063219572e-02
5.297134962891971582e-02
5.296650632983076340e-02
5.296165994417510042e-02
5.295681047276255132e-02
5.295195791640303073e-02
5.294710227590652268e-02
5.294224355208310834e-02
5.293738174574291744e-02
5.293251685769610054e-02
5.292764888875284984e-02
5.292277783972343386e-02
5.291790371141822519e-02
5.291302650464767277e-02
5.290814622022228103e-02
5.290326285895263769e-02
5.289837642164938597e-02
5.289348690912322459e-02
5.288859432218491474e-02
5.288369866164533556e-02
5.287879992831544945e-02
5.287389812300630210e-02
5.286899324652905713e-02
5.286408529969501002e-02
5.285917428331556034e-02
5.285426019820222560e-02
5.284934304516661352e-02
5.284442282502038041e-02
5.283949953857526582e-02
5.283457318664308566e-02
5.282964377003575296e-02
5.282471128956528483e-02
5.281977574604375392e-02
5.281483714028337162e-02
5.280989547309648813e-02
5.280495074529556465e-02
5.280000295769322893e-02
5.279505211110222668e-02
5.279009820633540073e-02
5.278514124420568415e-02
5.278018122552610020e-02
5.277521815110976927e-02
5.277025202176990892e-02
5.276528283831983385e-02
5.276031060157301139e-02
5.275533531234303380e-02
5.275035697144359742e-02
5.274537557968853735e-02
5.274039113789179278e-02
5.273540364686746251e-02
5.273041310742975635e-02
5.272541952039299512e-02
5.272042288657164538e-02
5.271542320678031940e-02
5.271042048183376821e-02
5.270541471254688859e-02
5.270040589973470219e-02
5.269539404421238332e-02
5.269037914679527979e-02
5.268536120829891284e-02
5.268034022953896334e-02
5.267531621133124398e-02
5.267028915449172705e-02
5.266525905983657913e-02
5.266022592818209863e-02
5.265518976034471582e-02
5.265015055714102055e-02
5.264510831938779695e-02
5.264006304790198182e-02
5.263501474350067849e-02
5.262996340700115683e-02
5.262490903922086710e-02
5.261985164097740530e-02
5.261479121308856866e-02
5.260972775637234172e-02
5.260466127164686867e-02
5.259959175973044632e-02
5.259451922144152414e-02
5.258944365759870426e-02
5.258436506902077617e-02
5.257928345652667507e-02
5.257419882093550961e-02
5.256911116306660359e-02
5.256402048373949587e-02
5.255892678377391963e-02
5.255383006398983703e-02
5.254873032520741838e-02
5.254362756824703523e-02
5.253852179392923261e-02
5.253341300307476369e-02
5.252830119650458290e-02
5.252318637503988058e-02
5.251806853950204135e-02
5.251294769071265800e-02
5.250782382949353150e-02
5.250269695666665709e-02
5.249756707305427289e-02
5.249243417947883211e-02
5.248729827676301002e-02
5.248215936572964840e-02
5.247701744720181805e-02
5.247187252200281871e-02
5.246672459095617219e-02
5.246157365488565705e-02
5.245641971461525305e-02
5.245126277096916895e-02
5.244610282477184943e-02
5.244093987684797509e-02
5.243577392802246245e-02
5.243060497912046397e-02
5.242543303096734719e-02
5.242025808438869477e-02
5.241508014021032530e-02
5.240989919925827939e-02
5.240471526235882666e-02
5.239952833033847956e-02
5.239433840402399345e-02
5.238914548424237344e-02
5.238394957182084671e-02
5.237875066758689024e-02
5.237354877236820999e-02
5.236834388699274784e-02
5.236313601228873016e-02
5.235792514908466783e-02
5.235271129820933539e-02
5.234749446049177107e-02
5.234227463676130454e-02
5.233705182784750137e-02
5.233182603458019083e-02
5.232659725778943810e-02
5.232136549830555122e-02
5.231613075695914356e-02
5.231089303458107825e-02
5.230565233200248909e-02
5.230040865005478046e-02
5.229516198956961348e-02
5.228991235137889909e-02
5.228465973631484659e-02
5.227940414520994977e-02
5.227414557889693142e-02
5.226888403820877105e-02
5.226361952397868410e-02
5.225835203704014276e-02
5.225308157822690369e-02
5.224780814837298726e-02
5.224253174831269830e-02
5.223725237888059841e-02
5.223197004091154755e-02
5.222668473524068322e-02
5.222139646270341357e-02
5.221610522413541039e-02
5.221081102037264388e-02
5.220551385225135482e-02
5.220021372060808240e-02
5.219491062627967110e-02
5.218960457010329845e-02
5.218429555291641958e-02
5.217898357555679489e-02
5.217366863886246237e-02
5.216835074367173752e-02
5.216302989082324815e-02
5.215770608115591345e-02
5.215237931550894407e-02
5.214704959472186291e-02
5.214171691963449817e-02
5.213638129108699032e-02
5.213104270991977124e-02
5.212570117697356425e-02
5.212035669308939106e-02
5.211500925910859949e-02
5.210965887587291206e-02
5.210430554422434968e-02
5.209894926500528711e-02
5.209359003905836283e-02
5.208822786722651366e-02
5.208286275035300950e-02
5.207749468928139780e-02
5.207212368485557991e-02
5.206674973791975553e-02
5.206137284931840886e-02
5.205599301989633637e-02
5.205061025049872309e-02
5.204522454197105935e-02
5.203983589515922409e-02
5.203444431090943623e-02
5.202904979006826164e-02
5.202365233348257845e-02
5.201825194199957703e-02
5.201284861646679469e-02
5.200744235773208102e-02
5.200203316664359782e-02
5.199662104404986079e-02
5.199120599079973953e-02
5.198578800774239506e-02
5.198036709572730757e-02
5.197494325560430423e-02
5.196951648822356606e-02
5.196408679443557943e-02
5.195865417509121231e-02
5.195321863104165189e-02
5.194778016313843921e-02
5.194233877223347617e-02
5.193689445917902547e-02
5.193144722482768288e-02
5.192599707003237725e-02
5.192054399564637046e-02
5.191508800252328526e-02
5.190962909151711213e-02
5.190416726348220933e-02
5.189870251927332367e-02
5.189323485974554201e-02
5.188776428575429117e-02
5.188229079815535882e-02
5.187681439780490039e-02
5.187133508555941824e-02
5.186585286227581026e-02
5.186036772881131435e-02
5.185487968602352227e-02
5.184938873477040744e-02
5.184389487591031104e-02
5.183839811030192118e-02
5.183289843880427988e-02
5.182739586227677608e-02
5.182189038157915262e-02
5.181638199757149926e-02
5.181087071111425274e-02
5.180535652306821059e-02
5.179983943429455201e-02
5.179431944565486556e-02
5.178879655801112841e-02
5.178327077222569935e-02
5.177774208916129106e-02
5.177221050968097704e-02
5.176667603464819162e-02
5.176113866492670218e-02
5.175559840138066470e-02
5.175005524487457514e-02
5.174450919627331807e-02
5.173896025644215968e-02
5.173340842624676167e-02
5.172785370655316045e-02
5.172229609822781571e-02
5.171673560213754794e-02
5.171117221914957318e-02
5.170560595013147520e-02
5.170003679595120555e-02
5.169446475747709047e-02
5.168888983557787947e-02
5.168331203112271760e-02
5.167773134498112458e-02
5.167214777802299486e-02
5.166656133111859756e-02
5.166097200513860427e-02
5.165537980095406823e-02
5.164978471943642430e-02
5.164418676145750287e-02
5.163858592788950208e-02
5.163298221960502948e-02
5.162737563747713671e-02
5.162176618237925702e-02
5.161615385518519838e-02
5.161053865676915042e-02
5.160492058800571213e-02
5.159929964976988498e-02
5.159367584293705900e-02
5.158804916838299198e-02
5.158241962698378869e-02
5.157678721961598406e-02
5.157115194715650858e-02
5.156551381048266047e-02
5.155987281047214738e-02
5.155422894800311406e-02
5.154858222395412165e-02
5.154293263920417534e-02
5.153728019463267584e-02
5.153162489111944716e-02
5.152596672954472962e-02
5.152030571078920762e-02
5.151464183573400968e-02
5.150897510526065287e-02
5.150330552025107755e-02
5.149763308158762654e-02
5.149195779015303814e-02
5.148627964683043928e-02
5.148059865250337319e-02
5.147491480805583414e-02
5.146922811437224660e-02
5.146353857233746526e-02
5.145784618283677503e-02
5.145215094675585632e-02
5.144645286498078507e-02
5.144075193839806742e-02
5.143504816789463280e-02
5.142934155435786164e-02
5.142363209867559237e-02
5.141791980173609361e-02
5.141220466442806419e-02
5.140648668764063317e-02
5.140076587226331123e-02
5.139504221918601151e-02
5.138931572929909819e-02
5.138358640349331707e-02
5.137785424265985113e-02
5.137211924769034127e-02
5.136638141947683089e-02
5.136064075891182829e-02
5.135489726688830664e-02
5.134915094429964161e-02
5.134340179203961130e-02
5.133764981100248648e-02
5.133189500208300976e-02
5.132613736617633315e-02
5.132037690417803888e-02
5.131461361698411855e-02
5.130884750549098011e-02
5.130307857059549642e-02
5.129730681319497054e-02
5.129153223418717045e-02
5.128575483447030819e-02
5.127997461494303993e-02
5.127419157650446591e-02
5.126840572005412350e-02
5.126261704649198725e-02
5.125682555671846885e-02
5.125103125163444490e-02
5.124523413214121526e-02
5.123943419914049613e-02
5.123363145353441311e-02
5.122782589622553590e-02
5.122201752811687825e-02
5.121620635011189804e-02
5.121039236311452497e-02
5.120457556802913285e-02
5.119875596576051180e-02
5.119293355721389605e-02
5.118710834329496390e-02
5.118128032490981000e-02
5.117544950296500084e-02
5.116961587836749842e-02
5.116377945202471578e-02
5.115794022484453085e-02
5.115209819773528649e-02
5.114625337160577656e-02
5.114040574736522515e-02
5.113455532592330738e-02
5.112870210819010774e-02
5.112284609507612709e-02
5.111698728749235199e-02
5.111112568635022002e-02
5.110526129256161287e-02
5.109939410703885632e-02
5.109352413069472021e-02
5.108765136444245319e-02
5.108177580919575494e-02
5.107589746586879698e-02
5.107001633537622959e-02
5.106413241863318880e-02
5.105824571655523392e-02
5.105235623005836831e-02
5.104646396005907416e-02
5.104056890747428465e-02
5.103467107322138402e-02
5.102877045821817975e-02
5.102286706338289568e-02
5.101696088963415116e-02
5.101105193789099573e-02
5.100514020907290225e-02
5.099922570409978761e-02
5.099330842389204754e-02
5.098738836937053570e-02
5.098146554145656373e-02
5.097553994107188735e-02
5.096961156913867863e-02
5.096368042657953984e-02
5.095774651431757979e-02
5.095180983327633056e-02
5.094587038437974752e-02
5.093992816855220929e-02
5.093398318671855246e-02
5.092803543980406467e-02
5.092208492873451231e-02
5.091613165443608507e-02
5.091017561783539591e-02
5.090421681985948799e-02
5.089825526143585549e-02
5.089229094349240895e-02
5.088632386695748216e-02
5.088035403275986690e-02
5.087438144182886146e-02
5.086840609509418742e-02
5.086242799348605209e-02
5.085644713793511379e-02
5.085046352937247494e-02
5.084447716872968898e-02
5.083848805693873957e-02
5.083249619493204058e-02
5.082650158364242915e-02
5.082050422400324202e-02
5.081450411694829472e-02
5.080850126341183298e-02
5.080249566432858133e-02
5.079648732063368755e-02
5.079047623326275046e-02
5.078446240315176441e-02
5.077844583123712618e-02
5.077242651845567667e-02
5.076640446574467308e-02
5.076037967404180284e-02
5.075435214428521136e-02
5.074832187741346728e-02
5.074228887436558338e-02
5.073625313608102344e-02
5.073021466349970227e-02
5.072417345756198570e-02
5.071812951920871837e-02
5.071208284938118899e-02
5.070603344902110954e-02
5.069998131907064304e-02
5.069392646047243128e-02
5.068786887416954628e-02
5.068180856110553190e-02
5.067574552222439688e-02
5.066967975847063571e-02
5.066361127078920085e-02
5.065754006012551658e-02
5.065146612742545129e-02
5.064538947363528970e-02
5.063931009970176755e-02
5.063322800657207162e-02
5.062714319519383277e-02
5.062105566651512595e-02
5.061496542148447714e-02
5.060887246105080783e-02
5.060277678616348362e-02
5.059667839777231418e-02
5.059057729682755328e-02
5.058447348427990570e-02
5.057836696108052726e-02
5.057225772818104564e-02
5.056614578653355341e-02
5.056003113709060803e-02
5.055391378080521803e-02
5.054779371863087067e-02
5.054167095152149736e-02
5.053554548043147354e-02
5.052941730631566736e-02
5.052328643012938408e-02
5.051715285282840778e-02
5.051101657536893885e-02
5.050487759870764259e-02
5.049873592380165616e-02
5.049259155160858159e-02
5.048644448308646504e-02
5.048029471919377592e-02
5.047414226088941386e-02
5.046798710913270869e-02
5.046182926488346904e-02
5.045566872910194761e-02
5.044950550274882733e-02
5.044333958678520052e-02
5.043717098217254807e-02
5.043099968987278803e-02
5.042482571084829640e-02
5.041864904606185860e-02
5.041246969647664861e-02
5.040628766305627756e-02
5.040010294676478680e-02
5.039391554856665484e-02
5.038772546942674180e-02
5.038153271031036579e-02
5.037533727218330981e-02
5.036913915601179403e-02
5.036293836276246882e-02
5.035673489340241477e-02
5.035052874889914265e-02
5.034431993022057267e-02
5.033810843833508991e-02
5.033189427421153050e-02
5.032567743881918160e-02
5.031945793312778831e-02
5.031323575810755372e-02
5.030701091472909031e-02
5.030078340396341302e-02
5.029455322678196005e-02
5.028832038415657207e-02
5.028208487705954077e-02
5.027584670646358112e-02
5.026960587334186603e-02
5.026336237866802642e-02
5.025711622341608870e-02
5.025086740856053030e-02
5.024461593507625889e-02
5.023836180393857764e-02
5.023210501612320605e-02
5.022584557260631466e-02
5.021958347436453196e-02
5.021331872237488197e-02
5.020705131761477730e-02
5.020078126106208155e-02
5.019450855369508163e-02
5.018823319649245301e-02
5.018195519043329444e-02
5.017567453649712100e-02
5.016939123566385716e-02
5.016310528891385068e-02
5.015681669722790725e-02
5.015052546158722813e-02
5.014423158297345168e-02
5.013793506236862568e-02
5.013163590075521425e-02
5.012533409911612559e-02
5.011902965843465646e-02
5.011272257969451999e-02
5.010641286387981785e-02
5.010010051197506808e-02
5.009378552496523279e-02
5.008746790383565572e-02
5.008114764957211779e-02
5.007482476316084397e-02
5.006849924558849640e-02
5.006217109784214664e-02
5.005584032090928254e-02
5.004950691577778055e-02
5.004317088343589875e-02
5.003683222487226995e-02
5.003049094107596406e-02
5.002414703303648819e-02
5.001780050174377962e-02
5.001145134818818505e-02
5.000509957336043282e-02
4.999874517825168840e-02
4.999238816385352668e-02
4.998602853115792499e-02
4.997966628115724230e-02
4.997330141484421229e-02
4.996693393321196414e-02
4.996056383725403643e-02
4.995419112796437716e-02
4.994781580633730900e-02
4.994143787336755708e-02
4.993505733005027675e-02
4.992867417738105357e-02
4.992228841635590331e-02
4.991590004797121644e-02
4.990950907322380670e-02
4.990311549311088335e-02
4.989671930863006505e-02
4.989032052077937290e-02
4.988391913055724436e-02
4.987751513896251238e-02
4.987110854699444012e-02
4.986469935565266548e-02
4.985828756593722183e-02
4.985187317884853808e-02
4.984545619538747335e-02
4.983903661655528228e-02
4.983261444335366358e-02
4.982618967678470456e-02
4.981976231785091580e-02
4.981333236755523808e-02
4.980689982690103546e-02
4.980046469689208832e-02
4.979402697853259341e-02
4.978758667282713601e-02
4.978114378078066921e-02
4.977469830339856932e-02
4.976825024168662903e-02
4.976179959665100877e-02
4.975534636929828530e-02
4.974889056063541704e-02
4.974243217166977871e-02
4.973597120340910588e-02
4.972950765686152963e-02
4.972304153303556962e-02
4.971657283294015489e-02
4.971010155758465859e-02
4.970362770797886326e-02
4.969715128513293306e-02
4.969067229005739300e-02
4.968419072376312889e-02
4.967770658726138738e-02
4.967121988156377593e-02
4.966473060768225589e-02
4.965823876662919106e-02
4.965174435941732689e-02
4.964524738705976270e-02
4.963874785056995170e-02
4.963224575096173569e-02
4.962574108924933808e-02
4.961923386644738476e-02
4.961272408357087632e-02
4.960621174163522273e-02
4.959969684165618786e-02
4.959317938464996578e-02
4.958665937163313220e-02
4.958013680362267223e-02
4.957361168163594567e-02
4.956708400669071479e-02
4.956055377980511656e-02
4.955402100199766263e-02
4.954748567428723938e-02
4.954094779769308704e-02
4.953440737323485527e-02
4.952786440193258921e-02
4.952131888480672955e-02
4.951477082287809167e-02
4.950822021716791421e-02
4.950166706869783134e-02
4.949511137848985887e-02
4.948855314756635954e-02
4.948199237695005692e-02
4.947542906766399379e-02
4.946886322073155984e-02
4.946229483717650560e-02
4.945572391802292855e-02
4.944915046429524536e-02
4.944257447701823349e-02
4.943599595721703821e-02
4.942941490591717252e-02
4.942283132414448249e-02
4.941624521292518196e-02
4.940965657328582478e-02
4.940306540625335335e-02
4.939647171285505012e-02
4.938987549411859301e-02
4.938327675107205550e-02
4.937667548474387880e-02
4.937007169616288577e-02
4.936346538635828091e-02
4.935685655635960872e-02
4.935024520719680924e-02
4.934363133990021105e-02
4.933701495550047583e-02
4.933039605502864688e-02
4.932377463951610058e-02
4.931715070999460881e-02
4.931052426749632511e-02
4.930389531305375689e-02
4.929726384769980013e-02
4.929062987246773941e-02
4.928399338839121319e-02
4.927735439650424154e-02
4.927071289784117764e-02
4.926406889343672851e-02
4.925742238432592734e-02
4.925077337154414037e-02
4.924412185612708770e-02
4.923746783911083641e-02
4.923081132153183520e-02
4.922415230442686584e-02
4.921749078883303624e-02
4.921082677578777348e-02
4.920416026632885159e-02
4.919749126149439156e-02
4.919081976232284048e-02
4.918414576985303405e-02
4.917746928512418958e-02
4.917079030917591992e-02
4.916410884304817791e-02
4.915742488778127028e-02
4.915073844441585765e-02
4.914404951399294758e-02
4.913735809755389455e-02
4.913066419614042779e-02
4.912396781079462343e-02
4.911726894255886988e-02
4.911056759247595105e-02
4.910386376158903249e-02
4.909715745094162670e-02
4.909044866157757925e-02
4.908373739454108264e-02
4.907702365087671104e-02
4.907030743162940634e-02
4.906358873784444352e-02
4.905686757056746533e-02
4.905014393084448920e-02
4.904341781972192810e-02
4.903668923824653497e-02
4.902995818746537504e-02
4.902322466842587434e-02
4.901648868217580585e-02
4.900975022976331724e-02
4.900300931223688233e-02
4.899626593064530800e-02
4.898952008603772029e-02
4.898277177946360611e-02
4.897602101197277846e-02
4.896926778461539037e-02
4.896251209844193486e-02
4.895575395450324496e-02
4.894899335385052147e-02
4.894223029753529131e-02
4.893546478660943527e-02
4.892869682212519500e-02
4.892192640513514518e-02
4.891515353669222133e-02
4.890837821784969203e-02
4.890160044966118669e-02
4.889482023318066778e-02
4.888803756946248635e-02
4.888125245956131959e-02
4.887446490453216386e-02
4.886767490543037634e-02
4.886088246331165424e-02
4.885408757923204170e-02
4.884729025424792981e-02
4.884049048941604271e-02
4.883368828579348619e-02
4.882688364443769219e-02
4.882007656640642568e-02
4.881326705275777778e-02
4.880645510455018654e-02
4.879964072284240922e-02
4.879282390869358471e-02
4.878600466316318496e-02
4.877918298731102886e-02
4.877235888219724758e-02
4.876553234888232613e-02
4.875870338842704793e-02
4.875187200189251557e-02
4.874503819034017860e-02
4.873820195483183348e-02
4.873136329642959591e-02
4.872452221619592849e-02
4.871767871519361304e-02
4.871083279448580605e-02
4.870398445513601099e-02
4.869713369820805049e-02
4.869028052476609414e-02
4.868342493587462377e-02
4.867656693259846123e-02
4.866970651600274755e-02
4.866284368715296377e-02
4.865597844711490316e-02
4.864911079695467822e-02
4.864224073773874141e-02
4.863536827053388523e-02
4.862849339640719359e-02
4.862161611642606268e-02
4.861473643165822173e-02
4.860785434317173997e-02
4.860096985203502667e-02
4.859408295931679639e-02
4.858719366608604817e-02
4.858030197341209333e-02
4.857340788236455542e-02
4.856651139401339801e-02
4.855961250942893853e-02
4.855271122968177200e-02
4.854580755584278484e-02
4.853890148898316881e-02
4.853199303017441402e-02
4.852508218048834365e-02
4.851816894099708621e-02
4.851125331277305469e-02
4.850433529688896739e-02
4.849741489441784098e-02
4.849049210643302521e-02
4.848356693400820289e-02
4.847663937821738989e-02
4.846970944013492821e-02
4.846277712083545824e-02
4.845584242139389791e-02
4.844890534288549128e-02
4.844196588638583628e-02
4.843502405297083618e-02
4.842807984371672037e-02
4.842113325970004434e-02
4.841418430199763423e-02
4.840723297168663536e-02
4.840027926984449141e-02
4.839332319754895140e-02
4.838636475587803493e-02
4.837940394591008081e-02
4.837244076872372622e-02
4.836547522539787897e-02
4.835850731701176602e-02
4.835153704464493357e-02
4.834456440937724697e-02
4.833758941228884221e-02
4.833061205446015363e-02
4.832363233697192784e-02
4.831665026090516818e-02
4.830966582734117637e-02
4.830267903736152474e-02
4.829568989204810481e-02
4.828869839248309953e-02
4.828170453974900411e-02
4.827470833492857050e-02
4.826770977910481430e-02
4.826070887336098708e-02
4.825370561878065956e-02
4.824670001644774248e-02
4.823969206744640331e-02
4.823268177286112179e-02
4.822566913377666215e-02
4.821865415127805227e-02
4.821163682645063231e-02
4.820461716038002692e-02
4.819759515415214524e-02
4.819057080885320865e-02
4.818354412556972305e-02
4.817651510538849963e-02
4.816948374939666183e-02
4.816245005868161760e-02
4.815541403433103163e-02
4.814837567743288083e-02
4.814133498907544051e-02
4.813429197034729129e-02
4.812724662233730522e-02
4.812019894613465965e-02
4.811314894282883031e-02
4.810609661350957744e-02
4.809904195926699433e-02
4.809198498119147264e-02
4.808492568037371628e-02
4.807786405790473450e-02
4.807080011487580712e-02
4.806373385237851931e-02
4.805666527150472683e-02
4.804959437334656303e-02
4.804252115899644571e-02
4.803544562954703556e-02
4.802836778609125695e-02
4.802128762972227710e-02
4.801420516153354079e-02
4.800712038261876341e-02
4.800003329407195873e-02
4.799294389698744584e-02
4.798585219245978667e-02
4.797875818158383460e-02
4.797166186545468586e-02
4.796456324516771424e-02
4.795746232181859192e-02
4.795035909650331024e-02
4.794325357031817975e-02
4.793614574435980241e-02
4.792903561972507859e-02
4.792192319751123475e-02
4.791480847881578881e-02
4.790769146473652235e-02
4.790057215637145288e-02
4.789345055481886160e-02
4.788632666117729336e-02
4.787920047654555672e-02
4.787207200202272389e-02
4.786494123870810302e-02
4.785780818770121042e-02
4.785067285010185384e-02
4.784353522701007694e-02
4.783639531952615931e-02
4.782925312875063728e-02
4.782210865578429698e-02
4.781496190172818128e-02
4.780781286768360366e-02
4.780066155475214129e-02
4.779350796403567664e-02
4.778635209663637667e-02
4.777919395365667204e-02
4.777203353619927789e-02
4.776487084536718691e-02
4.775770588226359303e-02
4.775053864799194692e-02
4.774336914365592821e-02
4.773619737035944555e-02
4.772902332920665736e-02
4.772184702130197187e-02
4.771466844775004712e-02
4.770748760965577012e-02
4.770030450812428463e-02
4.769311914426095644e-02
4.768593151917137341e-02
4.767874163396137316e-02
4.767154948973702233e-02
4.766435508760467205e-02
4.765715842867094404e-02
4.764995951404275842e-02
4.764275834482731287e-02
4.763555492213205483e-02
4.762834924706464690e-02
4.762114132073305001e-02
4.761393114424550960e-02
4.760671871871052091e-02
4.759950404523681511e-02
4.759228712493339397e-02
4.758506795890953683e-02
4.757784654827471732e-02
4.757062289413870743e-02
4.756339699761154283e-02
4.755616885980350206e-02
4.754893848182513427e-02
4.754170586478717597e-02
4.753447100980058571e-02
4.752723391797658570e-02
4.751999459042663410e-02
4.751275302826243191e-02
4.750550923259586056e-02
4.749826320453901657e-02
4.749101494520421157e-02
4.748376445570404863e-02
4.747651173715142225e-02
4.746925679065949061e-02
4.746199961734164779e-02
4.745474021831152384e-02
4.744747859468298468e-02
4.744021474757018769e-02
4.743294867808749149e-02
4.742568038734949060e-02
4.741840987647102240e-02
4.741113714656715328e-02
4.740386219875320634e-02
4.739658503414474061e-02
4.738930565385757188e-02
4.738202405900777264e-02
4.737474025071162359e-02
4.736745423008563438e-02
4.736016599824654366e-02
4.735287555631131906e-02
4.734558290539712250e-02
4.733828804662131712e-02
4.733099098110150199e-02
4.732369170995550517e-02
4.731639023430140450e-02
4.730908655525749990e-02
4.730178067394234798e-02
4.729447259147473437e-02
4.728716230897369449e-02
4.727984982755848581e-02
4.727253514834858783e-02
4.726521827246367435e-02
4.725789920102361347e-02
4.725057793514853000e-02
4.724325447595879857e-02
4.723592882457503667e-02
4.722860098211805607e-02
4.722127094970888367e-02
4.721393872846878920e-02
4.720660431951927138e-02
4.719926772398205100e-02
4.719192894297908475e-02
4.718458797763252360e-02
4.717724482906471284e-02
4.716989949839823365e-02
4.716255198675591009e-02
4.715520229526078827e-02
4.714785042503612938e-02
4.714049637720543057e-02
4.713314015289239711e-02
4.712578175322097718e-02
4.711842117931534096e-02
4.711105843229986684e-02
4.710369351329918991e-02
4.709632642343816039e-02
4.708895716384184360e-02
4.708158573563548527e-02
4.707421213994451153e-02
4.706683637789455671e-02
4.705945845061147020e-02
4.705207835922130960e-02
4.704469610485033371e-02
4.703731168862500950e-02
4.702992511167200518e-02
4.702253637511819712e-02
4.701514548009066985e-02
4.700775242771670220e-02
4.700035721912380893e-02
4.699295985543974069e-02
4.698556033779244245e-02
4.697815866731001183e-02
4.697075484512078236e-02
4.696334887235330963e-02
4.695594075013635044e-02
4.694853047959889059e-02
4.694111806187013791e-02
4.693370349807949454e-02
4.692628678935656383e-02
4.691886793683115037e-02
4.691144694163322526e-02
4.690402380489292616e-02
4.689659852774058502e-02
4.688917111130670723e-02
4.688174155672196475e-02
4.687430986511718911e-02
4.686687603762341309e-02
4.685944007537183598e-02
4.685200197949384443e-02
4.684456175112099163e-02
4.683711939138504587e-02
4.682967490141801831e-02
4.682222828235208661e-02
4.681477953531956726e-02
4.680732866145293630e-02
4.679987566188485715e-02
4.679242053774818749e-02
4.678496329017599320e-02
4.677750392030154830e-02
4.677004242925832111e-02
4.676257881817998813e-02
4.675511308820040624e-02
4.674764524045359887e-02
4.674017527607376987e-02
4.673270319619529656e-02
4.672522900195274359e-02
4.671775269448083523e-02
4.671027427491442063e-02
4.670279374438847386e-02
4.669531110403812163e-02
4.668782635499867106e-02
4.668033949840563052e-02
4.667285053539468181e-02
4.666535946710166638e-02
4.665786629466260604e-02
4.665037101921371693e-02
4.664287364189136087e-02
4.663537416383208012e-02
4.662787258617256958e-02
4.662036891004972539e-02
4.661286313660061020e-02
4.660535526696243241e-02
4.659784530227254612e-02
4.659033324366847195e-02
4.658281909228787626e-02
4.657530284926857111e-02
4.656778451574853511e-02
4.656026409286589257e-02
4.655274158175891352e-02
4.654521698356602760e-02
4.653769029942579627e-02
4.653016153047695447e-02
4.652263067785835510e-02
4.651509774270898290e-02
4.650756272616800996e-02
4.650002562937477490e-02
4.649248645346875514e-02
4.648494519958962234e-02
4.647740186887720781e-02
4.646985646247149548e-02
4.646230898151266359e-02
4.645475942714108464e-02
4.644720780049728381e-02
4.643965410272194588e-02
4.643209833495588745e-02
4.642454049834005697e-02
4.641698059401556248e-02
4.640941862312369243e-02
4.640185458680591568e-02
4.639428848620388152e-02
4.638672032245937105e-02
4.637915009671432498e-02
4.637157781011080199e-02
4.636400346379097870e-02
4.635642705889716358e-02
4.634884859657179695e-02
4.634126807795749259e-02
4.633368550419698223e-02
4.632610087643312252e-02
4.631851419580894358e-02
4.631092546346762123e-02
4.630333468055248397e-02
4.629574184820697824e-02
4.628814696757469621e-02
4.628055003979938270e-02
4.627295106602495600e-02
4.626535004739547319e-02
4.625774698505510235e-02
4.625014188014812261e-02
4.624253473381893104e-02
4.623492554721204267e-02
4.622731432147211134e-02
4.621970105774392962e-02
4.621208575717245665e-02
4.620446842090276951e-02
4.619684905008008408e-02
4.618922764584977581e-02
4.618160420935730343e-02
4.617397874174825750e-02
4.616635124416831187e-02
4.615872171776327915e-02
4.615109016367909683e-02
4.614345658306184123e-02
4.613582097705769963e-02
4.612818334681298427e-02
4.612054369347413918e-02
4.611290201818774026e-02
4.610525832210046748e-02
4.609761260635913266e-02
4.608996487211067250e-02
4.608231512050210005e-02
4.607466335268052549e-02
4.606700956979320472e-02
4.605935377298752548e-02
4.605169596341100735e-02
4.604403614221126706e-02
4.603637431053604623e-02
4.602871046953317669e-02
4.602104462035055271e-02
4.601337676413619349e-02
4.600570690203824309e-02
4.599803503520493581e-02
4.599036116478462388e-02
4.598268529192578447e-02
4.597500741777698491e-02
4.596732754348685501e-02
4.595964567020411479e-02
4.595196179907759526e-02
4.594427593125623849e-02
4.593658806788907673e-02
4.592889821012523244e-02
4.592120635911396687e-02
4.591351251600463146e-02
4.590581668194663317e-02
4.589811885808948305e-02
4.589041904558278234e-02
4.588271724557618780e-02
4.587501345921946028e-02
4.586730768766244387e-02
4.585959993205503127e-02
4.585189019354719842e-02
4.584417847328906698e-02
4.583646477243082801e-02
4.582874909212279746e-02
4.582103143351534680e-02
4.581331179775892382e-02
4.580559018600404569e-02
4.579786659940133370e-02
4.579014103910151318e-02
4.578241350625540662e-02
4.577468400201391285e-02
4.576695252752800702e-02
4.575921908394878918e-02
4.575148367242742181e-02
4.574374629411516457e-02
4.573600695016332568e-02
4.572826564172330355e-02
4.572052236994653129e-02
4.571277713598451142e-02
4.570502994098884358e-02
4.569728078611119682e-02
4.568952967250330260e-02
4.568177660131697571e-02
4.567402157370407251e-02
4.566626459081651879e-02
4.565850565380632359e-02
4.565074476382557922e-02
4.564298192202643351e-02
4.563521712956112447e-02
4.562745038758195260e-02
4.561968169724130162e-02
4.561191105969158999e-02
4.560413847608532634e-02
4.559636394757509564e-02
4.558858747531353145e-02
4.558080906045332281e-02
4.557302870414726981e-02
4.556524640754827660e-02
4.555746217180929591e-02
4.554967599808339151e-02
4.554188788752371042e-02
4.553409784128348292e-02
4.552630586051600869e-02
4.551851194637462905e-02
4.551071610001276857e-02
4.550291832258389346e-02
4.549511861524156708e-02
4.548731697913942912e-02
4.547951341543118864e-02
4.547170792527057553e-02
4.546390050981138908e-02
4.545609117020749101e-02
4.544827990761279163e-02
4.544046672318124980e-02
4.543265161806685909e-02
4.542483459342367552e-02
4.541701565040582450e-02
4.540919479016746613e-02
4.540137201386281601e-02
4.539354732264617998e-02
4.538572071767190547e-02
4.537789220009438157e-02
4.537006177106800431e-02
4.536222943174722522e-02
4.535439518328655134e-02
4.534655902684051748e-02
4.533872096356369313e-02
4.533088099461068249e-02
4.532303912113614525e-02
4.531519534429476886e-02
4.530734966524126855e-02
4.529950208513038729e-02
4.529165260511692354e-02
4.528380122635569660e-02
4.527594795000160210e-02
4.526809277720953567e-02
4.526023570913441374e-02
4.525237674693120132e-02
4.524451589175488425e-02
4.523665314476046223e-02
4.522878850710295578e-02
4.522092197993738544e-02
4.521305356441876477e-02
4.520518326170214901e-02
4.519731107294260725e-02
4.518943699929525021e-02
4.518156104191520250e-02
4.517368320195763037e-02
4.516580348057774169e-02
4.515792187893070270e-02
4.515003839817169351e-02
4.514215303945592894e-02
4.513426580393863075e-02
4.512637669277500679e-02
4.511848570712027190e-02
4.511059284812967557e-02
4.510269811695848119e-02
4.509480151476190357e-02
4.508690304269515753e-02
4.507900270191343012e-02
4.507110049357199166e-02
4.506319641882609167e-02
4.505529047883098659e-02
4.504738267474196062e-02
4.503947300771429796e-02
4.503156147890327587e-02
4.502364808946417163e-02
4.501573284055226942e-02
4.500781573332281876e-02
4.499989676893106222e-02
4.499197594853227011e-02
4.498405327328176134e-02
4.497612874433484093e-02
4.496820236284683470e-02
4.496027412997301298e-02
4.495234404686863916e-02
4.494441211468896274e-02
4.493647833458927487e-02
4.492854270772485281e-02
4.492060523525096688e-02
4.491266591832290822e-02
4.490472475809598185e-02
4.489678175572547891e-02
4.488883691236664197e-02
4.488089022917472054e-02
4.487294170730495024e-02
4.486499134791255283e-02
4.485703915215272924e-02
4.484908512118059715e-02
4.484112925615128808e-02
4.483317155821991973e-02
4.482521202854158199e-02
4.481725066827134396e-02
4.480928747856425393e-02
4.480132246057533241e-02
4.479335561545959993e-02
4.478538694437204926e-02
4.477741644846767316e-02
4.476944412890143665e-02
4.476146998682827699e-02
4.475349402340310367e-02
4.474551623978077070e-02
4.473753663711613204e-02
4.472955521656400701e-02
4.472157197927917327e-02
4.471358692641634602e-02
4.470560005913018498e-02
4.469761137857531513e-02
4.468962088590631987e-02
4.468162858227772011e-02
4.467363446884400208e-02
4.466563854675958262e-02
4.465764081717881612e-02
4.464964128125598758e-02
4.464163994014533343e-02
4.463363679500105541e-02
4.462563184697728585e-02
4.461762509722812936e-02
4.460961654690769745e-02
4.460160619717001146e-02
4.459359404916902331e-02
4.458558010405865718e-02
4.457756436299273317e-02
4.456954682712505056e-02
4.456152749760933229e-02
4.455350637559922500e-02
4.454548346224831978e-02
4.453745875871018695e-02
4.452943226613831351e-02
4.452140398568612406e-02
4.451337391850699460e-02
4.450534206575419011e-02
4.449730842858091312e-02
4.448927300814031760e-02
4.448123580558547424e-02
4.447319682206935659e-02
4.446515605874484800e-02
4.445711351676474854e-02
4.444906919728177502e-02
4.444102310144855406e-02
4.443297523041764285e-02
4.442492558534152924e-02
4.441687416737266636e-02
4.440882097766345182e-02
4.440076601736618611e-02
4.439270928763306562e-02
4.438465078961625204e-02
4.437659052446781688e-02
4.436852849333975529e-02
4.436046469738398612e-02
4.435239913775233800e-02
4.434433181559660486e-02
4.433626273206850432e-02
4.432819188831964990e-02
4.432011928550161350e-02
4.431204492476586293e-02
4.430396880726378273e-02
4.429589093414668111e-02
4.428781130656576914e-02
4.427972992567220933e-02
4.427164679261706010e-02
4.426356190855133127e-02
4.425547527462594943e-02
4.424738689199176483e-02
4.423929676179952364e-02
4.423120488519991650e-02
4.422311126334355080e-02
4.421501589738097843e-02
4.420691878846264022e-02
4.419881993773886603e-02
4.419071934635988158e-02
4.418261701547583631e-02
4.417451294623678942e-02
4.416640713979273075e-02
4.415829959729358767e-02
4.415019031988918347e-02
4.414207930872923041e-02
4.413396656496331588e-02
4.412585208974088846e-02
4.411773588421125797e-02
4.410961794952366483e-02
4.410149828682723150e-02
4.409337689727099718e-02
4.408525378200385536e-02
4.407712894217460237e-02
4.406900237893188882e-02
4.406087409342430289e-02
4.405274408680030784e-02
4.404461236020827675e-02
4.403647891479652021e-02
4.402834375171325171e-02
4.402020687210658756e-02
4.401206827712457470e-02
4.400392796791516986e-02
4.399578594562623263e-02
4.398764221140551850e-02
4.397949676640066502e-02
4.397134961175916401e-02
4.396320074862843097e-02
4.395505017815574955e-02
4.394689790148827852e-02
4.393874391977307947e-02
4.393058823415708913e-02
4.392243084578711237e-02
4.391427175580982223e-02
4.390611096537179459e-02
4.389794847561948044e-02
4.388978428769923362e-02
4.388161840275727615e-02
4.387345082193972595e-02
4.386528154639256910e-02
4.385711057726165291e-02
4.384893791569269977e-02
4.384076356283127945e-02
4.383258751982285067e-02
4.382440978781271257e-02
4.381623036794603243e-02
4.380804926136784572e-02
4.379986646922308380e-02
4.379168199265653927e-02
4.378349583281284513e-02
4.377530799083650948e-02
4.376711846787188082e-02
4.375892726506313418e-02
4.375073438355433358e-02
4.374253982448941813e-02
4.373434358901218816e-02
4.372614567826627052e-02
4.371794609339510473e-02
4.370974483554200540e-02
4.370154190585018306e-02
4.369333730546273026e-02
4.368513103552262161e-02
4.367692309717269988e-02
4.366871349155564824e-02
4.366050221981400414e-02
4.365228928309013851e-02
4.364407468252629041e-02
4.363585841926456016e-02
4.362764049444688153e-02
4.361942090921502174e-02
4.361119966471063703e-02
4.360297676207530032e-02
4.359475220245041804e-02
4.358652598697725783e-02
4.357829811679692078e-02
4.357006859305039698e-02
4.356183741687853772e-02
4.355360458942207635e-02
4.354537011182163520e-02
4.353713398521767697e-02
4.352889621075054644e-02
4.352065678956047040e-02
4.351241572278753689e-02
4.350417301157172290e-02
4.349592865705289441e-02
4.348768266037079944e-02
4.347943502266506804e-02
4.347118574507519845e-02
4.346293482874052233e-02
4.345468227480025342e-02
4.344642808439346665e-02
4.343817225865906351e-02
4.342991479873582750e-02
4.342165570576240335e-02
4.341339498087732479e-02
4.340513262521898674e-02
4.339686863992561761e-02
4.338860302613530007e-02
4.338033578498594334e-02
4.337206691761529009e-02
4.336379642516097199e-02
4.335552430876045416e-02
4.334725056955100048e-02
4.333897520866970138e-02
4.333069822725353626e-02
4.332241962643937350e-02
4.331413940736396351e-02
4.330585757116388324e-02
4.329757411897559860e-02
4.328928905193540899e-02
4.328100237117947502e-02
4.327271407784378382e-02
4.326442417306417682e-02
4.325613265797635665e-02
4.324783953371585943e-02
4.323954480141808249e-02
4.323124846221825662e-02
4.322295051725149467e-02
4.321465096765276376e-02
4.320634981455686446e-02
4.319804705909848636e-02
4.318974270241218022e-02
4.318143674563235113e-02
4.317312918989320986e-02
4.316482003632886311e-02
4.315650928607327186e-02
4.314819694026027913e-02
4.313988300002353365e-02
4.313156746649654538e-02
4.312325034081262998e-02
4.311493162410493657e-02
4.310661131750644776e-02
4.309828942215000736e-02
4.308996593916829265e-02
4.308164086969384216e-02
4.307331421485905559e-02
4.306498597579622167e-02
4.305665615363749033e-02
4.304832474951487270e-02
4.303999176456018566e-02
4.303165719990510729e-02
4.302332105668117690e-02
4.301498333601973950e-02
4.300664403905200828e-02
4.299830316690903681e-02
4.298996072072173991e-02
4.298161670162083808e-02
4.297327111073691308e-02
4.296492394920035929e-02
4.295657521814143232e-02
4.294822491869018655e-02
4.293987305197652371e-02
4.293151961913016512e-02
4.292316462128071414e-02
4.291480805955763533e-02
4.290644993509024063e-02
4.289809024900768236e-02
4.288972900243900183e-02
4.288136619651310849e-02
4.287300183235873141e-02
4.286463591110446780e-02
4.285626843387877610e-02
4.284789940180994822e-02
4.283952881602617196e-02
4.283115667765545476e-02
4.282278298782569992e-02
4.281440774766470669e-02
4.280603095830012167e-02
4.279765262085943184e-02
4.278927273646996460e-02
4.278089130625889469e-02
4.277250833135321645e-02
4.276412381287974379e-02
4.275573775196513104e-02
4.274735014973592151e-02
4.273896100731853359e-02
4.273057032583926773e-02
4.272217810642432029e-02
4.271378435019973496e-02
4.270538905829140974e-02
4.269699223182511078e-02
4.268859387192642380e-02
4.268019397972078882e-02
4.267179255633348628e-02
4.266338960288964394e-02
4.265498512051422303e-02
4.264657911033206683e-02
4.263817157346785902e-02
4.262976251104613062e-02
4.262135192419130164e-02
4.261293981402763942e-02
4.260452618167928640e-02
4.259611102827021850e-02
4.258769435492426592e-02
4.257927616276516170e-02
4.257085645291652093e-02
4.256243522650181993e-02
4.255401248464444480e-02
4.254558822846766369e-02
4.253716245909462679e-02
4.252873517764836631e-02
4.252030638525180345e-02
4.251187608302774840e-02
4.250344427209884479e-02
4.249501095358756281e-02
4.248657612861622690e-02
4.247813979830700193e-02
4.246970196378197643e-02
4.246126262616309321e-02
4.245282178657217714e-02
4.244437944613094899e-02
4.243593560596099767e-02
4.242749026718380112e-02
4.241904343092073315e-02
4.241059509829303575e-02
4.240214527042181214e-02
4.239369394842802674e-02
4.238524113343256766e-02
4.237678682655619811e-02
4.236833102891957720e-02
4.235987374164322528e-02
4.235141496584753085e-02
4.234295470265278527e-02
4.233449295317917582e-02
4.232602971854675794e-02
4.231756499987549686e-02
4.230909879828521208e-02
4.230063111489561906e-02
4.229216195082630136e-02
4.228369130719674546e-02
4.227521918512628513e-02
4.226674558573412926e-02
4.225827051013938962e-02
4.224979395946103222e-02
4.224131593481787739e-02
4.223283643732859277e-02
4.222435546811175583e-02
4.221587302828579830e-02
4.220738911896905476e-02
4.219890374127971411e-02
4.219041689633585418e-02
4.218192858525541405e-02
4.217343880915618709e-02
4.216494756915587644e-02
4.215645486637204647e-02
4.214796070192215055e-02
4.213946507692350324e-02
4.213096799249330116e-02
4.212246944974862989e-02
4.211396944980647095e-02
4.210546799378368787e-02
4.209696508279703320e-02
4.208846071796316229e-02
4.207995490039862646e-02
4.207144763121989373e-02
4.206293891154332804e-02
4.205442874248522395e-02
4.204591712516177193e-02
4.203740406068905144e-02
4.202888955018303785e-02
4.202037359475963713e-02
4.201185619553465811e-02
4.200333735362378473e-02
4.199481707014263154e-02
4.198629534620668818e-02
4.197777218293131246e-02
4.196924758143179279e-02
4.196072154282330657e-02
4.195219406822096181e-02
4.194366515873976936e-02
4.193513481549465682e-02
4.192660303960046159e-02
4.191806983217192389e-02
4.190953519432372154e-02
4.190099912717042130e-02
4.189246163182649973e-02
4.188392270940634321e-02
4.187538236102428257e-02
4.186684058779459316e-02
4.185829739083141848e-02
4.184975277124879794e-02
4.184120673016065300e-02
4.183265926868079410e-02
4.182411038792298308e-02
4.181556008900089855e-02
4.180700837302811501e-02
4.179845524111816535e-02
4.178990069438450611e-02
4.178134473394051057e-02
4.177278736089948263e-02
4.176422857637463598e-02
4.175566838147910798e-02
4.174710677732598740e-02
4.173854376502832142e-02
4.172997934569911554e-02
4.172141352045134061e-02
4.171284629039790498e-02
4.170427765665167541e-02
4.169570762032545619e-02
4.168713618253198916e-02
4.167856334438393984e-02
4.166998910699393210e-02
4.166141347147449964e-02
4.165283643893809978e-02
4.164425801049714826e-02
4.163567818726400527e-02
4.162709697035097550e-02
4.161851436087029427e-02
4.160993035993411360e-02
4.160134496865453002e-02
4.159275818814357761e-02
4.158417001951322106e-02
4.157558046387537648e-02
4.156698952234189753e-02
4.155839719602456156e-02
4.154980348603509732e-02
4.154120839348519195e-02
4.153261191948647707e-02
4.152401406515056348e-02
4.151541483158903423e-02
4.150681421991339604e-02
4.149821223123512093e-02
4.148960886666566011e-02
4.148100412731640929e-02
4.147239801429872946e-02
4.146379052872395388e-02
4.145518167170334639e-02
4.144657144434809454e-02
4.143795984776933727e-02
4.142934688307818580e-02
4.142073255138570970e-02
4.141211685380294383e-02
4.140349979144088838e-02
4.139488136541051577e-02
4.138626157682275680e-02
4.137764042678849369e-02
4.136901791641856702e-02
4.136039404682378962e-02
4.135176881911495350e-02
4.134314223440280212e-02
4.133451429379805808e-02
4.132588499841138852e-02
4.131725434935342584e-02
4.130862234773478164e-02
4.129998899466601897e-02
4.129135429125765921e-02
4.128271823862020296e-02
4.127408083786413689e-02
4.126544209009990610e-02
4.125680199643793483e-02
4.124816055798862652e-02
4.123951777586236378e-02
4.123087365116951536e-02
4.122222818502041530e-02
4.121358137852541154e-02
4.120493323279483810e-02
4.119628374893902906e-02
4.118763292806831844e-02
4.117898077129304724e-02
4.117032727972354950e-02
4.116167245447017314e-02
4.115301629664325916e-02
4.114435880735314854e-02
4.113569998771019615e-02
4.112703983882476377e-02
4.111837836180723404e-02
4.110971555776800346e-02
4.110105142781746851e-02
4.109238597306603957e-02
4.108371919462412702e-02
4.107505109360214124e-02
4.106638167111051341e-02
4.105771092825970248e-02
4.104903886616018127e-02
4.104036548592242262e-02
4.103169078865689934e-02
4.102301477547411201e-02
4.101433744748458204e-02
4.100565880579885858e-02
4.099697885152754628e-02
4.098829758578127758e-02
4.097961500967070569e-02
4.097093112430649081e-02
4.096224593079931392e-02
4.095355943025993234e-02
4.094487162379914502e-02
4.093618251252775092e-02
4.092749209755656287e-02
4.091880037999641451e-02
4.091010736095816724e-02
4.090141304155272411e-02
4.089271742289100897e-02
4.088402050608396648e-02
4.087532229224256908e-02
4.086662278247781693e-02
4.085792197790075880e-02
4.084921987962247120e-02
4.084051648875405144e-02
4.083181180640663849e-02
4.082310583369142681e-02
4.081439857171965252e-02
4.080569002160257253e-02
4.079698018445149232e-02
4.078826906137775210e-02
4.077955665349272674e-02
4.077084296190785356e-02
4.076212798773461848e-02
4.075341173208454210e-02
4.074469419606917969e-02
4.073597538080014901e-02
4.072725528738911638e-02
4.071853391694781055e-02
4.070981127058800192e-02
4.070108734942154416e-02
4.069236215456034644e-02
4.068363568711637346e-02
4.067490794820163152e-02
4.066617893892818941e-02
4.065744866040816446e-02
4.064871711375374341e-02
4.063998430007718932e-02
4.063125022049083462e-02
4.062251487610708811e-02
4.061377826803843488e-02
4.060504039739745719e-02
4.059630126529679972e-02
4.058756087284917657e-02
4.057881922116738510e-02
4.057007631136429204e-02
4.056133214455282660e-02
4.055258672184600816e-02
4.054384004435693939e-02
4.053509211319880623e-02
4.052634292948487094e-02
4.051759249432848597e-02
4.050884080884308708e-02
4.050008787414217243e-02
4.049133369133928878e-02
4.048257826154804534e-02
4.047382158588214845e-02
4.046506366545540856e-02
4.045630450138169854e-02
4.044754409477498841e-02
4.043878244674933842e-02
4.043001955841889900e-02
4.042125543089792467e-02
4.041249006530077403e-02
4.040372346274188897e-02
4.039495562433582931e-02
4.038618655119724510e-02
4.037741624444085575e-02
4.036864470518147091e-02
4.035987193453399041e-02
4.035109793361339042e-02
4.034232270353478589e-02
4.033354624541340971e-02
4.032476856036459889e-02
4.031598964950379449e-02
4.030720951394652085e-02
4.029842815480840640e-02
4.028964557320519752e-02
4.028086177025272385e-02
4.027207674706691221e-02
4.026329050476382121e-02
4.025450304445959276e-02
4.024571436727044510e-02
4.023692447431270053e-02
4.022813336670279932e-02
4.021934104555727890e-02
4.021054751199281546e-02
4.020175276712617540e-02
4.019295681207420839e-02
4.018415964795386125e-02
4.017536127588219874e-02
4.016656169697639667e-02
4.015776091235374184e-02
4.014895892313162518e-02
4.014015573042753471e-02
4.013135133535908339e-02
4.012254573904402988e-02
4.011373894260024386e-02
4.010493094714570605e-02
4.009612175379852900e-02
4.008731136367696402e-02
4.007849977789938040e-02
4.006968699758425151e-02
4.006087302385016174e-02
4.005205785781583427e-02
4.004324150060009635e-02
4.003442395332187931e-02
4.002560521710026020e-02
4.001678529305444099e-02
4.000796418230372770e-02
3.999914188596755821e-02
