2.141536264233107490e-03
3.478359638090267134e-03
1.800831381685466569e-03
-2.090420122153287871e-03
-6.350101468299823755e-03
-7.477156434341225739e-03
-6.569773565150356306e-03
-4.746315579998688482e-04
3.869697609809984260e-03
3.622624880120875988e-03
2.787193826533194193e-03
6.106145116550885585e-03
6.855493948878986499e-03
1.189636444431053366e-03
-5.904843740392730529e-03
-8.693048599779526486e-03
-8.165808734655829321e-03
-6.545211493208039945e-03
-3.470639984593496766e-03
-7.317665988934259676e-04
3.373071684831106375e-03
8.234270498003529171e-03
1.214879501058422490e-02
1.338834752002695389e-02
6.541373727415645579e-03
-1.151428670534491777e-03
-2.144128761854262755e-03
-3.371350280607732317e-03
-8.532137391965764067e-03
-1.059863066579253173e-02
-9.047353902058245106e-03
-6.801169202715702002e-03
-4.125122320644871929e-03
7.582228739053036102e-04
3.114068835304860654e-03
3.126289942171954148e-03
4.204144882851298948e-03
7.932237364513740341e-03
1.009041326618970516e-02
6.442379318019794340e-03
1.427333705813988449e-03
-1.912783209321514263e-03
-3.762937177873599149e-03
-4.021794738400445365e-03
-5.501407060475641680e-03
-7.971878197052084669e-03
-5.564176408167314722e-03
2.613656443558002185e-04
5.750207597974086281e-03
6.530620169684057605e-03
5.546426907567972298e-03
4.052937870473668353e-03
3.752778822792945338e-03
-6.802755953765375011e-04
-5.578318860979878183e-03
-7.128348626647068934e-03
-9.154363145894748102e-03
-1.030214431271066558e-02
-6.180174244224733403e-03
8.677168559633309606e-04
5.263462695887784898e-03
1.085140195776866656e-02
1.654916823076173563e-02
1.680392374990661783e-02
7.089784395905516720e-03
-3.111663287577252131e-03
-4.638495141879457259e-03
-5.413185293632398823e-03
-6.312411889154320027e-03
-6.640094461292215394e-03
-8.840955171818770317e-03
-1.009676324669788600e-02
-8.424815057533924234e-03
-2.679693006080059985e-03
2.708354302346866350e-03
3.823551444454630337e-03
4.724576426009303651e-03
6.592598184144261332e-03
7.561077135943885738e-03
6.362570365010745271e-03
3.995412625877900123e-03
1.579840650359322926e-03
-4.084403072352157157e-04
-1.680362618612947891e-03
-1.978063824212888868e-03
-3.969601283841013746e-03
-6.377551578360183063e-03
-4.584913820238693295e-03
-2.838912909455231903e-03
-3.110422978558552171e-03
5.519655685247073108e-04
5.846831998520056820e-03
1.183199110676600926e-02
1.068451043281995645e-02
2.655536116005667319e-03
-6.063076826675853348e-03
-7.149450983368343254e-03
-7.390045411397018482e-03
-1.097663250469611829e-02
-8.824639974392919223e-03
-2.684351854762809329e-03
3.704323471426783278e-03
9.335705087764184507e-03
1.028633189932628630e-02
7.187451958641786695e-03
6.444914005273309071e-03
7.730611868986964064e-03
5.669244270079077525e-03
-3.837349541367521873e-04
-4.953791900914179119e-03
-8.180736697123301010e-03
-1.061631458254595067e-02
-1.245048591139842099e-02
-1.198022469243710010e-02
-9.425434069181757440e-03
-4.647999377411914969e-03
5.581226744713041997e-03
1.337443660915050257e-02
1.634053012479825748e-02
1.283819803607210222e-02
6.388407537300338362e-03
1.547564756197866232e-03
9.176819731622337108e-05
-1.878219529931696814e-03
-5.078980542022668368e-03
-8.407872079110997529e-03
-9.085597976057548097e-03
-3.105367901163831861e-03
2.566166157886240907e-03
2.809372511687632020e-03
7.604225768105429785e-04
-1.258425797674794192e-04
-2.336841779276419093e-03
-6.069278682046385515e-03
-4.049600485791078792e-03
1.213796742313961443e-03
3.828731740752721897e-03
3.206319700030249055e-03
3.895813015214650860e-04
4.877699512591982412e-04
1.380902046556071973e-03
5.774065688020845258e-03
1.204638606899002817e-02
1.242891742263719373e-02
3.089065365622664303e-03
-6.391310985902188754e-03
-1.039064231853283060e-02
-8.447502236804033809e-03
-4.936285151396451257e-03
-3.711193219826873068e-03
-4.738973906862531740e-03
-6.688402792791329522e-03
-5.558391473330841735e-03
2.797484583281952941e-04
4.425177451237845457e-03
4.640078114639263097e-03
5.427767028672043047e-03
7.030823703575846302e-03
6.180335259133794626e-03
2.493821525595255485e-03
-6.176921658893164583e-06
-3.727191664996867392e-04
4.854461641362196444e-04
-9.575871324405131786e-04
-3.975588731897426731e-03
-6.791251998384525979e-03
-7.031072607091522209e-03
-1.876093203735183573e-03
3.698870914123084889e-03
3.791052714850100605e-03
4.996226448142527740e-03
6.876310144537483605e-03
3.637357349727551523e-03
-1.374156589948711269e-03
-4.825461567584597884e-03
-7.668700981989047018e-03
-8.273931711234118469e-03
-5.786949983645465860e-03
-2.573375239113877711e-03
-2.555994479490331355e-04
4.707310592204049828e-03
1.033411910578495990e-02
1.201841842500198793e-02
1.244829334880140012e-02
8.032050350533340849e-03
-5.623980484645363983e-04
-7.019458607781827592e-03
-9.124426621209994620e-03
-8.898981356354748046e-03
-6.177656035771374697e-03
-4.700662888348749145e-03
-5.394710203273394254e-03
-6.831317364261669384e-03
-3.249403751682801607e-03
1.700679261996429622e-03
4.708085327821211023e-03
7.667775266088403853e-03
9.271795068005149465e-03
7.741434804172888165e-03
4.783490508945571068e-03
1.005809271234701452e-03
-1.643822915962266399e-03
-2.928194460129762700e-03
-3.553684720665067215e-03
-3.638675534657092106e-03
-4.233129234450514963e-03
-5.328905091757848815e-03
-1.124283230366164522e-03
5.026726059499276623e-03
7.942158548195958623e-03
9.160264808439615158e-03
7.177235258268481813e-03
1.875774439744233623e-03
-7.760530357083894430e-03
-1.922045341458211362e-02
-2.036292204555805938e-02
-1.231094019242939125e-02
-1.222680865956830626e-03
7.338910015725983588e-03
1.113473084540729519e-02
1.199473379146210814e-02
1.259919532255047991e-02
1.326605164510061274e-02
1.317120294396339868e-02
6.389481666831496945e-03
-1.151674909111256645e-03
-5.687394962512187270e-03
-8.640328468280149971e-03
-1.140512513047384387e-02
-1.135607681017709002e-02
-1.037219842050862706e-02
-9.331455947055918715e-03
-7.038306754909330609e-03
-1.906077153922563659e-03
1.928350001895221292e-03
5.726835264016827930e-03
9.874192501239754949e-03
1.233213390967106624e-02
9.078770555494381292e-03
4.775276352757503937e-03
1.922492820373822514e-03
-3.644269116421965712e-04
-2.388993452087333127e-03
-3.260041141666093767e-03
-5.617114297423524485e-03
-7.385441049109768737e-03
-7.112000800531670733e-03
-2.741927242176444169e-03
1.515977802637073291e-03
5.106662630737559064e-03
7.312274148924526040e-03
6.944963141533805687e-03
5.244670386553583301e-03
2.330507966007632989e-04
-5.198739633730764878e-03
-9.392598931903710716e-03
-1.009206396807990277e-02
-6.121919631847687858e-03
-2.579338611827167085e-03
3.000212922653555051e-04
3.931648423199173882e-03
8.629966713454234259e-03
1.238407137773285538e-02
1.421476628822638394e-02
8.533737728202577671e-03
-5.030574312159484789e-04
-3.863483025796724587e-03
-6.237182105597535893e-03
-8.621942853658935701e-03
-1.044284583296652136e-02
-1.106472755861330134e-02
-7.647762484388562904e-03
-1.806665024651069376e-04
4.548352590716878488e-03
2.556044612696735299e-03
1.654780451762793850e-03
4.654112884445628893e-03
6.600269198963686426e-03
4.986803182845622046e-03
4.474271243634358498e-03
2.691772622070226755e-03
-1.833411716892024762e-03
-4.642867364002180135e-03
-3.282300947110736340e-03
-2.336726768374119880e-03
-4.274876618902348144e-03
-7.007930239538881674e-03
-1.754105287071863186e-03
6.055436770930741099e-03
8.219287074110195879e-03
7.040294152338864506e-03
7.086723682535803551e-03
5.276971305414450766e-03
-1.028431008791686569e-03
-7.306920223090271685e-03
-1.117583984426172294e-02
-1.269334462213150654e-02
-9.474381041014143939e-03
-5.238315324152343321e-03
-2.186139418537117862e-03
1.126239975681457084e-03
8.098896856273438832e-03
1.782236485502867313e-02
2.202016713136696960e-02
1.466198918553295039e-02
9.735998207925612106e-04
-4.837709481330431174e-03
-5.655867623004726119e-03
-6.784831204764344217e-03
-8.754249997849083281e-03
-1.111442652039956736e-02
-1.181162161413404355e-02
-9.774812389418640474e-03
-5.068981122906945219e-03
6.386358418648855565e-04
2.995280949975426352e-03
4.250616520291858672e-03
5.147240458790078819e-03
6.576896163912086639e-03
8.339876011347389581e-03
8.976809525543191087e-03
6.521614872480019018e-03
4.753956651432295413e-03
2.825935873255012911e-03
-1.372757967433384111e-03
-5.556710167015449509e-03
-5.624042021825299484e-03
-4.491421596246047108e-03
-5.671825062341389993e-03
-6.855400466495960125e-03
-3.717916097515878548e-03
-4.478375641841570495e-04
-2.891861010914317538e-04
-2.650029342363992985e-03
-6.193956007326862398e-05
2.427596385903246171e-03
2.193668390379003609e-03
1.154901700526304127e-03
-2.785676634725120938e-03
-3.087870949168433892e-03
2.294312080442543426e-03
1.121325282567630158e-02
1.763356455414097357e-02
1.652175206246080108e-02
6.453679870833171558e-03
-6.245912128281872269e-03
-1.388791289860063019e-02
-1.273331279337153177e-02
-9.376943573382553673e-03
-5.925454751388004038e-03
-5.475433397349351375e-03
-5.391451142282717088e-03
-3.103357051617403658e-03
1.904757776258623548e-03
5.642711590887416161e-03
4.940893375931228876e-03
4.148557542993858843e-03
4.894920354181474600e-03
4.549221210235475724e-03
5.059179265373537834e-03
2.871466026543467113e-03
-6.981014360931826323e-04
-3.587683625638873972e-03
-5.279716698857444407e-03
-4.360164037703621182e-03
-4.622779198345886194e-03
-5.915332925674064019e-03
-3.226612396335775193e-03
3.544583875607603806e-03
8.212572205215255827e-03
1.111933613394523040e-02
1.028339498763839767e-02
3.537557372844850247e-03
-3.227113061657147907e-03
-5.362874742861229241e-03
-9.681634598078928122e-03
-1.232346028302157628e-02
-9.738952168878357851e-03
-6.012733630894271861e-03
-2.012872180275329301e-04
4.659143408641532209e-03
8.870531053754963230e-03
1.561006658295440407e-02
1.826319843728627795e-02
8.971067439035340305e-03
-9.148158347873269671e-04
-7.217457102518455569e-03
-1.047682936779895796e-02
-8.913678318851342430e-03
-5.585429831241381544e-03
-3.185936684615298369e-03
-4.343181297153407561e-03
-4.598151601367732495e-03
-2.784101807586750275e-03
-8.820839080174916859e-04
-2.182536556239971892e-04
3.099181812240575911e-03
7.635785674153693775e-03
7.989186097277780133e-03
6.220327897237608317e-03
6.503410383086206253e-03
3.371143833966980165e-03
2.384158203999209782e-05
-3.265306486386143538e-03
-6.857161667314695327e-03
-9.910407953518335020e-03
-9.003535048337979463e-03
-2.709243477804771077e-03
3.676597310389334659e-03
6.221615100863004365e-03
7.390843724921903127e-03
6.584772993923774902e-03
4.258551614786991457e-03
-1.129211423179325323e-03
-5.027660550443155234e-03
-6.404683525750617078e-03
-6.372067397003487732e-03
-5.896491480531548812e-03
-3.665016463186529603e-03
-2.039679151221295440e-03
-9.590758733533726824e-04
4.497525553544323706e-03
1.342447059249436692e-02
1.679881481440532315e-02
1.121497756841817461e-02
2.400598358259929416e-03
-5.759057401602758579e-03
-1.105463201747287384e-02
-1.263252645251317953e-02
-1.037078178735321293e-02
-5.936590854650695970e-03
-2.780034598772675777e-03
-1.096982301820208184e-03
4.152333717721385167e-03
9.810726180525124879e-03
1.214753653625362875e-02
1.005755601809576842e-02
5.514967094870768319e-03
6.197940513591136127e-05
-8.243290580885621194e-03
-1.826568155105824307e-02
-1.938586247852860239e-02
-5.390297861374722041e-03
9.956706722177197447e-03
1.273814347986792876e-02
6.418821824853746839e-03
-6.798966962328430088e-04
-1.189866597797997879e-03
2.597555383478400166e-03
2.387990614708838510e-03
2.650057717654522114e-03
4.747306833431664576e-03
6.179586784929432149e-03
1.810909381340837466e-03
-2.388331519162530722e-03
-7.336352462702179500e-03
-1.060652204289587799e-02
-1.008116545650021220e-02
-7.913508714485994328e-03
-3.354281440175956638e-03
1.448320760412841754e-03
6.022256022158567652e-03
1.339789260232810558e-02
1.392999601584254780e-02
5.285861137058891351e-03
9.932790140646122288e-04
1.913805811566197035e-03
6.785209538220291197e-04
-3.955819129725924622e-03
-7.245994780170830242e-03
-9.589211008674238673e-03
-1.025803187121319959e-02
-7.548421518424448806e-03
-1.221742642991288088e-03
1.386054948631435619e-03
2.139172312530689211e-03
3.849423034258484758e-03
7.515670229317874054e-03
8.037861070437034988e-03
6.565037804044847325e-03
2.857211198824152146e-03
-9.053993841662414440e-04
-3.176519993180404716e-03
-2.433518338200206521e-03
-5.110660298770726417e-03
-6.371370300255153538e-03
-6.891706184745310243e-03
-1.416027772516979246e-03
4.762768983920917520e-03
6.025367454050746877e-03
7.258771143265623123e-03
7.987323883237461633e-03
5.731607330646822096e-03
1.047750602312309256e-03
-6.129304176277378460e-03
-1.113944327857534396e-02
-9.933179240187040709e-03
-8.834888865284076104e-03
-6.843566534567418688e-03
-3.419282013698965190e-03
1.204317472537026106e-03
9.215641616079919829e-03
1.728251623934658893e-02
1.730990900254334233e-02
1.124050870380845744e-02
2.362617282880100870e-03
-5.136481135581599800e-03
-9.359342337503864795e-03
-9.154787499177471227e-03
-6.236800770285243385e-03
-6.085386195792299828e-03
-7.560283701598063608e-03
-4.727041758407113554e-03
-7.430921279455002162e-04
1.749580549211493053e-03
1.377523697953988296e-03
3.211166046434405907e-03
6.391302505508983378e-03
7.014596441598119729e-03
3.156809782982696478e-03
-2.695557705857489546e-03
-3.652175531229654142e-03
1.353732345407767344e-03
6.648593765598656904e-03
5.618059658389468712e-03
-1.049772631434782314e-03
-4.748680656652021735e-03
-2.833297028769399001e-03
1.442853553515067261e-05
-2.739752682538469566e-04
-1.655495365887754223e-03
-5.504086249849794114e-04
-1.149713584475429116e-03
-6.567385989613473002e-03
-9.690478971884759068e-03
-8.293767421944108625e-03
-1.999208574579476160e-03
5.879834059497189742e-03
1.046113824727007771e-02
8.485673542042420497e-03
3.496676975034921069e-03
4.004731225557071374e-03
9.757084104246869019e-03
1.235669742019101028e-02
5.042750847056162548e-03
-4.166710894552430079e-03
-8.320334617434879676e-03
-9.901080422371994622e-03
-9.664148663118855842e-03
-9.974832004269847813e-03
-8.081576714127611250e-03
-4.197177314756946054e-03
-8.897519040028994877e-04
2.662488238670125511e-04
2.949306952278002176e-03
4.630106215525032001e-03
6.471658010406294674e-03
7.665959486954970238e-03
6.181522065820031775e-03
2.566077638337539452e-03
3.295618662089012680e-03
3.528254198573859812e-03
1.142314379434716679e-03
-2.650429212186216233e-03
-9.098587304603127437e-03
-1.183557614112841321e-02
-9.388131947572219554e-03
-2.580689640585293303e-03
4.853504143402213519e-03
8.100744996100486817e-03
1.041855876608937387e-02
8.789231358052533583e-03
2.005141150102716496e-03
-3.685528816759005028e-03
-6.326622075427628181e-03
-7.489026109782307566e-03
-8.759584581954086430e-03
-7.163276868177713419e-03
-8.105852532244645688e-04
2.706994616957023123e-03
5.233999454265996810e-03
9.960661026277468910e-03
1.348733004715546059e-02
1.101491121648959064e-02
2.149805565182515230e-03
-6.033712649554451996e-03
-9.508470084419542306e-03
-7.126970492523108068e-03
-3.811608124475934518e-03
-1.998012793385393806e-03
-1.932046644604561115e-03
-4.564925063267551847e-03
-4.839536811616978670e-03
-1.460238119028061700e-03
3.529949528224383287e-04
2.282237852860397650e-03
5.881211038894451799e-03
8.291497577747015263e-03
6.962777665859699698e-03
3.765048686562022951e-03
2.536064109488879535e-04
-1.875187253999580214e-03
-4.140624149598485376e-03
-4.104524540153615432e-03
-2.083352862221571605e-03
-2.978163309641028347e-03
-6.661730108331905334e-03
-4.470777761366910054e-03
-2.663990888798785633e-04
4.820338699605448626e-03
9.789701629849401412e-03
1.087015075341852231e-02
7.161826837301750980e-03
-5.841637727966549672e-04
-6.606689515685677111e-03
-9.591595712555685965e-03
-1.129490346815461080e-02
-7.690401380064233045e-03
-2.397089418422761100e-03
1.100988041627725582e-03
4.486925423042336519e-03
8.198964592491964770e-03
1.341236357730039158e-02
1.395350859047268972e-02
5.002786104201130749e-03
-3.162799622231968633e-03
-5.603056949770489174e-03
-7.124219686735596552e-03
-6.699474681459662538e-03
-4.627028383083489453e-03
-5.419300916508353744e-03
-7.574239630462903210e-03
-5.406240890601754327e-03
-6.477521062893058356e-04
3.339780836970678186e-03
3.689702745239255288e-03
4.729990986652133148e-03
7.135584071706294051e-03
6.847955890073426609e-03
4.526045140575985989e-03
3.861733843967566412e-03
1.353974783715116434e-03
-3.009423250385268294e-03
-6.054137090287146916e-03
-7.366419347081573470e-03
-7.000674687356957075e-03
-3.646034450568234452e-03
6.440102055147482133e-04
2.586665157582217819e-03
3.770922064910599367e-03
5.619290988335136697e-03
6.638771252315814851e-03
5.776428193447605275e-03
8.935465503865978962e-04
-4.519262922300698940e-03
-9.427435880695243797e-03
-1.052087663967950747e-02
-6.944246106891326792e-03
-4.113755075415732008e-03
-9.038718645554778743e-04
5.159389020197530616e-03
1.194243792497086745e-02
1.544753440206838961e-02
1.255982920823958508e-02
4.104345180680445127e-03
-3.007573892015412854e-03
-6.597615090315197411e-03
-6.914817980001293843e-03
-5.092502068651603118e-03
-4.048364664448163633e-03
-5.115596791077229796e-03
-7.883008034075147594e-03
-6.683515473881769010e-03
-2.041631184812646438e-03
9.967036300686747934e-04
2.770167840169752808e-03
5.630597779935993599e-03
7.213959764134992084e-03
6.987541206583078660e-03
5.475417484583511990e-03
4.708062775721711529e-03
1.961891734338384267e-03
-1.849210420919094070e-03
-5.681433114111220962e-03
-6.678944661660357607e-03
-5.968194860273520405e-03
-4.687272302626648707e-03
-9.321675298201469780e-04
3.072007601585464032e-03
4.479680805751382056e-03
5.011296012109842796e-03
5.000927819635420796e-03
3.242831582591394236e-03
3.483110756820112421e-04
-4.610698179187825915e-03
-8.607944786598424602e-03
-9.240752040118482835e-03
-6.715390250432894809e-03
-2.172135718976922220e-03
1.546758399759028688e-03
5.689817008401248238e-03
9.793327081392015632e-03
1.457840915140610691e-02
1.386583337857194564e-02
4.501206974403018125e-03
-2.646690747232946245e-03
-6.473582644000582323e-03
-9.365407532598929441e-03
-8.788004654296242488e-03
-5.663967115932684246e-03
-5.277025764683440125e-03
-6.432648812188549066e-03
-5.730735673059376284e-03
-1.080989786582901109e-03
3.403683643944508189e-03
4.259714510639845894e-03
6.134176013714405344e-03
8.952177722573423369e-03
7.751004186527701845e-03
4.419313587718130473e-03
2.655530964076641565e-03
-1.037193795590347347e-03
-3.922389477693613048e-03
-4.656656591696285187e-03
-5.727216667363354066e-03
-7.039739939310749560e-03
-5.763607437810080308e-03
-1.061830072397498955e-03
4.076373731216925006e-03
5.731923667469236879e-03
6.529439100079251906e-03
6.174082779581633630e-03
2.670832757531090961e-03
5.643726304806315121e-04
-3.097490041895267689e-03
-9.301169005341378138e-03
-1.218248610202020063e-02
-7.723243809560610684e-03
-1.686392325141306122e-03
4.267536098477442939e-03
1.044187495460869447e-02
1.421979460700986166e-02
1.433826964852795427e-02
1.104612152989209797e-02
9.258131610844282881e-04
-9.055078656635856191e-03
-1.510898182149513110e-02
-1.615601321751676533e-02
-1.289707384720946079e-02
-3.535094278790862268e-03
4.933841083415302017e-03
7.243876845258077728e-03
3.359429138281198705e-03
-4.893844176033761845e-03
-4.381666354802996217e-03
5.827684173843537298e-03
1.460500580530245396e-02
1.507900200014865300e-02
6.768338679539340208e-03
-4.508534452370303782e-04
-4.346132816027411389e-03
-7.422669220825916375e-03
-1.020170207684060158e-02
-9.688282879988387164e-03
-9.896505126215914341e-03
-7.964816086606513190e-03
-1.943208626805261212e-03
4.620181130491873497e-03
9.229096158520591620e-03
1.149571746839772937e-02
1.129987980336834286e-02
9.240725416821041205e-03
3.125767230014832049e-03
-4.091113356241856715e-03
-6.438386601154127281e-03
-6.665974972789594395e-03
-5.705562448982586313e-03
-3.270420667691854074e-03
-2.882021312540724873e-03
-3.471255350915923837e-03
3.203974591103584974e-04
6.698655211051125768e-03
9.921130543273423003e-03
5.484845072892437223e-03
-4.839127536416801094e-03
-1.331174080502769974e-02
-1.172048777818832099e-02
-5.369198909195699570e-04
1.016453487767818645e-02
1.153643842418211607e-02
9.992945260719737072e-03
3.404021937791882908e-03
-5.324334861219727488e-03
-9.163948064658030551e-03
-8.711075201809239874e-03
-4.249244106963437351e-03
1.505900330563015666e-03
5.390846840875329789e-03
4.862093052681091751e-03
4.862109393691415281e-03
2.712982721315218559e-03
-7.441741060680232955e-04
-2.368858902106685954e-03
-2.976068776361012486e-03
-3.215689262128927379e-03
-5.556514613597253113e-03
-4.980362137735834353e-03
-5.825260924838444616e-04
1.523641489231904829e-03
4.679713709824295104e-03
5.806265141440678304e-03
6.993412143941153333e-03
5.883049723221041652e-03
8.539325221589056953e-04
-5.012221919516736922e-03
-7.745480280210449361e-03
-9.811756176376661143e-03
-7.601188092970334598e-03
-5.468160929183791229e-03
4.397285960263390848e-04
5.850863947897609781e-03
1.087863789326408773e-02
1.513787601516654660e-02
1.393340128639224997e-02
5.592613677511540544e-03
-2.569971692033194959e-03
-5.221127839616907136e-03
-6.312768209390645299e-03
-7.159686762751127191e-03
-8.557797262243840158e-03
-9.702551340531429674e-03
-8.791875070387507665e-03
-5.619597215846946700e-03
-1.123951624047848539e-03
1.532047194647137307e-03
3.810351955360461330e-03
7.201120671194511519e-03
8.625750560864167346e-03
7.743658931313186777e-03
8.006558923796947350e-03
7.341463303384658870e-03
2.113915600697232906e-03
-4.021271554194289291e-03
-6.829618768111032218e-03
-7.288976000230742470e-03
-8.531034102539058681e-03
-6.680408974980392087e-03
-1.379620342192839624e-03
3.296596267762394884e-03
3.570683041159809345e-03
5.420614500183449161e-03
5.656598675964612070e-03
4.889183490242463015e-03
1.882687091158391458e-03
-1.561694093644637590e-03
-5.945434462472556220e-03
-9.341413301384908149e-03
-8.461800003569807868e-03
-6.288663397005934963e-03
1.302481853566620298e-04
6.249867771098994648e-03
9.179214592245183227e-03
1.301964611216724355e-02
1.269124527043380239e-02
4.160958364329908447e-03
-3.646549264905388655e-03
-6.078813416939698663e-03
-5.182486958827513084e-03
-5.568935676315718390e-03
-6.466998398725792678e-03
-6.749123878227403228e-03
-7.367943802744552316e-03
-4.947612397830709885e-03
-9.437806483451091199e-04
4.603961716052332176e-03
7.720492839068754387e-03
7.502426410997416195e-03
8.090961426938370754e-03
6.914236330074324463e-03
4.447855622298891795e-03
1.161483067995501420e-03
-3.395411080021927108e-03
-6.623171257230224714e-03
-8.514257059551758391e-03
-8.141430822866653136e-03
-6.862227468212760487e-03
-5.423046078626922624e-03
-1.218999506309940061e-03
3.610005931802993170e-03
7.814898191820554910e-03
1.270624617804660093e-02
1.344926787799533702e-02
7.604814427659991292e-03
1.080551989045746468e-03
-7.886615334983223050e-03
-1.315972914339672700e-02
-1.213808020330158464e-02
-8.496856950130410660e-03
-3.942594589126154764e-03
7.209857997318438409e-04
3.762207861534385116e-03
9.082290744235960861e-03
1.507695255959502247e-02
1.586021001940009570e-02
7.527317979686470352e-03
-2.373903669968285401e-03
-7.493729880766733173e-03
-9.378789440045892309e-03
-9.370198228942057742e-03
-9.355087270401761523e-03
-8.708662369990715843e-03
-8.719465957217419072e-03
-8.018625362563029657e-03
-6.091322985063028685e-04
8.094970961559436184e-03
1.284550536300366023e-02
1.281319284420320143e-02
1.080824341115685545e-02
8.233482661927101973e-03
4.926412974802823336e-03
7.555964382190508979e-05
-4.416545675497231954e-03
-8.348818126276738236e-03
-9.090697597013632988e-03
-7.675273984101673233e-03
-7.265439554846624647e-03
-7.351142599515813475e-03
-1.612694566182940178e-03
5.749228499766913941e-03
1.038394968198210616e-02
1.022553002852561420e-02
5.791722426479082100e-03
1.857783397420202870e-03
-6.333196238255953733e-04
-3.351080691764939373e-03
-6.762676928441572338e-03
-9.827809089534180267e-03
-9.999809483132842888e-03
-6.585411856747094492e-03
-1.207105660973149244e-03
6.921474529416650652e-03
1.427648815019266250e-02
1.759862978327051200e-02
1.282624583857067818e-02
3.494247195163494111e-03
-4.136611522649152363e-03
-8.082185175977290442e-03
-6.801097101310776480e-03
-4.668568943337739197e-03
-6.771165417120797968e-03
-8.822594546852483011e-03
-6.310644170086031866e-03
-2.734196486505545854e-03
6.174114501404290561e-04
3.436217691147802709e-03
5.621778146409954491e-03
6.963153605723775529e-03
6.515314089171862950e-03
1.366019151982849700e-03
-2.236078478619136795e-03
-9.448165208896621477e-04
3.692621711955747493e-03
2.330676877141397985e-03
-2.648311549496628736e-03
-1.239750792908680607e-02
-1.452055326917016387e-02
-4.591927220440847855e-03
8.954098944838239510e-03
1.351484688732321540e-02
1.093018370095361763e-02
8.172793312890939965e-03
4.685571396606642847e-03
1.085716733509384984e-03
-5.249925750226746082e-03
-7.812366674371728006e-03
-7.426337649789113010e-03
-6.897115725265003106e-03
-5.202067582721311631e-03
-3.587426655547580525e-03
-1.140122712325473920e-03
2.160342231707958801e-03
6.507517792807583461e-03
1.089101041754462172e-02
8.972890554553778625e-03
-1.759841572860569364e-03
-9.620780607456198841e-03
-9.629067691967412024e-03
-3.356729658928471385e-03
5.038591955652459327e-03
8.203018247621192069e-03
7.030283805522128185e-03
1.811905078397117947e-03
-5.472942118136796090e-03
-8.103949304285845701e-03
-4.841198995734548316e-03
6.866092517259657271e-04
2.729364328335355614e-03
2.875851444205356541e-03
3.797086671854323341e-03
3.600015686409990291e-03
4.049203307751696439e-04
-1.093160762199369947e-03
-1.068238734870133495e-03
-1.359044883392670003e-03
-3.028488690699774472e-03
-6.823661483676139033e-03
-8.297041950261206320e-03
-2.390090313416089185e-03
3.436513639000229447e-03
5.368475781420026932e-03
9.790528000043974971e-03
1.039094713038353490e-02
6.162048989052292154e-03
-5.853529964705880394e-04
-6.662428564341958334e-03
-8.304590960478584402e-03
-9.560170947615647188e-03
-6.418113129571991621e-03
-3.743402523109708602e-03
-6.283121891945667083e-04
3.350820103934327738e-03
9.658915002613309431e-03
1.530997572361997294e-02
1.302360500376535321e-02
4.355390257251045769e-03
-4.105929650283439425e-03
-6.369168629045458656e-03
-6.332023353424865754e-03
-6.931444804212526581e-03
-6.926117442002132675e-03
-6.991168716047693223e-03
-6.815619147116429473e-03
-6.172931088739050387e-03
-1.572020979342169571e-03
3.354277302133638113e-03
7.904542742547720005e-03
8.799099943606378260e-03
9.319795054016583383e-03
7.090240682659376334e-03
2.764567732278756188e-03
1.854136627190914157e-03
-2.263010969111654131e-04
-4.575289868301207589e-03
-8.189403604359634867e-03
-6.704420001137655072e-03
-4.614116280756708384e-03
-4.128510696814097908e-03
-2.903564841792054870e-04
3.459605353356196445e-03
5.045632922836287837e-03
6.653064801167293298e-03
8.011832000636018997e-03
4.869104798448903315e-03
-3.381410377010623299e-03
-7.442408452071689294e-03
-6.880081159532838893e-03
-8.750376223684332155e-03
-6.695647610879124946e-03
-4.446426833670183952e-03
-2.624857177971702451e-04
5.431886417285780068e-03
1.233146023203512964e-02
1.780585087387959523e-02
1.461200317269501989e-02
3.260319128491902686e-03
-6.142489599064470882e-03
-6.542187425304301848e-03
-6.583601779443397535e-03
-7.094114308408452745e-03
-7.934691348017663959e-03
-7.836254078328464337e-03
-6.988194420449777081e-03
-4.902690706404494274e-03
-1.641701025636184549e-03
2.477167492224183459e-03
6.713857190750013165e-03
1.034821711913356222e-02
1.068183024696216926e-02
7.146048747843474977e-03
2.362204177311034037e-03
1.527743640922946686e-03
-2.480210726197270340e-04
-3.597026843346015981e-03
-6.107827050053960677e-03
-7.813224467881747792e-03
-9.354908063402231702e-03
-6.030525748816037944e-03
-3.067448953599320998e-04
3.365151640398110228e-03
6.478278674624112290e-03
9.292173227067891325e-03
8.995886932300580299e-03
5.654567521167047119e-03
-1.302438441331893937e-03
-9.114931438779082240e-03
-1.138641054071972553e-02
-9.375553225956527806e-03
-4.520646645062032995e-03
-1.646888393214986394e-03
6.422970146457301650e-04
5.688093432788813436e-03
1.114338885212432829e-02
1.568604202792561741e-02
1.307177697386453785e-02
3.587434011841871256e-03
-4.408678285549593595e-03
-6.522522287057573240e-03
-5.965447628626805582e-03
-4.225400259060281723e-03
-4.710448174482706821e-03
-7.393861893787376412e-03
-8.500214745614305401e-03
-6.301447082438012097e-03
-2.647154581808906261e-03
-9.916318097236177798e-04
-7.640346695781750474e-04
-2.871104122276148165e-04
4.117069006651363598e-03
1.169758774545845599e-02
1.527279574424748182e-02
1.494946980430839067e-02
8.044106759620618663e-03
-1.153109143100778658e-03
-1.007196000025304891e-02
-1.297177110372234321e-02
-1.252906347735880180e-02
-1.067412891742117870e-02
-4.160373090326458315e-03
1.247380751940845934e-03
8.472547473590960262e-03
1.371307819358385735e-02
1.269494408382311652e-02
4.332660793642708306e-03
-5.761044507549798951e-03
-9.240818484607744160e-03
-7.996326488063393301e-03
-7.131508422029864125e-03
-5.504109277282890310e-03
-3.204637234789844014e-03
-4.923610662795209047e-04
2.809830310206082749e-03
9.294118480794651138e-03
1.526717403447597383e-02
1.334453274305196294e-02
6.798835233821128726e-03
-1.111419041526688764e-03
-6.669963727895858278e-03
-7.211886848628299394e-03
-5.531494171534375760e-03
-5.289316953544421877e-03
-8.711698333992967322e-03
-9.412711813532655125e-03
-6.126515343836637026e-03
-3.323102220808666577e-03
-1.605945966513321532e-03
4.714823174832650891e-03
1.219450562913968958e-02
1.281523025920105162e-02
9.230986269448120118e-03
5.907956163672487687e-03
4.084621097281589119e-03
2.463954937098457396e-04
-3.951571135252097793e-03
-6.254928243984428024e-03
-7.922273201193251804e-03
-9.904011929585503082e-03
-1.024480962020416289e-02
-4.083964804644003160e-03
-7.498523674080305023e-04
1.408764373587320000e-03
5.246295562787679084e-03
1.038363766674664512e-02
1.121387404576170907e-02
8.185699228635889141e-03
-1.051116793430688498e-03
-7.913299212769538474e-03
-8.139810302470582362e-03
-4.837930431253440779e-03
-1.456836964750638083e-03
2.798533637511295673e-03
5.805395700056947828e-03
1.016338705741848605e-02
1.267861801282556267e-02
7.582516215413134461e-03
-3.228826088188736874e-03
-1.124656109660155355e-02
-1.415196677993782633e-02
-1.428010016742831643e-02
-1.083350755189874809e-02
-8.735536811441896657e-03
-8.417930681660957398e-03
-1.718742005070283052e-03
1.192081483374876974e-02
2.085435487862227419e-02
1.753435781191149678e-02
1.070098971860090897e-02
6.144775194267575874e-03
1.973050169225676071e-03
-3.298678276549856566e-03
-4.785584825490163050e-03
-4.494604746217966892e-03
-8.409746983543100324e-03
-9.387557948764288854e-03
-6.371216156003865067e-03
-3.009292183128900715e-03
-3.074825972973003595e-03
-2.837243207609875615e-03
1.760775588491191772e-03
5.939974608347465927e-03
7.366566926228270903e-03
7.210946365351622415e-03
6.935285275475935700e-03
3.710050635743411800e-03
-2.265145360652454174e-03
-5.779141156433637537e-03
-7.442913197091663088e-03
-8.348715033922060949e-03
-6.103217521250117912e-03
-4.442200010535054915e-03
3.469823883508144167e-04
5.994480246671066333e-03
1.233279690262792383e-02
1.671923858524209522e-02
1.190355233272769216e-02
1.752913084975585853e-03
-5.906890460201349828e-03
-9.193717008314006289e-03
-9.252860455579875812e-03
-6.579126564905065679e-03
-5.124174834791639897e-03
-5.880014238497437325e-03
-6.266253157800237561e-03
-4.252976311985050967e-03
1.631495744400080590e-03
5.880608123275441780e-03
7.898220391626489117e-03
8.628425878440489083e-03
8.255195696911615116e-03
6.346459144462314114e-03
1.696704045415664769e-03
-1.875874855085328313e-03
-4.225211076025823208e-03
-5.211954002676299699e-03
-7.293970978439938760e-03
-7.742031033743008300e-03
-6.574206556071159578e-03
-3.811773714212163006e-03
1.736497182375614000e-03
6.974441347989281115e-03
1.030962072472014351e-02
9.968626714756194732e-03
6.587136183320823311e-03
1.225401134337912633e-03
-4.476923844632249398e-03
-7.990950548801207740e-03
-7.113371002557798868e-03
-6.064144537691006781e-03
-2.359201595619876777e-03
1.443419518738989953e-03
2.017614687398322764e-03
3.204329658661257164e-03
4.262555768543365570e-03
6.736528825035946987e-03
8.506605569152099131e-03
4.354386002554443223e-04
-9.824112247365596184e-03
-1.003141324213242640e-02
-6.394837030801413073e-03
-2.512193148123414380e-03
3.244888494816514177e-04
2.822260109929192965e-03
4.480144346090698775e-03
5.417167238768305117e-03
4.844187536203375770e-03
3.809712996698487886e-03
1.691558960778146619e-03
-1.511220028420415728e-03
-3.190064379644329262e-03
-8.680800306220331445e-04
1.244027288153352938e-03
-2.707960280450628682e-04
-3.150329914527559474e-03
-7.844884999524046748e-03
-6.685862570379646173e-03
-4.032856591960426451e-03
-1.633942176822425832e-03
1.210244286420861497e-03
1.529688055324574967e-03
3.199780799553570212e-03
8.383649582863125782e-03
9.282173095959220938e-03
6.895815262898121259e-03
4.461437373417744164e-03
4.250798281545277620e-03
1.779300541572577084e-03
-5.638926134820802794e-03
-9.876766093749152903e-03
-1.166690157101858520e-02
-1.098011415051433626e-02
-7.630801816987884886e-03
-4.786156633633272331e-03
1.852389559159498347e-04
4.872775408390553342e-03
1.081846756927321018e-02
1.786428538518773645e-02
1.529844438027356049e-02
6.728567549249348662e-03
-2.873444971712329262e-04
-5.215219202532054600e-03
-7.968151770686507374e-03
-7.821635027196004522e-03
-7.365440362733916696e-03
-8.982056117823458002e-03
-9.041185482382082389e-03
-4.612100003125198938e-03
1.954614082527063226e-03
4.696585054310128959e-03
4.098109863417850190e-03
3.871816229737052011e-03
4.993876576167054562e-03
6.912523657907617552e-03
8.301622759963121767e-03
4.308222099520003789e-03
-3.271211643277184122e-04
-3.476423988085219300e-03
-5.926309599964528843e-03
-8.017049872580190445e-03
-8.113127886736933372e-03
-3.974507330294252405e-03
1.750124537254076117e-03
2.741925971163898957e-03
3.198969192531477598e-03
5.014682556859867586e-03
6.248171470335753264e-03
5.241420392320321302e-03
1.838857530499231731e-03
-3.222644512653346626e-03
-8.465007985788671266e-03
-8.768254530269064401e-03
-5.898244856646061782e-03
-4.845048704651894363e-03
-2.444673384366317492e-04
4.393262998584971865e-03
1.163480461894557394e-02
1.471184968842137106e-02
1.034117150109918962e-02
2.393439505781929603e-03
-3.283995815237162556e-03
-6.940344635347804950e-03
-7.734358474856189297e-03
-4.940165425994179002e-03
-4.038301821576955990e-03
-6.483645104203511825e-03
-7.107397452125872005e-03
-4.188790691983720720e-03
1.607494162329063279e-03
4.780599448673030112e-03
4.899902671388879638e-03
4.761241846374661586e-03
6.560111694372663081e-03
5.777906149420903789e-03
4.296909188682135686e-03
1.393004350672670576e-03
-3.214457202260348218e-03
-6.463382723135702515e-03
-5.915155948920658262e-03
-7.230500335112059578e-03
-6.774502258732506728e-03
-7.733234734249633171e-04
8.427021430686413433e-03
8.695349805359020579e-03
7.256892185148278683e-03
5.515081090950302647e-03
3.172300090827173333e-03
-5.464900115764597961e-04
-5.668751856477364376e-03
-1.055432744823925524e-02
-1.051877137498708793e-02
-8.360905298012564352e-03
-4.446692958931598542e-03
-1.444629775362528531e-03
2.075554801034373235e-03
8.125306735198779134e-03
1.440768268189476092e-02
1.767092052612563927e-02
1.172654924533644838e-02
1.647865989514191382e-03
-4.303554313790806073e-03
-6.561535765612202392e-03
-6.300264072703570459e-03
-5.566701366518768748e-03
-7.415750473655747903e-03
-9.641488893543489341e-03
-8.127615119018587880e-03
-7.223847453152596430e-03
-5.104802287144255719e-03
1.028616519387653755e-03
6.996721442446906386e-03
1.092860098201692276e-02
9.732356341775277517e-03
7.622161093821806788e-03
6.186374697434838740e-03
6.210148425033125419e-03
1.721461059595827273e-03
-5.816424260602283403e-03
-9.178037322254611885e-03
-8.338258832049820837e-03
-7.717907508444882964e-03
-4.427474610822624071e-03
3.346081308082074924e-03
7.188214006757548576e-03
1.012766210683114371e-02
1.183890719168803098e-02
5.747240810246901505e-03
-3.876308442211838078e-03
-9.233941375834784152e-03
-1.196700678932873137e-02
-1.308404460863045633e-02
-1.250626027598541849e-02
-8.770788936577400552e-03
-8.751861253994718589e-04
3.160540879429776708e-03
8.095532406704413972e-03
1.939677668702484772e-02
2.781563281234735938e-02
2.143765659268730139e-02
5.828732769419343873e-03
-8.310815394725388702e-03
-1.595879754356643865e-02
-1.606727172321691099e-02
-1.062113520748075336e-02
-7.361809019280407540e-03
-4.816177375700503305e-03
-4.187713366113149371e-03
-2.486196101560874273e-03
1.976698481858261015e-03
3.476432891655047326e-03
4.733874331477492051e-03
6.374170615167529079e-03
7.219333464783156060e-03
6.718373279673414342e-03
1.886480654821110154e-03
-1.104819515015836992e-03
-2.495870189566951839e-03
-4.516482385380226477e-03
-4.674063702342167066e-03
-5.216333606719813359e-03
-6.725872211476733621e-03
-5.072911480696105577e-03
1.865070862782003966e-03
6.415099343290099967e-03
9.871270631030274606e-03
1.165708928580502617e-02
9.934860890558566346e-03
2.676443247021208314e-03
-5.921995621948492917e-03
-8.635834497026697795e-03
-7.714931391057328405e-03
-8.314122551319528404e-03
-9.942709378158588740e-03
-8.293526891333426188e-03
-2.721562936275321015e-03
3.293307868221117488e-03
1.083712169059111198e-02
1.624747941017647482e-02
1.461892883430209768e-02
6.364194825787971091e-03
-1.865362594927727274e-03
-5.867559254882414276e-03
-4.791654274266463932e-03
-1.581093641390664750e-03
-2.195709465484443641e-03
-4.917570650773598652e-03
-8.275790009761491844e-03
-7.989255271767659386e-03
-5.663501077713292003e-03
-2.996714782621347217e-03
1.110613224609576259e-03
8.102116545457838104e-03
1.273259060697515439e-02
9.615361204737314996e-03
2.822954926318953315e-03
-1.904762223660160436e-03
-6.780838413010348981e-03
-9.006301956809639742e-03
-5.656623844645840629e-03
8.221696301236672017e-04
5.204979992056634960e-03
5.589320942523425678e-03
4.462865591740787334e-03
3.516768861657714341e-03
2.581102962942714765e-03
2.682362183334407752e-03
3.304358272822935112e-03
-1.723282489536082920e-03
-8.805623149332472005e-03
-1.144235509017485324e-02
-1.151575706449993811e-02
-9.678154720603116684e-03
-5.204290779074892577e-03
1.863503652938651141e-03
7.041693225362717981e-03
1.192219474789021731e-02
1.592284847203209036e-02
1.689250613886850161e-02
9.891335251992292715e-03
1.389463823553897673e-03
-3.688638117687764641e-03
-9.116834093189876698e-03
-1.117204703528162056e-02
-8.227215570396639172e-03
-8.516694345213998013e-03
-8.152485863283778778e-03
-6.073333826881029997e-03
-3.284089571793054763e-03
1.875114882949255855e-04
3.141168665579003542e-03
5.323724019937832799e-03
8.022051924243244966e-03
1.252091598463817707e-02
8.798253742589483631e-03
3.592492458891367261e-03
1.172515091551871178e-03
-1.544506726874798159e-03
-5.375829998610383992e-03
-7.188283013438098897e-03
-6.605185380367775000e-03
-6.152853997562188031e-03
-3.169241109854126822e-03
1.500423244956888185e-03
3.350688151441038199e-03
5.200201589591536833e-03
6.355111162528406625e-03
6.420820247284677804e-03
2.640579753207825207e-04
-6.882976936981020401e-03
-7.359163395090672147e-03
-7.098765836376250311e-03
-5.035912999432737985e-03
-3.180818654280728741e-03
-2.201484847943386159e-03
1.010450501449539204e-03
5.856471547765670742e-03
1.458848500621475960e-02
2.117009107483011632e-02
1.448670145622063012e-02
9.405718098377034795e-04
-8.806567575964867334e-03
-1.186620189828625771e-02
-9.285315276930133921e-03
-6.025087281386204419e-03
-7.739563316548983725e-03
-9.015566004884189438e-03
-7.254517943710158887e-03
-4.507121238593048314e-03
-1.594311202080462067e-04
3.863560894633420988e-03
7.046276167982694350e-03
8.889289858318143861e-03
9.958775663791653160e-03
9.124563596706283808e-03
5.838320401311932611e-03
2.569667404742766951e-03
-7.678214918098250628e-05
-4.578101485245890563e-03
-7.636260399529999111e-03
-9.936154183979696922e-03
-8.814579817987243382e-03
-4.969396455226742643e-03
1.814873321440160997e-03
4.273945887366919875e-03
5.971564007842274091e-03
6.952545672903934909e-03
6.485819129850882957e-03
1.078146045667224872e-03
-3.015112118478663426e-03
-5.049269826169306037e-03
-7.196481563468993051e-03
-6.611749986304218951e-03
-4.742356517760367221e-03
-1.379644136816049775e-03
1.828000774516810043e-03
6.407250247164725937e-03
1.080186696389580370e-02
1.525644915504462476e-02
1.068234790370927410e-02
-1.234051465360417796e-04
-8.110693200684387927e-03
-1.047279546071721960e-02
-8.493883668721176339e-03
-3.109290593285289183e-03
-1.150265232114149007e-03
-3.587775707147613981e-03
-5.377845957271431415e-03
-3.856603370855548642e-03
-2.732123367410526846e-04
1.420234222900522729e-03
1.727350096535371386e-03
4.983100486497947686e-03
7.591010619490826290e-03
7.166790895114041188e-03
5.276260372026763193e-03
4.531166249788415312e-03
1.568859662903839382e-03
-4.095675928875821756e-03
-7.013949476828135361e-03
-7.243087522519293074e-03
-7.899983135778193555e-03
-4.629907670601117985e-03
1.271548089703284029e-03
2.856916153223143951e-03
3.545425896373224830e-03
6.590602646178531782e-03
7.905084126444205522e-03
4.145271079559538496e-03
-1.796614369626483914e-03
-5.675196686127113865e-03
-7.994684371473034790e-03
-8.667742569403868655e-03
-6.252997482054788170e-03
-2.229286673191729819e-03
1.442881179963377775e-03
8.421808250656130646e-03
1.577575746333170423e-02
1.612010389671448413e-02
6.319724473345000003e-03
-4.261962147679912785e-03
-8.550899510325437117e-03
-7.850502476923119574e-03
-4.349220441652120253e-03
-2.632586347926233524e-03
-4.637373811614072146e-03
-7.814502878396144964e-03
-7.416699229770735979e-03
-2.147945676568053380e-03
3.081923907439050852e-03
4.165032131669669027e-03
5.259333276831427290e-03
8.857492207154716787e-03
1.028244296341850050e-02
6.376476388467432546e-03
8.368802514648872402e-04
-3.109815884472482816e-03
-4.995575117743411737e-03
-6.192888065822941407e-03
-7.013239556886059073e-03
-6.706082683847668091e-03
-6.206582572284695745e-03
-1.272799060304514443e-03
3.317854359126802804e-03
4.290137968827567941e-03
7.951145464115157505e-03
1.019574220417813169e-02
8.252957555075443943e-03
2.364999208165542970e-03
-2.835405345989023499e-03
-5.031957136370173930e-03
-6.047248169934368520e-03
-9.239943685593580633e-03
-6.069325176579114592e-03
-1.724364271680505064e-03
1.383749629723775656e-04
3.804606652881161333e-03
7.464019740826142307e-03
8.245030961426284485e-03
1.909437797011012900e-03
-3.718964079847320112e-03
-2.485251488431959761e-03
-5.816570572390890835e-04
5.454273562963815256e-04
1.299175216024912004e-03
-3.379375992925626919e-04
-4.683116564342119231e-03
-7.149143811619337874e-03
-5.570499370857273300e-03
-2.648429429305736247e-03
1.368102506873617027e-03
4.556564672860063600e-03
7.282448024177822464e-03
1.005890036851078348e-02
9.272853705021816273e-03
7.410477694489202641e-03
3.297190755706312388e-03
-2.095489389378756093e-03
-7.623666666361685745e-03
-1.302988095447694429e-02
-1.466421366798786527e-02
-1.402765525845888102e-02
-1.136805552491797384e-02
-3.707577396268541946e-03
4.001810195131063827e-03
1.045508878609880538e-02
1.721094660563236498e-02
2.073978279398775229e-02
1.958370314232605117e-02
1.038532807441265582e-02
-2.189681248041382752e-03
-1.169732283894110714e-02
-1.508726911226628171e-02
-1.451667889900104882e-02
-1.321509322364806775e-02
-1.150648211122317320e-02
-1.000886682312491366e-02
-3.837259065124539858e-03
1.189710258550689438e-02
1.918995734259817260e-02
1.482495172890715626e-02
1.494617488593271912e-02
1.050268355341204933e-02
2.138336082300239607e-04
-6.214399613610008949e-03
-6.231513952791159494e-03
-7.629569230392587928e-03
-1.250553546417959745e-02
-1.358705231016881648e-02
-8.874362417585626023e-03
-3.776628304963946647e-03
-4.374039974440926525e-04
2.405844253941507010e-03
7.727521506238508794e-03
1.165188389674820524e-02
1.259221884996550300e-02
1.047484519001102947e-02
4.594202544876739569e-03
-2.118567197101527393e-03
-6.147010778058467975e-03
-9.184423765155842051e-03
-7.448231468029691861e-03
-5.408910724798385652e-03
-2.970329610698844210e-03
-1.115534531257740330e-03
-2.061647075711890535e-03
1.965632612265860388e-04
6.301543720000898040e-03
1.229141811158045855e-02
1.112286163773845704e-02
3.351618424021797927e-03
-5.612007984454302385e-03
-9.008296239191165844e-03
-8.335487836773135956e-03
-7.088023553197706113e-03
-4.190640634232883042e-03
2.495225291745583208e-03
7.933513082173652975e-03
9.833004656225732831e-03
1.002226396011108439e-02
1.329889311361953695e-03
-8.607563943094437980e-03
-8.479315520693428768e-03
-5.572959671960000388e-03
-2.271663102288762250e-03
5.915090152257623194e-04
2.666253826719955020e-03
2.863564030397460023e-03
2.710904648745493615e-03
1.924986593080260959e-03
-5.222842865244719298e-04
-2.285871177273294218e-03
-1.463991862847542321e-03
-7.195237331390953468e-04
2.636740932077616308e-03
2.453999300574833797e-03
6.701824758467723466e-05
-4.352720151848826508e-04
7.700966340722380276e-04
-1.066183239799514942e-03
-3.975614664694081604e-03
-4.461841267950263784e-03
-1.928370677989775213e-03
1.165419597354728403e-03
5.098676420881774647e-03
3.882361735485134139e-03
2.040372259147355417e-03
3.773189033397978103e-03
3.343378746269753607e-03
-2.870387416482175855e-03
-6.302343211859396527e-03
-5.578137709120436355e-03
-4.226615875956070238e-03
-5.188544056509787963e-03
-4.716436900933814597e-03
-1.076544263781566277e-03
3.462700950732794988e-03
8.730294164880365859e-03
1.420974392350579998e-02
1.553191392648513476e-02
7.839264699286998400e-03
2.942258691195850668e-04
-6.639442443257675963e-03
-1.003812726617977526e-02
-9.076174840399981597e-03
-6.686858038020261803e-03
-6.192429516295763249e-03
-8.245307979277846644e-03
-8.081078596145600118e-03
-3.459190513993491440e-03
2.883795944349016281e-03
5.049219558901347701e-03
7.080665553373759018e-03
9.670720313988551142e-03
9.534802932965737859e-03
8.249462992403233316e-03
5.836966822575596903e-03
1.526841901494586798e-03
-3.036421090148273914e-03
-5.922772955489484167e-03
-7.654636986749964109e-03
-9.825221896714272582e-03
-7.767736009260292097e-03
-2.758857145144453290e-03
1.948613633467209541e-03
1.275119240254833078e-03
3.720011772293808829e-03
8.313680847677449443e-03
5.830900133781390451e-03
7.567897682896403567e-04
-4.282651174560885010e-03
-5.167848434221468737e-03
-3.765700394464682570e-03
-3.507132555029220111e-03
-2.675375926553922364e-03
-8.161871140321085277e-04
3.245412281436622307e-03
7.897215050142134332e-03
1.347463647453588965e-02
1.540275171823937174e-02
8.329090534910502108e-03
-2.567754600131282993e-03
-8.424546767458924307e-03
-1.238918580719938767e-02
-1.388540014396455122e-02
-1.210823679693581040e-02
-7.847902178344001375e-03
-4.863755115908656793e-03
-3.484201341627760073e-03
1.361558519637009329e-03
4.254095502429903509e-03
4.824963371909201174e-03
6.971225757475094965e-03
1.151155437933618075e-02
1.525618141803265770e-02
1.450880935224668419e-02
7.508236468568772054e-03
-7.057072440136401834e-05
-5.325585573293955578e-03
-8.719774308117283004e-03
-1.024708248762514970e-02
-1.307733630713417243e-02
-1.545674195572581400e-02
-1.390675403236769740e-02
-7.193705975403294484e-03
1.677644645422537517e-03
1.017838644258364095e-02
1.684631705064984150e-02
1.806160562232580341e-02
1.031799530358388367e-02
-4.824920806249623825e-04
-6.361582664592755135e-03
-7.033135182204393321e-03
-4.866553195683675018e-03
-6.408866826985184367e-03
-5.899929417981875611e-03
1.306076206037405868e-03
9.287295243763274422e-03
1.178600285321156418e-02
1.000094558339215990e-02
3.750001864938885474e-03
-4.089739675642849182e-03
-8.633695239444356961e-03
-8.619317820206600159e-03
-5.018587916035510167e-03
-4.079193334006404187e-03
-4.043570010273694025e-03
-3.845858588908967774e-03
-2.811343007215371965e-03
-9.708256287047659040e-04
-5.992991297343716519e-04
6.354489991739155266e-04
4.926859963170354684e-03
1.050016941013089816e-02
1.343142310727432273e-02
9.623206482526860950e-03
4.719944572585938955e-03
1.445243289218554406e-03
-3.443564483964679183e-03
-8.312891741222199274e-03
-1.183179157069217183e-02
-1.403293350322105601e-02
-1.463087418719709841e-02
-8.903979380979002919e-03
-1.129145904434214606e-03
7.308916602973473606e-03
1.729414585876245386e-02
2.372688772582411468e-02
1.856660608541209692e-02
6.392260163220224098e-03
-5.513365191031795523e-03
-1.203870334272363375e-02
-1.358954283385469496e-02
-1.180554549052552880e-02
-1.107750097229700040e-02
-1.381270551220470724e-02
-1.097506482195122028e-02
3.108868037681615949e-03
2.082386523419948315e-02
2.781928447138632896e-02
1.856778890731016624e-02
4.299944565849726438e-03
-5.605015700824741640e-03
-6.658482532957558583e-03
-3.060576450856744915e-03
-3.409527497113059354e-03
-9.087868584628360294e-03
-1.165461731307528524e-02
-1.206260768698204366e-02
-9.364478822561734736e-03
-2.242627516799447062e-03
3.198760694453228141e-03
7.915068589805045879e-03
1.105441554806185778e-02
1.116183359241630299e-02
8.759160798417969102e-03
5.572017021630824157e-03
1.930460829641036805e-03
-2.163701078349379147e-03
-4.592738556367887380e-03
-7.984589013028989615e-03
-1.009452672846481228e-02
-8.073417365861014494e-03
-2.585539923777859742e-03
3.411603134192299231e-03
4.206744819472594057e-03
5.521341827833738114e-03
8.330766941582273821e-03
5.808761428594209561e-03
-3.481090819495182270e-04
-4.651665196483997615e-03
-6.366955527845708646e-03
-7.833379044943862557e-03
-5.462023135503084326e-03
-2.553979563284152886e-03
1.378993850256047442e-03
3.288140813070670413e-03
7.877816912171688168e-03
1.097396037427839782e-02
1.326062786603508792e-02
7.012264789903311854e-03
-3.143124947121502932e-03
-1.058580656089679745e-02
-1.141911711069041810e-02
-7.201422217482465922e-03
-1.729879488360822190e-03
9.509999459362975058e-04
-3.294984382279156614e-03
-6.490340583513444853e-03
-3.961236315107937930e-03
4.649027624191900661e-04
2.992061688067073223e-03
5.792981775504933706e-03
6.924986154556954203e-03
8.252923644158881300e-03
7.048232765802191387e-03
3.460962362181873187e-03
6.715551718099465901e-04
-1.362564984189978566e-03
-4.833731527670883515e-03
-7.974305805216436172e-03
-8.255220296238527378e-03
-8.485397266184455112e-03
-2.619538419223884588e-03
4.404194117808032591e-03
6.426188743297718726e-03
5.673390768054027873e-03
5.734944660778717833e-03
3.317816310551999822e-03
9.081898639204651156e-04
-2.080746919650328618e-03
-6.105688820884841612e-03
-8.747652145941600677e-03
-8.528194293504346921e-03
-3.691205036213680412e-03
1.995308396222139190e-03
3.050163168587435077e-03
7.840092139582562417e-03
1.553847238794267907e-02
1.612863160908416249e-02
7.196604299808720059e-03
-2.851514091727164798e-03
-7.742539330903954950e-03
-1.018358336608770134e-02
-1.055189714649204177e-02
-7.336876925042307498e-03
-6.131858001874614626e-03
-5.438590865512849849e-03
-3.382616601438370642e-03
-9.250121285538836970e-04
1.177189390059104083e-03
3.576343154771522044e-03
5.723561918554927706e-03
1.043043538475689480e-02
1.210642668757514265e-02
9.719563757414964589e-03
3.587701691680564384e-03
-2.179590437586376769e-03
-7.458561425713728862e-03
-8.627654516148339572e-03
-7.105173388524415115e-03
-7.359754489190452505e-03
-6.378622416534045561e-03
-2.517872492205892789e-03
2.662981840321354630e-03
3.174204174360939663e-03
5.525542326214934880e-03
9.950287386417502530e-03
9.483311504047919199e-03
2.621540867443086873e-03
-4.389092417924725029e-03
-8.234534275073143034e-03
-8.073298295768353838e-03
-6.145044238706607112e-03
-4.259890972385180739e-03
-2.577464808691911410e-03
1.460871902564149375e-03
8.859516853241045098e-03
1.495028457847432518e-02
1.763660522123384339e-02
8.246641853778446246e-03
-2.666797444754580217e-03
-8.961514261187127767e-03
-1.422921729209979114e-02
-1.362137879247782637e-02
-8.942801943919220786e-03
-6.660699867485490519e-03
-1.424072432859487805e-03
3.332193241014039676e-03
6.364218218085741785e-03
7.691197261458896511e-03
6.140497940918648520e-03
5.590867750403818309e-03
2.143971892018535583e-03
-3.066855354768126176e-03
-5.103423540376170187e-03
-5.671716070780056986e-04
2.938199562409497291e-03
3.743113147321710122e-03
2.297583039515564609e-03
2.566444371946961268e-04
-5.774347796588780168e-03
-1.020031408844726366e-02
-6.065217360174466124e-03
7.567411813821473768e-04
5.139720550810560756e-03
6.976229219044273629e-03
7.817783491227895190e-03
6.753527863441420413e-03
2.575595278603971892e-04
-4.992379364423297008e-03
-7.218980566650571792e-03
-9.695984723250486784e-03
-8.082568171603922089e-03
-3.699505970033932587e-03
-2.258202797541270865e-05
2.195996746440373026e-03
6.601773245552400478e-03
1.284293690733841892e-02
1.611294456727471042e-02
1.158040241938446818e-02
1.112792725423899587e-03
-6.403898564824241947e-03
-8.627950957984858657e-03
-8.980571807811246407e-03
-8.389403348820278356e-03
-7.259277240730799621e-03
-6.532864529477814229e-03
-5.095410393783287098e-03
-6.951587772906348255e-04
1.501405603115136753e-03
3.848754601745459688e-03
4.914009509012376084e-03
3.884645911102536670e-03
5.587755527432502860e-03
6.438487537621284847e-03
5.874389131904473281e-03
4.518897310888251792e-03
2.196585447581095047e-03
-2.674460304503735193e-03
-7.278733140017324896e-03
-8.058344547177378331e-03
-7.114560928323279167e-03
-2.436128980532639970e-03
1.118636149622675687e-03
2.047551603008577418e-03
3.578621770171409866e-03
8.939685777595083108e-03
9.761387446070839830e-03
1.030646622282888275e-03
-8.380731871695568796e-03
-1.051742418870759040e-02
-9.786384458957004748e-03
-9.990942315747874947e-03
-6.250626864668890753e-03
1.256254835985461680e-03
6.518426354324462907e-03
9.582501323239837887e-03
1.364531718496373586e-02
1.650520970241608695e-02
9.191280715962493741e-03
6.923119817009231684e-04
-2.778774688163526945e-03
-4.782276742021231153e-03
-5.199262083983676418e-03
-3.105554007168082487e-03
-4.530540789018100423e-03
-7.484566462546169557e-03
-8.964897817014687992e-03
-9.069706067068281780e-03
-6.269835014929324782e-03
-5.353265647091214226e-03
-8.100845674678346358e-04
1.629917181041943197e-03
4.960010814742902424e-03
7.288937594051061487e-03
9.902416769170713923e-03
1.281653728168052724e-02
1.262606754388274737e-02
8.752477337751111627e-03
2.985800060068206311e-03
-6.917451564543394479e-03
-1.364207009739306330e-02
-1.098046264936132325e-02
-4.345878455280746330e-03
-2.671453535651681279e-03
6.391387384228746640e-05
3.023205229967409428e-03
4.161575530991042625e-03
1.601418500020181795e-03
-1.637973393961137617e-03
-4.509478846482294773e-03
-6.416818733659714925e-03
-4.779580425856118017e-03
-2.518139653146960529e-03
-4.335371489454565609e-04
2.630458706151253805e-03
7.947949849152679755e-03
1.370088569156074909e-02
1.558789757806170947e-02
8.048736324481756479e-03
-2.451268972494346273e-03
-7.630389863953914061e-03
-8.817119456264635446e-03
-5.029799126159340515e-03
-3.487877995542123469e-03
-4.644081167323114989e-03
-6.599623452334578422e-03
-5.709829850231981641e-03
-2.993393861137230542e-03
-1.086166050410438148e-03
1.242309568652490799e-03
6.329625640702146901e-03
8.298727448900637682e-03
6.471998415538701178e-03
2.307525712714573064e-03
1.373394263348971323e-03
2.202452051035916954e-03
1.171724872994254216e-03
-1.395031824974847902e-03
-3.057650352404847789e-03
-5.361500423130777758e-03
-6.969533534771112787e-03
-3.356432445416887306e-03
8.311600178892953553e-04
6.228022305428358978e-04
4.869864612033951521e-04
5.477852106503059045e-03
6.889204856714971868e-03
3.615270075921005015e-03
6.248956043747937953e-04
-1.870373409103289050e-03
-4.140584396719983358e-03
-6.017759047114050637e-03
-4.755405346031395253e-03
-8.229607762018510252e-04
2.402714979847740077e-03
4.133447600713058452e-03
8.003827704841572077e-03
8.341957560896819113e-03
-1.891320092919450717e-03
-9.276725400198863186e-03
-8.159201930418248996e-03
-1.099899720087026784e-03
6.163959606218453145e-03
6.248273370863446224e-03
-1.178560255871463494e-03
-6.190763260675536880e-03
-5.543268008606956794e-03
-2.368927094822610973e-03
-2.316672126439345140e-04
5.299571370510890731e-04
2.033028607758137745e-03
2.281759116856941615e-03
3.400371552153566915e-03
4.150544184598030373e-03
3.589479150141346858e-03
2.593794854936670898e-03
1.265636605755314286e-03
-1.370600395512032660e-03
-4.008244758498675543e-03
-5.038512222022980061e-03
-5.446670966718444688e-03
-2.401550256366107288e-03
-1.614995985893963185e-03
6.619870233865313754e-04
5.124175135812366472e-03
8.645597015780371458e-03
7.175054766867709245e-03
-1.215317474150302618e-03
-7.787765710537089547e-03
-9.010481855348062216e-03
-6.865656256450429831e-03
-2.292129665961488167e-03
-1.446667740164240884e-03
-1.214114702240300494e-03
2.546979734893534044e-03
8.438652499216622513e-03
1.409968252537564803e-02
1.651364267172944836e-02
9.423132385897623614e-03
-9.398955244512075587e-04
-8.958241542733880874e-03
-1.265999339039815437e-02
-1.049273749327599842e-02
-4.966599212180889539e-03
-2.487031451597140116e-03
-3.275087320790843418e-03
-3.806028185513453052e-03
-3.221132263796991444e-03
-1.962758228100739463e-03
2.180390697356235190e-03
7.038831865215652329e-03
8.944804019131672584e-03
6.988369354129083180e-03
-2.016384827230753216e-04
-3.788657026982529454e-03
-2.132799981341418610e-03
1.949023394649300684e-03
4.383139226446787842e-03
2.278301674152119916e-03
-5.159154871404631609e-03
-8.384438652808854850e-03
-2.313115707339995306e-03
4.221342746235325592e-03
6.781547209529387513e-03
6.093241768036171228e-03
5.151161401489901676e-03
2.816332466793222081e-03
-5.566995570907601505e-03
-1.107519311732605219e-02
-8.137643006501573545e-03
-6.741549708639468612e-03
-6.493235814744735199e-03
-3.794631509236017202e-03
8.246217938093008352e-04
4.528597851904202221e-03
9.947493037018782097e-03
1.509934879088870377e-02
1.338661208625520349e-02
7.178482702471670161e-03
6.473223397383649162e-04
-2.811801953810255227e-03
-4.836047280335660503e-03
-5.361568341771967214e-03
-6.724610770120665812e-03
-8.762778960351047530e-03
-1.246597878522861559e-02
-1.142640246971142644e-02
-7.861818129764421015e-03
-5.690262847580860716e-04
1.048555179097051399e-02
1.819908413282387769e-02
1.747144179579179085e-02
1.083697250220217595e-02
2.198297035135636252e-03
-5.010484306257773426e-03
-1.103027562750465151e-02
-1.260552855718867667e-02
-1.168187687076098838e-02
-8.999103471781060015e-03
-3.637360917685221722e-03
5.298266197623141202e-03
1.439826593605949764e-02
1.838395904729391711e-02
1.269819588700552004e-02
4.797883339374238096e-03
-4.886447372239516914e-04
-6.444937180093762361e-03
-9.958424761267110556e-03
-1.112130688238407994e-02
-1.001635864800607539e-02
-8.542275826546791295e-03
-5.682921054326018143e-03
-2.852658096548805946e-03
-2.434775794904898278e-04
3.468050406619129292e-03
8.513893150338923410e-03
1.432848444478426568e-02
1.710005770670439823e-02
1.404173092949970864e-02
5.991055056014184949e-03
-3.493158310071467747e-03
-9.791537066071496695e-03
-1.010254425052609269e-02
-7.388879983624547371e-03
-7.307526235258838404e-03
-1.010930731264901919e-02
-1.002161106166440767e-02
-6.082139380520480872e-03
-3.145191291484652259e-04
6.074204884373458728e-03
9.320778015566046765e-03
8.123902431849319011e-03
7.900404268878761030e-03
8.564780651813781037e-03
5.893209640585711159e-03
1.284518326778795331e-03
-1.444492407521876616e-03
-4.753529642755762938e-03
-7.760820131233605451e-03
-8.679253230319955437e-03
-8.474387494660121783e-03
-4.453865145195845358e-03
7.291702415612160305e-04
5.176515861754194502e-03
8.503319281241936492e-03
9.849664421925842517e-03
7.418969616655564370e-03
7.646741052274744297e-04
-5.700534579227972166e-03
-6.976178164282331208e-03
-1.166336288016444657e-02
-9.768222271469027829e-03
-3.220510323274037526e-03
2.668697313568464419e-03
4.696633330596079563e-03
8.937369798651874364e-03
1.426132002872534596e-02
1.462669582377365031e-02
6.105862067049612485e-03
-5.903088984767844005e-04
-6.036273093327513238e-03
-1.001912764690083418e-02
-8.774033077105079792e-03
-7.633701322866212613e-03
-8.810779026840121625e-03
-1.047778438934143797e-02
-4.632884911946382432e-03
2.750316348186922482e-03
5.747690855748503920e-03
6.708002691697387970e-03
7.232919288783961134e-03
7.245327157236853069e-03
7.264875645133091545e-03
4.431444567032406801e-03
4.349645254238569073e-04
-1.091136527237694709e-05
-1.677927949702185664e-03
-3.864149392861596869e-03
-4.965092429856586900e-03
-7.502911375147483519e-03
-6.524925131426263097e-03
-2.265818599367583949e-03
1.576368494371042938e-04
2.646297470931573397e-03
6.638151471994620592e-03
9.441920831478670117e-03
6.216742596611982835e-03
-1.943678202894879399e-03
-8.012992956868456029e-03
-6.052497387268380123e-03
-5.250494867137375440e-03
-5.357614842291370458e-03
-4.013975968312892897e-03
1.953841396862643711e-04
6.516186844588194721e-03
1.095443204315916033e-02
1.192243409477929117e-02
1.100594392444776380e-02
5.343551885657123364e-03
-4.036486744684533703e-07
-7.888262898011484670e-03
-1.032246403626538127e-02
-8.264449423025453309e-03
-6.127003692621160735e-03
-7.339537142416163208e-03
-7.630471819330700289e-03
-4.795345064131225840e-03
1.600112829897809433e-03
4.408743268925324407e-03
5.365591900539715131e-03
7.441670206909343881e-03
8.724579757996000703e-03
5.151877324922764928e-03
2.403491103961677162e-03
1.553295827516360016e-03
8.991517030564517583e-04
-2.199060406701329972e-04
-3.097118746886832162e-03
-7.667997361041354112e-03
-6.705482280365640882e-03
-4.887870475891325367e-03
-1.792168106779475415e-04
5.033682494001653213e-03
5.009617023218199128e-03
4.842659748356951087e-03
3.828484256772065903e-03
-3.469419951235921690e-03
-1.043731247063134013e-02
-6.806447009280634612e-03
2.727200153387492314e-03
3.838225631042499735e-03
-1.036816204308863313e-03
-3.539931473382513377e-03
-3.436287249552252236e-03
1.451075176195394450e-03
6.845178193526462590e-03
9.948628649502659280e-03
1.020910746819235493e-02
4.901172505651219327e-03
-9.441946305479554085e-04
-3.374397037969810356e-03
-2.243756362509024931e-03
2.637193321587793162e-05
-4.657267797222002913e-04
-6.644460913275990026e-03
-1.113663251434446333e-02
-8.318571982942699755e-03
-9.878884857396991181e-03
-9.118141461832211109e-03
-2.169921516683767822e-03
1.030459761240486334e-02
1.821498098679616776e-02
1.483988552420446166e-02
6.881103989196061393e-03
-4.499427320280348239e-05
-1.110260837039703024e-03
-2.349183275200960892e-03
-6.163398570291393590e-03
-8.115871037146610636e-03
-6.847151125245871939e-03
-3.616229172572935861e-03
2.124774541207718245e-03
4.337440356864881962e-03
2.907836967579041643e-03
4.103051248618336776e-03
5.312102042701757031e-03
3.439434486505939161e-03
2.231929637217771722e-03
-5.342782098395619690e-04
-4.809049723903135488e-03
-8.873678802659521608e-03
-9.794847267340261662e-03
-6.627130316083433038e-03
-4.686014599043357952e-03
1.386629660442832051e-03
1.022356986526920530e-02
1.586475523355322659e-02
1.553760526474672575e-02
7.522515741207657335e-03
-3.653331704701983079e-03
-1.041083139065124286e-02
-9.889199430411090008e-03
-6.833095709298442864e-03
-1.985455269523408051e-03
-7.774061026272272631e-04
-3.253418362225429013e-03
-4.223431753310995761e-03
-2.846574898407753726e-04
1.780775323647286338e-03
3.614587465861078281e-03
6.272157172969245256e-03
6.858656969689781030e-03
7.526356319156266191e-03
6.468705913696306056e-03
1.276272244937170760e-03
-5.416815185410803202e-03
-1.081440218511594067e-02
-1.455193796346123877e-02
-1.259498392121995332e-02
-3.653336081352604858e-03
3.485757309003756094e-03
8.714180510600709473e-03
8.230539244074731170e-03
7.650897558832303602e-03
9.487617553202019188e-03
8.872178436835201354e-03
4.389046676030971400e-03
-1.919550175989194257e-03
-7.596958684626585467e-03
-1.189787163614024548e-02
-1.257338277021595452e-02
-9.676669274117370018e-03
-4.488564139777478229e-03
3.537595314638908393e-03
9.605545541321848513e-03
1.242668157751679672e-02
1.437416241812376240e-02
1.248427752084679647e-02
3.041439458161059820e-03
-7.119925625067356420e-03
-1.235257469061811636e-02
-1.306762988291777089e-02
-1.374209274881929566e-02
-9.486993380982005480e-03
-2.986301174213913927e-03
2.514766249423901982e-03
6.707352030068150853e-03
1.113627549012210713e-02
9.419407463664672062e-03
4.324157310630440121e-03
7.382510163597233530e-04
1.238484424461838923e-03
2.579089838190062618e-03
2.712344397199603716e-03
9.456683222881406056e-04
-2.509637910655721730e-03
-6.683629095403658023e-03
-7.399363242557761150e-03
-5.812505874540732295e-03
-3.983553290899533549e-03
-3.657489131742680446e-03
-1.536942526417534255e-03
2.930027779643611802e-03
6.322043767620280988e-03
8.256172530041619093e-03
8.787878879851553429e-03
7.491733356374134616e-03
2.239781237415522288e-03
-3.472460411106938118e-03
-6.473259414754667547e-03
-8.640645130808805377e-03
-1.262661154422374012e-02
-1.178516490711395762e-02
-5.432842392437632964e-03
3.283049036095805288e-03
1.104040476866885272e-02
1.693035030445800768e-02
1.543456849499744675e-02
7.564807334205952624e-03
5.635555182769982300e-04
-2.918704246345798625e-03
-6.029276239337736341e-03
-7.625547747354991142e-03
-5.310064721903305120e-03
-4.723968133230203176e-03
-5.956099112243375474e-03
-6.741655203107957579e-03
-5.818761671262247595e-03
-3.848827343736567399e-03
1.609553847720132701e-03
7.848353535360270625e-03
1.096339397087584683e-02
1.041836196005274315e-02
7.659943974776518838e-03
1.531763169199394517e-03
-4.253794296068803132e-03
-7.373711684946952262e-03
-6.894464806654931541e-03
-3.271451313572506809e-03
-9.427198232295483978e-04
-2.226047977259678224e-03
-1.488328625640505411e-04
3.391815253346571867e-03
3.882981341612323691e-03
5.028078671574455830e-03
7.149738235985605289e-03
4.444332550456001583e-03
-1.435077079995146021e-03
-6.410476728808454580e-03
-8.094971875149733348e-03
-7.773614017605035356e-03
-8.266356757206154426e-03
-6.453025533501550483e-03
-1.822542146167268956e-03
4.589152906750887904e-03
1.095571542709397432e-02
1.740224085616377467e-02
1.517027258067380792e-02
4.321662916784018912e-03
-1.522118240085232116e-03
-4.005236841288015506e-03
-7.813480998970452618e-03
-7.228648794990957457e-03
-6.711449686694687632e-03
-8.528824822612418241e-03
-9.693953002547151671e-03
-5.015320240613200566e-03
2.829653826670181210e-03
6.491407134978153040e-03
6.296971086860402717e-03
5.202074373305735390e-03
5.421754882904429237e-03
4.146770345280804959e-03
2.689834469687700947e-03
-8.238089984948718106e-05
-5.007312529303585211e-03
-5.763234581970156853e-03
-3.367600623896918610e-03
-1.907093172670650027e-03
1.569146746303372666e-04
-8.595964819629180219e-05
7.185873947672829327e-05
1.475380960877305334e-03
1.425518870302781632e-03
5.579052619159826851e-03
7.806793318383996490e-03
3.623044254332186565e-03
-3.249413072462108837e-03
-5.299067477731533339e-03
-5.257642512870036242e-03
-6.175903677623683675e-03
-4.704813538498390374e-03
-1.468040889393530278e-03
1.533960389589805089e-03
2.603244844519128891e-03
6.906169698984846762e-03
9.995038022034006056e-03
8.034070108274619232e-03
2.839297867691623154e-03
-4.218659203053882339e-03
-1.205468540802649875e-02
-1.269045928591882970e-02
-6.202621976809146766e-03
8.058789906472696180e-04
4.971203177514558168e-03
5.402920743453604527e-03
3.221897510948248163e-03
6.398886899762420716e-04
1.920599114169018959e-04
1.986748066703144296e-03
4.923643837753328631e-03
6.845040008767183312e-03
1.788940077712242388e-03
-5.819964975680732774e-03
-1.154611044538884565e-02
-1.292768540651758995e-02
-8.869382122072291819e-03
2.335517258585768311e-03
1.109519436900691103e-02
8.716942998613410806e-03
2.504239915286544157e-03
7.957616216136148297e-04
3.347805216694861412e-03
3.621903537928081954e-03
4.656154625926391469e-03
5.337604216523791217e-03
1.478149607188433213e-03
-5.936396987238171455e-03
-1.012644020510276681e-02
-9.496776134151639626e-03
-8.699425914019568579e-03
-7.188226184882982872e-03
-4.104670924157088029e-03
1.892824999653894638e-04
2.575744398501126232e-03
7.546461144615041264e-03
1.636003402180660760e-02
1.925444521206171045e-02
1.238413502728576664e-02
1.030377174466513357e-03
-8.016195491726581593e-03
-1.071180315085576255e-02
-7.267256617064182453e-03
-5.487542674565911577e-03
-7.329887013544038495e-03
-8.436620876100121846e-03
-6.066150225423857720e-03
-2.452258850202310592e-03
-9.972481963301091292e-04
-1.553864263677705608e-03
3.069437167289257914e-03
1.091877825053017871e-02
1.500089201724931313e-02
1.578508214080811406e-02
1.127990043222396564e-02
3.289929193771518826e-03
-4.714501432968665542e-03
-1.170765655914507951e-02
-1.482535286202670867e-02
-1.545964867927832748e-02
-1.345589074095772907e-02
-7.571634876764248706e-03
-2.045186251570445517e-03
4.836081926212550987e-03
1.385375664717011443e-02
1.995966448332860826e-02
1.851848760496405469e-02
9.571422994532651982e-03
-3.387487606883168075e-03
-1.157769217330944546e-02
-1.420059969338607724e-02
-1.248011591858317997e-02
-8.281092803154045320e-03
-4.407955289533676407e-03
3.792068988236296182e-03
9.663573609358050084e-03
1.523475139857005320e-02
1.443690115083894054e-02
6.233849955160404403e-03
-3.536948748348330614e-03
-9.170780289464778440e-03
-9.354284178511543257e-03
-4.405808073556121036e-03
-3.436635227735529170e-03
-6.186680258413852773e-03
-7.448013588204635896e-03
-3.171826483495398218e-03
1.436391086804449666e-03
3.044104631107500195e-03
3.534735664081462350e-03
5.873210603566222411e-03
7.683678365552190290e-03
7.036652748302650758e-03
5.340376738939676786e-03
1.538523109215497947e-03
-2.396912555614653852e-03
-4.362090867475038741e-03
-4.405621891925707960e-03
-4.418306271885638452e-03
-5.839842217433466667e-03
-3.552306109493475351e-03
-3.749189737757968859e-04
2.700735897416652823e-03
2.846226896737444594e-03
4.548288815922157252e-03
4.346607188231944516e-03
1.664543436130781545e-03
-1.345751990839712644e-03
-3.619640738890028946e-03
-3.655317690682590489e-03
-3.024540191489591152e-03
-3.475016557164688994e-03
-4.948791793563236084e-03
-1.769856074860661930e-03
4.841601817052903697e-03
1.058296733488203224e-02
1.280069284278680108e-02
9.884416398225348566e-03
2.038147076225620569e-03
-3.672502425179592720e-03
-7.954386477071806461e-03
-9.200841481412629780e-03
-7.597525540714605841e-03
-4.958709592705729495e-03
-4.567693617774296402e-03
-2.476937903030719448e-03
1.350912813308270894e-03
3.952708913950756311e-03
3.781363920669481016e-03
3.290007067974343776e-03
4.191773924294611535e-03
3.483380286879639732e-03
2.592756306718054047e-03
2.032627765504395074e-03
-1.294699294824717603e-04
-3.238542102660766243e-03
-4.664498830116579203e-03
-6.060261680636404823e-03
-7.108320535981095881e-03
-4.608934446460820865e-03
1.716744026249724915e-03
7.542880133654149451e-03
8.359114961995903897e-03
7.554449919039279114e-03
7.566546159312098618e-03
5.001567536434379721e-03
7.108147101718175539e-04
-5.541625578209104404e-03
-1.003424001210119314e-02
-1.148824037327440817e-02
-1.090881811557907130e-02
-6.242032218597613757e-03
-1.583465829482555768e-04
3.299096866786807320e-03
5.878503038563562266e-03
8.855088474046639291e-03
9.209434537166789198e-03
7.252882231910113935e-03
3.270683490782693489e-03
1.493885625001078370e-03
-1.152427579793832306e-04
6.711984221942853576e-05
-4.415387566008316823e-04
-3.637903991229509987e-03
-9.188451730346047786e-03
-1.045159962584900175e-02
-7.898986815184643948e-03
-5.299318444229209751e-03
-2.616658808053324344e-04
3.854278080712590735e-03
4.640244496102878362e-03
5.813775259933309444e-03
7.133775475692405790e-03
5.914228451490654431e-03
3.270727486850122465e-03
6.045459272986206545e-04
-5.531840940851066434e-04
-1.898931172385647176e-03
-3.930322709809774308e-03
-5.028225806260099365e-03
-4.963750867045878951e-03
-2.302280892652643508e-03
-2.007154807674565989e-04
3.205826154208336800e-03
6.411479453569087980e-03
8.506848841442184173e-03
5.517478882186570462e-03
-2.728222283959628579e-03
-8.324404488681836842e-03
-9.628983071685151551e-03
-7.295311835722172525e-03
-1.831543497415586514e-03
-1.080306574346517673e-03
-1.149840817352104682e-03
2.899398910076483871e-03
8.047068714694877167e-03
1.368582775892125333e-02
1.216105064638851874e-02
5.407252392768480478e-03
-1.604450695513280753e-03
-7.415180302367908004e-03
-7.960150013813624761e-03
-4.030613700502772706e-03
-4.159901648679777998e-03
-6.608218067806796540e-03
-8.512422594629125844e-03
-4.969819582432956351e-03
-3.336823173623524024e-04
3.527987374789889885e-03
7.526842059991604300e-03
7.407657260964465099e-03
5.791291881258695852e-03
4.840836236122358915e-03
2.134818386963834805e-03
5.814745402237533282e-04
-2.800115305131316203e-04
-3.058072535585894865e-03
-5.793136971405852403e-03
-6.686119687701300336e-03
-7.454571215993591182e-03
-4.788547649026511123e-03
1.712299367552385905e-03
6.330536372372199370e-03
7.144899948045973885e-03
9.841470043971133758e-03
9.248816417078881830e-03
4.444921586150312430e-03
-2.765573290953914510e-03
-8.762152594213982321e-03
-1.161298083256388086e-02
-1.427571394528564033e-02
-1.177945620355812413e-02
-6.181351527075072683e-03
1.056426085103489643e-03
9.973719382002119854e-03
1.783154975830850142e-02
2.215823209387841539e-02
1.647642858017619658e-02
4.500035186364291506e-03
-6.566623462577648659e-03
-9.977527788193297012e-03
-6.289908174588001478e-03
-4.868703742527405280e-03
-9.677474516553683653e-03
-1.636619768462037675e-02
-1.836878150548447788e-02
-6.599710742514358977e-03
7.190636047013787210e-03
1.222060931530297503e-02
1.101788084364810349e-02
1.100746615796423071e-02
1.015094133036200004e-02
6.698646046525496070e-03
1.012387171540781805e-03
-1.538707400459719257e-03
-3.852494519302051158e-03
-5.188404712171757957e-03
-7.418949208130955382e-03
-9.379924908916235232e-03
-9.157002189665945299e-03
-4.848965399671374341e-03
4.513899170408456479e-03
7.063234364249530543e-03
6.316107150329110763e-03
7.590437479703381410e-03
1.083156334768049789e-02
7.714669576141192434e-03
2.249436070971838706e-03
-4.470274544607000765e-03
-8.762814223253409529e-03
-1.075680126090652368e-02
-1.285630623822003188e-02
-9.664416633736157627e-03
-2.325059444160826588e-03
4.678622915607772229e-03
1.023221898233280663e-02
1.276785654871509350e-02
7.052613033565243578e-03
-2.389235219997453818e-03
-6.314508301138985202e-03
-3.426121225971711249e-03
1.765262881865943198e-03
9.473764809341235493e-03
8.469451372896055416e-03
4.991101192818577035e-04
-7.946028682392563408e-03
-1.142129209190048678e-02
-9.184680686917169601e-03
-5.803768454018110381e-03
-1.237315980854381990e-03
2.600337886283706889e-03
4.122410943528645802e-03
6.792861993651139532e-03
8.743407473403890656e-03
6.277316283481607778e-03
1.952963862156963494e-03
-1.520894000290951139e-03
-2.810147320630481619e-03
-3.021334930818428497e-03
-5.699313236605876506e-03
-6.754930142536647551e-03
-2.704857378962934565e-03
-4.393544540126110166e-04
-5.943797330986409517e-04
4.121055351878361722e-03
7.403264325132889907e-03
2.469637386164397555e-03
-2.230959744093284191e-03
-3.317413741736721048e-03
-1.913128340740433261e-04
-3.800531692651998262e-04
-1.075040988962749347e-03
3.448030956224752821e-05
-1.200489597099538411e-04
-2.178744559754991472e-04
5.303464309573380740e-03
1.221731804249334870e-02
9.264304504755509206e-03
-3.205148200717724671e-04
-6.117626295340045095e-03
-8.971207167919839631e-03
-9.683522453220369183e-03
-5.341346658126932580e-03
-7.525979740587403818e-04
-1.577187095562871061e-03
-4.563541568549768848e-03
-1.980202066116459880e-03
2.352319442745009342e-03
1.593834639018816947e-03
1.282019478544544179e-03
5.280672588586568517e-03
7.527849657022342433e-03
8.048190832953125082e-03
6.690999237708297916e-03
2.518041877747193447e-03
-2.074672784258734404e-03
-5.319362624580341661e-03
-6.680410342205307835e-03
-7.610815334307572885e-03
-7.121985946766014493e-03
-4.222320591521733397e-03
9.921259058987280807e-05
3.328338567000472311e-03
5.541020183143965938e-03
6.346604502143187755e-03
7.324463956857558272e-03
3.628086471381350171e-03
-1.978811724884320129e-03
-4.005584448115765382e-03
-4.915381569615618479e-03
-7.190060706172617631e-03
-7.379430341219904085e-03
-3.274218437676943479e-03
2.124143238965793112e-03
3.804759101088426698e-03
5.425731594974973412e-03
1.214151697626600010e-02
1.183647309024445267e-02
4.579862640407180059e-03
-3.010524734172044439e-03
-6.605916363196408583e-03
-6.288422563031975318e-03
-2.111563585938250939e-03
-2.327248689509018535e-03
-8.269851708785479899e-03
-1.068837061030497235e-02
-5.003967884193234045e-03
1.972958581741293075e-03
5.005731382602260880e-03
6.677897722391687614e-03
7.922174996861416907e-03
5.569001944744967660e-03
5.460840113873074823e-03
3.372884859341460876e-03
-3.417983686757857919e-04
-3.652773310255135169e-03
-8.193138148640460167e-03
-1.178324452652802258e-02
-1.148430728051048205e-02
-2.534195324180316209e-03
6.998135670129046818e-03
1.131153012883985565e-02
9.001621037892313867e-03
6.259568849136212809e-03
5.425218581432634558e-03
3.767034554297926403e-03
6.575148675823300811e-04
-6.235501011351636709e-03
-1.087122420662814219e-02
-1.256286881908285150e-02
-1.078608958798786543e-02
-4.873636582448848467e-03
-5.800580973249981533e-04
3.339777137969646061e-03
7.036011193749456584e-03
1.245628053109404561e-02
1.723850607434885759e-02
1.242320025602345127e-02
3.212442058270511495e-03
-7.828171503470842795e-04
-7.345117903956417497e-03
-9.281442121056636060e-03
-4.849386424040044198e-03
-5.215669265962123019e-03
-8.807442262280893580e-03
-1.183276822147313195e-02
-6.753276104793183576e-03
9.259594383532190279e-04
4.699693229660076993e-03
5.286574690537658786e-03
5.117708303235316523e-03
4.960872625099000191e-03
4.665836621760606137e-03
2.691574129329122895e-03
3.724131627954585782e-03
4.020581452631912488e-03
8.657728755047738260e-04
-1.629501916892278244e-03
-3.512196943590147839e-03
-5.778154500176332399e-03
-5.789091701606116636e-03
-7.767602001629524393e-04
2.243611911418500523e-03
3.872324271400229886e-03
3.020656999994456200e-03
3.932795000784970393e-03
2.302922588838308190e-03
-2.210366148683224220e-03
-7.813701034676559520e-03
-9.358210723934539538e-03
-8.870109774872960220e-03
-4.721408525591191084e-03
1.496918072612195847e-03
5.424571181229305428e-03
6.942907767814003248e-03
1.123685837958287442e-02
1.429650788778286108e-02
9.023004537682632192e-03
9.530569702114000206e-04
-2.103907061296986496e-03
-5.612681073159079929e-03
-7.999171230428014576e-03
-7.040554626258395052e-03
-6.563154572930547485e-03
-7.122847204377545996e-03
-5.693515285606527698e-03
-2.227735974681223970e-03
1.101227256184982061e-03
3.399342632811216264e-03
3.207769908732573203e-03
1.844934214143892403e-03
2.017998450531420778e-03
5.519755742822762823e-03
8.180960382173516066e-03
5.048844727312618366e-03
4.516498316672163619e-04
-4.364125426908157211e-03
-5.588508016461249742e-03
-4.323671048449509446e-03
-3.225025681140833260e-03
-1.311194405588387213e-03
2.223032283953067876e-03
1.904628355255431416e-03
3.226182901502546840e-03
5.710390109203464931e-03
3.675338877301744921e-03
-1.821548456816623844e-04
-3.938411998923355660e-03
-6.287075972079577899e-03
-9.283433232162050658e-03
-7.204944574227329333e-03
-2.116790220704817174e-03
3.969956902252120851e-04
1.909805555628750788e-03
7.332872922328155518e-03
1.560405062523606209e-02
1.999266424406978895e-02
8.408500411762356158e-03
-8.361220816947054213e-03
-1.861274371670028002e-02
-1.535809500478634362e-02
-3.636495430543605547e-03
5.446810218290423777e-03
4.492817837736421543e-03
-1.185647670657183394e-03
-5.008486623492325839e-03
-4.624850969869899464e-03
-1.613817282318867749e-03
6.439797661844624821e-04
2.908084119619837489e-03
5.796180677172712604e-03
6.418278104403560801e-03
6.456689405974592316e-03
4.684484169557134002e-03
1.678061207245499034e-04
-3.156063302782626413e-03
-4.105964664661333058e-03
-5.932548585578240573e-03
-7.618472685675594692e-03
-6.776700461505248164e-03
-2.855931708539713367e-03
2.093424542358320994e-03
6.771779308320557793e-03
8.031624735095771808e-03
7.282355213905013398e-03
6.673631354767556659e-03
2.992455087852413046e-03
-1.805176168195440347e-03
-4.251454924225126115e-03
-6.532789052321480265e-03
-9.160677140181348183e-03
-7.306691599476259139e-03
-6.671635992112495001e-03
-5.636037691118326622e-03
-1.980179811481184212e-03
6.955333931032581067e-03
1.510618319277858002e-02
1.484969021228288617e-02
9.209335201797372999e-03
4.075325990697327427e-03
-1.247893356670064713e-03
-3.500435868224962502e-03
-3.385774122771421316e-03
-8.300439412281436155e-03
-1.217649745838122674e-02
-9.811668583077836833e-03
-2.506020294403476286e-03
2.705380457220350841e-03
5.106904563863651735e-03
7.247072002081906064e-03
6.540359154783301557e-03
3.805046861222485550e-03
6.616666137448017158e-04
-3.831769275107272093e-03
-6.779462839530365353e-03
-9.849669948186142582e-03
-9.367685514743104638e-03
-5.331676207788849965e-03
4.036115934459526527e-04
6.705526679373607565e-03
1.284417289251077454e-02
1.588747467025511048e-02
1.298424650891445709e-02
6.400396574650732417e-03
1.695582273817225353e-03
-4.496288245484936094e-05
-4.481182131232817369e-03
-1.255432745586047318e-02
-1.405961900647716492e-02
-1.219807778393254896e-02
-1.242876885872848912e-02
-9.954945558026919578e-03
-4.835849712113943905e-03
2.426638170912954421e-03
1.239830116772524041e-02
1.906672935507709027e-02
2.005063054956040397e-02
1.460740243656900687e-02
4.394487393386247928e-03
-4.235714990268967320e-03
-7.394705798836606787e-03
-6.387142677747230900e-03
-4.182100154361437921e-03
-6.767873776962694474e-03
-1.062423116444459470e-02
-1.034084928231154485e-02
-4.410267667730205163e-03
-2.637180979178815107e-04
2.660433061539241827e-03
6.345688347283027358e-03
8.539626385697336730e-03
6.861202866553663300e-03
4.587538630487981647e-03
3.930577210199320826e-03
2.317825332985564226e-04
-4.462154562507014352e-03
-8.879025290849933139e-03
-6.267062859913976290e-03
4.968047721538471507e-04
1.498404381987570319e-03
-8.381056911086987114e-04
1.227440471462688983e-03
3.505861457240023061e-03
5.745795621312533262e-03
6.292614300772852998e-03
5.141450615654897388e-03
-1.796356691478450003e-04
-6.212976014821910455e-03
-9.212276250612657508e-03
-8.648089944860827896e-03
-6.747796994067994068e-03
-3.765561188397990085e-03
-7.315285964488635589e-04
3.443001446365898024e-03
6.925398897456219727e-03
1.197715422058707145e-02
1.472971751172070902e-02
9.918055172303499867e-03
1.112053309645795332e-03
-5.832443468139835580e-03
-1.038775534893451521e-02
-8.488076819374325982e-03
-3.653491598664205479e-03
-3.926505531590320647e-03
-5.080150142522947727e-03
-4.653944479674421847e-03
-4.550910341423020089e-03
-1.584831515992508356e-03
3.352991624102143707e-03
4.822045466567248008e-03
6.092965652264246620e-03
5.248069843222668944e-03
7.376715876447394529e-03
7.477168549832759366e-03
4.337749702690726905e-03
-5.317296145530912409e-04
-4.880830304368077681e-03
-7.086944371056939050e-03
-7.828358291435591476e-03
-8.706440556016577584e-03
-4.766303200124489409e-03
-6.075282317211602598e-05
2.570738961375859926e-03
5.312751202166555303e-03
9.418521058857466655e-03
1.017081644591520152e-02
4.967083471754899643e-03
-1.644991075243614235e-03
-6.357700227875968946e-03
-9.999268913152262531e-03
-1.051167840452956435e-02
-7.221190736672871736e-03
7.729124989785974567e-05
5.167684650821732090e-03
5.481019102823283043e-03
8.044272651104463628e-03
1.177991715849553873e-02
9.797446771586296177e-03
3.742874138982073013e-03
-4.126305224102138139e-03
-9.403447383306447888e-03
-9.945463262454054890e-03
-7.692910816518426509e-03
-5.152608454799108458e-03
-3.105164929303228221e-03
-1.979195168678226334e-03
-6.357768009324694415e-04
2.097165421227203952e-03
4.515090741820422179e-03
5.992871026942817210e-03
5.295843481680350719e-03
4.233454053299814425e-03
4.296747092381667486e-03
3.756916527869252984e-03
4.128257980589996549e-04
-2.149268655028665174e-03
-2.637480683288142853e-03
-3.879327298270271885e-03
-5.644663467565815343e-03
-8.304042770584456681e-03
-7.334307872430756089e-03
-1.712571608325122235e-03
1.959529608341772141e-03
7.454832719870787758e-03
1.151845154795897927e-02
1.042242234991441752e-02
5.911652228401310764e-03
-3.038633683969325840e-03
-1.061075181711208446e-02
-1.314718600433580423e-02
-9.761193008321709247e-03
-5.695361342321348698e-03
-1.338660385570076715e-03
5.480123625074322102e-03
1.048516244816736706e-02
1.470019518930643088e-02
1.468395720428816026e-02
1.001311467545570530e-02
3.947625350627953934e-04
-6.992812486033622363e-03
-9.077120969459858899e-03
-7.481416684379538565e-03
-6.064765322928980171e-03
-6.635207097436668713e-03
-9.551525428776030252e-03
-1.005926992241769520e-02
-5.925176076688746379e-03
-3.476555456842754261e-04
6.877077379900469259e-03
1.124880652122616127e-02
1.071558192065449715e-02
8.708259335259302403e-03
7.413545016543079957e-03
5.782583650007350889e-03
3.190890952756670913e-03
-1.932110437187953928e-03
-7.213747239747029909e-03
-1.014433866112475144e-02
-9.594651504136969197e-03
-9.013607415412046645e-03
-6.353835293231814216e-03
1.302208213062787748e-04
7.759665301460320908e-03
1.110498780435332025e-02
9.915655399425054445e-03
8.200718929970346460e-03
3.851043385801500730e-03
-2.815308189711823814e-03
-6.914763114540375434e-03
-9.982126223622506817e-03
-1.157696569976407117e-02
-1.523576931733832199e-02
-1.321765565927948520e-02
1.128384627288830109e-03
1.534862494270081319e-02
2.457840639610197123e-02
2.497506730951704404e-02
1.371808246044436963e-02
-1.217713739161921166e-03
-7.761094056803728020e-03
-1.001825003273436321e-02
-1.039708485273654892e-02
-7.448756465789695830e-03
-5.462064877557744336e-03
-9.415113367776062336e-03
-1.123645121257920744e-02
-5.675701638784447223e-03
5.326177167899270957e-04
4.066050332244519963e-03
6.063918806872401965e-03
7.529665890241161660e-03
8.548701658749158216e-03
9.035101589783541692e-03
8.414789132829525800e-03
5.466827428287458074e-03
3.065889800139972535e-04
-3.626091970896312255e-03
-6.425211988416910935e-03
-6.673124634126869834e-03
-6.465778012986360401e-03
-4.537587156969853826e-03
-1.595938449458631425e-03
-7.760291287115595512e-04
2.277105205032578777e-03
4.604543254899519031e-03
2.184377919618057853e-03
-2.750827339239074291e-03
-4.773621446097527435e-03
-2.136677229890215825e-03
-1.206860094163732938e-03
-3.000235130596966260e-04
-6.560275975747863653e-05
9.311151601312998675e-04
2.999574071729082820e-03
4.254012335462092724e-03
9.771128893466310070e-03
1.466022997132660800e-02
9.721835303078713020e-03
2.522949393244143870e-03
-2.111763019187005725e-03
-8.026114818645884580e-03
-1.412755768218479369e-02
-1.268740477744707135e-02
-9.772213136172542072e-03
-1.196117270631788174e-02
-1.337760248222578247e-02
-7.295874729716472946e-03
6.058903496584840120e-03
1.872520833271874505e-02
2.123664487233490120e-02
1.572161323849024725e-02
9.323762201248187581e-03
1.520216065499481125e-04
-8.381363881606134630e-03
-1.030703134089154885e-02
-5.639242512734619558e-03
-5.224609035117909733e-04
-8.164188616469664119e-04
-2.935404180538689865e-03
-2.999422545326108774e-03
-1.885358745104821060e-04
3.410848727436219079e-03
9.748037113136824323e-04
-1.206346619076277939e-03
1.622012455810464826e-03
4.284729949112772024e-03
2.508928281815569258e-03
-2.347347608965206448e-03
-5.585446756623119180e-03
-3.592786198288908019e-03
-3.305309272717410918e-03
-2.526164951840951557e-03
7.635701654462409994e-04
2.603850393434560973e-03
4.192814314221445307e-03
6.851480666610705941e-03
1.080587539952141546e-02
5.732766920007886097e-03
-5.441140584244170530e-04
-3.251038593121706195e-03
-3.090948374378954533e-03
-3.329064901128015591e-03
-4.590834340685729861e-03
-7.291933863035945235e-03
-6.900534931008339701e-03
-4.920825117179819866e-03
-2.791709056452481002e-03
2.424338338710091769e-04
5.595163832213295892e-04
2.200516816388875356e-03
6.478631314239535754e-03
8.913034262055273549e-03
6.845646284518221852e-03
4.314311092885653523e-03
1.670787459483055954e-03
-7.595768930269539056e-04
-2.524682273090085149e-03
-5.026729396819443370e-03
-7.856685007031898038e-03
-7.723036380856746277e-03
-5.011087608983711555e-03
2.321010981173620303e-03
6.076590132781776663e-03
8.570914827503446631e-03
9.354890798636120164e-03
6.588433999358178118e-03
-5.163978866566801881e-04
-7.114630413996516148e-03
-9.285970272382584531e-03
-8.304293855904761046e-03
-8.500380148401567165e-03
-6.277278261954485732e-03
-2.016691940196614716e-03
2.355740924590593154e-03
6.719913060847611773e-03
1.580660540064900144e-02
1.813701362231421102e-02
1.120114146791043389e-02
1.007064255580532872e-03
-7.061912792807127290e-03
-9.909283887413968331e-03
-7.164881973165762065e-03
-3.608731944839696070e-03
-5.494219407892543365e-03
-7.415204426495717108e-03
-7.102020109642503964e-03
-2.370277127321098170e-03
7.861347904635684804e-04
1.765127734416286048e-03
3.664665623322462765e-03
6.096437937260756543e-03
5.171415839172304948e-03
5.236409268957213300e-03
5.589074864054555634e-03
4.896651892321571796e-03
2.719209094629775145e-03
-1.252623877002528125e-03
-6.736777989472714917e-03
-7.972591031934104025e-03
-7.449501183029021492e-03
-5.680753576022309903e-03
-2.423252504618631040e-03
1.490048053605623523e-03
7.046265181328547136e-03
1.079263802728392709e-02
8.800243145396584657e-03
2.459909635948024417e-03
-5.028235652441678631e-03
-8.501940954740957665e-03
-9.838955115530609308e-03
-8.038951485217833703e-03
-5.328619109531797411e-03
-2.983517875210174499e-04
3.853905959867725151e-03
9.237084962866407706e-03
1.609354792631728301e-02
1.608704993270649447e-02
7.110449194141209642e-03
-4.108412634133713076e-03
-7.178378889116389903e-03
-6.336542524542817731e-03
-4.712390342601187332e-03
-4.310551432777288972e-03
-6.455370015877817495e-03
-1.056255296004203308e-02
-1.139139441335558674e-02
-6.679729851889327878e-03
-8.179228226601958310e-04
4.442064964668790070e-03
9.966728351302236652e-03
1.449038387631976753e-02
1.185033506109183649e-02
8.978357534485784802e-03
4.225085657104568626e-03
4.805350640246597391e-04
-3.214846928604538686e-03
-6.627444319823275198e-03
-7.710748590427522753e-03
-7.326169596587240977e-03
-7.862026244924928686e-03
-7.125232025145472083e-03
-3.070197612290879226e-03
4.368121255219828761e-03
9.455042495924778981e-03
1.102644935890868989e-02
7.753086939404885657e-03
1.798502274561863479e-03
-3.929927565650615483e-03
-8.223269695472861657e-03
-8.366837011342649275e-03
-6.701863518710484899e-03
-4.675948028889667651e-03
-1.319707239467749925e-03
3.698241137072922572e-03
8.847701272227143088e-03
1.363494472215713918e-02
1.494263961605201384e-02
5.967956538419871143e-03
-4.388126429334282541e-03
-8.748940572337216004e-03
-7.654460030260819975e-03
-3.746646935261714172e-03
-1.297433385466655520e-03
-4.214464852176518818e-03
-6.879889066585666811e-03
-7.882558171000454694e-03
-6.055387969878640690e-03
-1.553118003841949145e-03
3.065839133071658184e-03
5.264455111453261033e-03
6.477295747952482169e-03
9.958514899427024086e-03
1.191912634174511348e-02
7.012059172550899958e-03
8.414561892496690790e-04
-3.462921370144203797e-03
-6.002390980009424115e-03
-5.217686239077303986e-03
-4.135281396678678820e-03
-4.102095170576247618e-03
-2.794374373914835803e-03
-7.738936938149951466e-04
-5.699862535205088131e-04
1.254943832787624785e-03
5.405666977357170833e-03
6.798449925672530626e-03
1.574957610411573160e-03
-6.342575203596677313e-03
-1.197234219629509690e-02
-1.187541306971485328e-02
-6.149395374830194869e-03
7.972618343074398210e-04
7.099992468956448609e-03
1.235963727053315114e-02
1.488905137726654476e-02
1.430595850103782291e-02
1.321747454798929619e-02
7.468244312156879956e-03
-2.242156314378406044e-03
-1.109647141834830056e-02
-1.364161810570111572e-02
-1.322296251146778956e-02
-1.067147091309415298e-02
-1.161403011056776069e-02
-1.441409633632047965e-02
-8.955408082122100558e-03
2.898384931472439922e-03
1.170952934356947472e-02
1.677043321068846446e-02
1.616288966313604233e-02
1.055357847131690313e-02
6.385049475645731415e-03
5.188286813875179343e-03
1.599829944843698818e-03
-2.440852014429466168e-03
-4.852234920463308412e-03
-7.060368654893614190e-03
-9.714679188626016218e-03
-1.344220945116456588e-02
-1.747049741734702302e-02
-1.123736054635961906e-02
2.865372276085265905e-03
1.481939422173551152e-02
1.917119137652543645e-02
1.593186747094577083e-02
8.733034716986984303e-03
-3.699087487414596306e-04
-8.612997307730119873e-03
-1.130315022607017786e-02
-1.097124753054472095e-02
-7.145791634559161588e-03
-2.759009616312335569e-03
2.568934616342505393e-03
3.986790150976042037e-03
6.673762087278385657e-03
1.195914975769144482e-02
1.458458579552764089e-02
8.973507923214860821e-03
1.303633998196271739e-03
-4.509268527083149132e-03
-6.329733240984822956e-03
-4.999859616369443926e-03
-5.234576381328988684e-03
-1.301312132297889612e-02
-1.695665034556802578e-02
-1.503378624241244466e-02
-1.030077196069730319e-02
-3.904467122919282399e-03
3.972474366555286268e-03
1.072043482754297603e-02
1.706622840749783335e-02
2.307433280253780652e-02
2.278209656520849974e-02
1.517190700286804098e-02
1.879506129341277027e-03
-8.983468730427653787e-03
-1.425730097376397797e-02
-1.296631273337751737e-02
-1.102649175262030400e-02
-1.130665214254383995e-02
-7.050804252193546354e-03
-7.881260403545858797e-04
6.048476657283672481e-03
7.782646499626722641e-03
9.598408221967880821e-03
8.615162459190264799e-03
1.207198074488478575e-03
-6.625118720317339782e-03
-1.039929085750325964e-02
-9.292829816383236033e-03
-7.524032705246336966e-03
-4.748319694294129110e-03
1.489480138771060455e-03
9.487789631223731215e-03
1.398879610542048610e-02
1.319105415943181217e-02
1.103703422428956374e-02
5.163642071137253611e-03
-2.252810077929710917e-03
-6.768963704744100987e-03
-7.300370434439438019e-03
-4.879978174143669196e-03
-3.248952676263377592e-03
-6.093773248142600463e-03
-6.505957834123042918e-03
-5.896726861790315896e-03
-5.146481292981161526e-03
-1.863393336751931759e-03
2.587556726804520184e-03
5.054696301479592174e-03
6.077413354602018147e-03
6.971458402841062413e-03
6.000213762976085857e-03
5.077242183216810686e-03
2.128969723995825184e-03
-6.700010039865790090e-04
-3.001793973404526684e-03
-5.031155819516110184e-03
-6.945719490471295027e-03
-4.986587560922827941e-03
-1.517582469944179667e-03
1.078917325202871343e-03
3.148445457609523341e-03
7.001139168205416582e-03
8.061687229824886225e-03
5.856695798165461112e-03
-8.658552730617054185e-04
-5.893635112660259093e-03
-7.753583026541007762e-03
-9.862007129077967824e-03
-1.060586910016350290e-02
-5.938922326357082976e-03
8.479016587337594602e-04
5.681229808390944776e-03
1.010716938247854801e-02
1.533535428139030585e-02
1.674443621912183322e-02
7.700532789980767817e-03
-3.038433628120005333e-03
-5.804381798130390721e-03
-7.549325557966984207e-03
-7.413172953086808251e-03
-6.167703475045413671e-03
-7.882324387536807780e-03
-8.777698892196983405e-03
-7.295140071512940839e-03
-2.575433432125106333e-03
1.258580103313744090e-03
5.616410875297957878e-03
1.009942134410294311e-02
9.432810454592387844e-03
6.879122945037501047e-03
4.461961742112167256e-03
2.807121599307995253e-03
1.445930123780334942e-03
-1.793099244505410748e-03
-4.523410070091642837e-03
-5.440024841434702198e-03
-6.907472762713371198e-03
-7.325677465866501682e-03
-4.637033407232418400e-03
-2.430157693083674717e-03
1.043700569544226070e-03
7.220404899571786564e-03
1.279274966520480179e-02
9.858549831552159901e-03
2.092126746809932613e-03
-3.648733079157080120e-03
-5.866572468976539480e-03
-7.506686668534210023e-03
-1.030957991001967347e-02
-7.486242424367958032e-03
-2.030020048597136733e-03
1.977891603919535325e-03
6.383658599949171460e-03
1.026003176800801067e-02
1.158371370342256394e-02
1.151030261704439304e-02
7.362164554642373730e-03
-2.172226675729032382e-03
-9.394053757859859369e-03
-7.343214114528945173e-03
-4.735850171464859454e-03
-7.792963873156727450e-03
-1.199164260791333453e-02
-8.012458705979830231e-03
-9.678824958949999637e-04
2.559905167674657919e-03
5.340711208039250479e-03
7.427337702263693379e-03
7.056025817168334359e-03
5.668066966075326757e-03
5.304715062065016098e-03
4.327144835928764359e-03
1.379860415467353560e-03
-2.778813771495115392e-03
-6.190379247250520599e-03
-7.981826440258759162e-03
-4.395146780031515890e-03
-2.670587356039038403e-03
-2.735389229928837217e-03
-4.089968490605846562e-04
4.049992975095695683e-03
7.467264821636853539e-03
7.565513196951857006e-03
6.931049320095585345e-03
2.028564103989586535e-03
-2.300215131970086754e-03
-6.107785766248407730e-03
-1.006453442491057199e-02
-9.657787184113836298e-03
-6.330438641629239187e-03
-3.821412242305804920e-03
-2.067376474244548689e-03
3.400660448360039428e-03
1.031133601433320557e-02
1.605629298577504124e-02
1.524712732967676426e-02
8.416417068769773552e-03
9.588941313353179039e-04
-5.551542824277447101e-03
-7.392754751872290635e-03
-4.473262877282824061e-03
-6.417577298664457579e-03
-1.195221896268781718e-02
-1.332155371309034012e-02
-6.508525118184886604e-03
-8.519455024578812940e-04
-5.939562274833601416e-04
2.428700915415642810e-03
8.472200035627411654e-03
1.215575298509352468e-02
1.221050072181484314e-02
1.100895963795311787e-02
7.996156895513409010e-03
-1.598690022312548506e-04
-5.985081077605258759e-03
-1.164044045875429687e-02
-1.472450252179442753e-02
-1.604991021074121324e-02
-8.501903246851389914e-03
4.650079214069232497e-03
1.295250215718468136e-02
1.295243472397375820e-02
1.124355917104106518e-02
8.440694238815382722e-03
2.078242877738738139e-03
-7.283974311543607236e-03
-1.269934949076617636e-02
-1.013730736653934913e-02
-6.261231734767731816e-03
-4.541051203260581051e-03
-2.659853355652796059e-03
2.753203016415815396e-03
8.032087808736309079e-03
1.376235027624116841e-02
1.379395120628467038e-02
7.145796796387735537e-03
-1.682301840654860372e-03
-5.903455428774324366e-03
-6.806691621795002770e-03
-7.487235938013529768e-03
-5.815126654950731992e-03
-4.496527528204725781e-03
-4.659426202746407703e-03
-3.410897991138555317e-03
-1.316680204265475605e-03
2.170286842908769262e-03
6.259954200747790652e-03
6.984628695195130299e-03
5.429635360201982321e-03
4.521452310418197680e-03
3.987096846979545396e-03
1.114364508181225248e-03
-7.037579817772549300e-04
-2.191561926178857422e-03
-7.121219325321712090e-03
-9.800119827716901461e-03
-7.584540720121220325e-03
-4.240713386491642631e-03
-3.360045174835631657e-05
3.075751344083803816e-03
4.318721340648043819e-03
6.855189733300986153e-03
9.372367921292269408e-03
9.283284603326547729e-03
3.487688399515941669e-03
-3.081036244875658050e-03
-6.758198869502074491e-03
-7.276032717093855635e-03
-8.364904748879790908e-03
-5.842374088932096067e-03
1.103594583602974600e-03
6.565067553223427957e-03
8.144425565988447357e-03
1.077624926913948664e-02
8.577554493701716049e-03
1.336757539526311914e-03
-7.917403270586608616e-03
-1.199031028664354452e-02
-1.248334479112702539e-02
-9.718594109583410592e-03
-2.739129016699402581e-03
7.674220261302399249e-04
3.227358081519207233e-03
6.639415123416138494e-03
9.050974396904446634e-03
6.833038504668363135e-03
1.076970349011550790e-03
-2.109462382022317308e-03
-2.899560699388309664e-03
3.135529106838366324e-05
3.097007612714275295e-03
3.600567361192092558e-03
2.027526485361105888e-03
-1.152970090733824874e-03
-1.819220782904072383e-03
-3.176076474653975312e-03
-5.066947725974296768e-03
-3.815527754192621530e-03
-1.987471925250607670e-03
7.667793518883845184e-04
2.523913179596419792e-03
5.189481993535651448e-03
5.492228929345807815e-03
9.312337917634619291e-04
-5.650833502845349632e-03
-9.429751051932316191e-03
-5.436968016555340788e-03
-4.690009337301812974e-04
-1.041883284985817672e-03
-2.567162764472713000e-03
-8.056197811192417025e-04
5.225309894056494667e-03
1.110986577877877760e-02
1.588291412666467672e-02
1.471015380477574963e-02
6.070454353093345662e-03
-1.513515557673687393e-03
-9.595428712502861862e-03
-1.208127969936188817e-02
-8.481206213576062899e-03
-5.873102592681617162e-03
-8.054380453819315333e-03
-8.667956521829632555e-03
-7.071328602955840627e-03
-2.240224206101940497e-03
1.724872562057150512e-03
5.651680386474918112e-03
9.477689481110137051e-03
1.024661405887440126e-02
8.652234343994201146e-03
5.973452622350081814e-03
3.456049515841572248e-03
2.615472939048589084e-03
-1.169292699204083899e-03
-4.458705952295033068e-03
-6.577825707495232356e-03
-7.776134914276382551e-03
-7.693585469125616139e-03
-3.065968131265384058e-03
9.864633999942878321e-04
1.640039815621866523e-03
3.858221119626836434e-03
6.806921359246021451e-03
3.696665236559474287e-03
-2.201187668554007142e-03
-5.189261136691370596e-03
-5.694431054111539700e-03
-3.711995732277928884e-03
-2.320847655380738409e-03
2.454513916875648068e-04
3.727168919170738542e-03
4.461585289888309221e-03
6.368402872817979787e-03
1.072907987416077576e-02
1.237925470158286571e-02
4.755923333786571741e-03
-4.370024492202191461e-03
-9.201778220093893498e-03
-1.001654994041473005e-02
-5.364928223046251318e-03
-1.210843112050160241e-03
-4.207292267634186143e-03
-8.721752348259595791e-03
-7.518800135381296414e-03
-3.974487216902210240e-03
4.233886472949641763e-04
4.533108174508830232e-03
9.066631926405513409e-03
1.229901196751589584e-02
9.747315324530013425e-03
4.839744880104645403e-03
3.634608313630770336e-04
-1.080094527322244874e-03
-3.024467305892527321e-03
-5.215448981633541078e-03
-5.283555183780081106e-03
-4.841434371096952141e-03
-3.832953164508047430e-03
-1.597751993895240750e-03
6.890999015857605676e-04
2.763842952628819873e-03
6.646399875454360798e-03
7.483760864241299944e-03
4.077351624848573816e-03
-2.796219179173237406e-03
-8.707247877570638978e-03
-8.167848868638678470e-03
-5.009984700728846788e-03
-3.233968268883506431e-03
-3.199370713165794640e-03
-8.690319054717391811e-04
3.028388792484136820e-03
6.501735226643553557e-03
1.254994912639141071e-02
1.481956612753394277e-02
1.027576041643484157e-02
3.944833450672357959e-03
-9.861742488620343135e-04
-4.978643233712425759e-03
-6.320394185403812974e-03
-9.495400509947744816e-03
-1.250016837824513734e-02
-1.278204449696789327e-02
-1.120182091883354693e-02
-1.005416763636940783e-02
-4.382684734607717077e-03
4.114950723982631689e-03
1.347135862092857517e-02
1.791408053446029783e-02
1.547092729139524885e-02
9.629133675434308967e-03
5.202855206253173548e-03
1.919185403031757825e-03
-4.054523274026439542e-03
-9.117734437521828397e-03
-1.000909310134500373e-02
-8.221077161373317732e-03
-5.565693911828069676e-03
-2.184015653524708830e-03
1.321455643549757997e-03
2.209413890354815831e-03
3.533324171798016798e-03
6.509874885202561988e-03
5.938950903761302906e-03
1.340628974031423401e-03
-2.130405768481728052e-03
-3.298282707612482101e-03
-4.355689249480973468e-03
-6.286625650232899321e-03
-6.426188562371338946e-03
-4.108522007820540958e-03
5.509009973985944889e-04
8.178107188651882742e-03
1.495066992508830954e-02
1.549733521116293186e-02
5.190823276708222099e-03
-5.043217768483579735e-03
-8.246138942834012331e-03
-7.821696211741026999e-03
-5.010476739725670293e-03
-3.761055710887765014e-03
-3.091979223114698066e-03
-3.648179006227349891e-03
-2.817230068824002481e-03
-7.266018425139168996e-05
4.698755305766476147e-03
6.153714517865993376e-03
4.164592751727346116e-03
1.368994680614985708e-03
-5.007837359929932005e-04
-3.066639828328033678e-03
-2.766249308049972388e-03
9.015132182313593612e-04
2.014671078493810840e-03
4.308945410381340244e-04
-3.522412851422887861e-04
-1.287048723798351170e-03
-1.826485368418163903e-03
-8.403759051580639294e-04
1.859075110469922019e-03
6.281792472414414463e-03
6.464463480671703982e-03
5.123496995750895754e-03
2.522086300846089132e-03
-1.386622720068396734e-03
-6.800015779707941840e-03
-1.039832672069180772e-02
-1.297128732438466991e-02
-1.407889574582371628e-02
-1.297304100437611518e-02
-3.725272550603258691e-03
1.285767672373198077e-02
2.586269675577522811e-02
2.493979242877813682e-02
1.708081842305926232e-02
5.259109323583525952e-03
-5.761907851574460393e-03
-1.261578306666846609e-02
-1.285369416371929044e-02
-7.210641902906744435e-03
-4.162485406399180424e-03
-8.007830749541361773e-03
-1.061778528303150906e-02
-6.385380362335443295e-03
2.584543891685914686e-03
7.536427460915226181e-03
8.617387916568557821e-03
8.303767596761926426e-03
6.811575133968425164e-03
4.069851102480981364e-03
9.334490136111656209e-04
-1.127706924326076421e-03
-3.847117818782708459e-03
-8.807774151467502588e-03
-1.118933671921109631e-02
-5.723562177922798637e-03
-2.808195794543808226e-04
2.737907347786879952e-03
5.782249356709031826e-03
1.019371734819021422e-02
1.040160268947452199e-02
5.364546505333235744e-03
1.623648626044579346e-03
1.100563782313292637e-03
-1.793588616289489100e-03
-8.246712086095729297e-03
-1.228957923878072449e-02
-1.085879668693541869e-02
-7.301534641861074856e-03
-3.134674675401087542e-03
2.105427088575612549e-03
7.196108291571035216e-03
1.059630940704014458e-02
1.288389634251514183e-02
1.141406592524571613e-02
4.747608926828315867e-03
-1.237850915156380556e-03
-4.627828812875559028e-03
-8.372683024499560922e-03
-9.744907994684085667e-03
-4.293944455843862716e-03
-1.858716758332382623e-03
-4.132321928555810799e-03
-5.424754234653068191e-03
-3.195758143887838208e-03
1.021469940040009051e-03
4.813572855234662939e-03
5.179601988888197714e-03
6.452924749141362298e-03
6.709608021421993237e-03
4.931236882516994678e-03
2.982857147004618330e-03
-4.930599130579776512e-04
-2.904799529656835761e-03
-4.728450804247664487e-03
-6.606059269055782057e-03
-7.664917236601933616e-03
-4.448512602823481189e-03
-8.355493329525339168e-04
1.875819483251962025e-03
5.880060423584351076e-03
9.231378001755765825e-03
9.961145531935181041e-03
6.382533420654583345e-03
-1.534515828055862561e-03
-6.819145887143911698e-03
-9.685813878657443393e-03
-1.096905887274797833e-02
-8.917017718228534978e-03
-4.990275727517599728e-03
2.547811468311957876e-04
4.719402684683901734e-03
1.116556710646791559e-02
1.653067082908471139e-02
1.467323002458919418e-02
4.158569137007097488e-03
-2.729830711333672884e-03
-5.459637243229600347e-03
-8.367831240164051027e-03
-6.912118829347370375e-03
-5.815125599293398742e-03
-7.610265680717959169e-03
-8.974522216668272268e-03
-6.984883566866317665e-03
-1.870497863846277758e-03
5.724025118826654886e-03
1.060613474005643597e-02
1.019366964142514112e-02
9.233167144828219319e-03
7.736581455303528573e-03
4.333417779390015198e-03
-8.307724772362871848e-04
-3.650282089693758416e-03
-5.820179244282269737e-03
-1.116925040001036026e-02
-1.375468520001063739e-02
-1.098406139709055818e-02
-2.245093236594800697e-03
8.188729900668257483e-03
1.145454847937918408e-02
9.044472907711646747e-03
8.677890042987010388e-03
9.800807989593063665e-03
6.331445274167281541e-03
-2.198139655896170271e-03
-1.048401664632107183e-02
-1.415773370402047780e-02
-1.420573877000807367e-02
-1.162581048444155489e-02
-4.528528045996630530e-03
3.923969209684977089e-03
9.783907631985236386e-03
1.304127575284682976e-02
1.624581172536240792e-02
1.382538831196918755e-02
5.518914985077420440e-03
-2.391922362292295875e-03
-7.595297736839938876e-03
-9.288985128601354863e-03
-4.804127951810462094e-03
-3.778632614066846935e-03
-7.544573258091264237e-03
-1.140925742030214629e-02
-1.106243230006691107e-02
-1.665661176942417670e-03
5.047176532619829757e-03
8.525897763784954717e-03
7.637470799183866156e-03
7.057378946778158912e-03
6.115330391413494049e-03
4.429034616711355690e-03
3.269674859384963123e-03
1.743637071187630798e-03
-1.071079976163585466e-03
-4.748582700660679973e-03
-6.137222720244180606e-03
-6.831583332736576586e-03
-7.828022301316189466e-03
-2.656103422478239395e-03
1.259142676876108752e-03
3.042247312679919376e-03
5.770530698140995812e-03
1.006262389357338513e-02
7.667974210969659421e-03
3.875959152359385960e-04
-5.722626820899572031e-03
-5.231781628626995528e-03
-3.096153789203711423e-03
-4.890788434943220409e-03
-7.347629906920102004e-03
-5.374981947510406102e-03
-1.367573540760427071e-03
4.403033201221153228e-03
8.139035002514871317e-03
1.197432799209750993e-02
9.936444701022386847e-03
6.413273395593875083e-03
1.206936463114795461e-03
-5.267324967777693365e-03
-6.169793621514041426e-03
-6.075708690297668829e-03
-8.756458148589808810e-03
-8.931290079156278469e-03
-5.690885351191067240e-03
-1.887702900363853352e-03
2.419994898397647472e-03
3.855633619244190884e-03
4.715726179004326932e-03
4.565549319705684145e-03
4.347829288154303473e-03
4.847694424434631152e-03
4.092346909665787319e-03
4.061800310918317961e-03
1.533597552384952491e-03
-2.759323955575311311e-03
-4.276931037468597110e-03
-4.280308775793040948e-03
-4.944725385963227166e-03
-4.932253025376183084e-03
-5.495521218268255639e-03
-8.802408960639914251e-03
-3.598728677275928305e-03
9.454121517752213724e-03
1.563394908497669350e-02
1.086867127704887678e-02
4.018958235094670720e-03
-1.282772506317590667e-03
-5.564040888657206980e-03
-8.626719563948490044e-03
-8.474681451803158655e-03
-4.208354636177673996e-03
6.226457099511794550e-04
5.347623530334275760e-03
9.737324134777985973e-03
8.210330429267692631e-03
3.419641098166470786e-03
-1.063462530116794256e-03
-4.554482030503269503e-03
-5.125485232190939155e-03
-3.409892475226976132e-03
-3.509670254021448298e-03
-4.597138999545374166e-03
-3.506111242509060266e-03
-9.882670961031895639e-04
2.403580876737149239e-03
3.868680323454473050e-03
3.539498475573745178e-03
2.032954998496180280e-03
2.732120933215319899e-03
2.777181336240108333e-03
9.946569888435524091e-04
-2.564747452811480619e-03
-4.646207247290192952e-03
-5.202921752032725264e-03
-1.906579339101279000e-03
1.456248718634657905e-03
1.235762489052602510e-03
1.238648307308961444e-03
1.737704067373416379e-03
1.757608119958094369e-03
4.108726281377428347e-03
5.621665528957921383e-03
5.694264941135938375e-03
9.548199959788586117e-04
-5.272460501767729443e-03
-8.760492518540245396e-03
-8.647360915769900652e-03
-8.044302156969268883e-03
-5.796439906599686401e-03
-2.132042635821828572e-03
1.026333841871234333e-03
6.005583974268930390e-03
1.205113493102858736e-02
1.562780373519379040e-02
1.164024185656385019e-02
4.271533956853822839e-03
-2.009413029933800488e-03
-7.621533837809884616e-03
-8.547003005086680275e-03
-5.774792739204557754e-03
-6.659124698721232555e-03
-8.428950126997160341e-03
-8.100064066833615600e-03
-4.457988254799560325e-03
1.327410814386045150e-03
6.303991475826685453e-03
8.625787907343900746e-03
1.028830426221785665e-02
9.031277223942084376e-03
6.113103428562175271e-03
2.949465667298102698e-03
-2.397748637631594553e-03
-1.018471274363448413e-02
-1.440729545203632903e-02
-1.088873432060516802e-02
-6.895745234322982024e-03
-2.071237171276855190e-03
3.317004125816272030e-03
9.281464075046973530e-03
1.366356641010604313e-02
1.578835827779194803e-02
1.173107190827262641e-02
5.305358854995849763e-03
-2.153271585378404174e-03
-1.131930033763467458e-02
-1.754129828161524532e-02
-1.769806808752856161e-02
-1.049727408386088613e-02
-4.866516915539801508e-03
-1.036717138813885017e-03
3.803353112775431557e-03
8.781987886371984270e-03
1.360599197644049574e-02
1.733187861294060647e-02
1.439572645637283294e-02
5.298201352572997486e-03
-2.621590126841002576e-03
-3.408830028843648236e-03
-3.458179512837110479e-03
-5.774544983864985520e-03
-6.594627047244765866e-03
-8.491626032526473217e-03
-1.319151170808964026e-02
-1.302327667679972073e-02
-7.706835334355644287e-03
-1.617589507782518079e-03
3.519889840602830836e-03
7.388615890058588750e-03
1.074958057636087386e-02
1.419769873483752234e-02
1.127577788098164772e-02
7.381650089722987737e-03
2.213680857572352962e-03
-1.531710348575933888e-03
-3.799838310953558302e-03
-5.488977013525094158e-03
-5.080685442777782036e-03
-5.187792538220760592e-03
-1.403229654487176672e-03
-2.953712022262884509e-04
-2.005942877677658557e-03
-1.772152158821242328e-03
-6.075177693827037238e-04
-3.016073225833896913e-03
-4.791467791537963421e-03
-2.944020642740198188e-03
2.609871489063460021e-03
3.847567524524345053e-03
1.565120107488225274e-03
-1.271285525761991868e-04
8.458850636042698507e-04
3.144928368952111877e-03
7.050264369830489680e-03
1.324414752079751574e-02
1.107000738694869854e-02
2.349857555269653075e-03
-5.158741015806019362e-03
-8.269972007410650652e-03
-7.737279411775955899e-03
-5.028446577693402447e-03
-5.207955563117271786e-03
-8.533289841960315161e-03
-9.839705739393155015e-03
-6.629376897814282313e-03
-1.521337061823852454e-03
2.769877611374504858e-03
7.688875622810775572e-03
9.359601019364054142e-03
8.942776781226185676e-03
9.415984165876670545e-03
7.628034895688065933e-03
3.906245880103198249e-03
-8.432745455200054471e-04
-5.742176040679219419e-03
-7.034029104578905234e-03
-7.689616843168158369e-03
-6.871282739286604414e-03
-5.878791740413610162e-03
-2.043550157874888824e-03
-2.077022706573125119e-05
4.229158699649634458e-03
9.092809552518940630e-03
9.740176972061455329e-03
4.529133911153615522e-03
-2.861196258244408808e-03
-6.331018527826330275e-03
-6.057826147075250078e-03
-5.444925646266446373e-03
-5.934287882656926610e-03
-2.888425575513677099e-03
9.793729676130099541e-04
4.452577471872630477e-03
9.335759061692506036e-03
1.435184825703294739e-02
1.056873224071899244e-02
3.227675776743150430e-03
-3.503139604782641667e-03
-8.191833280152356969e-03
-9.074684873567561566e-03
-5.414010676443735577e-03
-2.215884294164611069e-03
-4.271058075560157409e-03
-8.064830592121529154e-03
-7.883010620021937628e-03
-3.296321007850690210e-03
3.421658167899222034e-03
6.974406706317293550e-03
7.418755692224229294e-03
9.691969714452226478e-03
9.256065122028273723e-03
6.127547504667853195e-03
3.042694820631351802e-03
-1.408061137464075010e-03
-5.756684057522482197e-03
-8.092427205178718760e-03
-8.191146513596371873e-03
-7.356972497665630745e-03
-4.299027230965313251e-03
-7.766167989896640821e-04
3.822868739659396765e-04
4.584860740377510666e-03
1.204088397766961069e-02
1.196010223697659483e-02
6.658422082908050862e-03
-1.918889643394486300e-04
-7.070311209382409111e-03
-1.170652859054890915e-02
-1.428289456950855921e-02
-1.392495877305255023e-02
-6.262921867666653222e-03
5.729011432362434916e-03
1.264094372168932806e-02
1.662586908411015432e-02
1.812055475979968203e-02
1.081102805514147155e-02
-2.026360820055938736e-04
-6.786094692211857606e-03
-7.977300475773619823e-03
-6.458160313144732483e-03
-5.484469176412085090e-03
-5.513409782914717797e-03
-7.701921569077214633e-03
-5.966427678582754933e-03
-3.309888686037086494e-03
-1.909371255065810688e-03
1.145814032902583860e-03
5.142508090068827892e-03
4.812246896694320417e-03
6.489595281471242059e-03
8.566519440929247844e-03
6.516331441491997681e-03
2.193819593575026001e-03
-1.661733219130383200e-03
-4.326048560114388770e-03
-5.103949539447346154e-03
-4.241157513685265938e-03
-3.530498875768694079e-03
-2.035660702349572065e-03
-1.276145902092656664e-03
-3.700287609578461215e-05
4.259734351276882845e-03
8.232778675301290205e-03
1.017362641867407269e-02
6.540803066814625429e-03
-1.016177608283617756e-03
-7.634976565755225569e-03
-1.164427955472360256e-02
-1.440856951832200292e-02
-1.086871172424667964e-02
-5.111518720995576401e-03
-2.292713866530347085e-03
-2.581484639379812759e-04
7.999814746968272883e-03
1.937489139291352289e-02
2.307846585237747356e-02
1.726831996444022285e-02
8.137788748068697231e-03
-4.262055594202198566e-03
-1.181216819868626845e-02
-1.081426601535820028e-02
-1.081699975664106132e-02
-1.399558037552225964e-02
-1.345791457543978921e-02
-7.579755444950982829e-03
9.111376096628094005e-04
5.843693066173036299e-03
6.746453413128306216e-03
6.390532601239093217e-03
6.653156386687678753e-03
6.060764011122151546e-03
3.895995065054735657e-03
1.409004672150148416e-03
-1.087305143036593853e-03
-1.320142080742700346e-03
2.139262821964991849e-04
1.778076898590208064e-03
-9.733775756405859672e-04
-3.392954166404815383e-03
-4.957300896717231273e-03
-3.922191322034272731e-03
-6.610304310293903805e-05
4.700658321876760408e-03
3.893943504439035218e-03
-2.865398574811424490e-03
-6.651031578144989305e-03
-4.953031534581943049e-03
-1.684712386538617405e-03
1.334513044930370738e-04
-1.329976049405070604e-03
-1.690977190775665639e-03
1.860017440406882020e-03
8.263690311425495386e-03
1.365791306180358031e-02
1.351670583334831262e-02
7.541352744550279368e-03
-3.256385741904003605e-04
-4.780965308912395531e-03
-7.988897613957176777e-03
-9.182976664253862664e-03
-6.629256208858068031e-03
-6.154957602852456286e-03
-8.167974440492923108e-03
-7.805558863061196929e-03
-3.634689135152990771e-03
1.728550538297321569e-03
4.351617263238545877e-03
5.834922974734700271e-03
8.258363751059248983e-03
7.145213310017361694e-03
5.943614780615025586e-03
3.351287339148750852e-03
9.387895308313554208e-04
1.011400037121703470e-03
1.117659235792325999e-03
-2.131648626071221651e-03
-6.954348090158124843e-03
-8.680028055602594800e-03
-7.374980076842888553e-03
-3.720019085258569492e-03
-2.215105205880227562e-03
2.703488855068885473e-03
9.263871814407607236e-03
1.186328707677777698e-02
6.557219265901182564e-03
-1.161092721696666474e-03
-4.906188881055851235e-03
-6.402227086562505345e-03
-4.952967232680876263e-03
-5.985567101440017641e-03
-5.333893409085764536e-03
-4.040596681754634982e-03
1.406621615218577948e-03
1.083338845723791008e-02
1.534265363890235934e-02
1.227032901281161284e-02
3.970284367276442905e-03
-4.464811469688047089e-03
-6.563839832460873804e-03
-5.601420971405948919e-03
-4.359905379047662038e-03
-4.048568573508081088e-03
-5.209821701960994436e-03
-7.256453638947555837e-03
-4.809296194770138616e-03
-5.190915113016008383e-04
5.706427685647350772e-04
2.456020425009663912e-03
6.867956254462772615e-03
7.765614984628689890e-03
6.125486745936459601e-03
5.049242786768539000e-03
1.975715989611487224e-03
-3.354310198954658841e-04
-1.585447209604421955e-03
-4.697184113951714465e-03
-6.961855241794765933e-03
-5.376689258058311299e-03
-5.340639445396301761e-03
-2.038493517787026092e-03
1.552279354836306547e-03
5.950396901845083145e-03
9.674653746728597431e-03
1.046234080067011407e-02
4.200288349764099566e-03
-4.850864622911836566e-03
-8.021741070650876410e-03
-8.711143190023109412e-03
-6.362610639579021135e-03
-6.382814184436604553e-03
-6.563807575322831538e-03
-3.191320350730713230e-03
4.676686257971155065e-03
1.245751302723588187e-02
1.690631041083297606e-02
1.596359303556496925e-02
9.981446444046289043e-03
-2.487528816743648976e-04
-7.528975327623235216e-03
-1.135753682110153366e-02
-1.027969564463902460e-02
-9.041623450363659928e-03
-9.879937224283420055e-03
-9.310639738510068097e-03
-5.148277121415295934e-03
1.961621618659594671e-03
8.225626119892840218e-03
1.141764489523841748e-02
1.055778035229480716e-02
8.186302308689797150e-03
4.705705727143297962e-03
5.033150533712722876e-05
-7.692608455614034432e-03
-1.297856376570517487e-02
-1.150546963192499751e-02
-1.131602547539835085e-03
7.287789570317650123e-03
7.444849217795692850e-03
2.306548430105886515e-03
2.892678307589019449e-03
5.236059344519264185e-03
5.950172347398461660e-03
3.761338619653317294e-03
5.852919486499144185e-04
-3.651112492489856816e-03
-6.727813601514175297e-03
-9.921899681999257065e-03
-1.083118965600189491e-02
-9.629979681998976707e-03
-9.531494201249270451e-03
-4.742946949023952793e-03
4.109926945434874343e-03
1.256211137471494391e-02
1.946728417257065358e-02
2.057945162332818281e-02
1.297475619141861929e-02
2.227695837781823538e-03
-4.442966911534272992e-03
-5.784962111064060990e-03
-6.032393198496256367e-03
-7.711046956701529675e-03
-8.718395108013168165e-03
-1.131018001565702730e-02
-1.186751187389510631e-02
-8.829582855733706867e-03
-4.988447445714045553e-03
8.903616589615141481e-04
7.946158874938684044e-03
1.076084544998285111e-02
1.169785224362880280e-02
1.340759517093611207e-02
1.088029912696206712e-02
5.477894315500999103e-03
-1.016487624843777143e-03
-5.629411924563430987e-03
-6.780964760189681605e-03
-7.324537424839181084e-03
-7.821420791977201636e-03
-7.294543158956778850e-03
-4.901396901644451513e-03
-2.374202997749790076e-03
9.696474077584687492e-05
4.467967975887735844e-03
8.728076326937783680e-03
7.195000933377909691e-03
7.282405588530957517e-04
-5.111040821710467752e-03
-4.950526240699613251e-03
-4.446808371138428161e-03
-2.437649423734236133e-03
3.568303619721367639e-04
