-1.336932523932230811e-02
-1.536132181167440200e-02
-1.733914341329355693e-02
-1.930150649568146415e-02
-2.124722271530405174e-02
-2.317519232303359017e-02
-2.508439694073897469e-02
-2.697389192243800429e-02
-2.884279844278396163e-02
-3.069029546543342729e-02
-3.251561174288920830e-02
-3.431801803506069615e-02
-3.609681966164933475e-02
-3.785134945463924233e-02
-3.958096127501440492e-02
-4.128502424019548506e-02
-4.296291764977689526e-02
-4.461402661442896711e-02
-4.623773860862216700e-02
-4.783344079787551356e-02
-4.940051819965168151e-02
-5.093835275345454799e-02
-5.244632314151728009e-02
-5.392380534849006146e-02
-5.537017391304357300e-02
-5.678480383775460355e-02
-5.816707303654573835e-02
-5.951636522257680584e-02
-6.083207318848788542e-02
-6.211360233121622498e-02
-6.336037435680724750e-02
-6.457183108425823548e-02
-6.574743820723484566e-02
-6.688668893516894198e-02
-6.798910746762133750e-02
-6.905425219019678540e-02
-7.008171856238577802e-02
-7.107114154849228371e-02
-7.202219763246732465e-02
-7.293460639836353565e-02
-7.380813158542509633e-02
-7.464258168143936278e-02
-7.543781001795712982e-02
-7.619371431936242112e-02
-7.691023583917055984e-02
-7.758735809401701156e-02
-7.822510523614670253e-02
-7.882354007082784109e-02
-7.938276183096774907e-02
-7.990290374487866998e-02
-8.038413046708882403e-02
-8.082663549585017426e-02
-8.123063856934441274e-02
-8.159638309597773420e-02
-8.192413379981518251e-02
-8.221417461375010727e-02
-8.246680665924563391e-02
-8.268234666227063101e-02
-8.286112570659975862e-02
-8.300348831968790142e-02
-8.310979197161946774e-02
-8.318040697418727092e-02
-8.321571673471245267e-02
-8.321611847708697274e-02
-8.318202428041560070e-02
-8.311386244764350228e-02
-8.301207920731909495e-02
-8.287714065233184324e-02
-8.270953482379095334e-02
-8.250977394603299653e-02
-8.227839678906866128e-02
-8.201597098258592289e-02
-8.172309521019767431e-02
-8.140040131691274328e-02
-8.104855618207783274e-02
-8.066826326557981208e-02
-8.026026386429754855e-02
-7.982533787676067416e-02
-7.936430415916881365e-02
-7.887802040338165455e-02
-7.836738245068967934e-02
-7.783332301199623326e-02
-7.727680978235675069e-02
-7.669884305318006024e-02
-7.610045267002084335e-02
-7.548269445687799672e-02
-7.484664607840939288e-02
-7.419340241440959549e-02
-7.352407047327222389e-02
-7.283976389661114825e-02
-7.214159714202378337e-02
-7.143067940709475760e-02
-7.070810833058231715e-02
-6.997496363901131722e-02
-6.923230075201332323e-02
-6.848114440879486675e-02
-6.772248250096442324e-02
-6.695726011988721582e-02
-6.618637397818676049e-02
-6.541066716353630128e-02
-6.463092440268454475e-02
-6.384786791765552361e-02
-6.306215383182738055e-02
-6.227436923502723681e-02
-6.148502995429509094e-02
-6.069457911316385179e-02
-5.990338640591674063e-02
-5.911174819326455582e-02
-5.831988831072157375e-02
-5.752795976996266658e-02
-5.673604705850383151e-02
-5.594416923988276141e-02
-5.515228376106372232e-02
-5.436029088859667402e-02
-5.356803877650528206e-02
-5.277532892617468191e-02
-5.198192218995556502e-02
-5.118754520918702283e-02
-5.039189708249176142e-02
-4.959465632801721147e-02
-4.879548789114902113e-02
-4.799405030652275500e-02
-4.719000283228709514e-02
-4.638301248288258238e-02
-4.557276091921915601e-02
-4.475895100001894139e-02
-4.394131311995422284e-02
-4.311961113712683286e-02
-4.229364791622437086e-02
-4.146327029959619159e-02
-4.062837358706181123e-02
-3.978890549006752764e-02
-3.894486947937449844e-02
-3.809632746439398782e-02
-3.724340183806436333e-02
-3.638627698768238938e-02
-3.552520001264491273e-02
-3.466048090881199140e-02
-3.379249211042043705e-02
-3.292166738035598450e-02
-3.204850018333310624e-02
-3.117354146697894068e-02
-3.029739691746333174e-02
-2.942072376017365945e-02
-2.854422703711343226e-02
-2.766865553865827457e-02
-2.679479730927811568e-02
-2.592347488629524049e-02
-2.505554020948615873e-02
-2.419186928965787534e-02
-2.333335674050882047e-02
-2.248091010669403186e-02
-2.163544408245331174e-02
-2.079787472337288681e-02
-1.996911355916080807e-02
-1.915006181693933163e-02
-1.834160470036927393e-02
-1.754460565236048639e-02
-1.675990087382228308e-02
-1.598829398257001558e-02
-1.523055086591662728e-02
-1.448739475906113405e-02
-1.375950164577652464e-02
-1.304749587350175974e-02
-1.235194614070325714e-02
-1.167336187111287643e-02
-1.101218989413881889e-02
-1.036881153383030843e-02
-9.743540149296224875e-03
-9.136619075811621207e-03
-8.548220018057743272e-03
-7.978441939271756905e-03
-7.427310390585168710e-03
-6.894777332083013369e-03
-6.380721435235175813e-03
-5.884948923509905790e-03
-5.407194853113545668e-03
-4.947124910399367664e-03
-4.504337719879224558e-03
-4.078367525254962198e-03
-3.668687422147657879e-03
-3.274712984884842887e-03
-2.895806300100271357e-03
-2.531280400333675400e-03
-2.180404083481508968e-03
-1.842406949242878520e-03
-1.516484821644343076e-03
-1.201805410019312573e-03
-8.975140627224479761e-04
-6.027397540609000150e-04
-3.166011815148658684e-04
-3.821288310862198880e-05
2.333086541979515036e-04
4.988389187703212539e-04
7.592394107881433960e-04
1.015351865744595211e-03
1.267992637194781218e-03
1.517947322147848721e-03
1.765965709653043777e-03
2.012757099353967762e-03
2.258985957939095481e-03
2.505267959791803150e-03
2.752166521028986349e-03
3.000189722110558309e-03
3.249787790235860330e-03
3.501351044076136173e-03
3.755208344682834255e-03
4.011626007723626333e-03
4.270807214451499689e-03
4.532891952706032818e-03
4.797957434378418047e-03
5.066018952635574848e-03
5.337031117768438991e-03
5.610889552388624406e-03
5.887432935315350079e-03
6.166445416530699254e-03
6.447659268120232295e-03
6.730757857051265433e-03
7.015378822398134900e-03
7.301117436696750139e-03
7.587530145235000557e-03
7.874138178809886313e-03
8.160431310853262510e-03
8.445871586957188343e-03
8.729897140511930567e-03
9.011925973812617841e-03
9.291359705104427005e-03
9.567587354658709312e-03
9.839988957612254283e-03
1.010793914627516714e-02
1.037081072076287934e-02
1.062797806787057694e-02
1.087882050018648510e-02
1.112272559246673537e-02
1.135909238478857372e-02
1.158733450478942155e-02
1.180688322422962511e-02
1.201719055619939087e-02
1.221773222389609115e-02
1.240801059837253958e-02
1.258755759599947989e-02
1.275593757206934867e-02
1.291275011314164944e-02
1.305763292804648125e-02
1.319026457266586974e-02
1.331036719710654986e-02
1.341770913208662278e-02
1.351210747995311955e-02
1.359343056345375771e-02
1.366160022940929829e-02
1.371659396256868710e-02
1.375844680374704171e-02
1.378725302270498478e-02
1.380316754432426261e-02
1.380640695024828481e-02
1.379725017431415561e-02
1.377603878744941557e-02
1.374317677343844801e-02
1.369912986648009513e-02
1.364442428963899903e-02
1.357964497087113878e-02
1.350543317525335074e-02
1.342248350196353739e-02
1.333154028548289363e-02
1.323339334500238385e-02
1.312887314334649017e-02
1.301884526142588899e-02
1.290420433296995614e-02
1.278586744375248378e-02
1.266476707593229556e-02
1.254184351502449918e-02
1.241803694739405592e-02
1.229427920792621094e-02
1.217148532194973175e-02
1.205054491516372936e-02
1.193231358669047046e-02
1.181760438138968611e-02
1.170717942694691864e-02
1.160174187085343152e-02
1.150192819371950552e-02
1.140830114063191673e-02
1.132134315297664978e-02
1.124145063148432842e-02
1.116892895774634215e-02
1.110398840925042041e-02
1.104674114654467625e-02
1.099719920200842305e-02
1.095527360420321498e-02
1.092077473798828621e-02
1.089341379374085886e-02
1.087280542559330640e-02
1.085847161025265545e-02
1.084984667592618461e-02
1.084628342821220177e-02
1.084706034513423061e-02
1.085138979602437784e-02
1.085842717962557692e-02
1.086728071365092134e-02
1.087702202510381147e-02
1.088669730718070175e-02
1.089533875619810334e-02
1.090197635854429220e-02
1.090564970535335722e-02
1.090541979655508531e-02
1.090038063030319970e-02
1.088967039660230889e-02
1.087248215207647049e-02
1.084807380572192642e-02
1.081577722367871135e-02
1.077500652600179090e-02
1.072526521490856956e-02
1.066615216897009825e-02
1.059736638125256293e-02
1.051871037496957158e-02
1.043009224957669803e-02
1.033152635081262781e-02
1.022313254802981533e-02
1.010513409627438255e-02
9.977854187129970784e-03
9.841711220132061400e-03
9.697212789574367886e-03
9.544948595674040623e-03
9.385582331151210572e-03
9.219842651541639011e-03
9.048513413970581121e-03
8.872423292121541308e-03
8.692435003487037140e-03
8.509434134833333482e-03
8.324317945772432073e-03
8.137984229387764876e-03
7.951320340808181591e-03
7.765192606269281060e-03
7.580436271064612021e-03
7.397846125885774483e-03
7.218167897375647041e-03
7.042090627155750057e-03
6.870239993610225554e-03
6.703172752580509493e-03
6.541372384197774448e-03
6.385245910625769565e-03
6.235121987391798251e-03
6.091250144304441970e-03
5.953801251218155538e-03
5.822869217462862436e-03
5.698473758207387406e-03
5.580564218397816856e-03
5.469024359935389067e-03
5.363677975868015591e-03
5.264295206649659623e-03
5.170599434192712715e-03
5.082274643449952514e-03
4.998973109446355062e-03
4.920323192965684114e-03
4.845937167553516882e-03
4.775418915516904499e-03
4.708371344971751943e-03
4.644403381235008912e-03
4.583136440480374205e-03
4.524210306211399850e-03
4.467288173705218426e-03
4.412060883939437905e-03
4.358250410212588001e-03
4.305612302992832541e-03
4.253937161603588320e-03
4.203051213805417997e-03
4.152815907910977974e-03
4.103126603006685726e-03
4.053910374235486329e-03
4.005122987299917885e-03
3.956745181497701644e-03
3.908778333023645024e-03
3.861239567274517542e-03
3.814156456214979826e-03
3.767561477069776045e-03
3.721486259174869044e-03
3.675955840362165987e-03
3.630983025971831410e-03
3.586563018987535146e-03
3.542668349877239279e-03
3.499244358411257583e-03
3.456205209991206669e-03
3.413430610013820990e-03
3.370763297022616716e-03
3.328007358197120416e-03
3.284927426129886571e-03
3.241248797748045533e-03
3.196658467267269373e-03
3.150807101518812714e-03
3.103311961535733503e-03
3.053760664253109096e-03
3.001715718308652428e-03
2.946719802500795404e-03
2.888301793637897390e-03
2.825983217558839227e-03
2.759285225365860298e-03
2.687735821606763217e-03
2.610877364474678032e-03
2.528274074352010719e-03
2.439519481980842192e-03
2.344243654524032390e-03
2.242120094232749432e-03
2.132872139371386894e-03
2.016278844220321508e-03
1.892180110232243506e-03
1.760481042732864061e-03
1.621155449597522832e-03
1.474248393410444681e-03
1.319877718882606988e-03
1.158234582230298218e-03
9.895829751413566869e-04
8.142581034874745534e-04
6.326638320115709644e-04
4.452690787613223155e-04
2.526033372022603164e-04
5.525127575626412649e-05
-1.461534126819689146e-04
-3.509348632902468089e-04
-5.583824699694609796e-04
-7.677587954859877405e-04
-9.783077787918585677e-04
-1.189263217853840518e-03
-1.399857227072989112e-03
-1.609328761728985591e-03
-1.816931882195156481e-03
-2.021943728517000636e-03
-2.223672085534399330e-03
-2.421462420683689366e-03
-2.614704207818877805e-03
-2.802836667277850986e-03
-2.985353601305024487e-03
-3.161807447757883707e-03
-3.331812350094408293e-03
-3.495046372475448838e-03
-3.651252762538588058e-03
-3.800240276710267415e-03
-3.941882593316659543e-03
-4.076116835142471091e-03
-4.202941248627739025e-03
-4.322412163674550778e-03
-4.434640229082454504e-03
-4.539786004443891083e-03
-4.638055107825289798e-03
-4.729692892682748652e-03
-4.814978805936413232e-03
-4.894220538489623025e-03
-4.967748080472376287e-03
-5.035907666361551932e-03
-5.099055933957273405e-03
-5.157554227097327880e-03
-5.211763164020684520e-03
-5.262037547426620318e-03
-5.308721720378679204e-03
-5.352145365745844194e-03
-5.392619834461038000e-03
-5.430435053645125618e-03
-5.465856971770853730e-03
-5.499125624465776505e-03
-5.530453756689878569e-03
-5.560026012479323161e-03
-5.587998710016431336e-03
-5.614500065509575762e-03
-5.639630921903692785e-03
-5.663465851560073663e-03
-5.686054623391519243e-03
-5.707423939825971050e-03
-5.727579408073254011e-03
-5.746507638306214832e-03
-5.764178510931871474e-03
-5.780547390133648072e-03
-5.795557335275003732e-03
-5.809141219555978737e-03
-5.821223683321919383e-03
-5.831722952015782301e-03
-5.840552403827367102e-03
-5.847621904568078323e-03
-5.852838917140874495e-03
-5.856109344207417744e-03
-5.857338113055564170e-03
-5.856429550133587791e-03
-5.853287535763836494e-03
-5.847815447668482276e-03
-5.839915998853739514e-03
-5.829491019538717879e-03
-5.816441131133364903e-03
-5.800665506339472074e-03
-5.782061664438054721e-03
-5.760525387033911711e-03
-5.735950801332781457e-03
-5.708230751075921844e-03
-5.677257383137315067e-03
-5.642923109670320778e-03
-5.605121888597398155e-03
-5.563750794514872415e-03
-5.518712091008406810e-03
-5.469915628944967828e-03
-5.417281611180665458e-03
-5.360743737333782850e-03
-5.300252647634845146e-03
-5.235779649937797459e-03
-5.167320546443063094e-03
-5.094899686068476291e-03
-5.018574065088021383e-03
-4.938437361958832213e-03
-4.854623863686070330e-03
-4.767312122594245631e-03
-4.676728324635706993e-03
-4.583149184853225512e-03
-4.486904260189664845e-03
-4.388377666926806045e-03
-4.288009028141573017e-03
-4.186293611578384942e-03
-4.083781517470744075e-03
-3.981075914772409449e-03
-3.878830242372111742e-03
-3.777744386351299024e-03
-3.678559680477861641e-03
-3.582052879084672310e-03
-3.489029144615136101e-03
-3.400313883795152373e-03
-3.316743768637217277e-03
-3.239156766417056101e-03
-3.168381479218700808e-03
-3.105225772303767031e-03
-3.050464922707633083e-03
-3.004829415031705277e-03
-2.968992510197814710e-03
-2.943557852887720375e-03
-2.929047169872468683e-03
-2.925888459984513773e-03
-2.934404644867397161e-03
-2.954803061875165351e-03
-2.987165902686591667e-03
-3.031441798993801846e-03
-3.087438703256029440e-03
-3.154818310973010569e-03
-3.233092123653212580e-03
-3.321619303865780241e-03
-3.419606406489151748e-03
-3.526109048319291204e-03
-3.640035688268072975e-03
-3.760153353855535605e-03
-3.885095551251434125e-03
-4.013372128122293450e-03
-4.143381115954840148e-03
-4.273422491014642818e-03
-4.401713604630166921e-03
-4.526406332111061054e-03
-4.645605599148941965e-03
-4.757389118176295027e-03
-4.859828183017660987e-03
-4.951009173082451288e-03
-5.029055568105570556e-03
-5.092150187284169224e-03
-5.138557356816453314e-03
-5.166644682863873704e-03
-5.174904218903389475e-03
-5.161972688106752048e-03
-5.126650448068748728e-03
-5.067918968768053874e-03
-4.984956533612779420e-03
-4.877151993412788371e-03
-4.744116269807471115e-03
-4.585691471980011744e-03
-4.401957487645860936e-03
-4.193235854204053863e-03
-3.960090896029287537e-03
-3.703328073462770677e-03
-3.423989371287960992e-03
-3.123345968613539664e-03
-2.802888122840759607e-03
-2.464312407856654018e-03
-2.109506448026519671e-03
-1.740531204254075698e-03
-1.359601182344581270e-03
-9.690627030374176967e-04
-5.713705009419359085e-04
-1.690628890796926141e-04
2.352640410149489539e-04
6.389830417243813057e-04
1.039462751168769008e-03
1.434094870278258219e-03
1.820321022049913506e-03
2.195659034128028073e-03
2.557728339124838018e-03
2.904274124352827172e-03
3.233189922386535235e-03
3.542538419970140719e-03
3.830570180575820945e-03
4.095740001154065182e-03
4.336720878656915960e-03
4.552415224910679251e-03
4.741963394522402675e-03
4.904749274903858272e-03
5.040402960778556790e-03
5.148800476772048308e-03
5.230060688170132775e-03
5.284539291990329908e-03
5.312820091359113199e-03
5.315703735720650816e-03
5.294194039115571356e-03
5.249482114516606894e-03
5.182928517410122400e-03
5.096043713398879654e-03
4.990467172398331888e-03
4.867945275290420926e-03
4.730308461274126443e-03
4.579447887672870483e-03
4.417291894439707468e-03
4.245782631002860234e-03
4.066853117973336443e-03
3.882405125620172915e-03
3.694288079701013149e-03
3.504279242390576695e-03
3.314065522819121049e-03
3.125226983727944635e-03
2.939222395593772165e-03
2.757376895454321120e-03
2.580871861905014147e-03
2.410737168089684135e-03
2.247845849434013631e-03
2.092911167551351082e-03
1.946486075607080585e-03
1.808965046193017562e-03
1.680588239736422991e-03
1.561447709218346039e-03
1.451495627461271871e-03
1.350554422860069780e-03
1.258328489332158741e-03
1.174417248908833297e-03
1.098329469720085196e-03
1.029498464312066227e-03
9.672979552611757088e-04
9.110583259766156725e-04
8.600829629536160120e-04
8.136645062875440823e-04
7.711006591254933751e-04
7.317093286164556452e-04
6.948429329643600501e-04
6.599015750404383989e-04
6.263448387558744664e-04
5.937022277822572372e-04
5.615819199775910851e-04
5.296777690549736659e-04
4.977745082445666396e-04
4.657510089113394195e-04
4.335816340432209698e-04
4.013357151221654288e-04
3.691750840934826809e-04
3.373497917970059165e-04
3.061921255487195311e-04
2.761089509835949383e-04
2.475726355485973590e-04
2.211106389406780647e-04
1.972939781910063549e-04
1.767247723982459326e-04
1.600231161099203937e-04
1.478134759406927025e-04
1.407107480946243874e-04
1.393063769878825182e-04
1.441547573953016841e-04
1.557600210493082513e-04
1.745634924345446678e-04
2.009320544516132690e-04
2.351475405136224162e-04
2.773974964551289332e-04
3.277672499504320639e-04
3.862336241190948249e-04
4.526602720545109377e-04
5.267947790909567043e-04
6.082676031891702789e-04
6.965928042569551970e-04
7.911707255239997134e-04
8.912924858828283467e-04
9.961462224953919562e-04
1.104825032865739461e-03
1.216336518408573817e-03
1.329613831406469167e-03
1.443528028556610547e-03
1.556901559279670394e-03
1.668522735724664975e-03
1.777160969780323604e-03
1.881582593554355538e-03
1.980566953090279452e-03
2.072922608000949980e-03
2.157503474533089324e-03
2.233224496127256264e-03
2.299076856285584697e-03
2.354142301851256270e-03
2.397606520566076833e-03
2.428771272738074020e-03
2.447065160786723783e-03
2.452052890674218544e-03
2.443442835999216130e-03
2.421092786238399162e-03
2.385013861034307285e-03
2.335372437650145780e-03
2.272490060410033152e-03
2.196841420948320630e-03
2.109050292829066885e-03
2.009883573430240426e-03
1.900243326841377124e-03
1.781157075495428278e-03
1.653766475040127767e-03
1.519314374326863684e-03
1.379130489911086855e-03
1.234615901142523771e-03
1.087226537150985965e-03
9.384558223620572889e-04
7.898167671831397580e-04
6.428236682888722065e-04
4.989737690085538791e-04
3.597288853546914381e-04
2.264974852469917954e-04
1.006173235020925752e-04
-1.666114209989222550e-05
-1.241902645075155696e-04
-2.209396338198643976e-04
-3.060089931457918712e-04
-3.786395736555396878e-04
-4.382237344253309976e-04
-4.843127395438815179e-04
-5.166225991220717252e-04
-5.350378561578419219e-04
-5.396132712154422337e-04
-5.305734001531185436e-04
-5.083100113493153578e-04
-4.733774906098760530e-04
-4.264861444732116692e-04
-3.684935919300378194e-04
-3.003942170828644855e-04
-2.233070284305397777e-04
-1.384618841955154850e-04
-4.718432814932973151e-05
4.912079424116063688e-05
1.489866530502729157e-04
2.509025170922986716e-04
3.533324277133235102e-04
4.547340514977611203e-04
5.535776618292522931e-04
6.483648906067129587e-04
7.376469915584416958e-04
8.200424267038997463e-04
8.942535475725082962e-04
9.590821086703950468e-04
1.013443459206881878e-03
1.056379147165539822e-03
1.087067825158265439e-03
1.104834315965494938e-03
1.109156708038787353e-03
1.099671389044125673e-03
1.076175949111358911e-03
1.038629927080458957e-03
9.871534055034309092e-04
9.220234662206762194e-04
8.436685543936406958e-04
7.526608504613878847e-04
6.497068343473915266e-04
5.356360561007593793e-04
4.113883192145306213e-04
2.779995718480591052e-04
1.365866447150138074e-04
-1.166898147736927761e-05
-1.655380280227576573e-04
-3.237606822680687865e-04
-4.850640813853287093e-04
-6.481796365347308785e-04
-8.118599549666060712e-04
-9.748951488084456373e-04
-1.136128266666879038e-03
-1.294469564931690318e-03
-1.448909474233251804e-03
-1.598529979870226634e-03
-1.742514300654967414e-03
-1.880154717216500149e-03
-2.010858426124557865e-03
-2.134151293545537634e-03
-2.249679497450392165e-03
-2.357209104048231703e-03
-2.456623499038410215e-03
-2.547918761315394118e-03
-2.631197140459378553e-03
-2.706658687919221828e-03
-2.774591238810675525e-03
-2.835358943810672907e-03
-2.889389578216994704e-03
-2.937160823958122943e-03
-2.979185873330902901e-03
-3.015998551841532743e-03
-3.048138272721771964e-03
-3.076135238209671847e-03
-3.100495986216327340e-03
-3.121689707982988615e-03
-3.140135577976169157e-03
-3.156191427628396700e-03
-3.170143885038376620e-03
-3.182200372441068049e-03
-3.192482978304187185e-03
-3.201024445410136955e-03
-3.207766412758280162e-03
-3.212559950196355006e-03
-3.215168460266655103e-03
-3.215272853634258254e-03
-3.212478980122690422e-03
-3.206327273455121529e-03
-3.196304346515876395e-03
-3.181856453902333522e-03
-3.162404493142049067e-03
-3.137360292422033264e-03
-3.106143937614386751e-03
-3.068201688673863597e-03
-3.023024256502171957e-03
-2.970164975659366630e-03
-2.909257516036592526e-03
-2.840032726601137911e-03
-2.762334230036721846e-03
-2.676132447313324305e-03
-2.581536636816054477e-03
-2.478804621557775551e-03
-2.368349908228361937e-03
-2.250746039216849903e-03
-2.126727856549060977e-03
-1.997189564976780980e-03
-1.863179522228881630e-03
-1.725891725569541095e-03
-1.586653884594825710e-03
-1.446912403515515774e-03
-1.308214254696005207e-03
-1.172186014081914428e-03
-1.040510383469157168e-03
-9.149004515924449290e-04
-7.970721580781638550e-04
-6.887154194656529759e-04
-5.914643308497748641e-04
-5.068669948962956865e-04
-4.363556047977032166e-04
-3.812172318903235589e-04
-3.425658984103442444e-04
-3.213165777037831788e-04
-3.181616172412169785e-04
-3.335501126486267579e-04
-3.676707302533951428e-04
-4.204384142751296381e-04
-4.914853889250272220e-04
-5.801566952649378191e-04
-6.855106881718014055e-04
-8.063244070759184113e-04
-9.411041682563153548e-04
-1.088101118274771443e-03
-1.245331887164867739e-03
-1.410603982934776398e-03
-1.581545715253909658e-03
-1.755640206847739393e-03
-1.930263091962736459e-03
-2.102723349510122585e-03
-2.270306652755474820e-03
-2.430320446346504598e-03
-2.580140228499349080e-03
-2.717256039505262268e-03
-2.839318461899597527e-03
-2.944183329460965844e-03
-3.029954207352494183e-03
-3.095021948232668484e-03
-3.138100516171277599e-03
-3.158258295162634944e-03
-3.154944206024584783e-03
-3.128008094044681595e-03
-3.077714828661654977e-03
-3.004751584451263377e-03
-2.910228161370196666e-03
-2.795670071679682688e-03
-2.663004305643223903e-03
-2.514537798433558700e-03
-2.352928863939139636e-03
-2.181151812915037031e-03
-2.002455265594798965e-03
-1.820314672781256447e-03
-1.638379756686022572e-03
-1.460417667712875754e-03
-1.290252658684163832e-03
-1.131703361467675849e-03
-9.885185815377767801e-04
-8.643128410929146101e-04
-7.625025908281547098e-04
-6.862444139702462368e-04
-6.383761744461571332e-04
-6.213623005373857542e-04
-6.372442244843766436e-04
-6.875969725338281630e-04
-7.734927476720502215e-04
-8.954723606938697587e-04
-1.053525124801093973e-03
-1.247077724666368660e-03
-1.474992504088755820e-03
-1.735575341726651585e-03
-2.026593192924269586e-03
-2.345301190747093624e-03
-2.688479019957638969e-03
-3.052476135365999373e-03
-3.433265076993300205e-03
-3.826502338534147618e-03
-4.227595653010853514e-03
-4.631776709241014651e-03
-5.034178140965036782e-03
-5.429913519152315508e-03
-5.814158961913577263e-03
-6.182235039419454146e-03
-6.529687439795388640e-03
-6.852365032138364905e-03
-7.146493887036286727e-03
-7.408745809037923895e-03
-7.636300309978601326e-03
-7.826898578763463038e-03
-7.978888507131938826e-03
-8.091259777264412506e-03
-8.163668269961229379e-03
-8.196449208671831299e-03
-8.190618621619589340e-03
-8.147862874545538925e-03
-8.070516378340254759e-03
-7.961527607379378924e-03
-7.824413924655913150e-03
-7.663205818821739769e-03
-7.482381412220632383e-03
-7.286792214117276262e-03
-7.081581383810978646e-03
-6.872095790796290370e-03
-6.663793388496873880e-03
-6.462147511947588172e-03
-6.272549620589534282e-03
-6.100212339784126872e-03
-5.950074450801872035e-03
-5.826709561673220315e-03
-5.734240021682732689e-03
-5.676257806365075931e-03
-5.655753759630666004e-03
-5.675056523928517262e-03
-5.735782408110240080e-03
-5.838797072430706135e-03
-5.984189919437967603e-03
-6.171261724286378203e-03
-6.398525825967664449e-03
-6.663722945087529465e-03
-6.963849435668014072e-03
-7.295198611486123155e-03
-7.653414545248588344e-03
-8.033557332529840667e-03
-8.430178761391156697e-03
-8.837407149257249170e-03
-9.249039721833472033e-03
-9.658641006477135596e-03
-1.005964545819507984e-02
-1.044546247181793799e-02
-1.080958184155161005e-02
-1.114567775779902459e-02
-1.144770949804409244e-02
-1.171001685712030720e-02
-1.192740865451805479e-02
-1.209524254369506897e-02
-1.220949481653820640e-02
-1.226681875526140775e-02
-1.226459046358991875e-02
-1.220094135661685224e-02
-1.207477678721896944e-02
-1.188578031293464551e-02
-1.163440363624485691e-02
-1.132184249366946158e-02
-1.094999884347602759e-02
-1.052143023271236155e-02
-1.003928734247881531e-02
-9.507240950092058981e-03
-8.929399836996308390e-03
-8.310221234681549815e-03
-7.654415660782841989e-03
-6.966848095030123839e-03
-6.252437471459117851e-03
-5.516056600795668508e-03
-4.762434518336516355e-03
-3.996063378106251389e-03
-3.221111657451371582e-03
-2.441345629798859045e-03
-1.660060769225897050e-03
-8.800244447661268983e-04
-1.034310933146226097e-04
6.681289693239263932e-04
1.433686614407764237e-03
2.192896383640078207e-03
2.946024281640419965e-03
3.693921117843762709e-03
4.437982024859721090e-03
5.180092937513093923e-03
5.922565126551282769e-03
6.668059424026873995e-03
7.419501594993896387e-03
8.179990718133614905e-03
8.952702806504240010e-03
9.740791775837585528e-03
1.054729004323097866e-02
1.137501103048489323e-02
1.222645600060183121e-02
1.310372737151242924e-02
1.400845083852799919e-02
1.494170817182327929e-02
1.590398255211520478e-02
1.689511804140182358e-02
1.791429441012739460e-02
1.896001839279702270e-02
2.003013189232342312e-02
2.112183743977365941e-02
2.223174089822007107e-02
2.335591073092948763e-02
2.448995304935919562e-02
2.562910126076580614e-02
2.676831853283662480e-02
2.790241126915230657e-02
2.902615124188694454e-02
3.013440396304188293e-02
3.122226053507399374e-02
3.228517011896182842e-02
3.331907005437112490e-02
3.432051054358026959e-02
3.528677090627511947e-02
3.621596455967153461e-02
3.710712979047502136e-02
3.796030391904865742e-02
3.877657841238352915e-02
3.955813306427895942e-02
4.030824757942949588e-02
4.103128945218835477e-02
4.173267729765918477e-02
4.241881970015885794e-02
4.309702943900546590e-02
4.377541431513858744e-02
4.446274557766902863e-02
4.516830601335419804e-02
4.590171995085735174e-02
4.667276795171115128e-02
4.749118939176303483e-02
4.836647652446099399e-02
4.930766390739874799e-02
5.032311733641260665e-02
5.142032651989525416e-02
5.260570583627995067e-02
5.388440757823944466e-02
5.526015203028201983e-02
5.673507829590571094e-02
5.830961985537213427e-02
5.998240826400786513e-02
6.175020798294364455e-02
6.360788508692408194e-02
6.554841165067461228e-02
6.756290722762578471e-02
6.964071801489958580e-02
7.176953377567694969e-02
7.393554157793262582e-02
7.612361494037897525e-02
7.831753610813226019e-02
8.050024830902698103e-02
8.265413445541175408e-02
8.476131788487592522e-02
8.680398017744912764e-02
8.876469067002752678e-02
9.062674181674362783e-02
9.237448416058913203e-02
9.399365457739421170e-02
9.547169125076139518e-02
9.679802891757023631e-02
9.796436800265927169e-02
9.896491157731257537e-02
9.979656447801102392e-02
1.004590893534740015e-01
1.009552150659301789e-01
1.012906936308877182e-01
1.014743027124220820e-01
1.015177914912299001e-01
1.014357688660331297e-01
1.012455338467477539e-01
1.009668491850768124e-01
1.006216602405746313e-01
1.002337622969246417e-01
9.982842055078471055e-02
9.943194801682861406e-02
9.907124757948032601e-02
9.877332530659135856e-02
9.856478297182021120e-02
9.847129820899339081e-02
9.851710156568058152e-02
9.872445982206839998e-02
9.911317535574669380e-02
9.970011127004742291e-02
1.004987521332770806e-01
1.015188094729146118e-01
1.027658811406828160e-01
1.042411727180336534e-01
1.059412884800371574e-01
1.078580984948235982e-01
1.099786871085739748e-01
1.122853871007245263e-01
1.147559021478800623e-01
1.173635189772487958e-01
1.200774090512640307e-01
1.228630177508430316e-01
1.256825378936008153e-01
1.284954624129382994e-01
1.312592096582740342e-01
1.339298132515691631e-01
1.364626669341741927e-01
1.388133136288887959e-01
1.409382666400409156e-01
1.427958500506709139e-01
1.443470445444924866e-01
1.455563241893941817e-01
1.463924693381553066e-01
1.468293407357688929e-01
1.468465999168075964e-01
1.464303613596245612e-01
1.455737625090799681e-01
1.442774385243459634e-01
1.425498896941474747e-01
1.404077309116632533e-01
1.378758139292257656e-01
1.349872151386954655e-01
1.317830831284145243e-01
1.283123426864981598e-01
1.246312539389611423e-01
1.208028275320300743e-01
1.168960991950692418e-01
1.129852693580813972e-01
1.091487156981972295e-01
1.054678888427606764e-01
1.020261037434528756e-01
9.890724102422678021e-02
9.619437473126271620e-02
9.396834445441874795e-02
9.230629132561557482e-02
9.128017856215328574e-02
9.095531814646098945e-02
9.138892589276081946e-02
9.262872743693736921e-02
9.471163752935590763e-02
9.766253483854987760e-02
1.014931537146655238e-01
1.062011130648635032e-01
1.117691015747537681e-01
1.181642364047739147e-01
1.253376106685200886e-01
1.332240428376587904e-01
1.417420384697759550e-01
1.507939722658084014e-01
1.602664952547694921e-01
1.700311690422310618e-01
1.799453259347943423e-01
1.898531505865522773e-01
1.995869755332067286e-01
2.089687800071678425e-01
2.178118782410456700e-01
2.259227806242023184e-01
2.331032083860693771e-01
2.391522398584587095e-01
2.438685642455539204e-01
2.470528166890318955e-01
2.485099669646927134e-01
2.480517328391108611e-01
2.454989881730623436e-01
2.406841353349353785e-01
2.334534115361786843e-01
2.236690989016736353e-01
2.112116088408896586e-01
1.959814125186322420e-01
1.779007905906220821e-01
1.569153776046170179e-01
1.329954783821776787e-01
1.061371366712415276e-01
7.636293892471397726e-02
4.372253939962836983e-02
8.292896153500803336e-03
-2.982178898882931889e-02
-7.049042979669618847e-02
-1.135557138975225727e-01
-1.588350555861131608e-01
-2.061218354101473915e-01
-2.551869148895227202e-01
-3.057804113459324791e-01
-3.576337144391197320e-01
-4.104617228921073613e-01
-4.639652772521138391e-01
-5.178337616974880708e-01
-5.717478460647200667e-01
-6.253823372757093546e-01
-6.784091080297081078e-01
-7.305000695291093971e-01
-7.813301547603092034e-01
-8.305802783180671334e-01
-8.779402394603159632e-01
-9.231115355311168003e-01
-9.658100543532510684e-01
-1.005768615508387587e+00
-1.042739332630926219e+00
-1.076495770858215906e+00
-1.106834876471173734e+00
-1.133578658504635017e+00
-1.156575605403109996e+00
-1.175701822912312400e+00
-1.190861883079298522e+00
-1.201989377794941305e+00
-1.209047173823491805e+00
-1.212027370055890563e+00
-1.210950961257329039e+00
-1.205867216091398353e+00
-1.196852780467483779e+00
-1.184010520576449288e+00
-1.167468122754825366e+00
-1.147376470268666626e+00
-1.123907819174447598e+00
-1.097253797541526854e+00
-1.067623254255463339e+00
-1.035239984739356522e+00
-1.000340361997616778e+00
-9.631709018473325612e-01
-9.239857915555482748e-01
-8.830444108764954336e-01
-8.406088738058188348e-01
-7.969416185806625919e-01
-7.523030721216275030e-01
-7.069494135436400484e-01
-6.611304595593342492e-01
-6.150876923047013944e-01
-5.690524479645368006e-01
-5.232442820925808924e-01
-4.778695245292353677e-01
-4.331200343162347477e-01
-3.891721621784025587e-01
-3.461859250701584401e-01
-3.043043947280343331e-01
-2.636532990530563447e-01
-2.243408326339473569e-01
-1.864576702654917595e-01
-1.500771746719284094e-01
-1.152557875243652719e-01
-8.203359101328147607e-02
-5.043502524390131719e-02
-2.046974524694234257e-02
7.866399496038461656e-03
3.459028151606636375e-02
5.973032662957117322e-02
8.332527933935235387e-02
1.054229217483886316e-01
1.260787651269593412e-01
1.453547328261424743e-01
1.633178526479567294e-01
1.800389756052938328e-01
1.955915370398205733e-01
2.100503746691972373e-01
2.234906165606292960e-01
2.359866506249791718e-01
2.476111852200165164e-01
2.584344088387770522e-01
2.685232549148582337e-01
2.779407760560013707e-01
2.867456300050968965e-01
2.949916778995418376e-01
3.027276936653842676e-01
3.099971818327353912e-01
3.168382994127815766e-01
3.232838761697301999e-01
3.293615263812619820e-01
3.350938439260003343e-01
3.404986720144408396e-01
3.455894378168457015e-01
3.503755419053793396e-01
3.548627920044590267e-01
3.590538703782455987e-01
3.629488243773577039e-01
3.665455695194725361e-01
3.698403952361587477e-01
3.728284636505204697e-01
3.755042926002656323e-01
3.778622146456771524e-01
3.798968048206892156e-01
3.816032708893422054e-01
3.829778007403868978e-01
3.840178627543459622e-01
3.847224558657684201e-01
3.850923073068540092e-01
3.851300170988644633e-01
3.848401492287026882e-01
3.842292705107684947e-01
3.833059392676383959e-01
3.820806463965606969e-01
3.805657125887024206e-01
3.787751458052061038e-01
3.767244639424379149e-01
3.744304877888903760e-01
3.719111098274587857e-01
3.691850447719730033e-01
3.662715676847976831e-01
3.631902454941516867e-01
3.599606676542356221e-01
3.566021815648671711e-01
3.531336377629366030e-01
3.495731498805925153e-01
3.459378735326720244e-01
3.422438080912812430e-01
3.385056244531617908e-01
3.347365212742184348e-01
3.309481117617962265e-01
3.271503422641992564e-01
3.233514431242781040e-01
3.195579119597364293e-01
3.157745285555357273e-01
3.120044001688094260e-01
3.082490354530913468e-01
3.045084446805861322e-01
3.007812636788860794e-01
2.970648982105680291e-01
2.933556855687932119e-01
2.896490698215337667e-01
2.859397868153438216e-01
2.822220553263001253e-01
2.784897704442361732e-01
2.747366954927115135e-01
2.709566489615642393e-01
2.671436830913725968e-01
2.632922509025715785e-01
2.593973589759197562e-01
2.554547035661142163e-01
2.514607879180827954e-01
2.474130192436518605e-01
2.433097840818259361e-01
2.391505014136407481e-01
2.349356531376128598e-01
2.306667919695398472e-01
2.263465274924473802e-01
2.219784911336515343e-01
2.175672814513306685e-01
2.131183913013499076e-01
2.086381189062818664e-01
2.041334649142456659e-01
1.996120178185718519e-01
1.950818302941335902e-01
1.905512889790710040e-01
1.860289804116806445e-01
1.815235556852174414e-01
1.770435965225393982e-01
1.725974851007966993e-01
1.681932800349867363e-01
1.638386006506163117e-01
1.595405214764485102e-01
1.553054786372048135e-01
1.511391895349198100e-01
1.470465869001812975e-01
1.430317680764184030e-01
1.390979599754412765e-01
1.352475000076872047e-01
1.314818327687426736e-01
1.278015220963318876e-01
1.242062778874881424e-01
1.206949966940154134e-01
1.172658149432761754e-01
1.139161735226141003e-01
1.106428921125089254e-01
1.074422515607408452e-01
1.043100826773731976e-01
1.012418595745856187e-01
9.823279565915207789e-02
9.527794052172254557e-02
9.237227594015764987e-02
8.951080920672375985e-02
8.668866219822769781e-02
8.390115469535976145e-02
8.114388067094259471e-02
7.841277634314784695e-02
7.570417909094440123e-02
7.301487639713591382e-02
7.034214434998824206e-02
6.768377538732822662e-02
6.503809510232813618e-02
6.240396816141838970e-02
5.978079375748236723e-02
5.716849106555053905e-02
5.456747526192321646e-02
5.197862497919595454e-02
4.940324217430301645e-02
4.684300536960425004e-02
4.429991751807976080e-02
4.177624965671273422e-02
3.927448163355744259e-02
3.679724114012086073e-02
3.434724227302782956e-02
3.192722487888715460e-02
2.953989586292623398e-02
2.718787350902681157e-02
2.487363582270617907e-02
2.259947372335374682e-02
2.036744985863629329e-02
1.817936370676146926e-02
1.603672330187322012e-02
1.394072411449078647e-02
1.189223498964858683e-02
9.891791323492592561e-03
7.939595407244410749e-03
6.035523560118775249e-03
4.179139738804933148e-03
2.369715052054399522e-03
6.062526113093246079e-04
-1.112482922412059419e-03
-2.787931940315391093e-03
-4.421703367011823628e-03
-6.015535989152212201e-03
-7.571258428191317454e-03
-9.090748565343906296e-03
-1.057589343952150020e-02
-1.202855024417025069e-02
-1.345050935769490953e-02
-1.484346000495087060e-02
-1.620895920602736726e-02
-1.754840459148754653e-02
-1.886301149082526135e-02
-2.015379468012142711e-02
-2.142155496420550947e-02
-2.266687085958481868e-02
-2.389009521305465386e-02
-2.509135687094493986e-02
-2.627056713510607724e-02
-2.742743073118585756e-02
-2.856146088564959565e-02
-2.967199828434614536e-02
-3.075823310253701301e-02
-3.181922977262179736e-02
-3.285395383980931061e-02
-3.386130029603712233e-02
-3.484012271606774097e-02
-3.578926254542410396e-02
-3.670757795994854245e-02
-3.759397164833831045e-02
-3.844741696575800644e-02
-3.926698191091970019e-02
-4.005185046679626826e-02
-4.080134094967965280e-02
-4.151492091330498402e-02
-4.219221853000875572e-02
-4.283303008675973939e-02
-4.343732357950472883e-02
-4.400523843511180283e-02
-4.453708137654761173e-02
-4.503331859153364425e-02
-4.549456438973131095e-02
-4.592156677880430971e-02
-4.631519010744277604e-02
-4.667639534603892915e-02
-4.700621835710947632e-02
-4.730574669731649196e-02
-4.757609536716644882e-02
-4.781838223598273985e-02
-4.803370339414226448e-02
-4.822310914014760197e-02
-4.838758104209749111e-02
-4.852801057571454885e-02
-4.864517966763259871e-02
-4.873974374985760166e-02
-4.881221744382576583e-02
-4.886296323808738545e-02
-4.889218349193429763e-02
-4.889991572600849157e-02
-4.888603143160252101e-02
-4.885023833966722212e-02
-4.879208621690320213e-02
-4.871097588030331299e-02
-4.860617137924398701e-02
-4.847681514516060525e-02
-4.832194569387540661e-02
-4.814051759025936295e-02
-4.793142338308351708e-02
-4.769351695228911392e-02
-4.742563787710390305e-02
-4.712663641420220678e-02
-4.679539857785557089e-02
-4.643087087652059131e-02
-4.603208425597314635e-02
-4.559817676934743019e-02
-4.512841470269618460e-02
-4.462221159243767721e-02
-4.407914495643196900e-02
-4.349897033393002044e-02
-4.288163253431571259e-02
-4.222727374332208017e-02
-4.153623851320047827e-02
-4.080907550962534214e-02
-4.004653600852983719e-02
-3.924956915969189664e-02
-3.841931419910995377e-02
-3.755708976016911699e-02
-3.666438039302376967e-02
-3.574282073287806533e-02
-3.479417744721984007e-02
-3.382032938579871556e-02
-3.282324629587064779e-02
-3.180496646136244526e-02
-3.076757366168464750e-02
-2.971317383935073372e-02
-2.864387194617383156e-02
-2.756174920325593289e-02
-2.646884138471079090e-02
-2.536711828199579230e-02
-2.425846477160190084e-02
-2.314466371321692584e-02
-2.202738101328211018e-02
-2.090815296657422967e-02
-1.978837606731629825e-02
-1.866929946871279111e-02
-1.755202005001163176e-02
-1.643748026228168332e-02
-1.532646846813094654e-02
-1.421962194269346148e-02
-1.311743223592324974e-02
-1.202025283865335546e-02
-1.092830885266292233e-02
-9.841708437736865211e-03
-8.760455765375313800e-03
-7.684465274914105068e-03
-6.613576756573879417e-03
-5.547571058567818403e-03
-4.486186028287004329e-03
-3.429132355758678259e-03
-2.376109025688626520e-03
-1.326818081410035405e-03
-2.809783869619563801e-04
7.616618640150131384e-04
1.801314106518730725e-03
2.838140074137938691e-03
3.872244265348990556e-03
4.903668364437686542e-03
5.932387740965629902e-03
6.958310025964579981e-03
7.981275642856600766e-03
9.001060452495879272e-03
1.001738027526025143e-02
1.102989716467563629e-02
1.203822734414348485e-02
1.304195049757034090e-02
1.404062026621074634e-02
1.503377569633992591e-02
1.602095334510175717e-02
1.700169969546239807e-02
1.797558369277035481e-02
1.894220901588049288e-02
1.990122592898349932e-02
2.085234228634657433e-02
2.179533344549935275e-02
2.273005099647166030e-02
2.365642986464596906e-02
2.457449376392257037e-02
2.548435880960834427e-02
2.638623512674326613e-02
2.728042640128368682e-02
2.816732730725337100e-02
2.904741889594447679e-02
2.992126188083071153e-02
3.078948801640374322e-02
3.165278952812593249e-02
3.251190695693917387e-02
3.336761551075240195e-02
3.422071011395553392e-02
3.507198948282631151e-02
3.592223948393091781e-02
3.677221604673270444e-02
3.762262799659267520e-02
3.847412007092795849e-02
3.932725640730851124e-02
4.018250486143114253e-02
4.104022246237350874e-02
4.190064226643561152e-02
4.276386189039961538e-02
4.362983393029309931e-02
4.449835849345599309e-02
4.536907803106571269e-02
4.624147453292100363e-02
4.711486925244838531e-02
4.798842497567602089e-02
4.886115091785097481e-02
4.973190998090702003e-02
5.059942855607416079e-02
5.146230863309452647e-02
5.231904205163790539e-02
5.316802662616545300e-02
5.400758404973501903e-02
5.483597915215881330e-02
5.565144029915327500e-02
5.645218059163314289e-02
5.723641954206208637e-02
5.800240483500283817e-02
5.874843382095091410e-02
5.947287450341702530e-02
6.017418542127028758e-02
6.085093434773402449e-02
6.150181540437269639e-02
6.212566425492603572e-02
6.272147112451738338e-02
6.328839139301606354e-02
6.382575368298812335e-02
6.433306515587537688e-02
6.481001405646732993e-02
6.525646918502692184e-02
6.567247659057277864e-02
6.605825331548453860e-02
6.641417829509969895e-02
6.674078067195796105e-02
6.703872545792362303e-02
6.730879704488879067e-02
6.755188060233187353e-02
6.776894163638549906e-02
6.796100422029349719e-02
6.812912805526422089e-02
6.827438480070963100e-02
6.839783403532746775e-02
6.850049926524216792e-02
6.858334429994476789e-02
6.864725043354069633e-02
6.869299479608173553e-02
6.872123020423587247e-02
6.873246686339262723e-02
6.872705619837339575e-02
6.870517716016653897e-02
6.866682515199576398e-02
6.861180384230426699e-02
6.853971994850395488e-02
6.844998116181938430e-02
6.834179722714597838e-02
6.821418424660376234e-02
6.806597202788994272e-02
6.789581460254870415e-02
6.770220347458771881e-02
6.748348380152290049e-02
6.723787287466038987e-02
6.696348095110560283e-02
6.665833399238010881e-02
6.632039796556302158e-02
6.594760441819504104e-02
6.553787694780682793e-02
6.508915815288085494e-02
6.459943664317364942e-02
6.406677377054553757e-02
6.348932966664418143e-02
6.286538820296799779e-02
6.219338057066223224e-02
6.147190699248652329e-02
6.069975642231639074e-02
5.987592384718384841e-02
5.899962500285375888e-02
5.807030835029510646e-02
5.708766399502858413e-02
5.605162958688156283e-02
5.496239305957389965e-02
5.382039224170892533e-02
5.262631130719420264e-02
5.138107425794840449e-02
5.008583542979867798e-02
4.874196718426737629e-02
4.735104520477752960e-02
4.591483138071177084e-02
4.443525472772509588e-02
4.291439060245916953e-02
4.135443852156269612e-02
3.975769893472094058e-02
3.812654932182970441e-02
3.646341999506448606e-02
3.477076995778338037e-02
3.305106314355632513e-02
3.130674548246714650e-02
2.954022302307649991e-02
2.775384151842956795e-02
2.594986760037507750e-02
2.413047202613298470e-02
2.229771504315129771e-02
2.045353406296847656e-02
1.859973393292307237e-02
1.673797971380711069e-02
1.486979212517605675e-02
1.299654565893828585e-02
1.111946932152436431e-02
9.239649901382018457e-03
7.358037715211891011e-03
5.475454612803212079e-03
3.592604073769849714e-03
1.710083175359927363e-03
-1.716038546692730878e-04
-2.052030708035656840e-03
-3.930833012100419521e-03
-5.807691642674174537e-03
-7.682315593947160876e-03
-9.554424685819965651e-03
-1.142373261263302658e-02
-1.328993040250156174e-02
-1.515267072276888644e-02
-1.701155331782238517e-02
-1.886611179082495898e-02
-2.071580195808136668e-02
-2.255999195972624785e-02
-2.439795446395391296e-02
-2.622886083243409702e-02
-2.805177747499664614e-02
-2.986566459449442948e-02
-3.166937705285306076e-02
-3.346166753469603100e-02
-3.524119186703415785e-02
-3.700651641675634096e-02
-3.875612742204381789e-02
-4.048844217583070365e-02
-4.220182173208425480e-02
-4.389458495667031973e-02
-4.556502366755757483e-02
-4.721141865364558710e-02
-4.883205629706734857e-02
-5.042524542241033636e-02
-5.198933413758739797e-02
-5.352272635035029008e-02
-5.502389772482132319e-02
-5.649141077963674984e-02
-5.792392889791782296e-02
-5.932022893219256882e-02
-6.067921225340489749e-02
-6.199991404587800597e-02
-6.328151074320835512e-02
-6.452332540263375216e-02
-6.572483094401941617e-02
-6.688565127297144142e-02
-6.800556017924992702e-02
-6.908447806568268623e-02
-7.012246666609595058e-02
-7.111972166793407990e-02
-7.207656352739838512e-02
-7.299342653220627919e-02
-7.387084635775363617e-02
-7.470944629000153547e-02
-7.550992238428994030e-02
-7.627302782078276833e-02
-7.699955669048320905e-02
-7.769032747348603163e-02
-7.834616654466597385e-02
-7.896789198806425381e-02
-7.955629784843722130e-02
-8.011213929060789773e-02
-8.063611883413518422e-02
-8.112887377677197032e-02
-8.159096520648749518e-02
-8.202286863172215947e-02
-8.242496646694148776e-02
-8.279754243936111868e-02
-8.314077806147343597e-02
-8.345475121009242325e-02
-8.373943681314917342e-02
-8.399470960674411402e-02
-8.422034892906475612e-02
-8.441604554505766078e-02
-8.458141019411846706e-02
-8.471598391291551566e-02
-8.481924985189148725e-02
-8.489064635690247995e-02
-8.492958118708129889e-02
-8.493544654213383560e-02
-8.490763474245976994e-02
-8.484555415366150377e-02
-8.474864517668076469e-02
-8.461639605303249156e-02
-8.444835820443886976e-02
-8.424416076634046180e-02
-8.400352416459903881e-02
-8.372627254898078186e-02
-8.341234474775620356e-02
-8.306180360455721334e-02
-8.267484360159972623e-02
-8.225179662172826811e-02
-8.179313567071463953e-02
-8.129947661129710568e-02
-8.077157778542452815e-02
-8.021033759233010818e-02
-7.961678999799304268e-02
-7.899209814736103674e-02
-7.833754605559528628e-02
-7.765452860675195468e-02
-7.694453996992144107e-02
-7.620916063056611123e-02
-7.545004323668477730e-02
-7.466889748779681479e-02
-7.386747429066452264e-02
-7.304754949610418879e-02
-7.221090729079203407e-02
-7.135932374899786601e-02
-7.049455060459487721e-02
-6.961829957163283289e-02
-6.873222742894237458e-02
-6.783792214364525730e-02
-6.693689007851513773e-02
-6.603054465681706953e-02
-6.512019652972296513e-02
-6.420704546074347541e-02
-6.329217391762330391e-02
-6.237654255095042427e-02
-6.146098749931262067e-02
-6.054621968367928514e-02
-5.963282593472934989e-02
-5.872127201404005875e-02
-5.781190731525578247e-02
-5.690497125166808778e-02
-5.600060116892787571e-02
-5.509884164030006554e-02
-5.419965491658009643e-02
-5.330293244196453867e-02
-5.240850709510540967e-02
-5.151616599246641032e-02
-5.062566370370844698e-02
-4.973673555721128819e-02
-4.884911089901652903e-02
-4.796252594628380717e-02
-4.707673611850327761e-02
-4.619152770893603099e-02
-4.530672862606965889e-02
-4.442221796235648612e-02
-4.353793438865065368e-02
-4.265388319749645329e-02
-4.177014184636967248e-02
-4.088686400963033318e-02
-4.000428202114311715e-02
-3.912270772327282320e-02
-3.824253171746909430e-02
-3.736422102540917778e-02
-3.648831532287396401e-02
-3.561542172702400477e-02
-3.474620828161424646e-02
-3.388139624394743282e-02
-3.302175137722164477e-02
-3.216807435221799572e-02
-3.132119050494374529e-02
-3.048193907974535571e-02
-2.965116210168979027e-02
-2.882969314300764044e-02
-2.801834624075005137e-02
-2.721790501974832507e-02
-2.642911219989282565e-02
-2.565265981536438145e-02
-2.488918013260228365e-02
-2.413923747714214613e-02
-2.340332115879765335e-02
-2.268183948479905732e-02
-2.197511503457373269e-02
-2.128338116600948446e-02
-2.060677992846480372e-02
-1.994536125887569691e-02
-1.929908350328971359e-02
-1.866781526984833545e-02
-1.805133854727966267e-02
-1.744935294080854002e-02
-1.686148106811316202e-02
-1.628727490013922793e-02
-1.572622290103281931e-02
-1.517775798827898301e-02
-1.464126598067243094e-02
-1.411609451051906890e-02
-1.360156214559338737e-02
-1.309696773341667390e-02
-1.260159959856437320e-02
-1.211474454229983719e-02
-1.163569651283688673e-02
-1.116376483455395856e-02
-1.069828172796689729e-02
-1.023860926267474401e-02
-9.784145431709693336e-03
-9.334329325940034228e-03
-8.888645411991103265e-03
-8.446626861767789554e-03
-8.007857844764428717e-03
-7.571974833334159036e-03
-7.138666944575923663e-03
-6.707675372081048012e-03
-6.278791875785815109e-03
-5.851856508176329040e-03
-5.426754578427059501e-03
-5.003413032501916914e-03
-4.581796255554214034e-03
-4.161901491181972668e-03
-3.743753964938366895e-03
-3.327401792553952818e-03
-2.912910925585637974e-03
-2.500360088767191596e-03
-2.089835899643813829e-03
-1.681428351996813210e-03
-1.275226677064814334e-03
-8.713156044769209936e-04
-4.697722898161823114e-04
-7.066381516200123821e-05
3.259546545173514398e-04
7.200410123463231145e-04
1.111566559878132384e-03
1.500515679179831308e-03
1.886884900347258250e-03
2.270681173409991316e-03
2.651919591832095028e-03
3.030620523144326832e-03
3.406806348664015265e-03
3.780497671396879783e-03
4.151709382904735651e-03
4.520446432699045010e-03
4.886699560355823799e-03
5.250441052722151086e-03
5.611620592989426982e-03
5.970161444337330689e-03
6.325956915207600444e-03
6.678867264640762219e-03
7.028717234050956865e-03
7.375294088289172101e-03
7.718346401206074500e-03
8.057583571306594153e-03
8.392676105794623018e-03
8.723256716214884687e-03
9.048922185813842653e-03
9.369236085934873337e-03
9.683732215118307299e-03
9.991918758320122648e-03
1.029328316764268475e-02
1.058729758641246965e-02
1.087342478931723963e-02
1.115112459378376185e-02
1.141986050654167188e-02
1.167910652309626061e-02
1.192835410229407811e-02
1.216711905258200180e-02
1.239494816709629278e-02
1.261142567257006984e-02
1.281617918577616054e-02
1.300888521212920090e-02
1.318927392100968654e-02
1.335713324816531662e-02
1.351231223345939966e-02
1.365472341036708635e-02
1.378434430559587719e-02
1.390121799502748272e-02
1.400545271309499781e-02
1.409722044272253456e-02
1.417675459183286718e-02
1.424434675105462102e-02
1.430034260654598766e-02
1.434513706059725377e-02
1.437916864829303157e-02
1.440291338695308399e-02
1.441687809562221777e-02
1.442159336627383930e-02
1.441760633406172394e-02
1.440547333003671521e-02
1.438575255574692929e-02
1.435899692730293296e-02
1.432574721182041516e-02
1.428652563485375074e-02
1.424183003452157009e-02
1.419212868132624719e-02
1.413785583528009114e-02
1.407940813753372211e-02
1.401714195039430871e-02
1.395137168066354870e-02
1.388236903468590203e-02
1.381036334181459657e-02
1.373554280829154817e-02
1.365805675945439522e-02
1.357801886308549789e-02
1.349551111763132305e-02
1.341058867098321276e-02
1.332328531865687067e-02
1.323361952403581850e-02
1.314160087459013970e-02
1.304723680269749553e-02
1.295053948294486515e-02
1.285153270091693965e-02
1.275025856678160124e-02
1.264678393698911649e-02
1.254120636369868667e-02
1.243365942971376079e-02
1.232431737717808867e-02
1.221339878862347066e-02
1.210116939089941369e-02
1.198794385522452752e-02
1.187408638002440155e-02
1.176001011551087820e-02
1.164617542467028671e-02
1.153308690373540911e-02
1.142128921916088675e-02
1.131136186319495890e-02
1.120391275787675257e-02
1.109957087277715047e-02
1.099897794618171637e-02
1.090277943547274947e-02
1.081161486128434657e-02
1.072610769447682362e-02
1.064685492221331860e-02
1.057441651104725974e-02
1.050930488725586830e-02
1.045197472027496570e-02
1.040281314864628659e-02
1.036213059816356967e-02
1.033015244814621328e-02
1.030701160579826879e-02
1.029274229626854151e-02
1.028727509689134761e-02
1.029043329727223795e-02
1.030193078815959916e-02
1.032137147699273456e-02
1.034825032774562038e-02
1.038195603844567320e-02
1.042177535089500694e-02
1.046689893862664568e-02
1.051642880309883697e-02
1.056938714720653816e-02
1.062472657982134819e-02
1.068134152194531554e-02
1.073808071957540328e-02
1.079376053939431340e-02
1.084717899875795380e-02
1.089713024002005384e-02
1.094241928030270997e-02
1.098187678446515929e-02
1.101437368962160553e-02
1.103883538296410345e-02
1.105425520535134425e-02
1.105970721533413963e-02
1.105435777306982420e-02
1.103747598374044472e-02
1.100844275152053874e-02
1.096675825660591366e-02
1.091204777406569112e-02
1.084406580294315810e-02
1.076269825878592955e-02
1.066796289516271784e-02
1.056000785783462077e-02
1.043910844615357839e-02
1.030566203881174564e-02
1.016018132432244120e-02
1.000328600290895792e-02
9.835692998742739598e-03
9.658205401979239393e-03
9.471700321734085118e-03
9.277115847220645042e-03
9.075437282912312068e-03
8.867682972179651013e-03
8.654889893729594483e-03
8.438099271506897814e-03
8.218342390699413802e-03
7.996626942228081750e-03
7.773924042519956071e-03
7.551156131700939057e-03
7.329185985955252551e-03
7.108807017493367839e-03
6.890734956403690541e-03
6.675601071438354121e-03
6.463947000246565190e-03
6.256221299596257703e-03
6.052777649201404077e-03
5.853874919537204423e-03
5.659678773522349056e-03
5.470264983633268442e-03
5.285624313959941430e-03
5.105668795334008560e-03
4.930239245014371094e-03
4.759114031300314823e-03
4.592018635064966554e-03
4.428636013533534220e-03
4.268617500022074684e-03
4.111593924818064336e-03
3.957186853464051725e-03
3.805019625170481118e-03
3.654728056615159058e-03
3.505970445609321758e-03
3.358436791543240908e-03
3.211857043724476984e-03
3.066008131598710936e-03
2.920719672164011523e-03
2.775878307199761575e-03
2.631430421648186125e-03
2.487383298360042530e-03
2.343804665574955939e-03
2.200820611976421828e-03
2.058611905491424150e-03
1.917408836681595754e-03
1.777484581967373562e-03
1.639147372861927184e-03
1.502731473057404869e-03
1.368587226531020173e-03
1.237070320233179654e-03
1.108530600219491445e-03
9.833005324257392335e-04
8.616836459932418870e-04
7.439431990307297793e-04
6.302912790558187631e-04
5.208786041729792336e-04
4.157852482474307543e-04
3.150125700626116841e-04
2.184764524159919850e-04
1.260021636391662136e-04
3.732080414710812300e-05
-4.793232739811025130e-05
-1.302174807015391380e-04
-2.100881816315341251e-04
-2.881869848077243100e-04
-3.652392543866801278e-04
-4.420449823888325525e-04
-5.194687925799970022e-04
-5.984281384570129146e-04
-6.798799894521359881e-04
-7.648061772851909041e-04
-8.541975642396223718e-04
