CH11
0.70369816
0.7034272
0.7031572
0.70288813
0.70261997
0.7023528
0.7020866
0.7018213
0.70155704
0.70129365
0.7010312
0.7007698
0.70050925
0.7002497
0.69999105
0.6997334
0.69947666
0.6992209
0.6989661
0.6987122
0.69845927
0.6982073
0.69795626
0.6977062
0.6974571
0.69720894
0.6969617
0.6967154
0.69647014
0.69622576
0.69598234
0.69573987
0.69549835
0.6952578
0.6950181
0.69477946
0.69454175
0.694305
0.69406915
0.6938343
0.69360036
0.69336736
0.6931354
0.6929043
0.69267416
0.692445
0.69221675
0.6919895
0.69176316
0.6915378
0.6913134
0.6910899
0.69086736
0.6906458
0.69042516
0.6902055
0.68998677
0.689769
0.6895522
0.6893363
0.68912137
0.6889074
0.68869436
0.6884823
0.68827116
0.688061
0.6878518
0.6876435
0.68743616
0.6872298
0.68702435
0.6868199
0.68661636
0.68641376
0.6862122
0.6860115
0.68581176
0.685613
0.68541515
0.6852183
0.68502235
0.6848274
0.6846333
0.68444026
0.68424815
0.68405694
0.68386674
0.68367743
0.68348914
0.68330175
0.6831153
0.6829298
0.6827453
0.68256176
0.6823791
0.6821974
0.6820167
0.6818369
0.6816581
0.68148017
0.68130326
0.6811273
0.68095225
0.6807782
0.68060505
0.68043286
0.6802616
0.6800914
0.67992204
0.67975366
0.67958623
0.67941976
0.6792542
0.6790896
0.678926
0.6787633
0.67860156
0.6784408
0.67828095
0.67812204
0.67796415
0.67780715
0.6776511
0.677496
0.6773419
0.6771887
0.67703646
0.6768852
0.67673486
0.6765855
0.676437
0.67628956
0.67614305
0.67599744
0.67585284
0.6757091
0.6755664
0.67542464
0.6752838
0.6751439
0.67500496
0.674867
0.67472994
0.67459387
0.6744587
0.6743245
0.6741913
0.674059
0.67392766
0.67379725
0.67366785
0.67353934
0.6734118
0.67328525
0.6731596
0.6730349
0.67291117
0.6727884
0.67266655
0.6725457
0.6724257
0.6723067
0.6721887
0.6720716
0.67195547
0.67184025
0.67172605
0.67161274
0.6715004
0.67138904
0.6712786
0.6711691
0.67106056
0.670953
0.67084634
0.6707406
0.6706359
0.6705321
0.6704292
0.67032737
0.67022645
0.67012644
0.6700274
0.6699293
0.66983217
0.66973597
0.6696407
0.6695464
0.6694531
0.6693607
0.66926926
0.6691788
0.66908926
0.6690006
0.668913
0.6688263
0.6687406
0.66865575
0.66857195
0.66848904
0.6684071
0.6683261
0.66824603
0.66816694
0.6680888
0.6680116
0.6679354
0.6678601
0.66778576
0.66771233
0.6676399
0.6675684
0.6674979
0.66742826
0.6673596
0.66729194
0.6672252
0.6671594
0.6670945
0.66703063
0.6669677
0.6669057
0.66684467
0.6667846
0.6667254
0.6666672
0.66660994
0.6665537
0.6664983
0.66644394
0.6663905
0.66633797
0.6662864
0.66623586
0.6661862
0.6661375
0.6660898
0.6660429
0.6659971
0.6659522
0.6659083
0.66586524
0.6658232
0.6657821
0.665742
0.66570276
0.6656645
0.6656272
0.6655909
0.6655555
0.665521
0.6654875
0.665455
0.66542333
0.6653927
0.665363
0.6653343
0.66530645
0.6652796
0.6652537
0.6652288
0.66520476
0.6651817
0.6651596
0.6651385
0.6651183
0.665099
0.6650807
0.6650633
0.66504693
0.6650315
0.665017
0.6650034
0.66499084
0.66497916
0.6649685
0.6649587
0.6649499
0.6649421
0.6649352
0.6649292
0.6649242
0.66492015
0.66491705
0.6649149
0.6649137
0.6649134
0.66491413
0.6649158
0.66491836
0.66492194
0.6649264
0.66493183
0.6649383
0.6649456
0.6649539
0.6649631
0.6649733
0.66498446
0.66499656
0.6650096
0.6650236
0.6650385
0.66505444
0.6650713
0.6650891
0.66510785
0.6651275
0.66514814
0.6651698
0.6651923
0.6652158
0.6652402
0.6652656
0.66529197
0.66531926
0.6653475
0.66537666
0.6654068
0.66543794
0.66546994
0.66550297
0.6655369
0.6655718
0.66560763
0.6656444
0.66568214
0.6657209
0.6657605
0.6658011
0.6658426
0.6658851
0.66592854
0.66597295
0.6660183
0.66606456
0.6661118
0.66616
0.66620916
0.6662592
0.66631025
0.6663622
0.6664152
0.6664691
0.66652393
0.6665797
0.66663647
0.6666941
0.66675276
0.66681236
0.6668729
0.6669344
0.66699684
0.6670602
0.66712457
0.66718984
0.66725606
0.66732323
0.66739136
0.6674605
0.66753054
0.6676015
0.6676734
0.6677463
0.66782016
0.66789496
0.66797066
0.66804737
0.668125
0.6682036
0.6682831
0.6683636
0.66844505
0.6685274
0.66861075
0.66869503
0.66878027
0.66886646
0.6689536
0.6690417
0.6691307
0.6692207
0.66931164
0.6694035
0.66949636
0.6695901
0.6696848
0.66978055
0.6698772
0.66997474
0.6700733
0.67017275
0.6702732
0.6703746
0.6704769
0.6705802
0.6706844
0.6707896
0.67089576
0.6710028
0.67111087
0.6712198
0.67132974
0.67144066
0.6715525
0.67166525
0.671779
0.67189366
0.6720093
0.6721259
0.6722434
0.6723619
0.6724813
0.6726017
0.672723
0.6728453
0.6729685
0.6730927
0.67321783
0.6733439
0.6734709
0.67359895
0.67372787
0.67385775
0.6739886
0.6741203
0.67425305
0.67438674
0.6745214
0.6746569
0.6747935
0.67493093
0.6750694
0.67520875
0.67534906
0.6754904
0.6756326
0.67577577
0.6759199
0.67606497
0.676211
0.676358
0.67650586
0.67665476
0.6768046
0.67695534
0.6771071
0.67725974
0.6774134
0.67756796
0.67772347
0.6778799
0.6780374
0.6781958
0.6783551
0.6785154
0.6786766
0.67883873
0.67900187
0.67916596
0.67933095
0.67949694
0.6796639
0.67983174
0.68000054
0.68017036
0.68034106
0.6805127
0.68068534
0.6808589
0.68103343
0.6812089
0.68138534
0.6815627
0.68174106
0.6819203
0.68210053
0.6822817
0.6824638
0.6826469
0.6828309
0.6830159
0.6832018
0.68338865
0.68357646
0.68376523
0.68395495
0.6841456
0.68433726
0.68452984
0.6847234
0.6849178
0.68511325
0.6853096
0.68550694
0.6857052
0.68590444
0.6861046
0.6863057
0.68650776
0.6867108
0.68691474
0.68711966
0.68732554
0.68753237
0.68774015
0.6879488
0.6881585
0.68836915
0.6885807
0.68879324
0.6890067
0.6892211
0.6894365
0.6896528
0.68987006
0.6900883
0.69030744
0.69052756
0.69074863
0.6909706
0.6911936
0.6914175
0.6916424
0.6918682
0.692095
0.6923227
0.6925513
0.692781
0.6930115
0.693243
0.6934755
0.6937089
0.69394326
0.6941786
0.69441485
0.6946521
0.6948902
0.69512933
0.6953694
0.6956104
0.6958524
0.6960953
0.69633913
0.696584
0.69682974
0.69707644
0.6973241
0.6975727
0.6978223
0.6980728
0.69832426
0.6985766
0.69883
0.69908434
0.69933957
0.6995958
0.69985294
0.7001111
0.70037013
0.7006301
0.7008911
0.70115304
0.7014159
0.7016797
0.7019445
0.7022101
0.7024768
0.7027444
0.703013
0.7032825
0.70355296
0.70382434
0.70409673
0.70437
0.70464426
0.7049195
0.70519567
0.70547277
0.7057508
0.70602983
0.7063098
0.7065907
0.7068725
0.70715535
0.7074391
0.7077238
0.7080095
0.70829606
0.70858365
0.70887214
0.7091616
0.709452
0.7097434
0.7100357
0.71032894
0.71062315
0.7109183
0.71121436
0.71151143
0.71180946
0.7121084
0.7124083
0.7127092
0.71301097
0.7133137
0.71361744
0.7139211
0.7142236
0.714525
0.7148252
0.71512425
0.7154221
0.7157188
0.7160143
0.7163087
0.7166019
0.716894
0.71718484
0.7174745
0.71776307
0.7180505
0.71833664
0.71862173
0.7189056
0.71918833
0.71946985
0.7197503
0.7200295
0.7203075
0.72058445
0.7208601
0.7211347
0.7214081
0.72168034
0.7219514
0.7222213
0.72249
0.7227576
0.723024
0.72328925
0.7235533
0.7238162
0.72407794
0.72433853
0.72459793
0.7248562
0.7251133
0.7253692
0.72562397
0.7258775
0.72612995
0.7263812
0.7266313
0.7268802
0.72712797
0.72737455
0.72762
0.72786427
0.72810733
0.72834927
0.7285901
0.7288296
0.7290681
0.7293054
0.7295415
0.7297764
0.73001015
0.7302428
0.73047423
0.7307045
0.7309336
0.7311616
0.73138833
0.731614
0.7318384
0.7320617
0.73228383
0.7325048
0.7327246
0.7329432
0.7331607
0.733377
0.7335921
0.7338061
0.73401886
0.73423046
0.734441
0.73465025
0.7348584
0.73506534
0.73527116
0.73547584
0.73567927
0.7358816
0.73608273
0.7362827
0.73648155
0.7366792
0.73687565
0.737071
0.73726517
0.73745817
0.73765
0.73784065
0.73803014
0.7382184
0.7384056
0.7385916
0.73877645
0.7389601
0.7391426
0.7393239
0.7395041
0.7396831
0.73986095
0.7400376
0.74021316
0.7403875
0.74056065
0.74073267
0.74090356
0.7410732
0.74124175
0.74140906
0.74157524
0.7417403
0.74190414
0.74206686
0.7422284
0.7423887
0.7425479
0.74270594
0.7428628
0.7430185
0.74317306
0.7433264
0.7434786
0.74362963
0.74377954
0.74392825
0.7440758
0.74422216
0.74436736
0.7445114
0.7446543
0.744796
0.7449366
0.74507594
0.74521416
0.7453512
0.7454871
0.7456218
0.7457554
0.74588776
0.746019
0.74614906
0.746278
0.7464057
0.74653226
0.74665767
0.7467819
0.74690497
0.74702686
0.7471476
0.7472672
0.7473856
0.74750286
0.7476189
0.74773383
0.7478476
0.74796015
0.7480716
0.7481818
0.74829096
0.74839884
0.7485056
0.7486112
0.74871564
0.7488189
0.748921
0.7490219
0.74912167
0.74922025
0.7493177
0.74941397
0.7495091
0.74960303
0.7496958
0.7497874
0.74987787
0.7499671
0.75005525
0.75014216
0.7502279
0.75031257
0.750396
0.7504783
0.75055945
0.7506394
0.7507182
0.7507958
0.75087225
0.75094754
0.7510217
0.75109464
0.75116646
0.7512371
0.75130653
0.75137484
0.75144196
0.75150794
0.7515727
0.7516364
0.75169885
0.7517602
0.7518203
0.7518793
0.7519371
0.7519938
0.75204927
0.75210357
0.75215673
0.7522087
0.7522595
0.7523092
0.75235766
0.752405
0.7524512
0.7524961
0.75254
0.75258267
0.75262415
0.7526645
0.75270367
0.75274163
0.7527785
0.7528142
0.7528487
0.752882
0.7529142
0.7529452
0.75297505
0.7530037
0.75303125
0.7530576
0.75308275
0.7531068
0.75312966
0.75315136
0.75317186
0.75319123
0.7532094
0.75322646
0.7532423
0.75325704
0.75327057
0.7532829
0.7532941
0.7533041
0.753313
0.7533207
0.75332725
0.7533326
0.75333685
0.7533399
0.7533418
0.7533425
0.75334203
0.7533404
0.7533376
0.7533337
0.75332856
0.7533223
0.75331485
0.75330627
0.7532965
0.7532855
0.7532734
0.75326014
0.7532457
0.7532301
0.75321335
0.7531954
0.75317633
0.75315607
0.7531346
0.753112
0.7530883
0.7530634
0.7530373
0.75301003
0.7529816
0.75295204
0.7529213
0.75288934
0.75285625
0.75282204
0.75278664
0.75275004
0.7527123
0.7526734
0.75263333
0.7525921
0.7525497
0.75250614
0.7524614
0.7524155
0.75236845
0.7523202
0.7522708
0.7522202
0.75216854
0.7521156
0.75206155
0.75200635
0.75194997
0.7518924
0.7518337
0.75177383
0.75171274
0.7516506
0.75158715
0.7515226
0.7514569
0.75139004
0.75132203
0.75125283
0.75118244
0.7511109
0.7510382
0.75096434
0.7508893
0.7508131
0.75073576
0.7506572
0.7505775
0.7504967
0.75041467
0.75033146
0.7502471
0.7501616
0.7500749
0.74998707
0.749898
0.74980783
0.7497165
0.749624
0.7495303
0.7494355
0.74933946
0.7492423
0.74914396
0.7490445
0.7489438
0.74884194
0.74873894
0.7486348
0.7485295
0.748423
0.74831533
0.7482065
0.7480965
0.74798536
0.747873
0.7477595
0.7476449
0.7475291
0.7474121
0.74729395
0.7471746
0.74705416
0.7469325
0.7468097
0.74668574
0.7465606
0.7464343
0.74630684
0.7461782
0.7460484
0.74591744
0.7457853
0.745652
0.74551755
0.7453819
0.7452451
0.7451072
0.74496806
0.74482775
0.7446863
0.7445437
0.7443999
0.74425495
0.7441088
0.7439616
0.7438131
0.7436635
0.7435127
0.74336076
0.7432077
0.7430534
0.742898
0.74274135
0.7425836
0.74242467
0.74226457
0.7421033
0.74194086
0.7417773
0.7416125
0.7414466
0.7412802
0.7411143
0.74094886
0.74078393
0.7406195
0.7404555
0.740292
0.74012905
0.7399665
0.7398045
0.739643
0.7394819
0.73932135
0.73916125
0.73900163
0.7388425
0.7386839
0.73852575
0.73836803
0.73821086
0.73805416
0.73789793
0.73774225
0.737587
0.73743224
0.7372779
0.73712415
0.73697084
0.736818
0.7366657
0.73651385
0.73636246
0.7362116
0.7360612
0.7359113
0.7357619
0.7356129
0.73546445
0.7353165
0.735169
0.735022
0.73487544
0.7347294
0.73458385
0.73443884
0.73429424
0.7341501
0.7340065
0.7338634
0.7337208
0.73357856
0.73343694
0.73329574
0.733155
0.7330148
0.73287505
0.7327358
0.73259705
0.7324588
0.73232096
0.73218364
0.73204684
0.73191047
0.7317746
0.73163927
0.7315044
0.73137
0.73123604
0.7311026
0.73096967
0.73083717
0.7307052
0.7305737
0.7304427
0.73031217
0.7301821
0.73005253
0.7299235
0.7297949
0.72966677
0.72953916
0.729412
0.72928536
0.72915924
0.7290335
0.72890836
0.7287836
0.7286594
0.72853565
0.7284124
0.7282896
0.72816736
0.7280455
0.7279242
0.72780335
0.727683
0.72756314
0.72744375
0.72732484
0.72720647
0.7270885
0.7269711
0.72685415
0.7267377
0.7266217
0.7265062
0.72639114
0.7262766
0.72616255
0.726049
0.7259359
0.7258233
0.72571117
0.7255996
0.7254884
0.72537774
0.7252676
0.7251579
0.7250487
0.72494
0.72483176
0.724724
0.7246167
0.72450995
0.7244036
0.7242978
0.7241925
0.72408766
0.7239833
0.7238794
0.72377604
0.7236731
0.7235707
0.7234688
0.72336733
0.72326636
0.72316587
0.72306585
0.7229664
0.7228673
0.7227688
0.72267073
0.72257316
0.72247607
0.72237945
0.72228336
0.7221877
0.72209257
0.7219979
0.72190374
0.72181004
0.7217168
0.7216241
0.7215318
0.7214401
0.7213488
0.721258
0.7211677
0.72107786
0.7209886
0.7208997
0.7208113
0.72072345
0.72063607
0.72054917
0.72046274
0.7203768
0.7202913
0.7202063
0.72012186
0.7200378
0.7199543
0.7198713
0.71978873
0.71970665
0.7196251
0.719544
0.71946335
0.71938324
0.7193036
0.71922445
0.7191458
0.7190676
0.7189899
0.71891266
0.71883595
0.71875966
0.7186839
0.7186086
0.7185338
0.7184595
0.7183857
0.7183123
0.7182395
0.7181671
0.71809524
0.71802384
0.7179529
0.71788245
0.71781254
0.71774304
0.7176741
0.7176056
0.7175376
0.71747005
0.717403
0.7173364
0.7172704
0.71720475
0.71713966
0.71707505
0.7170109
0.71694726
0.7168841
0.71682143
0.7167592
0.7166975
0.71663624
0.7165755
0.71651524
0.7164555
0.7163962
0.7163374
0.7162791
0.7162213
0.7161639
0.716107
0.7160506
0.7159948
0.71593934
0.7158844
0.71582997
0.715776
0.71572256
0.7156696
0.71561706
0.715565
0.71551347
0.71546245
0.71541184
0.7153618
0.7153122
0.71526307
0.71521443
0.71516633
0.71511865
0.7150715
0.71502477
0.7149786
0.71493286
0.7148876
0.71484286
0.7147986
0.7147548
0.71471155
0.7146687
0.7146264
0.7145845
0.71454316
0.71450233
0.7144619
0.71442205
0.7143826
0.71434367
0.7143052
0.71426725
0.71422976
0.71419275
0.71415627
0.7141202
0.7140847
0.71404964
0.71401507
0.713981
0.71394736
0.7139143
0.7138816
0.7138495
0.7138178
0.7137866
0.7137559
0.7137257
0.713696
0.71366674
0.71363795
0.7136097
0.7135819
0.7135546
0.7135278
0.71350145
0.7134756
0.71345025
0.71342534
0.71340096
0.71337706
0.71335363
0.7133307
0.7133082
0.7132862
0.71326476
0.7132438
0.7132232
0.7132032
0.71318364
0.71316457
0.713146
0.7131279
0.71311027
0.71309316
0.71307653
0.7130604
0.7130447
0.7130295
0.7130148
0.7130006
0.7129868
0.7129736
0.71296084
0.71294856
0.71293676
0.71292543
0.7129146
0.7129043
0.7128944
0.712885
0.71287614
0.71286774
0.7128598
0.71285236
0.71284544
0.71283895
0.712833
0.7128275
0.7128225
0.71281797
0.7128139
0.71281034
0.7128073
0.7128047
0.7128026
0.712801
0.71279985
0.7127992
0.712799
0.7127993
0.71280015
0.71280146
0.7128032
0.71280545
0.7128082
0.7128114
0.71281517
0.71281934
0.712824
0.7128292
0.71283484
0.712841
0.7128476
0.7128547
0.71286225
0.71287036
0.7128789
0.71288794
0.7128975
0.7129075
0.712918
0.71292895
0.71294045
0.7129524
0.71296483
0.7129777
0.7129911
0.713005
0.7130194
0.7130343
0.7130496
0.71306545
0.7130817
0.7130985
0.7131158
0.7131336
0.7131518
0.7131706
0.7131898
0.7132095
0.71322966
0.71325034
0.7132715
0.71329314
0.71331525
0.7133379
0.71336097
0.71338457
0.71340865
0.71343315
0.7134582
0.71348375
0.71350974
0.7135362
0.7135632
0.7135906
0.7136186
0.713647
0.7136759
0.7137048
0.713733
0.7137604
0.7137871
0.71381295
0.7138381
0.71386254
0.71388614
0.7139091
0.7139312
0.7139526
0.7139733
0.71399313
0.71401227
0.7140307
0.7140483
0.7140652
0.71408135
0.7140967
0.7141114
0.7141253
0.7141384
0.7141508
0.7141624
0.7141733
0.71418345
0.7141928
0.71420145
0.7142093
0.7142164
0.7142228
0.71422845
0.7142333
0.7142374
0.7142408
0.7142434
0.71424526
0.7142464
0.71424675
0.7142464
0.7142452
0.71424335
0.7142407
0.7142373
0.71423316
0.7142283
0.7142226
0.71421623
0.7142091
0.71420115
0.7141925
0.71418315
0.71417296
0.71416205
0.7141504
0.71413803
0.71412486
0.7141109
0.7140963
0.71408087
0.7140647
0.7140478
0.71403015
0.7140117
0.71399254
0.7139726
0.71395195
0.71393055
0.7139084
0.7138854
0.71386176
0.7138373
0.7138122
0.71378624
0.71375954
0.7137321
0.71370393
0.713675
0.71364534
0.7136149
0.7135837
0.71355176
0.7135191
0.71348566
0.71345145
0.7134165
0.7133808
0.7133444
0.7133072
0.71326923
0.71323055
0.7131911
0.71315086
0.7131099
0.71306825
0.71302575
0.7129826
0.7129386
0.7128939
0.7128484
0.71280223
0.71275526
0.7127076
0.7126591
0.7126099
0.71255994
0.7125092
0.7124577
0.7124055
0.7123526
0.7122988
0.71224433
0.71218914
0.71213317
0.7120764
0.71201897
0.71196073
0.7119017
0.711842
0.7117815
0.7117203
0.7116583
0.7115956
0.71153206
0.71146786
0.71140283
0.7113371
0.71127063
0.7112034
0.7111354
0.71106666
0.71099716
0.7109269
0.7108559
0.71078414
0.71071166
0.7106384
0.7105644
0.71048963
0.7104141
0.7103379
0.71026087
0.7101831
0.7101046
0.7100253
0.7099453
0.70986456
0.709783
0.70970076
0.70961773
0.709534
0.70944947
0.7093642
0.70927817
0.7091914
0.7091039
0.7090156
0.70892656
0.7088368
0.70874625
0.708655
0.7085629
0.70847017
0.70837665
0.70828235
0.7081873
0.7080915
0.707995
0.70789766
0.7077996
0.70770085
0.7076013
0.707501
0.70739996
0.70729816
0.7071956
0.7070923
0.7069883
0.70688343
0.7067779
0.7066716
0.70656455
0.7064567
0.7063482
0.70623887
0.7061288
0.706018
0.70590645
0.7057941
0.705681
0.70556724
0.7054527
0.70533735
0.7052213
0.7051045
0.7049869
0.70486856
0.70474946
0.70462966
0.7045091
0.7043877
0.70426565
0.7041428
0.70401925
0.7038949
0.7037698
0.703644
0.7035174
0.70339006
0.703262
0.70313317
0.7030035
0.70287323
0.7027421
0.70261025
0.7024777
0.7023443
0.7022102
0.70207536
0.70193976
0.7018034
0.7016663
0.70152843
0.70138985
0.7012505
0.70111036
0.7009695
0.7008279
0.70068556
0.70054245
0.70039856
0.70025396
0.7001086
0.6999625
0.6998156
0.699668
0.69951963
0.6993705
0.6992206
0.69907
0.6989186
0.69876647
0.6986136
0.69846
0.6983056
0.69815046
0.6979946
0.69783795
0.69768053
0.6975224
0.6973635
0.6972039
0.6970435
0.69688237
0.6967205
0.6965578
0.69639444
0.6962303
0.69606537
0.6958997
0.6957333
0.6955662
0.6953983
0.6952296
0.6950602
0.6948901
0.69471914
0.6945475
0.6943751
0.69420195
0.694028
0.6938533
0.6936779
0.6935018
0.69332486
0.6931472
0.6929688
0.6927896
0.69260967
0.692429
0.69224757
0.6920654
0.6918825
0.6916988
0.6915144
0.6913292
0.6911433
0.6909566
0.69076914
0.69058096
0.690392
0.6902023
0.69001186
0.6898207
0.6896288
0.6894361
0.6892426
0.6890484
0.6888535
0.68865776
0.6884613
0.68826413
0.6880662
0.68786746
0.687668
0.6874678
0.6872669
0.6870652
0.6868627
0.6866595
0.68645555
0.6862508
0.68604535
0.6858392
0.68563217
0.68542445
0.685216
0.6850068
0.6847968
0.6845861
0.68437463
0.6841624
0.6839494
0.6837357
0.6835212
0.683306
0.68309003
0.6828733
0.6826558
0.6824376
0.6822186
0.68199885
0.6817784
0.6815571
0.68133515
0.6811124
0.6808889
0.68066466
0.68043965
0.6802139
0.67998743
0.67976016
0.6795322
0.67930347
0.6790739
0.6788437
0.6786127
0.6783809
0.67814845
0.67791516
0.67768115
0.6774464
0.67721087
0.67697465
0.6767376
0.67649984
0.67626137
0.67602205
0.6757821
0.6755413
0.67529976
0.6750575
0.67481446
0.6745707
0.6743262
0.6740809
0.67383486
0.6735881
0.67334056
0.6730923
0.6728433
0.6725935
0.67234296
0.67209166
0.6718396
0.6715868
0.6713333
0.671079
0.670824
0.67056817
0.6703116
0.6700543
0.6697963
0.6695375
0.66927797
0.6690177
0.6687566
0.6684948
0.66823226
0.6679689
0.6677049
0.66744006
0.6671745
0.6669082
0.6666412
0.6663733
0.6661048
0.66583544
0.6655654
0.6652946
0.665023
0.6647507
0.66447765
0.6642038
0.6639301
0.6636581
0.6633877
0.663119
0.662852
0.6625866
0.66232294
0.6620609
0.6618005
0.6615418
0.66128474
0.6610294
0.66077566
0.6605236
0.66027325
0.6600245
0.65977746
0.65953207
0.65928835
0.65904623
0.65880585
0.65856713
0.6583301
0.65809464
0.65786093
0.65762883
0.6573984
0.6571697
0.6569426
0.6567172
0.6564934
0.65627134
0.6560509
0.6558322
0.6556151
0.6553997
0.6551859
0.6549738
0.65476334
0.6545546
0.6543475
0.654142
0.6539383
0.6537362
0.6535357
0.65333694
0.6531398
0.6529444
0.6527506
0.65255845
0.652368
0.65217924
0.6519921
0.65180665
0.65162283
0.6514407
0.65126026
0.65108144
0.6509043
0.6507288
0.650555
0.6503829
0.6502124
0.65004355
0.6498764
0.64971095
0.6495471
0.649385
0.64922446
0.6490656
0.6489085
0.648753
0.64859915
0.648447
0.6482965
0.64814764
0.6480005
0.647855
0.6477111
0.64756894
0.6474284
0.6472896
0.64715236
0.6470169
0.646883
0.6467508
0.6466203
0.6464914
0.6463642
0.6462387
0.6461148
0.64599264
0.6458721
0.6457532
0.645636
0.64552045
0.6454066
0.64529437
0.64518386
0.64507496
0.64496773
0.6448622
0.6447583
0.64465606
0.6445555
0.6444566
0.64435935
0.6442638
0.6441699
0.64407766
0.6439871
0.6438982
0.6438109
0.6437254
0.6436415
0.6435592
0.64347863
0.6433997
0.64332247
0.6432469
0.6431729
0.6431007
0.6430301
0.64296114
0.6428939
0.6428283
0.64276433
0.6427021
0.6426415
0.64258254
0.64252526
0.64246964
0.6424157
0.6423634
0.64231277
0.6422638
0.64221656
0.6421709
0.642127
0.64208466
0.64204407
0.6420051
0.6419678
0.64193213
0.64189816
0.64186585
0.6418352
0.64180624
0.64177895
0.6417533
0.6417293
0.641707
0.6416863
0.64166737
0.64165
0.64163435
0.6416204
0.64160806
0.6415974
0.6415884
0.64158106
0.6415754
0.64157134
0.641569
0.64156836
0.6415693
0.641572
0.6415763
0.6415823
0.64158994
0.64159924
0.6416102
0.6416229
0.6416372
0.6416532
0.64167076
0.6416901
0.64171106
0.6417337
0.64175797
0.64178395
0.64181155
0.6418409
0.6418718
0.6419044
0.6419387
0.6419746
0.6420123
0.6420515
0.64209247
0.6421351
0.64217937
0.6422253
0.6422729
0.6423222
0.6423731
0.6424257
0.64247996
0.64253587
0.6425935
0.64265275
0.64271367
0.64277625
0.6428405
0.64290637
0.64297396
0.6430432
0.64311415
0.6431867
0.64326096
0.64333683
0.6434144
0.64349365
0.64357454
0.6436571
0.6437413
0.6438272
0.64391476
0.644004
0.6440949
0.6441874
0.6442816
0.6443775
0.64447504
0.6445743
0.64467514
0.64477766
0.64488184
0.64498776
0.6450953
0.6452045
0.64531535
0.6454279
0.645542
0.6456579
0.64577544
0.6458946
0.64601547
0.64613795
0.64626217
0.646388
0.6465155
0.64664465
0.64677554
0.64690804
0.6470422
0.647178
0.6473155
0.6474547
0.6475955
0.647738
0.64788216
0.64802796
0.6481755
0.6483246
0.6484754
0.64862794
0.6487821
0.6489379
0.64909536
0.6492545
0.64941525
0.64957774
0.6497419
0.6499077
0.65007514
0.6502443
0.65041506
0.6505875
0.65076166
0.65093744
0.6511149
0.651294
0.6514748
0.6516572
0.65184134
0.65202713
0.6522145
0.65240365
0.65259445
0.65278685
0.6529809
0.6531767
0.65337414
0.6535732
0.65377396
0.65397644
0.6541805
0.6543863
0.65459365
0.65480274
0.6550135
0.65522593
0.65544
0.65565574
0.6558731
0.65609217
0.65631294
0.6565353
0.6567594
0.6569851
0.6572125
0.65744156
0.6576723
0.6579047
0.65813875
0.6583744
0.65861183
0.6588509
0.6590916
0.65933394
0.659578
0.6598237
0.6600711
0.6603201
0.6605708
0.66082317
0.6610772
0.6613329
0.6615903
0.66184926
0.66211
0.66237235
0.66263634
0.66290206
0.6631694
0.6634384
0.66370904
0.6639814
0.66425544
0.6645311
0.6648084
0.6650874
0.6653681
0.6656504
0.6659344
0.66622007
0.66650736
0.6667964
0.667087
0.6673794
0.66767335
0.667969
0.6682663
0.6685653
0.6688659
0.66916823
0.6694722
0.6697778
0.67008513
0.67039406
0.6707047
0.671017
0.671331
0.6716466
0.6719639
0.6722829
0.6726035
0.6729258
0.6732497
0.6735753
0.6739026
0.6742315
0.67456216
0.6748944
0.67522836
0.67556393
0.67590123
0.67624015
0.6765807
0.676923
0.6772669
0.67761254
0.67795974
0.67830867
0.67865926
0.6790115
0.67936546
0.679721
0.68007827
0.68043715
0.68079776
0.68116
0.68152386
0.6818894
0.6822567
0.6826256
0.68299615
0.6833684
0.6837422
0.6841178
0.68449503
0.6848739
0.68525445
0.68563664
0.68602055
0.6864061
0.6867933
0.6871822
0.6875727
0.6879649
0.6883588
0.6887543
0.6891515
0.6895494
0.6899462
0.6903418
0.6907362
0.69112945
0.6915216
0.69191253
0.69230235
0.69269097
0.69307846
0.6934648
0.69385
0.69423395
0.6946168
0.6949985
0.695379
0.69575834
0.69613653
0.6965136
0.69688946
0.6972642
0.6976378
0.69801015
0.6983814
0.6987515
0.6991204
0.69948816
0.6998548
0.7002202
0.70058453
0.70094764
0.70130956
0.7016704
0.70203006
0.7023885
0.70274585
0.703102
0.703457
0.7038109
0.70416355
0.70451504
0.7048654
0.7052146
0.70556265
0.70590955
0.70625526
0.70659983
0.7069432
0.70728546
0.7076266
0.7079665
0.70830524
0.70864284
0.7089793
0.7093146
0.7096487
0.7099817
0.7103135
0.7106441
0.7109736
0.7113019
0.7116291
0.71195513
0.71228
0.7126036
0.71292615
0.71324754
0.71356773
0.7138868
0.71420467
0.7145214
0.71483696
0.71515137
0.7154646
0.7157767
0.71608764
0.7163974
0.716706
0.7170134
0.7173197
0.71762484
0.7179288
0.7182316
0.7185333
0.71883374
0.7191331
0.7194312
0.71972823
0.7200241
0.7203188
0.72061235
0.7209047
0.7211959
0.7214859
0.7217748
0.7220625
0.7223491
0.72263455
0.7229188
0.7232019
0.7234838
0.72376454
0.7240442
0.7243226
0.7245999
0.72487605
0.725151
0.7254248
0.72569746
0.72596896
0.72623926
0.72650844
0.7267765
0.72704333
0.727309
0.7275735
0.7278369
0.7280991
0.7283602
0.72862005
0.7288788
0.72913635
0.72939277
0.729648
0.7299021
0.73015505
0.7304068
0.7306574
0.73090684
0.73115516
0.7314023
0.73164827
0.73189306
0.7321367
0.7323792
0.73262054
0.7328607
0.7330997
0.7333376
0.7335743
0.73380977
0.73404413
0.73427737
0.7345094
0.7347403
0.73497003
0.7351986
0.735426
0.73565227
0.7358774
0.7361013
0.7363241
0.7365457
0.73676616
0.73698545
0.7372036
0.73742056
0.7376364
0.737851
0.7380645
0.73827684
0.738488
0.738698
0.73890686
0.7391146
0.7393211
0.73952645
0.7397307
0.7399337
0.74013567
0.74033636
0.740536
0.74073434
0.74093163
0.7411277
0.74132264
0.7415164
0.74170905
0.7419005
0.74209076
0.74227995
0.7424679
0.7426547
0.74284035
0.7430249
0.74320817
0.7433904
0.7435714
0.7437512
0.7439299
0.7441075
0.74428385
0.74445903
0.74463314
0.744806
0.7449778
0.7451483
0.74531776
0.745486
0.7456531
0.74581903
0.7459838
0.7461474
0.7463099
0.74647117
0.7466313
0.7467903
0.7469481
0.74710476
0.7472603
0.7474146
0.7475678
0.74771976
0.7478706
0.74802035
0.7481689
0.7483163
0.7484625
0.7486075
0.74875146
0.74889416
0.7490358
0.74917614
0.74931544
0.74945354
0.74959046
0.74972624
0.7498609
0.74999434
0.7501266
0.7502578
0.7503877
0.75051653
0.7506442
0.7507707
0.75089604
0.75102025
0.7511433
0.7512651
0.7513858
0.7515054
0.75162375
0.75174093
0.75185704
0.7519719
0.7520856
0.7521982
0.7523097
0.7524199
0.752529
0.75263697
0.7527437
0.75284934
0.7529538
0.7530571
0.7531593
0.75326025
0.75336003
0.75345874
0.75355625
0.7536526
0.75374776
0.75384176
0.7539346
0.75402635
0.7541169
0.75420624
0.75429446
0.75438154
0.7544674
0.7545522
0.75463575
0.7547182
0.7547994
0.75487953
0.7549585
0.7550363
0.7551129
0.75518835
0.7552627
0.7553358
0.7554078
0.7554786
0.7555483
0.7556168
0.75568414
0.7557503
0.7558153
0.7558792
0.7559419
0.75600344
0.7560638
0.75612307
0.7561811
0.75623804
0.7562938
0.7563484
0.7564018
0.75645405
0.75650513
0.7565551
0.7566039
0.7566515
0.75669795
0.75674325
0.7567874
0.7568304
0.75687224
0.7569129
0.7569524
0.75699073
0.7570279
0.7570639
0.7570988
0.75713253
0.7571651
0.7571964
0.7572267
0.75725573
0.7572836
0.7573104
0.75733596
0.7573604
0.7573837
0.75740576
0.75742674
0.7574465
0.7574651
0.7574826
0.7574989
0.75751406
0.75752807
0.7575409
0.75755256
0.75756305
0.7575724
0.7575806
0.7575876
0.7575935
0.75759816
0.75760174
0.7576041
0.7576054
0.75760543
0.75760436
0.7576021
0.7575987
0.7575941
0.7575884
0.7575815
0.7575734
0.7575642
0.7575538
0.7575423
0.7575296
0.7575158
0.75750077
0.7574846
0.75746727
0.7574488
0.7574291
0.7574083
0.7573863
0.7573632
0.75733894
0.7573135
0.75728685
0.7572591
0.75723016
0.75720006
0.7571688
0.7571364
0.75710285
0.7570681
0.7570322
0.75699514
0.75695693
0.7569176
0.75687706
0.7568354
0.75679255
0.7567485
0.7567033
0.756657
0.75660956
0.75656086
0.7565111
0.75646013
0.756408
0.7563547
0.7563003
0.75624466
0.75618786
0.7561299
0.75607085
0.7560106
0.7559492
0.7558866
0.7558229
0.755758
0.75569195
0.7556248
0.7555564
0.75548685
0.7554166
0.7553463
0.7552761
0.7552059
0.75513583
0.75506574
0.75499576
0.75492585
0.75485593
0.7547861
0.7547163
0.75464654
0.75457686
0.75450724
0.7544377
0.7543681
0.7542987
0.75422925
0.75415987
0.7540906
0.75402135
0.7539521
0.75388294
0.75381386
0.75374484
0.7536758
0.75360686
0.753538
0.75346917
0.7534004
0.75333166
0.753263
0.75319433
0.7531258
0.75305724
0.7529888
0.7529204
0.752852
0.7527837
0.75271547
0.7526473
0.75257915
0.752511
0.752443
0.752375
0.75230706
0.7522392
0.7521714
0.7521036
0.75203586
0.7519682
0.7519006
0.751833
0.75176555
0.7516981
0.75163066
0.7515633
0.751496
0.7514288
0.7513616
0.75129443
0.7512274
0.7511603
0.7510933
0.75102645
0.7509596
0.75089276
0.75082594
0.75075924
0.7506926
0.75062597
0.75055945
0.75049293
0.7504265
0.7503601
0.75029373
0.75022745
0.75016123
0.750095
0.7500289
0.7499628
0.7498968
0.74983084
0.7497649
0.74969906
0.74963325
0.74956745
0.74950176
0.74943614
0.7493705
0.74930495
0.74923944
0.74917406
0.7491087
0.7490433
0.748978
0.7489128
0.7488476
0.7487825
0.7487174
0.7486524
0.7485874
0.7485225
0.7484577
0.7483929
0.74832815
0.7482634
0.74819875
0.7481342
0.74806964
0.74800515
0.7479407
0.74787635
0.74781203
0.7477477
0.7476835
0.74761933
0.74755526
0.7474912
0.74742717
0.7473632
0.7472993
0.7472355
0.74717164
0.7471079
0.7470442
0.7469806
0.746917
0.7468535
0.74679
0.7467266
0.7466632
0.74659985
0.7465366
0.7464734
0.7464102
0.7463471
0.74628407
0.74622107
0.7461581
0.7460952
0.74603236
0.7459696
0.74590683
0.7458442
0.74578154
0.74571896
0.74565643
0.74559397
0.74553156
0.74546915
0.74540687
0.7453446
0.7452824
0.74522024
0.74515814
0.7450961
0.7450341
0.74497217
0.74491024
0.74484843
0.7447866
0.7447249
0.74466324
0.7446016
0.74454004
0.7444785
0.7444171
0.7443556
0.7442943
0.744233
0.74417174
0.7441105
0.7440494
0.7439883
0.74392724
0.74386626
0.74380535
0.74374443
0.74368364
0.74362284
0.7435621
0.7435015
0.74344087
0.74338025
0.74331975
0.7432593
0.74319893
0.74313855
0.74307823
0.74301803
0.74295783
0.7428977
0.7428376
0.7427776
0.74271756
0.74265766
0.74259776
0.742538
0.7424782
0.74241847
0.7423588
0.7422992
0.74223965
0.74218017
0.7421207
0.7420613
0.74200195
0.74194264
0.74188346
0.74182427
0.74176514
0.741706
0.741647
0.74158806
0.7415291
0.7414703
0.74141145
0.7413527
0.74129397
0.7412353
0.7411767
0.7411182
0.74105966
0.74100125
0.74094284
0.7408845
0.74082625
0.740768
0.74070984
0.74065167
0.7405936
0.7405356
0.7404776
0.74041975
0.74036187
0.74030405
0.7402463
0.7401886
0.74013096
0.7400734
0.7400158
0.73995835
0.7399009
0.73984355
0.7397862
0.7397289
0.7396717
0.73961455
0.7395574
0.73950034
0.73944336
0.7393864
0.73932946
0.7392726
0.73921585
0.7391591
0.73910236
0.73904574
0.7389892
0.7389326
0.73887616
0.7388197
0.73876333
0.738707
0.73865074
0.73859453
0.7385384
0.7384823
0.7384262
0.73837024
0.7383143
0.73825836
0.7382025
0.7381467
0.738091
0.7380353
0.73797965
0.7379241
0.73786855
0.7378131
0.7377577
0.7377023
0.737647
0.73759174
0.73753655
0.73748136
0.7374263
0.7373712
0.73731625
0.7372613
0.7372064
0.73715156
0.7370968
0.73704207
0.73698735
0.73693275
0.73687816
0.7368237
0.7367692
0.7367148
0.7366604
0.7366061
0.7365519
0.73649764
0.7364435
0.7363894
0.7363354
0.7362814
0.73622745
0.73617357
0.73611975
0.736066
0.7360122
0.7359586
0.73590493
0.7358514
0.7357979
0.7357444
0.735691
0.73563766
0.7355844
0.7355311
0.7354779
0.73542476
0.7353717
0.73531866
0.7352657
0.73521274
0.7351599
0.73510706
0.7350543
0.73500156
0.73494893
0.7348963
0.73484373
0.7347912
0.73473877
0.7346864
0.73463404
0.73458177
0.7345295
0.73447734
0.7344252
0.7343731
0.7343211
0.73426914
0.7342172
0.7341653
0.7341135
0.7340618
0.73401004
0.73395836
0.7339068
0.73385525
0.73380375
0.7337523
0.73370093
0.73364955
0.7335983
0.73354703
0.7334959
0.73344475
0.73339367
0.73334265
0.7332917
0.7332408
0.73318994
0.7331391
0.7330884
0.73303765
0.732987
0.73293644
0.7328859
0.7328354
0.7327849
0.73273456
0.73268425
0.73263395
0.73258376
0.7325336
0.73248345
0.7324334
0.7323834
0.7323334
0.73228353
0.73223364
0.7321839
0.7321341
0.7320844
0.7320348
0.7319852
0.7319357
0.73188615
0.73183674
0.7317874
0.73173803
0.7316888
0.73163956
0.7315904
0.7315413
0.7314922
0.7314432
0.7313943
0.73134524
0.7312957
0.7312457
0.73119515
0.7311442
0.73109275
0.7310408
0.7309883
0.7309354
0.730882
0.7308281
0.73077375
0.73071885
0.73066354
0.7306077
0.73055136
0.73049456
0.7304373
0.7303795
0.7303212
0.7302625
0.7302033
0.73014355
0.73008335
0.73002267
0.7299615
0.7298998
0.7298377
0.7297751
0.729712
0.7296484
0.72958434
0.7295198
0.7294547
0.7293892
0.72932315
0.72925663
0.7291897
0.7291222
0.7290543
0.7289858
0.7289169
0.72884744
0.7287776
0.7287072
0.7286363
0.728565
0.72849315
0.7284208
0.728348
0.7282747
0.728201
0.7281267
0.72805196
0.7279767
0.727901
0.7278248
0.7277481
0.7276709
0.7275933
0.72751516
0.72743654
0.7273574
0.7272778
0.7271977
0.7271172
0.7270361
0.7269546
0.72687256
0.7267901
0.7267071
0.7266236
0.7265397
0.7264552
0.7263703
0.72628486
0.726199
0.7261126
0.7260257
0.7259384
0.7258505
0.7257622
0.7256734
0.7255841
0.7254943
0.7254041
0.7253133
0.72522205
0.7251304
0.7250382
0.7249455
0.7248523
0.7247586
0.7246645
0.72456986
0.7244748
0.7243792
0.7242831
0.72418654
0.72408944
0.72399193
0.7238939
0.7237954
0.7236964
0.72359693
0.723497
0.72339654
0.72329557
0.7231942
0.72309226
0.7229899
0.72288704
0.7227837
0.72267985
0.7225755
0.7224707
0.7223654
0.72225964
0.72215337
0.7220466
0.7219394
0.7218317
0.72172344
0.7216148
0.7215056
0.7213959
0.72128576
0.72117513
0.72106403
0.72095245
0.72084033
0.7207278
0.72061473
0.7205012
0.72038716
0.72027266
0.7201577
0.72004217
0.71992624
0.7198098
0.7196928
0.71957546
0.7194575
0.71933913
0.7192203
0.7191009
0.7189811
0.71886075
0.7187399
0.71861863
0.71849686
0.7183746
0.7182518
0.7181286
0.7180049
0.71788067
0.717756
0.7176308
0.71750516
0.717379
0.7172524
0.71712524
0.7169976
0.7168696
0.71674097
0.7166119
0.7164824
0.7163524
0.71622187
0.71609086
0.71595937
0.7158274
0.71569496
0.71556205
0.7154286
0.7152947
0.7151603
0.7150254
0.71489006
0.7147542
0.7146179
0.7144811
0.7143438
0.71420604
0.71406776
0.713929
0.71378976
0.71365005
0.7135098
0.71336913
0.7132279
0.7130863
0.71294415
0.7128015
0.7126584
0.7125148
0.7123707
0.71222615
0.7120811
0.7119355
0.7117895
0.711643
0.711496
0.71134853
0.71120054
0.71105206
0.71090317
0.71075374
0.71060383
0.71045345
0.71030253
0.7101512
0.7099993
0.70984703
0.7096942
0.7095409
0.7093871
0.70923287
0.7090781
0.70892286
0.7087671
0.7086109
0.7084542
0.708297
0.70813936
0.7079812
0.70782256
0.7076635
0.70750386
0.70734376
0.7071832
0.70702213
0.7068606
0.70669854
0.70653605
0.70637304
0.70620954
0.70604557
0.7058811
0.7057162
0.7055508
0.70538485
0.7052185
0.7050516
0.70488423
0.7047164
0.70454806
0.7043792
0.7042099
0.7040401
0.7038699
0.7036991
0.70352787
0.70335615
0.7031839
0.7030112
0.70283806
0.7026644
0.7024902
0.70231557
0.70214045
0.70196486
0.7017888
0.7016122
0.7014351
0.7012576
0.70107955
0.70090103
0.70072204
0.7005425
0.70036256
0.7001821
0.7000012
0.69981974
0.69963783
0.69945544
0.6992726
0.69908917
0.69890535
0.698721
0.69853616
0.69835085
0.69816506
0.6979788
0.69779205
0.6976048
0.6974171
0.69722885
0.69704014
0.69685096
0.6966613
0.69647115
0.6962805
0.6960894
0.69589776
0.69570565
0.6955131
0.69532
0.6951265
0.69493246
0.6947379
0.69454294
0.69434744
0.69415146
0.693955
0.6937581
0.69356066
0.6933627
0.69316435
0.69296545
0.6927661
0.6925662
0.6923659
0.6921651
0.69196373
0.691762
0.6915597
0.6913569
0.69115365
0.6909499
0.6907457
0.690541
0.6903358
0.6901302
0.689924
0.68971735
0.6895102
0.6893026
0.68909454
0.6888859
0.6886769
0.6884673
0.6882573
0.68804675
0.68783575
0.6876243
0.6874123
0.68719983
0.6869869
0.6867735
0.68655956
0.68634516
0.6861303
0.6859149
0.68569905
0.6854827
0.6852659
0.6850486
0.6848308
0.6846125
0.6843937
0.6841745
0.6839547
0.68373454
0.6835138
0.6832926
0.68307096
0.6828488
0.6826261
0.682403
0.6821794
0.68195534
0.68173075
0.6815057
0.6812801
0.68105406
0.68082756
0.6806005
0.680373
0.6801451
0.6799166
0.6796877
0.6794582
0.6792283
0.6789979
0.678767
0.67853564
0.6783038
0.67807144
0.6778386
0.67760533
0.6773715
0.6771372
0.6769025
0.6766672
0.6764315
0.67619526
0.6759585
0.67572135
0.67548364
0.6752455
0.67500687
0.67476773
0.6745281
0.67428803
0.6740474
0.67380637
0.6735648
0.67332274
0.67308027
0.67283726
0.6725937
0.67234975
0.6721053
0.6718609
0.6716179
0.6713765
0.67113656
0.67089814
0.6706613
0.6704259
0.670192
0.6699596
0.66972876
0.66949946
0.6692716
0.66904527
0.6688205
0.6685972
0.66837543
0.6681552
0.66793644
0.6677192
0.6675035
0.66728926
0.6670765
0.66686535
0.6666557
0.6664475
0.6662409
0.6660358
0.6658321
0.66563004
0.6654294
0.66523033
0.66503274
0.6648367
0.66464216
0.66444916
0.6642576
0.6640676
0.6638791
0.6636921
0.6635066
0.6633227
0.66314024
0.66295934
0.6627799
0.662602
0.66242564
0.66225076
0.66207737
0.6619055
0.6617352
0.6615663
0.661399
0.6612332
0.6610689
0.66090614
0.6607449
0.6605851
0.66042686
0.66027015
0.66011494
0.6599612
0.65980905
0.6596584
0.6595092
0.65936154
0.65921545
0.6590708
0.6589277
0.65878606
0.658646
0.6585074
0.6583704
0.65823483
0.6581008
0.6579682
0.6578372
0.65770775
0.6575798
0.6574533
0.6573283
0.65720487
0.6570829
0.6569625
0.6568436
0.6567262
0.6566103
0.6564959
0.6563831
0.65627176
0.6561619
0.6560536
0.6559468
0.65584147
0.6557377
0.6556354
0.6555347
0.65543544
0.6553377
0.6552415
0.6551468
0.6550536
0.6549619
0.65487176
0.65478307
0.6546959
0.65461034
0.6545262
0.6544436
0.6543625
0.6542829
0.65420485
0.6541283
0.6540533
0.6539797
0.6539077
0.6538372
0.65376824
0.65370077
0.6536348
0.65357035
0.6535074
0.65344596
0.65338606
0.65332764
0.6532708
0.6532154
0.6531615
0.6531092
0.65305835
0.65300906
0.6529612
0.65291494
0.6528701
0.65282685
0.6527851
0.6527448
0.6527061
0.6526689
0.6526332
0.652599
0.6525663
0.65253514
0.65250546
0.6524773
0.6524507
0.6524256
0.652402
0.6523799
0.6523593
0.65234023
0.65232265
0.6523066
0.6522921
0.6522791
0.6522676
0.65225756
0.6522491
0.6522421
0.65223664
0.6522327
0.6522303
0.65222937
0.65222996
0.6522321
0.6522357
0.6522408
0.6522475
0.65225565
0.6522653
0.6522765
0.6522892
0.6523034
0.65231913
0.65233636
0.65235513
0.6523754
0.65239716
0.65242046
0.65244526
0.65247154
0.6524994
0.6525287
0.6525596
0.65259194
0.6526258
0.6526612
0.6526981
0.6527365
0.6527764
0.65281785
0.6528608
0.6529053
0.65295124
0.65299875
0.65304774
0.6530983
0.6531503
0.65320385
0.6532589
0.6533155
0.65337354
0.65343314
0.65349424
0.6535569
0.653621
0.65368664
0.6537538
0.6538225
0.65389264
0.65396434
0.65403754
0.6541123
0.6541885
0.65426624
0.6543455
0.6544263
0.65450853
0.65459234
0.6546776
0.6547645
0.6548528
0.65494263
0.655034
0.65512687
0.6552213
0.6553172
0.6554146
0.6555135
0.65561396
0.6557159
0.65581936
0.6559243
0.65603083
0.65613884
0.65624833
0.6563594
0.6564719
0.65658593
0.6567015
0.65681857
0.6569372
0.6570573
0.6571789
0.657302
0.65742666
0.6575528
0.65768045
0.6578096
0.6579403
0.65807253
0.6582062
0.65834147
0.6584782
0.6586165
0.65875626
0.6588975
0.65904033
0.65918463
0.6593304
0.6594778
0.6596266
0.659777
0.6599288
0.6600822
0.6602371
0.66039354
0.6605514
0.6607109
0.6608718
0.6610343
0.66119826
0.6613637
0.66153073
0.66169924
0.6618692
0.66204077
0.6622138
0.6623884
0.66256446
0.662742
0.66292113
0.66310173
0.6632839
0.6634675
0.66365266
0.66383934
0.6640275
0.6642172
0.6644084
0.6646011
0.66479534
0.664991
0.6651883
0.66538703
0.66558737
0.6657891
0.66599244
0.66619724
0.6664036
0.66661143
0.66682076
0.66703165
0.667244
0.6674579
0.6676733
0.6678902
0.66810864
0.6683286
0.66855
0.668773
0.66899747
0.6692235
0.669451
0.66968
0.66991055
0.6701426
0.6703761
0.6706112
0.6708478
0.6710859
0.67132545
0.6715666
0.6718092
0.6720534
0.672299
0.6725462
0.6727949
0.6730451
0.6732968
0.67355
0.67380476
0.674061
0.67431873
0.674578
0.6748388
0.6751011
0.6753649
0.6756302
0.67589706
0.6761654
0.6764353
0.6767067
0.67697954
0.67725396
0.6775299
0.6778073
0.6780862
0.67836666
0.67864865
0.6789321
0.6792171
0.67950356
0.6797916
0.6800811
0.6803722
0.6806647
0.6809588
0.6812544
0.68155146
0.6818501
0.6821502
0.6824518
0.68275493
0.6830596
0.68336576
0.68367344
0.6839826
0.6842933
0.68460554
0.6849193
0.68523455
0.6855513
0.6858696
0.68618935
0.6865106
0.68683344
0.68715775
0.6874836
0.6878109
0.6881398
0.6884701
0.68880206
0.68913543
0.68947035
0.68980676
0.6901447
0.69048417
0.6908251
0.6911676
0.6915116
0.69185704
0.69220406
0.69255257
0.6929026
0.6932542
0.6936072
0.6939618
0.6943179
0.6946755
0.6950346
0.69539523
0.6957574
0.69612104
0.6964862
0.69685227
0.6972176
0.69758207
0.69794565
0.69830847
0.6986704
0.6990315
0.69939166
0.699751
0.70010954
0.7004672
0.7008241
0.70118004
0.70153517
0.70188946
0.70224285
0.7025954
0.70294714
0.70329803
0.70364803
0.7039972
0.7043455
0.704693
0.7050396
0.7053854
0.7057303
0.7060744
0.7064176
0.70676
0.7071015
0.70744216
0.707782
0.70812094
0.7084591
0.7087964
0.7091328
0.70946836
0.70980304
0.71013695
0.71046996
0.71080214
0.7111334
0.7114639
0.71179354
0.7121223
0.7124502
0.7127773
0.71310353
0.71342885
0.7137534
0.71407706
0.7143999
0.71472186
0.71504295
0.71536326
0.7156827
0.7160012
0.71631896
0.7166358
0.71695185
0.717267
0.71758133
0.7178948
0.7182074
0.71851915
0.7188301
0.7191402
0.71944934
0.71975774
0.72006524
0.7203719
0.72067773
0.7209827
0.72128683
0.7215901
0.7218925
0.7221941
0.7224948
0.72279465
0.7230936
0.72339183
0.72368914
0.7239856
0.7242812
0.724576
0.7248699
0.7251629
0.72545516
0.7257465
0.726037
0.7263267
0.72661555
0.7269035
0.7271906
0.72747684
0.7277623
0.72804683
0.72833055
0.72861344
0.7288954
0.7291766
0.7294569
0.7297364
0.730015
0.73029274
0.73056966
0.7308457
0.73112094
0.7313953
0.7316688
0.73194146
0.73221326
0.7324842
0.73275435
0.7330236
0.733292
0.73355955
0.7338263
0.7340921
0.7343572
0.7346213
0.7348846
0.73514706
0.73540866
0.73566943
0.73592937
0.7361884
0.7364466
0.736704
0.7369605
0.7372162
0.737471
0.7377249
0.73797804
0.7382303
0.7384817
0.7387323
0.73898196
0.7392308
0.7394788
0.739726
0.7399723
0.74021775
0.74046236
0.74070615
0.74094903
0.7411911
0.7414323
0.74167264
0.7419121
0.7421508
0.7423886
0.7426256
0.7428617
0.74309695
0.7433314
0.7435649
0.7437976
0.74402946
0.7442605
0.7444906
0.7447199
0.7449484
0.74517596
0.74540275
0.74562865
0.7458537
0.7460779
0.74630123
0.74652374
0.7467454
0.74696624
0.7471862
0.7474053
0.74762356
0.74784094
0.7480575
0.7482732
0.74848807
0.74870205
0.7489152
0.7491275
0.749339
0.74954957
0.7497593
0.74996823
0.75017625
0.7503835
0.75058985
0.7507953
0.751
0.7512038
0.7514067
0.75160885
0.7518101
0.75201046
0.75221
0.75240874
0.7526066
0.75280356
0.7529997
0.75319505
0.7533895
0.7535831
0.75377584
0.75396776
0.7541588
0.754349
0.75453836
0.7547268
0.75491446
0.75510126
0.75528723
0.75547236
0.7556566
0.75584
0.7560225
0.75620425
0.7563851
0.7565651
0.7567442
0.75692254
0.7571
0.7572766
0.7574523
0.75762725
0.7578013
0.75797445
0.7581468
0.7583183
0.75848895
0.75865877
0.7588277
0.7589958
0.759163
0.75932944
0.75949496
0.7596597
0.7598235
0.7599865
0.76014864
0.76031
0.7604704
0.76063
0.76078874
0.76094663
0.7611037
0.7612599
0.76141524
0.76156974
0.7617234
0.76187617
0.7620281
0.7621792
0.76232946
0.7624788
0.76262736
0.76277506
0.7629219
0.7630679
0.76321304
0.76335734
0.7635008
0.7636434
0.7637851
0.763926
0.7640661
0.7642053
0.7643436
0.7644811
0.76461774
0.7647535
0.76488847
0.7650226
0.7651558
0.76528823
0.7654197
0.76555043
0.76568025
0.7658093
0.7659374
0.7660647
0.7661911
0.7663167
0.76644146
0.7665654
0.7666884
0.7668106
0.76693195
0.7670524
0.7671721
0.76729083
0.7674088
0.7675259
0.76764214
0.76775753
0.76787204
0.76798576
0.7680986
0.7682106
0.7683217
0.768432
0.76854146
0.76865005
0.76875776
0.76886463
0.76897067
0.7690759
0.76918024
0.7692837
0.76938635
0.76948816
0.76958907
0.76968914
0.7697884
0.7698868
0.7699843
0.770081
0.7701768
0.77027184
0.77036595
0.77045923
0.7705517
0.7706433
0.770734
0.7708239
0.77091295
0.7710011
0.7710885
0.77117497
0.77126056
0.7713454
0.7714293
0.7715124
0.77159464
0.771676
0.77175653
0.7718362
0.7719151
0.77199304
0.77207017
0.77214646
0.77222186
0.7722965
0.7723702
0.7724431
0.7725151
0.7725863
0.7726566
0.7727261
0.7727948
0.77286255
0.7729295
0.77299553
0.7730608
0.7731252
0.7731887
0.77325135
0.7733132
0.7733742
0.77343434
0.7734936
0.77355206
0.77360964
0.7736664
0.77372223
0.77377725
0.7738314
0.7738848
0.7739373
0.7739889
0.7740397
0.7740896
0.7741387
0.7741869
0.7742343
0.77428085
0.7743265
0.7743713
0.7744153
0.77445847
0.7745007
0.77454215
0.77458274
0.77462244
0.77466136
0.7746994
0.7747365
0.7747729
0.77480835
0.774843
0.7748768
0.7749097
0.77494174
0.774973
0.7750034
0.7750329
0.77506155
0.7750894
0.7751164
0.7751425
0.77516776
0.7751922
0.7752158
0.7752387
0.77526134
0.77528375
0.77530605
0.7753281
0.77535
0.7753717
0.7753931
0.7754144
0.7754355
0.7754564
0.7754771
0.7754976
0.77551794
0.7755381
0.775558
0.7755777
0.7755973
0.7756166
0.7756357
0.7756547
0.77567345
0.775692
0.7757104
0.7757286
0.7757465
0.77576435
0.7757819
0.7757993
0.7758165
0.7758335
0.7758503
0.7758669
0.7758834
0.7758996
0.7759156
0.7759314
0.7759471
0.77596253
0.7759778
0.7759929
0.7760077
0.7760224
0.77603686
0.77605116
0.77606523
0.7760791
0.7760928
0.7761063
0.7761196
0.7761327
0.77614564
0.77615833
0.7761709
0.77618325
0.77619535
0.7762073
0.77621907
0.7762306
0.77624196
0.7762531
0.7762641
0.77627486
0.77628547
0.77629584
0.77630603
0.77631605
0.7763258
0.7763354
0.77634484
0.7763541
0.7763631
0.7763719
0.77638054
0.776389
0.7763972
0.7764053
0.77641314
0.7764208
0.7764283
0.77643555
0.7764426
0.7764495
0.7764562
0.7764627
0.77646893
0.7764751
0.776481
0.7764867
0.7764922
0.77649754
0.77650267
0.7765076
0.7765123
0.77651685
0.7765212
0.7765254
0.7765293
0.7765331
0.7765367
0.77654004
0.77654326
0.77654624
0.77654904
0.7765516
0.776554
0.7765562
0.7765582
0.77656007
0.7765617
0.7765631
0.77656436
0.7765654
0.7765662
0.77656686
0.77656734
0.7765676
0.77656764
0.7765675
0.7765672
0.7765667
0.77656597
0.7765651
0.776564
0.7765627
0.7765612
0.77655953
0.7765576
0.77655554
0.7765533
0.7765508
0.77654815
0.7765453
0.77654225
0.776539
0.7765356
0.77653193
0.7765281
0.7765241
0.7765199
0.7765155
0.7765109
0.77650607
0.77650106
0.7764959
0.7764905
0.7764849
0.7764791
0.77647316
0.776467
0.77646065
0.7764541
0.77644736
0.7764404
0.7764333
0.77642596
0.7764184
0.7764107
0.7764028
0.77639467
0.7763864
0.77637786
0.77636915
0.7763603
0.7763512
0.7763419
0.77633244
0.7763228
0.77631295
0.7763029
0.7762926
0.7762822
0.7762715
0.7762607
0.77624965
0.77623844
0.776227
0.7762154
0.7762036
0.7761916
0.7761794
0.776167
0.7761544
0.77614164
0.77612865
0.7761155
0.7761021
0.77608854
0.77607477
0.7760608
0.7760467
0.7760323
0.7760178
0.77600306
0.77598816
0.775973
0.7759577
0.7759422
0.77592653
0.7759106
0.7758945
0.77587825
0.77586174
0.7758451
0.7758282
0.77581114
0.7757939
0.77577645
0.7757588
0.7757409
0.7757229
0.7757047
0.7756862
0.7756676
0.7756488
0.77562976
0.77561057
0.7755912
0.7755716
0.7755518
0.77553177
0.7755116
0.77549124
0.7754707
0.7754499
0.77542895
0.7754078
0.77538645
0.7753649
0.7753432
0.77532125
0.7752991
0.7752768
0.77525425
0.77523154
0.77520865
0.7751855
0.7751622
0.77513874
0.7751151
0.7750912
0.7750671
0.77504283
0.7750184
0.7749937
0.77496886
0.7749438
0.77491856
0.7748931
0.7748675
0.77484167
0.7748157
0.77478945
0.77476305
0.7747364
0.77470964
0.77468264
0.77465546
0.77462804
0.77460045
0.7745727
0.7745447
0.7745166
0.7744882
0.77445966
0.77443093
0.77440196
0.7743728
0.7743435
0.774314
0.77428424
0.7742543
0.7742242
0.77419394
0.7741634
0.7741327
0.77410185
0.77407074
0.77403945
0.774008
0.7739763
0.7739445
0.77391243
0.7738802
0.7738477
0.7738151
0.77378225
0.77374923
0.773716
0.77368253
0.7736489
0.7736151
0.77358115
0.77354693
0.77351254
0.773478
0.77344316
0.7734082
0.773373
0.77333766
0.7733021
0.7732663
0.7732304
0.77319425
0.7731579
0.77312136
0.77308464
0.7730477
0.7730106
0.7729733
0.77293575
0.7728981
0.77286017
0.7728221
0.7727838
0.7727453
0.7727066
0.77266777
0.77262866
0.77258945
0.77255
0.77251035
0.7724705
0.7724304
0.7723902
0.7723498
0.7723091
0.77226835
0.77222735
0.7721861
0.77214473
0.77210313
0.77206135
0.7720193
0.7719771
0.7719348
0.7718922
0.77184945
0.7718065
0.7717633
0.77172
0.7716764
0.7716327
0.77158874
0.77154464
0.7715003
0.7714558
0.77141106
0.7713662
0.77132106
0.77127576
0.7712303
0.7711846
0.7711387
0.77109265
0.7710464
0.7709999
0.77095324
0.7709064
0.77085936
0.7708121
0.77076465
0.770717
0.7706692
0.7706212
0.77057296
0.77052456
0.770476
0.77042717
0.7703782
0.770329
0.7702796
0.77023
0.7701802
0.7701303
0.7700801
0.7700297
0.7699792
0.76992846
0.7698775
0.76982635
0.76977503
0.76972353
0.7696718
0.7696199
0.7695678
0.76951545
0.76946294
0.76941025
0.7693574
0.7693043
0.769251
0.7691975
0.7691439
0.76909
0.76903594
0.7689817
0.7689273
0.7688726
0.7688178
0.76876277
0.7687075
0.7686521
0.7685965
0.7685406
0.76848423
0.7684273
0.76836985
0.7683119
0.76825345
0.76819444
0.7681349
0.7680748
0.76801425
0.7679531
0.76789147
0.7678293
0.76776665
0.7677034
0.7676397
0.76757544
0.76751065
0.7674453
0.76737946
0.7673131
0.76724625
0.76717883
0.7671109
0.7670424
0.76697344
0.76690394
0.76683384
0.7667633
0.7666922
0.7666206
0.76654845
0.7664758
0.7664026
0.7663289
0.76625466
0.76617986
0.7661046
0.76602876
0.7659524
0.7658756
0.76579815
0.76572025
0.7656418
0.76556283
0.7654833
0.76540333
0.7653228
0.7652417
0.7651601
0.765078
0.76499534
0.7649122
0.7648285
0.7647443
0.7646595
0.7645742
0.76448846
0.76440215
0.7643153
0.7642279
0.76414
0.7640516
0.7639626
0.76387316
0.76378316
0.7636926
0.7636016
0.76351005
0.7634179
0.7633253
0.7632322
0.7631385
0.7630443
0.7629495
0.7628543
0.76275855
0.76266223
0.7625654
0.76246804
0.76237017
0.76227176
0.7621729
0.7620734
0.76197344
0.76187295
0.7617719
0.76167035
0.76156825
0.76146567
0.76136255
0.7612589
0.7611547
0.76105
0.7609448
0.760839
0.7607327
0.7606259
0.7605186
0.7604107
0.76030236
0.76019347
0.76008403
0.75997406
0.7598636
0.7597526
0.75964105
0.759529
0.7594164
0.75930333
0.75918967
0.7590755
0.75896084
0.7588456
0.7587299
0.75861365
0.7584969
0.7583795
0.75826174
0.75814337
0.75802445
0.75790507
0.75778514
0.7576647
0.7575437
0.75742215
0.75730014
0.7571776
0.7570545
0.7569309
0.75680673
0.7566821
0.75655687
0.75643116
0.7563049
0.7561782
0.7560509
0.7559231
0.75579476
0.7556659
0.7555365
0.75540656
0.75527614
0.7551452
0.7550137
0.7548817
0.7547491
0.7546161
0.75448245
0.75434834
0.7542137
0.75407857
0.75394285
0.75380665
0.7536699
0.75353265
0.75339484
0.75325656
0.7531177
0.7529783
0.75283843
0.752698
0.7525571
0.7524156
0.7522736
0.7521311
0.75198805
0.75184447
0.7517004
0.75155574
0.7514106
0.7512649
0.7511188
0.75097203
0.7508248
0.750677
0.7505287
0.7503799
0.75023055
0.7500807
0.74993026
0.74977934
0.74962795
0.74947596
0.7493234
0.7491704
0.7490169
0.7488628
0.7487082
0.7485531
0.7483974
0.74824125
0.74808455
0.74792737
0.7477696
0.74761134
0.7474525
0.7472932
0.7471333
0.746973
0.74681205
0.74665064
0.7464887
0.7463262
0.7461632
0.7459997
0.7458356
0.74567103
0.7455059
0.74534035
0.74517417
0.7450075
0.74484026
0.74467254
0.74450433
0.74433553
0.7441662
0.7439964
0.74382603
0.74365515
0.7434838
0.7433118
0.7431394
0.7429664
0.7427929
0.74261886
0.7424443
0.7422692
0.7420936
0.7419175
0.7417408
0.7415636
0.74138594
0.7412077
0.74102896
0.7408497
0.74066985
0.74048954
0.74030864
0.74012727
0.73994535
0.73976296
0.73958
0.7393965
0.73921245
0.7390279
0.7388429
0.7386573
0.7384712
0.7382845
0.73809737
0.73790973
0.7377215
0.73753273
0.7373435
0.7371537
0.7369634
0.73677254
0.7365812
0.7363893
0.7361969
0.73600394
0.7358105
0.7356165
0.735422
0.7352269
0.73503137
0.7348353
0.7346387
0.7344415
0.73424387
0.7340457
0.73384696
0.7336477
0.73344797
0.7332477
0.7330468
0.73284554
0.73264366
0.73244125
0.73223835
0.7320349
0.73183095
0.73162645
0.7314214
0.7312159
0.7310098
0.7308032
0.7305961
0.73038846
0.73018026
0.7299716
0.7297624
0.7295526
0.72934234
0.7291316
0.7289202
0.7287084
0.728496
0.7282831
0.7280697
0.72785574
0.7276413
0.7274263
0.72721076
0.7269947
0.72677815
0.72656107
0.72634345
0.7261253
0.7259066
0.7256874
0.7254677
0.72524744
0.72502667
0.72480536
0.7245835
0.7243612
0.7241383
0.7239149
0.723691
0.7234665
0.72324157
0.7230161
0.72279
0.7225635
0.7223364
0.7221088
0.7218807
0.72165203
0.72142285
0.72119313
0.72096294
0.72073215
0.7205009
0.7202691
0.72003675
0.71980387
0.7195705
0.7193366
0.7191022
0.71886724
0.71863174
0.71839577
0.7181592
0.71792215
0.71768457
0.71744645
0.71720785
0.71696866
0.716729
0.7164888
0.71624804
0.7160068
0.715765
0.7155227
0.7152799
0.7150365
0.71479267
0.71454823
0.7143033
0.71405786
0.7138119
0.71356535
0.7133183
0.71307075
0.7128227
0.71257406
0.7123249
0.7120753
0.7118251
0.7115744
0.71132314
0.7110714
0.71081907
0.7105663
0.71031296
0.71005905
0.7098047
0.7095498
0.7092943
0.7090384
0.7087819
0.7085249
0.70826733
0.70800924
0.7077507
0.7074916
0.70723194
0.70697176
0.70671105
0.70644987
0.70618814
0.7059258
0.7056631
0.70539975
0.7051359
0.70487154
0.70460665
0.70434123
0.7040753
0.70380884
0.7035418
0.7032743
0.7030067
0.70274067
0.70247644
0.70221394
0.7019532
0.70169413
0.7014369
0.7011814
0.7009277
0.70067567
0.7004254
0.7001769
0.6999302
0.6996852
0.69944197
0.69920045
0.6989607
0.6987228
0.69848657
0.6982521
0.6980193
0.69778836
0.6975592
0.69733167
0.69710594
0.696882
0.6966598
0.6964393
0.69622064
0.6960037
0.6957885
0.69557506
0.69536334
0.6951534
0.6949452
0.69473875
0.69453406
0.69433117
0.69412994
0.69393057
0.69373286
0.69353694
0.69334275
0.69315034
0.69295967
0.6927708
0.69258356
0.6923982
0.6922145
0.69203264
0.69185245
0.69167405
0.6914974
0.6913225
0.69114935
0.69097793
0.6908083
0.69064045
0.6904743
0.6903099
0.6901473
0.6899864
0.68982726
0.6896699
0.6895143
0.6893604
0.68920827
0.6890579
0.6889093
0.6887624
0.6886173
0.68847394
0.6883323
0.6881925
0.6880544
0.687918
0.6877834
0.68765056
0.6875195
0.68739015
0.6872626
0.6871367
0.6870127
0.6868903
0.6867697
0.68665093
0.6865338
0.68641853
0.6863049
0.6861931
0.686083
0.6859747
0.68586814
0.68576336
0.6856603
0.685559
0.68545943
0.6853616
0.6852656
0.6851713
0.68507874
0.68498796
0.6848989
0.68481165
0.6847261
0.6846423
0.6845603
0.68448
0.68440145
0.6843247
0.6842497
0.6841764
0.68410486
0.6840351
0.6839671
0.68390083
0.68383634
0.6837736
0.6837126
0.6836533
0.68359584
0.68354005
0.6834861
0.68343383
0.68338335
0.6833346
0.6832876
0.6832424
0.68319887
0.68315715
0.6831172
0.68307894
0.68304247
0.6830078
0.6829748
0.6829436
0.68291414
0.6828864
0.68286043
0.68283623
0.68281376
0.6827931
0.6827741
0.6827569
0.68274146
0.68272775
0.68271583
0.68270564
0.68269724
0.6826905
0.6826856
0.6826824
0.68268096
0.6826813
0.68268335
0.6826872
0.68269277
0.6827001
0.6827092
0.68272
0.68273264
0.68274695
0.68276304
0.6827809
0.6828005
0.68282187
0.68284494
0.6828698
0.68289644
0.68292475
0.6829549
0.68298674
0.68302035
0.6830557
0.68309283
0.6831317
0.68317235
0.6832147
0.68325883
0.6833047
0.68335235
0.68340176
0.6834529
0.6835058
0.68356043
0.6836168
0.68367493
0.68373483
0.6837965
0.6838599
0.68392503
0.68399197
0.68406063
0.684131
0.6842032
0.6842771
0.68435276
0.6844302
0.6845094
0.6845903
0.68467295
0.6847574
0.6848436
0.6849315
0.6850212
0.68511266
0.6852058
0.68530077
0.68539745
0.6854959
0.6855961
0.6856981
0.6858018
0.68590724
0.6860144
0.6861234
0.6862341
0.6863466
0.6864608
0.6865768
0.6866945
0.68681395
0.6869352
0.68705815
0.6871829
0.6873094
0.6874376
0.6875676
0.6876993
0.68783283
0.6879681
0.68810505
0.6882438
0.6883843
0.6885266
0.6886706
0.6888163
0.68896383
0.6891131
0.6892641
0.6894169
0.6895714
0.68972766
0.6898857
0.6900455
0.690207
0.69037026
0.6905353
0.6907021
0.69087064
0.69104093
0.69121295
0.69138676
0.6915623
0.69173956
0.6919186
0.69209945
0.69228196
0.6924663
0.69265234
0.69284016
0.6930297
0.69322103
0.6934141
0.69360894
0.6938055
0.6940038
0.6942039
0.69440573
0.6946093
0.6948146
0.69502175
0.69523054
0.6954411
0.6956535
0.6958676
0.6960834
0.69630104
0.6965204
0.69674146
0.6969643
0.6971889
0.6974153
0.6976434
0.6978733
0.6981049
0.69833827
0.69857335
0.6988103
0.6990489
0.69928926
0.6995314
0.6997753
0.7000209
0.70026827
0.7005174
0.7007683
0.70102096
0.70127535
0.70153147
0.7017894
0.702049
0.70231044
0.7025736
0.70283854
0.70310515
0.7033736
0.70364374
0.70391566
0.70418936
0.70446473
0.70474195
0.70502084
0.7053015
0.705584
0.7058681
0.7061541
0.70644176
0.7067312
0.70702237
0.7073153
0.70761
0.7079065
0.7082047
0.7085046
0.70880634
0.7091098
0.709415
0.709722
0.7100307
0.71034116
0.71065336
0.7109673
0.711283
0.71160054
0.7119198
0.71224076
0.71256346
0.71288794
0.71321416
0.71354216
0.7138719
0.7142034
0.71453667
0.71487164
0.7152084
0.7155469
0.7158871
0.71622914
0.71657294
0.7169184
0.71726567
0.7176147
0.7179655
0.718318
0.7186723
0.7190283
0.71938604
0.7197456
0.72010684
0.7204699
0.7208347
0.72120124
0.7215695
0.72193956
0.7223113
0.72268486
0.7230602
0.72343725
0.72381604
0.7241966
0.7245789
0.72496295
0.7253488
0.7257363
0.72612566
0.7265167
0.7269095
0.7273041
0.7277004
0.7280985
0.72849834
0.7288999
0.72930324
0.7297083
0.7301152
0.73052377
0.7309341
0.7313462
0.73176
0.73217565
0.732593
0.7330121
0.73343295
0.73385555
0.73427993
0.73470604
0.7351339
0.7355635
0.7359949
0.736428
0.7368629
0.7372995
0.7377379
0.7381775
0.73861593
0.73905313
0.7394889
0.73992336
0.74035645
0.7407882
0.7412186
0.7416477
0.7420754
0.7425018
0.7429268
0.74335045
0.74377275
0.74419373
0.74461335
0.74503165
0.7454485
0.7458641
0.74627835
0.7466912
0.74710274
0.74751294
0.74792176
0.7483292
0.74873537
0.74914014
0.7495436
0.7499457
0.7503464
0.75074583
0.7511439
0.75154054
0.7519359
0.7523299
0.75272256
0.75311387
0.7535038
0.7538924
0.7542797
0.75466555
0.7550501
0.7554333
0.7558152
0.7561957
0.75657487
0.7569527
0.75732917
0.75770426
0.75807804
0.75845045
0.75882155
0.7591913
0.75955963
0.7599267
0.76029235
0.7606567
0.76101965
0.7613813
0.7617416
0.7621005
0.7624581
0.76281434
0.7631692
0.7635228
0.76387495
0.76422584
0.7645753
0.76492345
0.7652703
0.7656157
0.7659598
0.7663026
0.766644
0.76698405
0.7673227
0.7676601
0.76799613
0.76833075
0.76866406
0.76899606
0.7693267
0.76965594
0.7699839
0.7703104
0.77063566
0.77095956
0.7712821
0.7716032
0.77192307
0.77224153
0.7725587
0.7728745
0.7731889
0.773502
0.7738137
0.7741241
0.77443314
0.7747408
0.7750472
0.7753522
0.7756558
0.7759581
0.77625906
0.7765587
0.7768569
0.77715385
0.77744937
0.7777436
0.7780365
0.77832794
0.7786181
0.77890694
0.7791944
0.7794805
0.77976525
0.78004867
0.7803308
0.7806115
0.7808909
0.7811689
0.78144556
0.7817209
0.7819949
0.7822675
0.7825388
0.7828087
0.7830773
0.7833445
0.7836104
0.7838749
0.78413814
0.7844
0.78466046
0.7849196
0.7851774
0.7854339
0.785689
0.78594273
0.7861951
0.78644615
0.7866959
0.78694427
0.7871913
0.7874369
0.7876812
0.7879242
0.7881658
0.7884061
0.78864497
0.78888255
0.78911877
0.78935367
0.78958714
0.78981936
0.79005015
0.7902796
0.7905078
0.7907345
0.79095995
0.79118407
0.7914068
0.7916282
0.79184824
0.79206693
0.79228425
0.79250026
0.7927149
0.79292816
0.7931401
0.79335076
0.79355997
0.79376787
0.79397446
0.7941796
0.79438347
0.794586
0.79478717
0.79498696
0.79518545
0.79538256
0.7955783
0.79577273
0.7959658
0.7961575
0.79634786
0.7965369
0.79672456
0.7969109
0.7970959
0.7972795
0.79746175
0.7976427
0.7978223
0.7980005
0.7981774
0.79835296
0.7985271
0.7987
0.79887146
0.7990416
0.79921037
0.79937786
0.7995439
0.79970866
0.7998721
0.8000341
0.80019486
0.8003542
0.8005122
0.80066884
0.80082417
0.8009781
0.8011307
0.801282
0.8014319
0.8015805
0.8017277
0.80187356
0.8020181
0.8021613
0.8023031
0.80244356
0.8025827
0.8027204
0.80285686
0.802992
0.8031257
0.80325806
0.80338913
0.8035188
0.80364716
0.8037741
0.80389977
0.80402404
0.804147
0.8042686
0.8043888
0.80450773
0.8046253
0.8047415
0.80485636
0.80496985
0.805082
0.8051928
0.80530226
0.8054104
0.80551714
0.8056226
0.8057266
0.80582935
0.8059307
0.8060307
0.8061294
0.80622673
0.8063227
0.8064173
0.80651057
0.80660254
0.8066931
0.8067823
0.8068702
0.8069567
0.80704194
0.80712575
0.80720824
0.80728936
0.8073692
0.8074476
0.8075247
0.80760044
0.8076748
0.8077479
0.8078196
0.80788994
0.80795896
0.8080266
0.8080929
0.80815786
0.80822146
0.80828375
0.80834466
0.8084042
0.80846244
0.8085193
0.8085748
0.808629
0.8086818
0.8087333
0.8087834
0.80883217
0.8088796
0.8089257
0.8089704
0.8090138
0.8090558
0.8090965
0.80913585
0.8091738
0.8092105
0.80924577
0.8092797
0.8093123
0.8093435
0.80937344
0.809402
0.80942917
0.809455
0.80947953
0.80950266
0.8095245
0.8095449
0.80956405
0.80958176
0.8095982
0.8096132
0.809627
0.80963933
0.80965036
0.80966
0.80966836
0.8096753
0.80968094
0.8096852
0.80968815
0.8096897
0.80968994
0.8096888
0.80968636
0.80968255
0.80967736
0.80967087
0.809663
0.80965376
0.8096432
0.8096313
0.80961806
0.80960345
0.8095875
0.8095702
0.80955154
0.8095315
0.8095102
0.80948746
0.80946344
0.80943805
0.8094113
0.8093832
0.80935377
0.80932295
0.8092908
0.8092573
0.8092225
0.80918634
0.8091488
0.8091099
0.8090697
0.8090281
0.8089852
0.8089409
0.8088953
0.8088483
0.8088
0.80875033
0.8086993
0.8086469
0.8085932
0.8085382
0.80848175
0.808424
0.80836487
0.8083044
0.8082426
0.8081795
0.808115
0.80804914
0.8079819
0.80791336
0.8078435
0.8077722
0.8076996
0.8076257
0.80755043
0.8074738
0.8073958
0.8073165
0.8072358
0.80715376
0.8070704
0.8069856
0.80689955
0.8068121
0.80672336
0.80663323
0.80654174
0.80644894
0.80635476
0.8062592
0.80616236
0.8060641
0.8059646
0.8058637
0.8057614
0.8056578
0.8055531
0.8054482
0.8053432
0.8052383
0.8051333
0.8050283
0.8049233
0.8048182
0.80471313
0.80460805
0.8045029
0.80439776
0.8042926
0.8041874
0.8040822
0.80397695
0.8038717
0.80376637
0.80366105
0.8035557
0.80345035
0.80334496
0.8032395
0.8031341
0.80302864
0.80292314
0.80281764
0.8027121
0.8026065
0.8025009
0.8023953
0.80228966
0.802184
0.8020783
0.80197257
0.8018668
0.8017611
0.8016553
0.8015495
0.80144364
0.8013378
0.8012319
0.801126
0.8010201
0.8009141
0.80080813
0.8007021
0.80059606
0.80049
0.8003839
0.8002778
0.8001717
0.8000655
0.79995936
0.79985315
0.79974693
0.79964066
0.7995344
0.7994281
0.7993218
0.7992154
0.79910904
0.79900265
0.7988962
0.79878974
0.7986833
0.7985768
0.79847026
0.7983637
0.7982571
0.79815054
0.7980439
0.7979372
0.7978306
0.7977239
0.79761714
0.7975104
0.79740363
0.7972968
0.79719
0.7970832
0.7969763
0.7968694
0.79676247
0.79665554
0.7965486
0.79644156
0.79633456
0.7962275
0.79612046
0.79601336
0.79590625
0.79579914
0.79569197
0.79558474
0.79547757
0.7953703
0.79526305
0.79515576
0.7950484
0.7949411
0.7948337
0.7947264
0.79461896
0.7945115
0.79440403
0.79429656
0.79418904
0.7940815
0.793974
0.7938664
0.79375875
0.79365116
0.79354346
0.7934358
0.7933281
0.79322034
0.79311264
0.7930048
0.79289705
0.7927892
0.79268134
0.79257345
0.79246557
0.7923576
0.7922497
0.79214174
0.79203373
0.79192567
0.7918176
0.79170954
0.7916015
0.79149336
0.7913852
0.791277
0.7911688
0.79106057
0.7909523
0.7908441
0.7907358
0.7906275
0.7905191
0.79041076
0.79030234
0.7901939
0.7900855
0.789977
0.78986853
0.78976
0.78965145
0.7895429
0.7894343
0.7893257
0.78921705
0.7891084
0.7889997
0.78889096
0.78878224
0.78867346
0.7885647
0.78845584
0.788347
0.78823817
0.78812927
0.7880204
0.7879114
0.78780246
0.7876935
0.7875845
0.78747547
0.7873664
0.7872573
0.7871482
0.78703904
0.7869299
0.7868207
0.7867115
0.7866023
0.78649306
0.78638375
0.78627443
0.7861651
0.78605574
0.78594637
0.785837
0.78572756
0.7856181
0.78550863
0.78539914
0.7852896
0.78518003
0.7850705
0.78496087
0.78485125
0.7847416
0.7846319
0.78452224
0.7844125
0.7843028
0.784193
0.7840832
0.7839734
0.78386354
0.78375363
0.7836438
0.7835339
0.7834239
0.78331393
0.78320396
0.7830939
0.7829839
0.7828738
0.7827637
0.7826536
0.7825435
0.7824333
0.7823231
0.7822129
0.78210264
0.7819924
0.7818821
0.7817718
0.78166145
0.78155106
0.7814407
0.7813303
0.78121984
0.7811094
0.7809989
0.7808884
0.7807779
0.7806673
0.78055674
0.7804461
0.7803355
0.7802248
0.7801141
0.7800034
0.7798927
0.77978194
0.7796712
0.7795604
0.7794495
0.77933866
0.7792278
0.77911687
0.77900594
0.778895
0.77878404
0.77867305
0.778562
0.77845097
0.77833986
0.77822876
0.77811766
0.7780065
0.77789533
0.7777841
0.7776729
0.77756166
0.7774504
0.7773391
0.77722776
0.7771164
0.7770051
0.7768937
0.7767822
0.7766708
0.77655935
0.77644783
0.7763363
0.7762248
0.7761132
0.77600163
0.77589
0.77577835
0.7756667
0.775555
0.7754433
0.77533156
0.7752198
0.775108
0.77499616
0.77488434
0.77477247
0.7746606
0.7745487
0.7744368
0.7743248
0.7742128
0.7741008
0.7739888
0.77387667
0.7737646
0.7736525
0.7735404
0.7734282
0.773316
0.77320385
0.7730916
0.7729793
0.7728671
0.7727547
0.77264243
0.7725301
0.77241766
0.7723053
0.77219284
0.7720804
0.77196795
0.7718554
0.7717429
0.77163035
0.77151775
0.77140516
0.77129257
0.7711799
0.7710672
0.77095455
0.7708418
0.77072906
0.7706163
0.77050346
0.7703906
0.7702778
0.77016497
0.770052
0.7699391
0.7698262
0.7697132
0.7696002
0.7694872
0.76937413
0.76926106
0.769148
0.76903486
0.76892173
0.76880854
0.76869535
0.76858217
0.7684689
0.76835567
0.76824236
0.76812905
0.76801574
0.7679024
0.76778895
0.7676756
0.7675621
0.76744866
0.7673352
0.7672217
0.76710814
0.7669946
0.766881
0.7667674
0.7666537
0.7665401
0.7664264
0.7663127
0.76619893
0.7660852
0.7659714
0.76585764
0.7657438
0.76562995
0.76551604
0.76540214
0.76528823
0.76517427
0.7650603
0.7649463
0.76483226
0.76471823
0.76460415
0.76449
0.7643759
0.7642618
0.7641476
0.7640334
0.7639192
0.7638049
0.76369065
0.7635763
0.763462
0.7633477
0.7632333
0.7631189
0.7630045
0.76289004
0.7627756
0.7626611
0.76254654
0.76243204
0.7623174
0.76220286
0.76208824
0.7619736
0.76185894
0.76174426
0.7616295
0.7615148
0.76140004
0.76128525
0.7611704
0.7610555
0.7609405
0.76082546
0.7607103
0.760595
0.7604797
0.76036423
0.7602487
0.76013315
0.76001745
0.75990164
0.75978583
0.75966984
0.7595538
0.7594377
0.75932145
0.75920516
0.7590888
0.7589723
0.75885576
0.7587391
0.75862235
0.7585055
0.75838864
0.75827163
0.7581545
0.7580374
0.7579201
0.7578028
0.7576853
0.7575678
0.75745016
0.7573325
0.7572147
0.7570968
0.75697887
0.75686085
0.7567427
0.75662446
0.75650615
0.75638777
0.7562693
0.7561507
0.75603205
0.7559133
0.75579447
0.75567555
0.7555565
0.75543743
0.7553183
0.755199
0.7550796
0.7549602
0.7548407
0.75472105
0.75460136
0.75448155
0.7543616
0.7542417
0.75412166
0.7540015
0.7538813
0.75376093
0.75364053
0.7535201
0.7533995
0.7532788
0.75315803
0.7530372
0.7529163
0.7527953
0.75267416
0.752553
0.7524317
0.75231034
0.75218886
0.7520673
0.7519457
0.75182396
0.7517022
0.7515803
0.7514583
0.7513362
0.7512141
0.75109184
0.7509695
0.7508471
0.7507246
0.750602
0.75047934
0.75035655
0.7502337
0.7501108
0.7499878
0.74986464
0.74974144
0.7496182
0.7494948
0.74937135
0.7492478
0.74912417
0.74900043
0.74887663
0.7487527
0.74862874
0.74850464
0.7483805
0.74825627
0.74813193
0.7480075
0.74788296
0.7477584
0.7476337
0.74750894
0.7473841
0.74725914
0.7471341
0.747009
0.74688375
0.74675846
0.74663305
0.7465076
0.74638206
0.7462564
0.74613065
0.7460048
0.74587893
0.74575293
0.74562687
0.7455007
0.74537444
0.7452481
0.74512166
0.7449951
0.7448685
0.74474186
0.7446151
0.7444882
0.7443612
0.7442342
0.74410707
0.7439799
0.74385256
0.7437251
0.7435977
0.74347013
0.74334246
0.7432147
0.7430869
0.74295896
0.74283093
0.74270284
0.7425747
0.7424464
0.7423181
0.74218965
0.7420611
0.7419325
0.74180377
0.741675
0.7415461
0.74141717
0.7412881
0.74115896
0.74102974
0.74090046
0.74077106
0.74064153
0.74051195
0.7403823
0.74025255
0.74012274
0.7399928
0.7398628
0.7397327
0.7396025
0.7394722
0.73934186
0.7392114
0.73908085
0.73895025
0.73881954
0.73868877
0.7385579
0.73842686
0.7382958
0.73816466
0.7380334
0.7379021
0.73777074
0.7376392
0.73750764
0.737376
0.7372442
0.73711234
0.73698044
0.7368484
0.7367163
0.73658407
0.7364518
0.7363194
0.736187
0.7360544
0.7359218
0.73578906
0.73565626
0.7355234
0.7353904
0.7352573
0.7351242
0.73499095
0.7348576
0.73472416
0.7345907
0.7344571
0.7343234
0.7341896
0.73405576
0.7339218
0.73378783
0.7336537
0.7335195
0.7333852
0.7332508
0.7331163
0.7329818
0.73284715
0.73271245
0.7325776
0.73244274
0.73230773
0.73217267
0.7320375
0.73190224
0.7317669
0.73163146
0.731496
0.7313604
0.73122466
0.7310889
0.73095304
0.7308171
0.730681
0.7305449
0.73040867
0.7302724
0.730136
0.72999954
0.729863
0.7297263
0.7295896
0.7294527
0.7293158
0.72917885
0.72904176
0.7289046
0.72876734
0.72863
0.72849256
0.728355
0.7282174
0.72807974
0.72794193
0.72780406
0.7276661
0.72752804
0.72738993
0.7272517
0.72711337
0.72697496
0.7268365
0.7266979
0.7265593
0.7264205
0.7262817
0.72614276
0.72600377
0.72586465
0.7257255
0.72558624
0.7254469
0.7253074
0.7251679
0.7250283
0.72488856
0.7247488
0.7246089
0.72446895
0.7243289
0.72418875
0.7240485
0.7239082
0.72376776
0.72362727
0.7234867
0.72334605
0.72320527
0.7230644
0.7229235
0.7227825
0.7226414
0.7225002
0.72235894
0.72221756
0.7220761
0.72193456
0.72179294
0.7216512
0.7215094
0.72136754
0.72122556
0.72108346
0.7209413
0.7207991
0.72065675
0.72051436
0.72037184
0.72022927
0.7200866
0.7199438
0.71980095
0.719658
0.719515
0.7193719
0.7192287
0.7190854
0.71894205
0.7187986
0.71865505
0.7185114
0.7183677
0.71822387
0.71808
0.717936
0.7177919
0.71764773
0.7175035
0.7173592
0.71721476
0.7170702
0.7169256
0.71678096
0.7166362
0.71649134
0.7163464
0.71620136
0.7160562
0.71591103
0.7157657
0.71562034
0.71547484
0.7153293
0.7151837
0.71503794
0.7148921
0.7147462
0.7146002
0.7144541
0.71430796
0.7141617
0.71401536
0.7138689
0.7137224
0.7135758
0.7134291
0.71328235
0.7131355
0.7129885
0.71284145
0.71269435
0.7125471
0.7123998
0.71225244
0.7121049
0.7119574
0.7118097
0.711662
0.7115142
0.71136624
0.71121824
0.7110701
0.71092194
0.7107737
0.71062535
0.7104769
0.7103284
0.71017975
0.71003103
0.70988226
0.70973337
0.7095844
0.7094354
0.7092862
0.709137
0.7089877
0.7088383
0.7086888
0.70853925
0.7083896
0.70823985
0.70809
0.70794004
0.7077901
0.7076401
0.70749134
0.7073439
0.7071978
0.70705295
0.7069095
0.7067673
0.70662653
0.706487
0.70634884
0.706212
0.70607644
0.7059422
0.7058093
0.70567775
0.7055475
0.7054186
0.70529103
0.70516473
0.7050398
0.7049162
0.7047939
0.70467293
0.70455325
0.70443493
0.7043179
0.70420223
0.7040879
0.7039749
0.7038632
0.7037528
0.70364374
0.70353603
0.7034296
0.7033245
0.7032208
0.7031183
0.70301723
0.7029174
0.70281893
0.70272183
0.702626
0.7025315
0.70243835
0.7023465
0.70225596
0.7021668
0.7020789
0.70199233
0.7019071
0.70182323
0.7017406
0.7016594
0.70157945
0.70150083
0.7014236
0.7013476
0.70127296
0.70119965
0.7011277
0.701057
0.7009877
0.7009197
0.700853
0.7007876
0.7007236
0.7006609
0.7005995
0.7005394
0.70048064
0.70042324
0.70036715
0.7003124
0.7002589
0.70020676
0.700156
0.7001065
0.70005834
0.7000115
0.699966
0.69992185
0.699879
0.69983745
0.6997972
0.69975835
0.69972074
0.6996845
0.69964963
0.699616
0.69958377
0.69955283
0.6995232
0.6994949
0.6994679
0.69944227
0.69941795
0.69939494
0.6993733
0.6993529
0.6993339
0.6993162
0.6992998
0.69928473
0.699271
0.6992586
0.69924754
0.69923776
0.69922936
0.6992222
0.6992164
0.69921196
0.69920886
0.699207
0.69920653
0.69920737
0.6992095
0.69921297
0.6992178
0.69922394
0.6992314
0.69924015
0.6992503
0.69926167
0.6992744
0.6992885
0.69930387
0.6993206
0.6993387
0.69935805
0.6993787
0.6994007
0.6994241
0.6994487
0.6994747
0.69950205
0.69953066
0.69956064
0.69959193
0.69962454
0.69965845
0.6996937
0.6997303
0.6997682
0.6998074
0.69984794
0.69988984
0.69993305
0.6999776
0.7000234
0.70007056
0.7001191
0.7001689
0.70022005
0.7002725
0.70032626
0.7003814
0.70043784
0.7004956
0.70055467
0.7006151
0.7006768
0.70073986
0.70080423
0.70087
0.700937
0.70100534
0.701075
0.701146
0.70121837
0.701292
0.70136696
0.70144325
0.7015209
0.70159984
0.7016801
0.7017617
0.70184463
0.70192885
0.70201445
0.7021013
0.7021895
0.7022791
0.7023699
0.7024621
0.7025556
0.7026504
0.7027466
0.7028441
0.7029429
0.70304304
0.7031445
0.70324725
0.7033513
0.70345676
0.7035635
0.7036716
0.703781
0.7038917
0.70400375
0.7041171
0.7042318
0.70434785
0.70446515
0.7045838
0.7047038
0.7048251
0.70494777
0.70507175
0.70519704
0.70532364
0.70545155
0.70558083
0.70571136
0.70584327
0.7059765
0.7061111
0.7062469
0.7063841
0.70652264
0.70666254
0.7068037
0.7069462
0.70709
0.70723516
0.7073816
0.70752937
0.7076785
0.70782894
0.7079807
0.7081338
0.7082882
0.70844394
0.708601
0.70875937
0.7089191
0.7090801
0.70924246
0.70940614
0.7095712
0.7097375
0.70990515
0.7100741
0.7102444
0.710416
0.710589
0.7107632
0.7109388
0.7111158
0.711294
0.7114736
0.7116544
0.71183664
0.7120202
0.71220505
0.71239126
0.7125788
0.7127676
0.71295774
0.71314925
0.713342
0.71353614
0.7137316
0.7139284
0.71412647
0.7143259
0.71452665
0.7147287
0.71493214
0.7151369
0.7153429
0.71555024
0.715759
0.71596897
0.7161803
0.716393
0.716607
0.71682227
0.7170389
0.7172569
0.7174762
0.7176968
0.7179187
0.718142
0.71836656
0.71859246
0.7188197
0.7190482
0.7192781
0.7195093
0.7197418
0.71997565
0.72021085
0.72044736
0.7206852
0.7209243
0.72116476
0.7214066
0.7216497
0.72189415
0.7221399
0.72238696
0.7226354
0.72288513
0.7231362
0.72338855
0.7236423
0.7238973
0.72415364
0.7244113
0.72467035
0.72493064
0.7251923
0.7254553
0.7257196
0.7259852
0.72625214
0.7265204
0.72679
0.7270609
0.7273332
0.7276068
0.7278816
0.7281579
0.7284354
0.7287142
0.7289944
0.72927594
0.72955877
0.72984296
0.7301284
0.7304152
0.73070335
0.7309928
0.7312836
0.73157567
0.7318691
0.73216385
0.73245996
0.73275733
0.73305607
0.7333561
0.7336575
0.73396015
0.7342642
0.73456955
0.7348762
0.7351842
0.7354935
0.73580414
0.7361161
0.7364294
0.736744
0.73705995
0.73737717
0.73769575
0.73801565
0.7383369
0.73865944
0.73898333
0.73930854
0.73963505
0.7399629
0.7402921
0.7406226
0.7409544
0.7412875
0.74162203
0.7419578
0.7422949
0.74263334
0.7429731
0.7433142
0.74365664
0.7440004
0.7443454
0.7446918
0.7450395
0.7453885
0.74573886
0.7460906
0.74644357
0.7467979
0.7471536
0.74751055
0.74786884
0.74822843
0.7485894
0.7489517
0.74931526
0.74968016
0.75004643
0.750414
0.7507829
0.7511531
0.7515246
0.7518975
0.7522717
0.7526472
0.75302404
0.7534022
0.7537817
0.7541625
0.7545446
0.75492805
0.75531256
0.755696
0.75607806
0.75645864
0.7568379
0.7572157
0.7575921
0.75796705
0.7583406
0.75871277
0.7590835
0.7594529
0.75982076
0.7601873
0.7605524
0.7609161
0.7612784
0.76163924
0.76199865
0.7623567
0.7627134
0.76306856
0.76342237
0.76377475
0.76412576
0.76447535
0.7648235
0.7651703
0.76551557
0.7658595
0.76620203
0.76654315
0.76688284
0.7672211
0.767558
0.76789343
0.76822746
0.7685601
0.76889133
0.7692211
0.76954955
0.76987654
0.7702021
0.7705263
0.77084905
0.7711704
0.7714903
0.7718088
0.7721259
0.7724416
0.7727559
0.7730688
0.7733802
0.7736903
0.7739989
0.7743062
0.77461195
0.77491635
0.7752194
0.7755209
0.7758211
0.7761199
0.7764172
0.77671313
0.7770077
0.7773008
0.7775925
0.77788275
0.77817166
0.77845913
0.7787452
0.7790298
0.779313
0.77959484
0.7798753
0.7801543
0.78043187
0.780708
0.7809828
0.78125614
0.78152806
0.7817986
0.7820677
0.7823354
0.7826017
0.7828666
0.78313005
0.78339213
0.7836528
0.783912
0.7841698
0.7844262
0.7846812
0.7849348
0.785187
0.78543776
0.7856871
0.78593504
0.78618157
0.78642666
0.7866704
0.7869127
0.7871536
0.78739303
0.7876311
0.7878678
0.788103
0.7883368
0.7885692
0.78880024
0.78902984
0.789258
0.7894848
0.78971016
0.7899341
0.7901566
0.79037774
0.79059744
0.7908158
0.7910326
0.79124814
0.7914622
0.79167485
0.7918861
0.7920959
0.79230434
0.79251134
0.7927169
0.7929211
0.7931239
0.79332525
0.79352516
0.7937237
0.7939209
0.79411656
0.79431087
0.79450375
0.79469526
0.79488534
0.795074
0.7952612
0.79544705
0.79563147
0.79581445
0.79599607
0.79617625
0.79635507
0.7965324
0.79670835
0.7968829
0.797056
0.79722774
0.79739803
0.79756695
0.79773444
0.7979005
0.7980652
0.7982284
0.79839027
0.79855067
0.7987097
0.7988673
0.7990235
0.79917824
0.7993316
0.7994836
0.79963416
0.7997833
0.799931
0.8000773
0.8002222
0.8003657
0.8005078
0.80064845
0.8007877
0.8009255
0.8010619
0.801197
0.80133057
0.80146277
0.80159354
0.80172294
0.80185086
0.80197746
0.80210257
0.8022263
0.8023486
0.8024695
0.802589
0.8027071
0.8028237
0.802939
0.80305284
0.80316526
0.8032763
0.8033859
0.8034941
0.8036009
0.8037063
0.80381024
0.8039128
0.8040139
0.8041137
0.804212
0.8043089
0.8044044
0.8044985
0.8045911
0.8046824
0.80477226
0.8048607
0.80494773
0.8050333
0.80511755
0.80520034
0.8052817
0.8053617
0.8054402
0.8055174
0.8055931
0.8056674
0.8057403
0.8058118
0.8058819
0.8059506
0.8060179
0.8060837
0.8061482
0.8062112
0.8062728
0.806333
0.8063918
0.8064492
0.80650514
0.8065597
0.80661285
0.8066646
0.8067149
0.8067638
0.80681133
0.8068574
0.8069021
0.8069454
0.8069872
0.8070277
0.8070667
0.80710435
0.8071405
0.80717534
0.8072087
0.80724066
0.80727124
0.8073004
0.80732816
0.80735445
0.8073794
0.8074029
0.807425
0.8074457
0.80746496
0.80748284
0.80749923
0.8075143
0.8075279
0.8075401
0.8075509
0.8075603
0.8075683
0.80757487
0.80758005
0.80758375
0.8075861
0.807587
0.80758655
0.80758464
0.8075813
0.8075766
0.80757046
0.8075629
0.80755395
0.8075436
0.8075318
0.8075186
0.807504
0.80748796
0.80747056
0.8074517
0.80743146
0.80740976
0.8073867
0.80736226
0.80733633
0.80730903
0.8072803
0.80725014
0.8072186
0.80718565
0.8071513
0.8071155
0.8070783
0.80703974
0.80699974
0.8069583
0.80691546
0.8068712
0.8068255
0.8067785
0.80673
0.8066801
0.80662876
0.8065761
0.80652195
0.8064664
0.8064095
0.80635107
0.8062913
0.8062301
0.80616754
0.8061035
0.8060381
0.80597126
0.805903
0.80583334
0.8057623
0.8056898
0.8056159
0.8055406
0.8054639
0.80538577
0.80530626
0.8052253
0.80514294
0.80505913
0.80497396
0.8048874
0.8047994
0.80471
0.80461913
0.80452687
0.8044332
0.80433816
0.8042417
0.8041438
0.8040445
0.8039438
0.8038417
0.8037382
0.8036332
0.8035268
0.80341905
0.8033099
0.8031993
0.8030873
0.80297387
0.80285907
0.80274284
0.8026252
0.80250615
0.8023856
0.8022638
0.8021405
0.8020158
0.80188966
0.8017621
0.8016332
0.8015028
0.80137104
0.8012379
0.8011033
0.8009673
0.8008299
0.80069107
0.8005508
0.8004092
0.80026615
0.80012167
0.7999758
0.79982847
0.7996798
0.7995297
0.79937816
0.7992252
0.79907084
0.7989151
0.7987579
0.79859936
0.7984393
0.798278
0.79811513
0.7979509
0.7977853
0.7976182
0.79744977
0.79727983
0.7971086
0.79693586
0.79676175
0.7965862
0.7964093
0.796231
0.7960512
0.79587007
0.79568744
0.7955035
0.79531825
0.7951331
0.79494846
0.79476416
0.7945803
0.7943968
0.7942138
0.79403114
0.7938489
0.7936671
0.79348564
0.7933046
0.7931241
0.7929439
0.79276407
0.7925847
0.7924058
0.7922272
0.7920491
0.79187137
0.79169405
0.79151714
0.79134065
0.7911646
0.7909889
0.7908136
0.79063874
0.79046434
0.7902903
0.79011667
0.78994346
0.78977066
0.7895982
0.78942627
0.78925467
0.78908354
0.7889128
0.7887424
0.7885725
0.788403
0.7882338
0.78806514
0.7878968
0.78772897
0.7875615
0.7873944
0.78722775
0.7870615
0.78689563
0.78673023
0.7865652
0.7864006
0.7862364
0.7860726
0.78590924
0.7857463
0.78558373
0.78542155
0.78525984
0.7850985
0.78493756
0.78477705
0.78461695
0.78445727
0.784298
0.78413916
0.78398067
0.7838226
0.783665
0.78350776
0.78335094
0.78319454
0.7830385
0.7828829
0.7827278
0.782573
0.7824186
0.78226465
0.7821111
0.781958
0.7818053
0.781653
0.78150105
0.7813496
0.7811985
0.7810478
0.78089756
0.7807477
0.7805983
0.7804492
0.7803006
0.7801524
0.7800046
0.7798572
0.77971023
0.77956367
0.7794175
0.7792717
0.7791264
0.77898145
0.77883697
0.77869284
0.77854913
0.77840585
0.778263
0.77812046
0.7779784
0.77783674
0.77769554
0.7775547
0.77741426
0.77727425
0.77713466
0.7769954
0.77685666
0.7767183
0.77658033
0.77644277
0.7763056
0.7761689
0.77603257
0.77589667
0.7757611
0.77562606
0.77549136
0.77535707
0.77522326
0.7750898
0.7749567
0.7748241
0.7746919
0.77456003
0.77442867
0.77429765
0.77416706
0.7740369
0.7739071
0.7737778
0.7736488
0.7735203
0.77339214
0.77326447
0.77313715
0.77301025
0.7728838
0.77275765
0.772632
0.7725068
0.7723819
0.77225745
0.7721334
0.77200985
0.7718866
0.7717638
0.77164143
0.7715194
0.7713979
0.7712767
0.77115595
0.7710356
0.7709157
0.7707962
0.7706771
0.77055836
0.7704401
0.7703222
0.7702047
0.7700877
0.769971
0.7698548
0.769739
0.7696236
0.76950854
0.7693939
0.7692798
0.769166
0.7690526
0.7689397
0.7688271
0.76871496
0.7686032
0.7684919
0.768381
0.7682705
0.7681604
0.76805073
0.7679415
0.7678326
0.76772416
0.7676161
0.76750845
0.7674012
0.7672944
0.767188
0.76708204
0.7669765
0.7668713
0.76676655
0.7666622
0.76655823
0.7664547
0.7663516
0.7662489
0.76614654
0.7660447
0.76594317
0.76584214
0.76574147
0.7656412
0.7655414
0.76544195
0.7653429
0.7652443
0.7651461
0.76504827
0.76495093
0.76485395
0.7647574
0.7646612
0.76456547
0.76447016
0.7643752
0.7642807
0.7641866
0.7640929
0.76399964
0.7639068
0.7638143
0.76372224
0.76363057
0.7635394
0.76344854
0.7633581
0.7632681
0.7631785
0.7630893
0.76300055
0.76291215
0.76282424
0.7627367
0.76264954
0.7625628
0.7624765
0.7623906
0.7623051
0.76222
0.7621353
0.76205105
0.76196724
0.7618838
0.7618007
0.7617181
0.7616359
0.76155406
0.7614727
0.7613917
0.7613111
0.76123095
0.7611512
0.76107186
0.7609929
0.7609144
0.76083624
0.7607586
0.7606813
0.7606044
0.7605279
0.7604518
0.76037616
0.76030093
0.7602261
0.7601516
0.76007766
0.76000404
0.75993085
0.759858
0.75978565
0.7597137
0.7596421
0.75957096
0.75950027
0.75942993
0.75936
0.75929046
0.7592214
0.7591527
0.7590844
0.7590165
0.7589491
0.75888205
0.7588154
0.7587491
0.7586833
0.75861794
0.7585529
0.75848836
0.75842416
0.7583604
0.758297
0.7582341
0.7581715
0.7581094
0.7580477
0.75798637
0.75792545
0.75786495
0.7578049
0.7577452
0.75768596
0.7576271
0.75756866
0.7575106
0.757453
0.7573958
0.757339
0.7572826
0.7572266
0.75717103
0.7571159
0.7570611
0.75700676
0.7569528
0.7568993
0.7568462
0.7567935
0.7567412
0.7566893
0.7566379
0.7565868
0.7565361
0.7564859
0.75643605
0.75638664
0.75633764
0.756289
0.75624084
0.75619304
0.75614566
0.7560987
0.75605214
0.756006
0.7559603
0.7559149
0.75587004
0.7558255
0.7557814
0.7557377
0.75569445
0.7556516
0.75560915
0.7555671
0.75552547
0.7554842
0.7554434
0.755403
0.755363
0.7553234
0.75528425
0.75524545
0.7552071
0.75516915
0.75513166
0.7550945
0.7550578
0.75502145
0.7549856
0.7549501
0.754915
0.75488037
0.7548461
0.75481224
0.7547788
0.7547458
0.7547132
0.75468093
0.75464916
0.75461775
0.7545868
0.75455624
0.7545261
0.75449634
0.75446695
0.75443804
0.75440955
0.7543814
0.7543537
0.7543264
0.7542995
0.75427306
0.754247
0.7542214
0.7541961
0.7541713
0.7541469
0.75412285
0.75409925
0.75407606
0.7540533
0.75403094
0.75400895
0.75398743
0.7539663
0.7539455
0.7539252
0.75390524
0.7538851
0.7538646
0.7538438
0.7538227
0.7538013
0.75377953
0.7537575
0.75373507
0.75371236
0.75368935
0.75366604
0.7536424
0.7536184
0.7535941
0.7535695
0.75354457
0.75351936
0.7534938
0.7534679
0.75344175
0.7534152
0.7533884
0.7533613
0.7533338
0.75330603
0.75327796
0.7532495
0.7532208
0.75319177
0.75316244
0.75313276
0.7531027
0.75307244
0.7530418
0.75301087
0.7529796
0.75294805
0.7529161
0.7528839
0.75285137
0.7528185
0.7527854
0.7527519
0.7527181
0.75268394
0.75264955
0.7526148
0.7525797
0.75254434
0.75250864
0.7524726
0.7524363
0.7523996
0.7523626
0.75232536
0.75228775
0.75224984
0.7522116
0.752173
0.75213414
0.7520949
0.75205547
0.7520156
0.7519755
0.751935
0.75189424
0.7518531
0.75181174
0.75177
0.75172794
0.75168556
0.7516429
0.7515999
0.7515566
0.75151294
0.751469
0.75142473
0.75138015
0.75133526
0.75129
0.7512445
0.75119865
0.75115246
0.751106
0.7510592
0.7510121
0.75096464
0.7509169
0.7508688
0.7508204
0.7507717
0.7507227
0.75067335
0.7506237
0.7505737
0.7505234
0.7504728
0.7504219
0.7503706
0.75031906
0.7502672
0.750215
0.7501625
0.7501097
0.7500565
0.75000304
0.7499493
0.74989516
0.74984074
0.749786
0.74973094
0.7496756
0.7496199
0.74956393
0.7495076
0.749451
0.749394
0.7493367
0.74927914
0.74922127
0.74916303
0.7491045
0.7490456
0.7489864
0.74892694
0.74886715
0.748807
0.7487466
0.74868584
0.74862474
0.74856335
0.74850166
0.7484396
0.74837726
0.7483146
0.7482516
0.7481883
0.7481247
0.7480608
0.74799657
0.74793196
0.7478671
0.7478019
0.7477364
0.74767053
0.7476044
0.7475379
0.74747115
0.74740404
0.7473366
0.7472689
0.74720085
0.7471325
0.74706376
0.7469948
0.7469255
0.7468558
0.7467859
0.7467156
0.746645
0.7465741
0.7465029
0.7464313
0.74635947
0.7462873
0.7462148
0.74614197
0.74606884
0.7459954
0.7459216
0.7458475
0.74577314
0.74569845
0.7456234
0.74554807
0.7454724
0.74539644
0.74532014
0.7452435
0.74516654
0.7450893
0.74501175
0.74493384
0.74485564
0.74477714
0.7446983
0.74461913
0.7445397
0.74445987
0.74437976
0.74429935
0.7442186
0.7441375
0.74405617
0.7439745
0.7438925
0.7438102
0.7437275
0.74364454
0.74356127
0.7434777
0.7433938
0.74330956
0.743225
0.7431401
0.7430549
0.74296945
0.7428836
0.7427975
0.74271107
0.7426243
0.7425372
0.7424498
0.7423621
0.74227405
0.7421857
0.742097
0.74200803
0.74191874
0.7418291
0.74173915
0.7416489
0.7415584
0.7414675
0.7413763
0.7412847
0.7411929
0.7411007
0.7410083
0.7409155
0.7408224
0.7407289
0.74063516
0.7405411
0.74044675
0.74035203
0.740257
0.7401617
0.74006605
0.7399701
0.7398738
0.7397772
0.7396803
0.7395831
0.7394855
0.73938763
0.73928946
0.739191
0.7390922
0.738993
0.73889357
0.7387938
0.7386937
0.7385933
0.73849255
0.7383915
0.7382902
0.7381885
0.7380865
0.73798424
0.7378816
0.73777866
0.73767537
0.73757184
0.73746794
0.7373637
0.7372592
0.73715436
0.73704916
0.7369437
0.7368379
0.73673177
0.7366254
0.7365186
0.7364116
0.73630416
0.73619646
0.73608845
0.7359801
0.73587143
0.7357625
0.7356532
0.7355436
0.7354337
0.7353234
0.7352129
0.735102
0.73499084
0.7348793
0.7347675
0.7346554
0.7345429
0.73443013
0.73431706
0.73420364
0.7340899
0.7339759
0.7338615
0.7337468
0.73363185
0.7335165
0.7334009
0.73328495
0.7331687
0.73305213
0.73293525
0.732818
0.73270047
0.7325826
0.7324645
0.732346
0.7322272
0.73210806
0.7319886
0.73186886
0.7317488
0.7316284
0.7315077
0.7313867
0.73126537
0.7311437
0.73102176
0.73089945
0.73077685
0.73065394
0.7305307
0.7304071
0.73028326
0.73015904
0.73003453
0.7299097
0.7297846
0.72965914
0.7295334
0.72940725
0.7292808
0.7291541
0.7290271
0.7288997
0.72877204
0.728644
0.7285157
0.72838706
0.72825813
0.72812885
0.72799927
0.7278694
0.72773916
0.7276086
0.7274778
0.7273466
0.7272151
0.7270833
0.7269512
0.72681874
0.726686
0.7265529
0.72641957
0.7262858
0.7261518
0.7260175
0.7258828
0.7257478
0.7256125
0.7254769
0.725341
0.72520477
0.7250682
0.7249313
0.72479415
0.72465664
0.7245188
0.7243807
0.72424215
0.7241034
0.7239643
0.72382486
0.72368515
0.7235451
0.72340477
0.72326404
0.7231231
0.72298175
0.7228401
0.72269815
0.7225559
0.7224133
0.72227037
0.72212714
0.7219836
0.7218398
0.7216956
0.7215511
0.7214063
0.7212612
0.7211157
0.72097
0.7208239
0.7206775
0.7205308
0.72038376
0.7202364
0.7200888
0.7199409
0.71979374
0.7196476
0.71950245
0.7193583
0.71921515
0.719073
0.71893185
0.7187917
0.71865255
0.71851444
0.7183773
0.7182411
0.718106
0.7179718
0.71783864
0.7177065
0.7175753
0.7174452
0.71731603
0.7171878
0.7170607
0.7169345
0.71680933
0.7166852
0.716562
0.71643984
0.71631867
0.7161985
0.7160793
0.71596116
0.715844
0.71572775
0.7156126
0.7154984
0.7153852
0.715273
0.71516186
0.71505165
0.71494246
0.7148343
0.7147271
0.7146209
0.7145157
0.7144115
0.7143083
0.7142061
0.71410495
0.7140047
0.7139055
0.71380734
0.7137101
0.7136139
0.7135187
0.7134245
0.7133313
0.7132391
0.7131479
0.71305764
0.7129684
0.7128802
0.712793
0.7127068
0.71262157
0.71253735
0.71245414
0.7123719
0.71229064
0.7122104
0.7121312
0.712053
0.71197575
0.7118995
0.7118243
0.7117501
0.71167684
0.7116046
0.71153337
0.7114631
0.7113939
0.71132565
0.7112584
0.71119213
0.7111269
0.71106267
0.7109994
0.71093714
0.7108759
0.71081567
0.7107564
0.7106981
0.7106409
0.71058464
0.7105294
0.7104751
0.71042186
0.7103696
0.7103183
0.7102681
0.7102188
0.7101705
0.71012324
0.710077
0.7100317
0.70998746
0.7099442
0.70990187
0.7098606
0.70982033
0.70978105
0.7097428
0.7097055
0.70966923
0.70963395
0.7095997
0.70956635
0.70953405
0.70950276
0.7094725
0.7094432
0.7094149
0.7093876
0.7093613
0.70933604
0.7093117
0.7092884
0.7092661
0.7092448
0.7092245
0.7092052
0.7091869
0.70916957
0.7091533
0.709138
0.7091237
0.7091103
0.70909804
0.7090867
0.7090764
0.7090671
0.70905876
0.70905143
0.7090451
0.7090398
0.70903546
0.7090321
0.7090298
0.7090285
0.7090282
0.70902884
0.7090305
0.7090332
0.7090368
0.7090415
0.70904714
0.7090538
0.7090615
0.70907015
0.7090798
0.7090905
0.7091021
0.70911473
0.70912844
0.70914304
0.7091587
0.70917535
0.709193
0.70921165
0.7092313
0.70925194
0.7092736
0.7092962
0.7093199
0.7093445
0.70937014
0.7093968
0.70942444
0.70945305
0.70948267
0.7095133
0.70954496
0.70957756
0.7096112
0.7096458
0.70968145
0.70971805
0.70975566
0.7097943
0.7098339
0.7098745
0.7099162
0.7099588
0.71000236
0.710047
0.7100926
0.7101392
0.71018684
0.7102354
0.710285
0.7103356
0.71038723
0.71043986
0.71049345
0.71054804
0.71060365
0.7106602
0.71071786
0.71077645
0.710836
0.7108966
0.7109582
0.71102077
0.71108437
0.711149
0.71121454
0.7112811
0.7113487
0.7114173
0.7114869
0.71155745
0.71162903
0.71170163
0.7117752
0.71184975
0.7119253
0.7120019
0.71207947
0.712158
0.7122376
0.7123182
0.7123997
0.7124823
0.71256584
0.7126504
0.71273595
0.71282256
0.7129101
0.7129986
0.7130882
0.71317875
0.7132703
0.7133629
0.7134564
0.7135509
0.7136465
0.71374303
0.7138406
0.71393913
0.71403867
0.7141392
0.71424073
0.7143433
0.71444684
0.7145513
0.7146569
0.7147634
0.7148709
0.71497947
0.715089
0.71519953
0.71531105
0.7154236
0.71553713
0.71565163
0.71576715
0.7158837
0.7160012
0.7161197
0.7162392
0.71635973
0.71648127
0.71660376
0.71672726
0.7168518
0.7169773
0.7171038
0.7172313
0.7173598
0.7174893
0.7176198
0.7177513
0.7178838
0.7180173
0.7181518
0.7182873
0.7184238
0.7185613
0.71869975
0.7188392
0.7189797
0.7191212
0.71926373
0.7194072
0.7195517
0.7196972
0.7198436
0.7199911
0.7201396
0.72028905
0.72043955
0.720591
0.7207435
0.72089696
0.72105145
0.7212069
0.72136337
0.72152084
0.7216793
0.7218388
0.7219992
0.7221607
0.7223231
0.7224866
0.72265106
0.7228165
0.72298294
0.72315043
0.7233189
0.72348833
0.7236588
0.7238302
0.72400266
0.7241761
0.7243506
0.724526
0.7247024
0.72487986
0.7250583
0.7252378
0.7254182
0.72559965
0.72578204
0.7259655
0.7261499
0.72633535
0.7265218
0.7267092
0.72689766
0.7270871
0.7272775
0.7274689
0.7276613
0.7278547
0.72804916
0.7282446
0.728441
0.7286384
0.72883683
0.7290362
0.72923666
0.72943807
0.7296405
0.72984385
0.7300483
0.7302537
0.7304601
0.7306675
0.7308759
0.7310853
0.7312957
0.73150706
0.7317195
0.7319329
0.7321473
0.7323626
0.73257905
0.73279643
0.7330148
0.7332342
0.7334546
0.73367596
0.73389834
0.73412174
0.7343461
0.7345715
0.7347979
0.7350252
0.73525363
0.735483
0.73571336
0.73594475
0.7361771
0.73641044
0.7366448
0.7368802
0.7371166
0.7373539
0.7375923
0.73783165
0.738072
0.7383134
0.7385557
0.7387991
0.7390434
0.7392888
0.73953515
0.73978245
0.7400308
0.74028015
0.74053055
0.74078184
0.7410342
0.7412875
0.74154186
0.74179715
0.742052
0.74230623
0.74255973
0.7428125
0.7430646
0.74331594
0.74356663
0.7438166
0.7440659
0.7443145
0.7445623
0.7448095
0.745056
0.7453017
0.7455468
0.74579114
0.7460348
0.74627775
0.74652
0.74676156
0.7470024
0.74724257
0.747482
0.7477207
0.7479588
0.7481961
0.74843276
0.7486687
0.7489039
0.7491384
0.74937224
0.74960536
0.74983776
0.7500695
0.7503005
0.75053084
0.75076044
0.7509893
0.75121754
0.75144506
0.75167185
0.75189793
0.7521233
0.752348
0.752572
0.7527953
0.75301784
0.75323975
0.75346094
0.7536814
0.7539012
0.75412023
0.7543386
0.7545563
0.75477326
0.7549895
0.7552051
0.7554199
0.75563407
0.7558475
0.7560603
0.7562723
0.7564837
0.7566943
0.75690424
0.7571135
0.757322
0.75752985
0.757737
0.7579434
0.75814915
0.7583542
0.7585585
0.7587621
0.758965
0.75916725
0.7593687
0.7595696
0.7597697
0.75996906
0.7601678
0.7603658
0.7605631
0.76075965
0.7609556
0.7611507
0.7613452
0.761539
0.7617321
0.76192445
0.76211613
0.7623071
0.7624974
0.76268697
0.76287585
0.763064
0.7632515
0.7634382
0.7636243
0.7638096
0.7639943
0.7641782
0.7643615
0.764544
0.76472586
0.764907
0.7650875
0.7652672
0.76544625
0.7656246
0.7658022
0.7659791
0.76615536
0.76633084
0.76650566
0.7666798
0.7668532
0.76702595
0.7671979
0.7673693
0.76753986
0.76770973
0.76787895
0.76804745
0.76821524
0.7683823
0.7685487
0.7687144
0.7688794
0.7690437
0.76920724
0.76937014
0.7695323
0.7696938
0.76985455
0.77001464
0.770174
0.77033263
0.77049065
0.7706479
0.77080446
0.7709603
0.7711154
0.7712699
0.77142364
0.7715767
0.77172905
0.7718807
0.7720316
0.77218187
0.77233136
0.7724802
0.7726283
0.77277577
0.77292246
0.7730685
0.7732138
0.7733584
0.77350235
0.7736456
0.77378803
0.7739299
0.774071
0.77421135
0.77435106
0.77449006
0.77462834
0.77476597
0.7749028
0.775039
0.7751745
0.7753093
0.7754434
0.7755768
0.77570945
0.7758414
0.77597266
0.77610326
0.7762331
0.77636224
0.77649075
0.7766185
0.77674556
0.77687186
0.77699757
0.7771225
0.7772467
0.7773703
0.7774931
0.77761525
0.77773666
0.7778574
0.77797747
0.7780968
0.7782154
0.7783333
0.77845055
0.7785671
0.7786829
0.778798
0.7789124
0.77902615
0.77913916
0.77925146
0.77936304
0.77947396
0.7795841
0.7796936
0.77980244
0.7799105
0.7800179
0.7801246
0.7802306
0.78033584
0.78044045
0.7805443
0.78064746
0.78075
0.7808517
0.7809528
0.7810531
0.7811528
0.7812518
0.78135
0.7814476
0.78154445
0.7816406
0.781736
0.7818308
0.7819248
0.7820181
0.7821108
0.7822027
0.782294
0.78238446
0.7824743
0.78256345
0.78265184
0.7827396
0.7828266
0.7829129
0.7829985
0.78308344
0.78316766
0.78325117
0.78333396
0.78341603
0.78349745
0.78357816
0.78365815
0.7837374
0.78381604
0.7838939
0.7839711
0.78404754
0.78412336
0.7841984
0.7842728
0.78434646
0.7844194
0.7844917
0.78456324
0.7846341
0.78470427
0.78477377
0.7848425
0.78491056
0.7849779
0.78504455
0.7851105
0.78517574
0.7852403
0.7853041
0.78536725
0.7854297
0.7854914
0.78555244
0.78561276
0.7856724
0.7857313
0.78578955
0.78584707
0.7859039
0.78595996
0.7860154
0.7860701
0.7861241
0.7861774
0.78623
0.7862819
0.7863331
0.78638357
0.7864334
0.78648245
0.78653085
0.78657854
0.7866255
0.78667176
0.78671736
0.78676224
0.7868064
0.78684986
0.78689265
0.7869347
0.78697604
0.78701675
0.7870567
0.7870959
0.78713447
0.7871723
0.78720945
0.7872459
0.78728163
0.7873167
0.787351
0.7873847
0.7874176
0.78744984
0.78748137
0.7875122
0.7875423
0.7875717
0.78760046
0.7876285
0.7876558
0.78768235
0.7877083
0.7877335
0.787758
0.7877818
0.7878049
0.7878273
0.787849
0.78787
0.78789026
0.78790987
0.7879287
0.78794694
0.7879644
0.78798115
0.78799725
0.7880126
0.7880273
0.78804123
0.7880545
0.7880671
0.7880789
0.7880901
0.78810054
0.7881103
0.7881193
0.7881277
0.78813535
0.78814226
0.7881485
0.78815407
0.7881589
0.788163
0.78816646
0.7881692
0.78817123
0.78817254
0.78817314
0.7881731
0.7881723
0.7881708
0.7881686
0.78816575
0.7881621
0.7881578
0.7881528
0.78814715
0.7881407
0.7881336
0.7881258
0.7881173
0.7881081
0.78809816
0.78808755
0.7880762
0.78806424
0.7880515
0.7880381
0.78802395
0.7880091
0.78799355
0.78797734
0.7879604
0.78794277
0.7879244
0.78790534
0.7878856
0.78786516
0.787844
0.7878221
0.7877996
0.7877763
0.78775233
0.7877277
0.7877023
0.7876763
0.78764945
0.787622
0.78759384
0.7875654
0.78753674
0.7875079
0.78747886
0.78744966
0.7874203
0.7873907
0.7873609
0.787331
0.7873008
0.7872705
0.78723997
0.7872092
0.78717834
0.7871472
0.787116
0.7870845
0.78705287
0.78702104
0.786989
0.7869568
0.78692436
0.7868918
0.78685904
0.7868261
0.7867929
0.78675956
0.78672606
0.7866923
0.7866584
0.7866243
0.78659004
0.7865556
0.7865209
0.7864861
0.78645104
0.7864158
0.7863804
0.7863448
0.78630906
0.7862731
0.78623694
0.7862006
0.78616405
0.7861273
0.78609043
0.78605336
0.78601605
0.7859786
0.78594095
0.7859031
0.78586507
0.78582686
0.7857884
0.78574985
0.78571105
0.78567207
0.7856329
0.78559357
0.78555405
0.78551435
0.7854744
0.7854343
0.7853941
0.7853536
0.7853129
0.78527206
0.78523105
0.7851898
0.7851484
0.7851068
0.785065
0.78502303
0.7849809
0.7849385
0.784896
0.7848533
0.78481036
0.78476727
0.784724
0.7846805
0.78463686
0.784593
0.78454894
0.7845047
0.7844603
0.7844157
0.7843709
0.78432596
0.7842808
0.7842354
0.7841899
0.78414416
0.78409827
0.78405213
0.7840058
0.7839594
0.7839127
0.78386587
0.7838188
0.7837716
0.7837242
0.78367656
0.78362876
0.7835808
0.7835326
0.7834843
0.7834357
0.783387
0.78333807
0.78328896
0.78323966
0.7831902
0.78314054
0.78309065
0.78304064
0.7829904
0.78294
0.78288937
0.7828386
0.78278756
0.7827364
0.78268504
0.7826335
0.78258175
0.78252983
0.78247774
0.78242546
0.78237295
0.78232026
0.78226745
0.7822144
0.7821612
0.7821077
0.7820541
0.7820003
0.7819463
0.7818922
0.7818378
0.7817832
0.7817285
0.7816736
0.7816185
0.78156316
0.7815077
0.781452
0.78139615
0.7813401
0.78128386
0.7812274
0.78117085
0.78111404
0.781057
0.78099984
0.7809425
0.7808849
0.7808272
0.7807693
0.7807112
0.7806528
0.78059435
0.7805357
0.7804768
0.78041774
0.7803585
0.78029907
0.78023946
0.7801797
0.78011966
0.7800595
0.77999914
0.7799386
0.77987784
0.7798169
0.7797558
0.7796945
0.779633
0.7795713
0.7795094
0.7794474
0.77938515
0.7793227
0.7792601
0.7791973
0.7791343
0.7790711
0.77900773
0.77894413
0.7788804
0.77881646
0.7787524
0.7786881
0.7786236
0.77855885
0.778494
0.7784289
0.7783637
0.77829826
0.77823263
0.77816683
0.77810085
0.7780346
0.7779683
0.7779017
0.77783495
0.777768
0.7777009
0.7776336
0.7775661
0.77749836
0.77743053
0.77736247
0.7772942
0.7772258
0.7771571
0.77708834
0.7770193
0.7769501
0.77688074
0.7768112
0.77674145
0.7766715
0.7766014
0.77653104
0.7764605
0.77638984
0.77631897
0.7762479
0.7761767
0.7761052
0.7760336
0.77596176
0.77588975
0.7758176
0.7757452
0.7756726
0.7755999
0.77552694
0.7754538
0.7753805
0.775307
0.77523327
0.7751594
0.77508533
0.77501106
0.7749366
0.774862
0.7747872
0.77471215
0.774637
0.7745616
0.774486
0.77441025
0.7743343
0.7742582
0.77418184
0.77410537
0.77402866
0.77395177
0.7738747
0.77379745
0.77371997
0.77364236
0.7735645
0.7734865
0.7734083
0.7733299
0.77325135
0.7731726
0.77309364
0.7730145
0.7729352
0.7728557
0.772776
0.7726961
0.772616
0.77253574
0.7724553
0.7723747
0.77229387
0.7722128
0.7721316
0.7720502
0.77196866
0.7718869
0.7718049
0.7717228
0.7716405
0.7715579
0.77147526
0.77139235
0.77130926
0.771226
0.77114254
0.7710589
0.7709751
0.7708911
0.77080685
0.77072245
0.77063787
0.7705531
0.7704682
0.770383
0.7702977
0.7702122
0.77012646
0.7700406
0.7699545
0.76986825
0.76978177
0.7696951
0.7696083
0.7695213
0.7694341
0.76934665
0.7692591
0.7691713
0.7690834
0.7689952
0.7689069
0.7688184
0.7687296
0.76864076
0.76855165
0.7684624
0.76837295
0.7682833
0.7681934
0.7681034
0.76801324
0.7679228
0.7678322
0.76774144
0.7676505
0.76755935
0.76746804
0.7673765
0.76728475
0.76719284
0.76710075
0.7670085
0.76691604
0.7668234
0.76673055
0.7666375
0.7665443
0.7664509
0.7663573
0.76626354
0.7661696
0.76607543
0.7659811
0.76588655
0.76579183
0.76569694
0.7656019
0.76550657
0.7654111
0.7653155
0.7652196
0.7651236
0.76502734
0.76493096
0.76483434
0.7647376
0.7646406
0.7645435
0.76444614
0.76434857
0.7642509
0.76415294
0.76405483
0.7639566
0.76385814
0.76375943
0.7636606
0.7635616
0.76346236
0.76336294
0.76326334
0.76316357
0.7630636
0.7629634
0.7628631
0.76276255
0.7626618
0.7625609
0.7624598
0.76235855
0.7622571
0.7621554
0.76205355
0.7619515
0.7618493
0.7617469
0.7616443
0.7615415
0.76143855
0.7613354
0.761232
0.7611285
0.7610248
0.7609208
0.76081675
0.76071244
0.7606079
0.7605031
0.7603981
0.7602929
0.76018745
0.76008177
0.75997585
0.7598697
0.7597633
0.7596567
0.7595499
0.75944287
0.7593356
0.7592281
0.75912035
0.7590124
0.7589042
0.7587958
0.7586872
0.7585783
0.7584692
0.7583599
0.75825036
0.75814056
0.7580306
0.7579204
0.7578099
0.75769925
0.7575883
0.75747716
0.7573658
0.75725424
0.7571424
0.75703037
0.7569181
0.7568056
0.7566928
0.7565799
0.7564667
0.7563533
0.75623965
0.7561258
0.7560117
0.7558974
0.75578284
0.7556681
0.75555307
0.75543785
0.7553224
0.7552067
0.7550908
0.75497466
0.7548583
0.7547417
0.7546249
0.75450784
0.7543906
0.75427306
0.75415534
0.7540374
0.7539192
0.7538008
0.75368214
0.7535633
0.7534442
0.75332487
0.75320536
0.75308555
0.75296557
0.75284535
0.7527249
0.7526042
0.7524833
0.75236213
0.7522408
0.7521192
0.7519974
0.75187534
0.7517531
0.75163054
0.7515078
0.75138485
0.7512617
0.75113827
0.75101465
0.7508908
0.7507667
0.75064236
0.75051785
0.75039303
0.75026804
0.7501428
0.7500174
0.7498917
0.7497658
0.74963963
0.74951327
0.7493867
0.7492599
0.7491328
0.74900556
0.74887806
0.7487503
0.74862236
0.7484942
0.7483658
0.74823713
0.74810827
0.7479792
0.7478499
0.74772036
0.74759054
0.74746054
0.7473303
0.7471999
0.7470692
0.7469383
0.74680716
0.7466758
0.7465442
0.7464124
0.7462803
0.74614805
0.74601555
0.74588287
0.7457499
0.74561673
0.7454833
0.74534965
0.7452158
0.7450817
0.7449474
0.74481285
0.7446781
0.7445431
0.74440783
0.7442724
0.7441367
0.7440008
0.74386466
0.7437283
0.7435917
0.7434549
0.74331784
0.7431806
0.74304307
0.7429054
0.7427674
0.74262923
0.7424908
0.7423522
0.7422133
0.7420742
0.7419349
0.74179536
0.7416556
0.7415156
0.7413754
0.7412349
0.74109423
0.7409533
0.7408122
0.7406708
0.74052924
0.7403874
0.74024534
0.74010307
0.7399606
0.73981786
0.7396749
0.73953176
0.73938835
0.7392447
0.7391008
0.73895675
0.73881245
0.73866785
0.7385231
0.7383781
0.73823285
0.7380874
0.73794174
0.7377958
0.7376497
0.73750335
0.7373567
0.7372099
0.7370629
0.7369156
0.7367681
0.73662037
0.7364724
0.73632425
0.73617584
0.7360272
0.73587835
0.7357293
0.73557997
0.7354304
0.73528063
0.7351306
0.7349804
0.73482996
0.7346793
0.73452836
0.7343772
0.73422587
0.7340743
0.7339225
0.73377043
0.73361814
0.7334656
0.7333129
0.73315996
0.7330068
0.73285335
0.73269975
0.73254585
0.7323918
0.73223746
0.7320829
0.73192817
0.73177314
0.7316179
0.7314625
0.7313068
0.73115087
0.73099476
0.7308384
0.7306818
0.73052496
0.73036796
0.73021066
0.7300532
0.7298955
0.7297375
0.7295793
0.7294209
0.7292623
0.7291034
0.7289443
0.728785
0.7286255
0.7284657
0.7283057
0.7281455
0.727985
0.72782433
0.7276634
0.7275023
0.72734094
0.72717935
0.7270175
0.72685546
0.7266932
0.72653073
0.726368
0.72620505
0.72604185
0.7258784
0.7257148
0.72555095
0.72538686
0.7252225
0.725058
0.7248932
0.7247282
0.724563
0.72439754
0.72423184
0.72406596
0.72389984
0.7237335
0.7235669
0.72340006
0.72323304
0.72306573
0.72289824
0.7227305
0.72256255
0.7223944
0.72222596
0.72205734
0.7218885
0.7217194
0.7215501
0.72138053
0.7212108
0.7210408
0.72087055
0.7207001
0.72052944
0.7203585
0.72018737
0.720016
0.7198444
0.7196726
0.71950054
0.7193283
0.7191558
0.71898305
0.71881014
0.71863693
0.71846354
0.7182899
0.71811604
0.71794194
0.71776766
0.7175931
0.7174183
0.7172433
0.7170681
0.71689266
0.71671695
0.71654105
0.7163649
0.71618855
0.716012
0.71583515
0.7156581
0.71548086
0.71530336
0.7151256
0.71494764
0.7147695
0.7145911
0.71441245
0.7142336
0.7140545
0.7138752
0.71369565
0.7135159
0.7133359
0.7131556
0.7129752
0.71279454
0.7126136
0.7124325
0.7122511
0.7120695
0.7118877
0.7117057
0.7115234
0.7113409
0.71115816
0.7109752
0.71079206
0.71060866
0.710425
0.71024114
0.7100571
0.7098727
0.7096882
0.7095034
0.70931846
0.7091332
0.7089478
0.7087621
0.7085762
0.70839006
0.7082037
0.7080171
0.70783025
0.7076432
0.707456
0.7072685
0.7070807
0.7068928
0.7067046
0.7065162
0.70632756
0.70613873
0.7059496
0.7057603
0.70557076
0.705381
0.705191
0.70500076
0.7048103
0.70461965
0.70442873
0.7042376
0.70404625
0.7038547
0.7036629
0.7034708
0.70327854
0.703086
0.7028933
0.7027004
0.7025072
0.7023138
0.7021201
0.7019263
0.7017322
0.7015379
0.70134336
0.70114857
0.70095354
0.70075834
0.7005629
0.7003672
0.70017135
0.69997644
0.69978285
0.6995907
0.6993998
0.6992104
0.6990223
0.69883555
0.6986502
0.6984662
0.69828355
0.69810224
0.69792235
0.6977438
0.6975666
0.6973908
0.69721633
0.69704324
0.6968715
0.69670117
0.6965322
0.6963646
0.6961983
0.6960334
0.69586986
0.69570774
0.6955469
0.6953875
0.6952294
0.6950727
0.6949174
0.6947634
0.6946108
0.69445956
0.69430965
0.6941612
0.694014
0.6938682
0.6937238
0.69358075
0.69343907
0.69329876
0.6931598
0.6930222
0.692886
0.6927511
0.6926176
0.69248545
0.69235474
0.69222534
0.69209725
0.6919706
0.6918453
0.6917214
0.6915988
0.69147754
0.69135773
0.69123924
0.6911221
0.69100636
0.690892
0.690779
0.69066733
0.690557
0.6904481
0.6903405
0.6902343
0.6901295
0.69002604
0.68992394
0.6898232
0.68972385
0.6896258
0.6895292
0.68943393
0.68934
0.6892474
0.6891563
0.68906647
0.688978
0.68889093
0.6888052
0.6887209
0.68863785
0.68855625
0.68847597
0.6883971
0.68831956
0.6882434
0.6881686
0.68809515
0.6880231
0.6879524
0.6878831
0.68781507
0.6877485
0.6876832
0.6876193
0.68755686
0.6874957
0.6874359
0.6873775
0.6873205
0.68726474
0.68721044
0.68715745
0.6871059
0.68705565
0.6870068
0.6869593
0.6869132
0.6868684
0.686825
0.68678296
0.6867423
0.68670297
0.68666506
0.68662846
0.68659323
0.68655944
0.68652695
0.68649584
0.68646604
0.68643767
0.68641067
0.68638504
0.6863607
0.68633777
0.68631625
0.68629605
0.6862772
0.68625975
0.68624365
0.68622893
0.6862155
0.68620354
0.68619287
0.68618363
0.6861757
0.68616915
0.686164
0.6861602
0.6861577
0.68615663
0.6861569
0.6861586
0.6861616
0.686166
0.6861717
0.6861788
0.68618727
0.6861971
0.6862083
0.6862209
0.68623483
0.68625015
0.6862668
0.68628484
0.6863042
0.68632495
0.68634707
0.68637055
0.6863954
0.68642163
0.6864492
0.6864782
0.6865085
0.6865402
0.6865732
0.6866076
0.6866434
0.68668056
0.68671906
0.68675894
0.6868001
0.68684274
0.6868867
0.686932
0.68697876
0.6870268
0.6870762
0.687127
0.68717915
0.6872327
0.68728757
0.68734384
0.6874014
0.6874604
0.68752074
0.6875825
0.68764555
0.68771
0.6877758
0.68784297
0.6879115
0.6879814
0.68805265
0.6881253
0.6881993
0.6882747
0.6883514
0.6884295
0.6885089
0.68858975
0.68867195
0.6887555
0.68884045
0.6889267
0.6890144
0.68910336
0.6891937
0.6892855
0.6893786
0.6894731
0.68956894
0.6896661
0.6897647
0.68986464
0.6899659
0.6900686
0.6901726
0.690278
0.69038475
0.69049287
0.69060236
0.6907132
0.69082546
0.690939
0.691054
0.6911703
0.691288
0.691407
0.6915274
0.6916492
0.69177234
0.69189686
0.69202274
0.69214994
0.69227856
0.6924085
0.6925399
0.69267255
0.6928066
0.692942
0.6930788
0.693217
0.6933565
0.69349736
0.69363964
0.6937833
0.69392824
0.6940746
0.6942223
0.6943714
0.6945218
0.6946736
0.6948268
0.69498134
0.69513726
0.6952945
0.6954531
0.69561315
0.6957745
0.6959372
0.6961013
0.6962668
0.6964336
0.6966018
0.6967713
0.69694227
0.6971145
0.6972882
0.6974632
0.6976396
0.6978173
0.69799644
0.6981769
0.6983588
0.69854194
0.69872653
0.69891244
0.6990998
0.6992884
0.69947845
0.69966984
0.6998626
0.70005673
0.70025223
0.70044905
0.7006473
0.70084685
0.70104784
0.70125014
0.7014538
0.70165884
0.70186526
0.70207304
0.7022822
0.7024927
0.70270455
0.7029178
0.7031324
0.7033484
0.7035657
0.7037844
0.70400447
0.7042259
0.7044487
0.7046729
0.70489836
0.7051253
0.7053535
0.70558316
0.7058141
0.70604646
0.7062802
0.70651525
0.7067517
0.7069895
0.70722866
0.7074692
0.7077111
0.7079544
0.708199
0.708445
0.7086924
0.7089411
0.7091912
0.7094427
0.70969546
0.7099497
0.7102052
0.71046215
0.7107204
0.71098006
0.71124107
0.71150345
0.7117672
0.7120323
0.7122988
0.7125666
0.71283585
0.7131064
0.71337837
0.71365166
0.7139263
0.71420234
0.71447974
0.7147585
0.71503866
0.7153201
0.715603
0.7158872
0.7161728
0.71645975
0.71674806
0.71703774
0.7173288
0.7176212
0.717915
0.7182101
0.71850663
0.7188045
0.71910375
0.71940434
0.7197063
0.7200096
0.7203143
0.7206204
0.72092783
0.7212366
0.72154677
0.7218583
0.7221712
0.7224854
0.722801
0.723118
0.72343636
0.7237561
0.72407717
0.7243996
0.72472346
0.7250486
0.7253751
0.72570306
0.7260323
0.72636294
0.72669494
0.7270283
0.72736305
0.72769916
0.7280366
0.72837543
0.7287156
0.7290572
0.7294001
0.7297444
0.73009
0.73043704
0.7307854
0.7311352
0.73148626
0.73183876
0.7321926
0.73254776
0.7329027
0.7332568
0.73361003
0.7339624
0.73431396
0.7346646
0.73501444
0.7353634
0.7357115
0.7360588
0.73640513
0.73675066
0.73709536
0.73743916
0.7377821
0.73812425
0.7384655
0.7388059
0.73914546
0.73948413
0.739822
0.7401589
0.740495
0.7408303
0.7411647
0.74149823
0.7418309
0.74216276
0.7424937
0.74282384
0.7431531
0.7434815
0.74380904
0.74413574
0.7444616
0.74478656
0.7451107
0.7454339
0.7457563
0.7460779
0.7463986
0.74671847
0.7470374
0.7473555
0.7476728
0.74798924
0.7483048
0.7486195
0.7489333
0.7492463
0.74955845
0.7498697
0.7501801
0.7504897
0.7507984
0.75110626
0.7514132
0.7517194
0.75202465
0.7523291
0.7526327
0.75293535
0.75323725
0.7535382
0.75383836
0.75413764
0.7544361
0.7547336
0.75503033
0.7553262
0.7556212
0.75591534
0.75620866
0.7565011
0.75679266
0.75708336
0.7573732
0.75766224
0.7579504
0.75823766
0.7585241
0.7588097
0.7590944
0.7593783
0.7596613
0.7599435
0.76022476
0.7605052
0.7607848
0.7610635
0.7613414
0.7616184
0.7618946
0.76216984
0.7624443
0.7627179
0.76299065
0.7632625
0.76353353
0.7638037
0.764073
0.7643415
0.76460904
0.76487577
0.76514167
0.76540667
0.76567084
0.76593417
0.7661966
0.7664582
0.766719
0.76697886
0.7672379
0.76749605
0.76775336
0.76800984
0.7682654
0.7685202
0.7687741
0.7690271
0.7692793
0.7695306
0.76978105
0.7700307
0.7702794
0.7705273
0.77077436
0.77102053
0.77126586
0.7715103
0.77175397
0.7719967
0.7722386
0.77247965
0.77271986
0.7729592
0.77319765
0.77343524
0.773672
0.7739079
0.774143
0.77437717
0.7746105
0.774843
0.7750746
0.77530533
0.7755353
0.7757643
0.7759925
0.77621984
0.77644634
0.77667195
0.7768967
0.77712065
0.7773437
0.7775659
0.77778727
0.77800775
0.7782274
0.77844614
0.77866405
0.77888113
0.7790973
0.7793127
0.7795272
0.7797408
0.7799536
0.7801655
0.78037655
0.7805868
0.7807961
0.7810046
0.7812123
0.78141904
0.781625
0.7818301
0.7820343
0.78223765
0.7824401
0.78264177
0.7828426
0.7830425
0.78324157
0.78343976
0.78363717
0.7838336
0.7840293
0.7842241
0.78441805
0.7846111
0.78480333
0.7849947
0.7851852
0.7853749
0.78556365
0.7857516
0.7859387
0.7861249
0.7863103
0.7864948
0.78667843
0.78686124
0.7870432
0.7872243
0.78740454
0.7875839
0.7877624
0.7879401
0.7881169
0.7882928
0.78846794
0.78864217
0.78881556
0.78898805
0.7891598
0.78933054
0.78950053
0.78966963
0.78983784
0.79000527
0.79017174
0.79033744
0.79050225
0.7906662
0.7908293
0.79099154
0.79115295
0.79131347
0.79147315
0.791632
0.79178995
0.79194707
0.7921033
0.7922587
0.79241323
0.79256696
0.7927198
0.7928717
0.7930228
0.7931731
0.7933225
0.79347104
0.79361874
0.79376554
0.7939115
0.79405665
0.7942009
0.7943443
0.7944868
0.79462856
0.79476935
0.79490936
0.7950485
0.79518676
0.79532415
0.7954607
0.7955964
0.79573125
0.79586524
0.79599833
0.7961306
0.796262
0.79639256
0.79652226
0.7966511
0.7967791
0.79690623
0.79703254
0.79715794
0.7972825
0.7974062
0.79752904
0.79765105
0.79777217
0.79789245
0.7980119
0.79813045
0.7982482
0.798365
0.798481
0.79859614
0.7987104
0.79882383
0.7989364
0.7990481
0.799159
0.799269
0.79937816
0.79948646
0.79959387
0.79970044
0.7998062
0.799911
0.80001503
0.80011815
0.8002205
0.8003219
0.8004225
0.8005222
0.8006211
0.8007191
0.80081624
0.80091256
0.801008
0.8011026
0.8011963
0.80128914
0.8013812
0.8014723
0.8015626
0.8016521
0.80174065
0.8018284
0.8019153
0.8020013
0.8020865
0.80217075
0.8022542
0.8023368
0.80241853
0.8024994
0.80257946
0.8026586
0.80273694
0.80281436
0.80289096
0.8029667
0.80304164
0.80311567
0.8031888
0.8032611
0.80333257
0.8034032
0.80347294
0.80354184
0.80360985
0.803677
0.80374336
0.8038088
0.8038734
0.8039372
0.8040001
0.8040621
0.8041233
0.8041836
0.8042431
0.8043017
0.80435944
0.80441636
0.8044724
0.8045276
0.8045819
0.8046354
0.804688
0.8047398
0.8047907
0.8048407
0.8048899
0.80493826
0.8049857
0.8050323
0.8050781
0.80512303
0.8051671
0.80521023
0.8052526
0.8052941
0.8053347
0.80537444
0.80541337
0.80545145
0.80548865
0.805525
0.80556047
0.8055951
0.8056289
0.8056618
0.80569386
0.80572504
0.8057554
0.8057849
0.80581355
0.8058413
0.8058682
0.8058943
0.8059195
0.80594385
0.80596733
0.80599
0.8060118
0.8060327
0.80605274
0.806072
0.80609035
0.8061078
0.8061245
0.8061403
0.8061552
0.8061693
0.8061825
0.80619484
0.80620635
0.806217
0.8062268
0.80623597
0.8062445
0.8062525
0.8062598
0.80626667
0.80627286
0.80627847
0.80628353
0.806288
0.80629194
0.8062952
0.80629796
0.8063001
0.80630165
0.80630267
0.8063031
0.8063029
0.80630213
0.8063008
0.80629885
0.80629635
0.8062933
0.8062896
0.8062854
0.80628055
0.8062751
0.8062691
0.80626255
0.8062554
0.80624765
0.80623937
0.8062304
0.80622095
0.80621094
0.80620027
0.80618906
0.8061772
0.80616486
0.80615187
0.80613834
0.8061242
0.8061095
0.80609417
0.8060783
0.8060618
0.80604476
0.8060272
0.80600893
0.80599016
0.8059708
0.8059509
0.8059303
0.8059092
0.8058875
0.8058652
0.8058424
0.8058189
0.8057949
0.80577034
0.8057451
0.8057194
0.80569303
0.8056661
0.8056386
0.8056105
0.8055818
0.80555254
0.80552274
0.80549234
0.80546135
0.80542976
0.80539757
0.80536485
0.8053315
0.8052976
0.8052631
0.80522805
0.8051924
0.8051562
0.80511934
0.80508196
0.805044
0.80500543
0.8049663
0.8049266
0.8048862
0.80484533
0.8048039
0.8047618
0.8047192
0.804676
0.8046322
0.80458784
0.8045429
0.80449736
0.8044512
0.8044045
0.80435723
0.80430937
0.8042609
0.8042119
0.8041623
0.80411214
0.80406135
0.80401
0.80395806
0.80390555
0.80385244
0.80379874
0.8037445
0.80368966
0.8036342
0.8035782
0.80352163
0.8034645
0.8034067
0.80334836
0.8032895
0.80323
0.8031699
0.8031092
0.803048
0.8029862
0.8029238
0.8028608
0.80279726
0.80273306
0.8026684
0.80260307
0.80253714
0.8024707
0.8024036
0.802336
0.8022678
0.802199
0.8021296
0.80205965
0.8019891
0.80191797
0.80184627
0.80177397
0.8017011
0.80162764
0.8015536
0.801479
0.8014038
0.801328
0.80125165
0.80117476
0.8010972
0.80101913
0.8009404
0.8008612
0.8007813
0.8007009
0.80061984
0.80053824
0.8004561
0.8003733
0.80029
0.80020607
0.8001216
0.8000365
0.79995084
0.7998646
0.79977775
0.79969037
0.7996024
0.7995138
0.79942465
0.7993349
0.7992446
0.7991537
0.7990622
0.79897016
0.7988775
0.79878426
0.7986905
0.7985961
0.79850113
0.7984056
0.79830945
0.7982127
0.79811543
0.79801756
0.7979191
0.79782003
0.79772043
0.79762024
0.79751945
0.79741806
0.79731613
0.7972136
0.7971105
0.7970068
0.79690254
0.7967977
0.79669225
0.7965862
0.79647964
0.7963725
0.7962647
0.79615635
0.7960474
0.7959379
0.7958278
0.7957171
0.7956059
0.7954941
0.79538167
0.79526865
0.79515505
0.7950409
0.79492617
0.79481083
0.79469496
0.79457843
0.79446137
0.79434377
0.7942255
0.7941067
0.79398733
0.79386735
0.79374677
0.79362565
0.79350394
0.79338163
0.7932587
0.7931353
0.79301125
0.7928866
0.7927614
0.7926356
0.7925092
0.7923823
0.79225475
0.7921266
0.7919979
0.7918686
0.7917388
0.79160833
0.7914773
0.7913457
0.7912135
0.7910808
0.7909474
0.79081345
0.790679
0.79054385
0.7904082
0.79027194
0.7901351
0.78999764
0.78985965
0.7897211
0.7895819
0.7894422
0.7893018
0.7891609
0.7890194
0.78887737
0.78873473
0.78859144
0.7884477
0.78830326
0.7881583
0.7880127
0.78786653
0.78771985
0.7875725
0.7874246
0.78727615
0.78712714
0.78697747
0.78682727
0.78667647
0.7865251
0.78637314
0.7862206
0.7860675
0.78591377
0.78575945
0.7856046
0.78544915
0.7852931
0.7851365
0.78497934
0.78482157
0.7846632
0.78450423
0.78434473
0.78418463
0.78402394
0.7838627
0.7837008
0.7835384
0.7833754
0.7832118
0.7830476
0.78288287
0.7827175
0.78255165
0.7823851
0.78221804
0.7820504
0.78188217
0.7817133
0.7815439
0.7813739
0.7812034
0.7810322
0.7808605
0.78068817
0.78051525
0.7803418
0.78016776
0.7799931
0.7798179
0.77964205
0.7794657
0.7792887
0.77911115
0.77893305
0.77875435
0.77857506
0.7783952
0.7782147
0.7780337
0.77785206
0.77766985
0.7774871
0.7773037
0.77711976
0.7769352
0.77675015
0.7765644
0.77637815
0.7761913
0.7760039
0.77581584
0.77562726
0.7754381
0.77524835
0.775058
0.77486706
0.77467555
0.7744835
0.7742908
0.77409756
0.7739037
0.7737093
0.77351433
0.77331877
0.7731226
0.77292585
0.77272856
0.7725306
0.77233213
0.7721331
0.77193344
0.7717332
0.7715324
0.771331
0.771129
0.7709265
0.77072334
0.7705196
0.77031535
0.7701104
0.769905
0.7696989
0.7694923
0.76928514
0.7690773
0.768869
0.76866
0.7684505
0.76824033
0.7680297
0.7678184
0.76760656
0.76739407
0.76718104
0.7669675
0.76675326
0.7665385
0.76632315
0.76610726
0.7658907
0.76567364
0.76545596
0.7652377
0.7650189
0.7647994
0.7645794
0.7643589
0.7641377
0.76391596
0.76369363
0.7634707
0.76324725
0.76302314
0.7627985
0.7625733
0.7623481
0.76212335
0.76189905
0.76167506
0.76145154
0.7612284
0.7610057
0.7607834
0.7605614
0.7603399
0.7601188
0.7598981
0.7596778
0.7594579
0.7592384
0.7590193
0.7588006
0.75858235
0.7583645
0.758147
0.75793
0.7577133
0.7574971
0.7572812
0.7570658
0.7568507
0.7566361
0.75642186
0.75620806
0.7559946
0.7557816
0.755569
0.7553568
0.755145
0.7549336
0.7547226
0.754512
0.75430185
0.75409204
0.7538827
0.75367373
0.7534652
0.753257
0.75304925
0.7528419
0.75263494
0.7524284
0.7522223
0.75201654
0.75181127
0.75160635
0.7514018
0.7511977
0.75099397
0.7507907
0.7505878
0.7503853
0.7501832
0.7499815
0.74978024
0.74957937
0.7493789
0.7491789
0.7489792
0.74877995
0.7485811
0.7483827
0.7481846
0.747987
0.74778974
0.7475929
0.7473965
0.7472005
0.7470049
0.7468097
0.7466149
0.7464205
0.7462265
0.74603295
0.7458398
0.74564695
0.7454546
0.7452626
0.74507105
0.7448799
0.74468917
0.74449885
0.7443089
0.74411935
0.7439302
0.7437415
0.74355316
0.7433652
0.7431777
0.7429906
0.74280393
0.7426176
0.7424317
0.7422462
0.74206114
0.7418765
0.7416922
0.7415083
0.74132484
0.7411418
0.74095917
0.7407769
0.74059504
0.7404136
0.7402326
0.7400519
0.73987174
0.7396919
0.7395125
0.73933345
0.7391549
0.73897666
0.73879886
0.7386215
0.73844445
0.7382679
0.7380917
0.73791593
0.7377406
0.7375656
0.73739105
0.7372169
0.73704314
0.7368698
0.73669684
0.7365243
0.7363522
0.7361805
0.7360091
0.73583823
0.7356677
0.7354976
0.7353279
0.7351586
0.7349897
0.7348212
0.7346531
0.73448545
0.7343182
0.7341513
0.7339848
0.73381877
0.7336531
0.7334879
0.73332304
0.7331586
0.73299456
0.73283094
0.7326677
0.7325049
0.7323425
0.7321805
0.7320188
0.73185766
0.73169684
0.73153645
0.73137647
0.7312169
0.7310577
0.7308989
0.73074055
0.7305826
0.73042506
0.7302679
0.7301111
0.7299548
0.72979885
0.72964334
0.7294882
0.72933346
0.72917914
0.72902524
0.7288717
0.72871864
0.72856593
0.72841364
0.7282617
0.72811025
0.72795916
0.7278085
0.7276582
0.7275083
0.7273589
0.7272098
0.72706115
0.7269129
0.7267651
0.72661763
0.7264706
0.72632396
0.72617775
0.7260319
0.7258865
0.7257415
0.7255969
0.72545266
0.7253089
0.7251655
0.7250225
0.7248799
0.72473776
0.72459596
0.72445464
0.7243137
0.72417307
0.72403294
0.72389317
0.72375387
0.72361493
0.72347635
0.72333825
0.7232005
0.72306323
0.72292626
0.72278976
0.7226537
0.72251797
0.72238266
0.7222478
0.7221133
0.7219792
0.72184557
0.7217123
0.7215794
0.72144693
0.7213149
0.72118324
0.721052
0.72092116
0.7207907
0.7206607
0.72053105
0.7204018
0.720273
0.72014457
0.7200166
0.719889
0.7197618
0.71963495
0.7195086
0.7193826
0.719257
0.7191318
0.7190071
0.7188827
0.71875876
0.7186352
0.71851206
0.7183893
0.71826696
0.718145
0.7180235
0.71790236
0.7177816
0.7176613
0.7175414
0.7174219
0.7173028
0.71718407
0.71706575
0.7169479
0.7168304
0.7167133
0.71659666
0.7164804
0.7163645
0.71624905
0.716134
0.71601933
0.7159051
0.7157912
0.7156778
0.7155648
0.71545213
0.71533996
0.71522814
0.7151167
0.7150057
0.71489507
0.71478486
0.71467507
0.7145657
0.71445674
0.71434814
0.71423995
0.7141322
0.71402484
0.71391785
0.71381134
0.7137052
0.71359944
0.71349406
0.71338916
0.7132846
0.7131805
0.7130768
0.7129734
0.71287054
0.712768
0.7126659
0.71256423
0.7124629
0.71236205
0.71226156
0.7121615
0.7120618
0.7119625
0.71186364
0.7117652
0.7116671
0.7115695
0.7114723
0.7113754
0.711279
0.71118295
0.7110873
0.7109921
0.71089727
0.71080285
0.71070886
0.7106153
0.71052206
0.71042925
0.71033686
0.7102449
0.7101533
0.71006215
0.70997137
0.709881
0.70979106
0.7097015
0.7096123
0.7095236
0.7094352
0.7093473
0.7092598
0.70917267
0.70908594
0.70899963
0.7089137
0.7088282
0.7087431
0.7086584
0.7085741
0.70849025
0.70840675
0.70832366
0.708241
0.70815873
0.70807683
0.7079954
0.70791435
0.7078337
0.7077534
0.7076736
0.70759416
0.7075151
0.7074365
0.7073583
0.70728046
0.7072031
0.7071261
0.7070495
0.70697325
0.7068975
0.7068221
0.7067471
0.70667255
0.70659834
0.7065246
0.70645124
0.7063783
0.7063057
0.70623356
0.7061618
0.70609045
0.7060195
0.705949
0.70587885
0.7058092
0.70573986
0.70567095
0.7056024
0.70553434
0.7054666
0.70539933
0.70533246
0.705266
0.7051999
0.7051342
0.70506895
0.7050041
0.70493966
0.7048756
0.70481193
0.7047487
0.70468587
0.7046234
0.7045614
0.70450014
0.7044398
0.70438045
0.704322
0.7042645
0.704208
0.70415246
0.70409787
0.7040442
0.70399153
0.7039398
0.703889
0.7038392
0.70379025
0.7037423
0.70369536
0.70364934
0.7036043
0.7035602
0.70351696
0.70347476
0.7034335
0.7033932
0.7033539
0.70331544
0.703278
0.7032415
0.703206
0.7031714
0.70313776
0.7031051
0.7030734
0.70304257
0.70301276
0.7029839
0.70295596
0.702929
0.70290303
0.70287794
0.70285386
0.70283073
0.7028085
0.7027873
0.702767
0.70274764
0.7027293
0.7027118
0.70269537
0.7026799
0.70266527
0.7026517
0.702639
0.7026273
0.7026165
0.70260674
0.70259786
0.70259
0.702583
0.70257705
0.702572
0.70256793
0.7025648
0.70256263
0.7025614
0.70256114
0.7025618
0.70256346
0.702566
0.7025696
0.7025741
0.7025795
0.70258594
0.70259327
0.7026016
0.70261085
0.70262104
0.70263225
0.70264435
0.7026574
0.70267147
0.7026864
0.70270234
0.7027193
0.7027371
0.70275587
0.70277566
0.70279634
0.702818
0.70284057
0.70286417
0.70288867
0.7029141
0.7029405
0.70296794
0.70299625
0.7030255
0.70305574
