4.684448242187500000e-02
4.119873046875000000e-02
3.952026367187500000e-02
3.997802734375000000e-02
4.028320312500000000e-02
4.104614257812500000e-02
4.043579101562500000e-02
3.967285156250000000e-02
3.967285156250000000e-02
3.967285156250000000e-02
3.875732421875000000e-02
3.753662109375000000e-02
3.646850585937500000e-02
3.555297851562500000e-02
3.402709960937500000e-02
3.295898437500000000e-02
3.173828125000000000e-02
2.975463867187500000e-02
2.731323242187500000e-02
2.456665039062500000e-02
2.136230468750000000e-02
1.739501953125000000e-02
1.342773437500000000e-02
9.307861328125000000e-03
4.882812500000000000e-03
1.525878906250000000e-03
-2.899169921875000000e-03
-7.019042968750000000e-03
-1.098632812500000000e-02
-1.510620117187500000e-02
-1.861572265625000000e-02
-2.151489257812500000e-02
-2.380371093750000000e-02
-2.517700195312500000e-02
-2.655029296875000000e-02
-2.761840820312500000e-02
-2.822875976562500000e-02
-2.807617187500000000e-02
-2.838134765625000000e-02
-2.914428710937500000e-02
-3.051757812500000000e-02
-3.097534179687500000e-02
-3.158569335937500000e-02
-3.372192382812500000e-02
-3.494262695312500000e-02
-3.662109375000000000e-02
-3.814697265625000000e-02
-4.058837890625000000e-02
-4.241943359375000000e-02
-4.364013671875000000e-02
-4.592895507812500000e-02
-4.791259765625000000e-02
-5.111694335937500000e-02
-5.462646484375000000e-02
-5.752563476562500000e-02
-6.103515625000000000e-02
-6.561279296875000000e-02
-7.034301757812500000e-02
-7.522583007812500000e-02
-8.041381835937500000e-02
-8.392333984375000000e-02
-8.773803710937500000e-02
-9.246826171875000000e-02
-9.735107421875000000e-02
-1.010131835937500000e-01
-1.048278808593750000e-01
-1.084899902343750000e-01
-1.112365722656250000e-01
-1.129150390625000000e-01
-1.139831542968750000e-01
-1.155090332031250000e-01
-1.158142089843750000e-01
-1.159667968750000000e-01
-1.158142089843750000e-01
-1.159667968750000000e-01
-1.159667968750000000e-01
-1.159667968750000000e-01
-1.156616210937500000e-01
-1.161193847656250000e-01
-1.161193847656250000e-01
-1.156616210937500000e-01
-1.162719726562500000e-01
-1.158142089843750000e-01
-1.159667968750000000e-01
-1.162719726562500000e-01
-1.158142089843750000e-01
-1.161193847656250000e-01
-1.158142089843750000e-01
-1.170349121093750000e-01
-1.181030273437500000e-01
-1.182556152343750000e-01
-1.188659667968750000e-01
-1.211547851562500000e-01
-1.226806640625000000e-01
-1.240539550781250000e-01
-1.260375976562500000e-01
-1.286315917968750000e-01
-1.309204101562500000e-01
-1.335144042968750000e-01
-1.347351074218750000e-01
-1.361083984375000000e-01
-1.374816894531250000e-01
-1.379394531250000000e-01
-1.380920410156250000e-01
-1.379394531250000000e-01
-1.376342773437500000e-01
-1.370239257812500000e-01
-1.350402832031250000e-01
-1.330566406250000000e-01
-1.303100585937500000e-01
-1.277160644531250000e-01
-1.255798339843750000e-01
-1.231384277343750000e-01
-1.206970214843750000e-01
-1.184082031250000000e-01
-1.155090332031250000e-01
-1.132202148437500000e-01
-1.115417480468750000e-01
-1.104736328125000000e-01
-1.086425781250000000e-01
-1.068115234375000000e-01
-1.057434082031250000e-01
-1.040649414062500000e-01
-1.031494140625000000e-01
-1.020812988281250000e-01
-1.008605957031250000e-01
-9.918212890625000000e-02
-9.994506835937500000e-02
-1.010131835937500000e-01
-1.013183593750000000e-01
-1.023864746093750000e-01
-1.043701171875000000e-01
-1.055908203125000000e-01
-1.068115234375000000e-01
-1.091003417968750000e-01
-1.106262207031250000e-01
-1.121520996093750000e-01
-1.130676269531250000e-01
-1.133728027343750000e-01
-1.138305664062500000e-01
-1.133728027343750000e-01
-1.135253906250000000e-01
-1.133728027343750000e-01
-1.136779785156250000e-01
-1.136779785156250000e-01
-1.055908203125000000e-01
-9.521484375000000000e-02
-8.972167968750000000e-02
-8.758544921875000000e-02
-8.621215820312500000e-02
-8.407592773437500000e-02
-8.178710937500000000e-02
-8.026123046875000000e-02
-7.873535156250000000e-02
-7.751464843750000000e-02
-7.614135742187500000e-02
-7.537841796875000000e-02
-7.461547851562500000e-02
-7.476806640625000000e-02
-7.492065429687500000e-02
-7.461547851562500000e-02
-7.553100585937500000e-02
-7.598876953125000000e-02
-7.781982421875000000e-02
-7.888793945312500000e-02
-8.041381835937500000e-02
-8.224487304687500000e-02
-8.392333984375000000e-02
-8.514404296875000000e-02
-8.621215820312500000e-02
-8.666992187500000000e-02
-8.697509765625000000e-02
-8.636474609375000000e-02
-8.590698242187500000e-02
-8.483886718750000000e-02
-8.316040039062500000e-02
-8.178710937500000000e-02
-7.919311523437500000e-02
-7.690429687500000000e-02
-7.446289062500000000e-02
-7.186889648437500000e-02
-7.019042968750000000e-02
-6.896972656250000000e-02
-6.683349609375000000e-02
-6.530761718750000000e-02
-6.378173828125000000e-02
-6.179809570312500000e-02
-6.057739257812500000e-02
-5.935668945312500000e-02
-5.798339843750000000e-02
-5.645751953125000000e-02
-5.584716796875000000e-02
-5.493164062500000000e-02
-5.432128906250000000e-02
-5.340576171875000000e-02
-5.371093750000000000e-02
-5.462646484375000000e-02
-5.447387695312500000e-02
-5.615234375000000000e-02
-5.783081054687500000e-02
-6.042480468750000000e-02
-6.179809570312500000e-02
-6.347656250000000000e-02
-6.576538085937500000e-02
-6.668090820312500000e-02
-6.805419921875000000e-02
-6.912231445312500000e-02
-7.064819335937500000e-02
-7.156372070312500000e-02
-7.141113281250000000e-02
-7.019042968750000000e-02
-6.912231445312500000e-02
-6.790161132812500000e-02
-6.652832031250000000e-02
-6.454467773437500000e-02
-6.301879882812500000e-02
-6.179809570312500000e-02
-5.935668945312500000e-02
-5.844116210937500000e-02
-5.645751953125000000e-02
-5.584716796875000000e-02
-5.447387695312500000e-02
-5.294799804687500000e-02
-5.218505859375000000e-02
-5.065917968750000000e-02
-5.050659179687500000e-02
-5.035400390625000000e-02
-5.004882812500000000e-02
-4.959106445312500000e-02
-4.852294921875000000e-02
-4.714965820312500000e-02
-4.592895507812500000e-02
-4.562377929687500000e-02
-4.547119140625000000e-02
-4.531860351562500000e-02
-4.638671875000000000e-02
-4.745483398437500000e-02
-4.852294921875000000e-02
-5.004882812500000000e-02
-5.065917968750000000e-02
-5.294799804687500000e-02
-5.447387695312500000e-02
-5.584716796875000000e-02
-5.691528320312500000e-02
-5.844116210937500000e-02
-5.996704101562500000e-02
-6.011962890625000000e-02
-5.996704101562500000e-02
-5.996704101562500000e-02
-5.920410156250000000e-02
-5.722045898437500000e-02
-5.538940429687500000e-02
-5.493164062500000000e-02
-5.218505859375000000e-02
-5.004882812500000000e-02
-4.837036132812500000e-02
-4.714965820312500000e-02
-4.516601562500000000e-02
-4.364013671875000000e-02
-4.226684570312500000e-02
-4.119873046875000000e-02
-3.997802734375000000e-02
-3.860473632812500000e-02
-3.723144531250000000e-02
-3.616333007812500000e-02
-3.463745117187500000e-02
-3.372192382812500000e-02
-3.372192382812500000e-02
-3.219604492187500000e-02
-3.173828125000000000e-02
-3.295898437500000000e-02
-3.311157226562500000e-02
-3.417968750000000000e-02
-3.540039062500000000e-02
-3.631591796875000000e-02
-3.829956054687500000e-02
-3.982543945312500000e-02
-4.135131835937500000e-02
-4.226684570312500000e-02
-4.379272460937500000e-02
-4.470825195312500000e-02
-4.623413085937500000e-02
-4.745483398437500000e-02
-4.669189453125000000e-02
-4.577636718750000000e-02
-4.455566406250000000e-02
-4.318237304687500000e-02
-4.196166992187500000e-02
-4.013061523437500000e-02
-3.768920898437500000e-02
-3.524780273437500000e-02
-3.387451171875000000e-02
-3.250122070312500000e-02
-3.021240234375000000e-02
-2.914428710937500000e-02
-2.746582031250000000e-02
-2.670288085937500000e-02
-2.532958984375000000e-02
-2.395629882812500000e-02
-2.380371093750000000e-02
-2.349853515625000000e-02
-2.288818359375000000e-02
-2.182006835937500000e-02
-2.136230468750000000e-02
-2.136230468750000000e-02
-2.120971679687500000e-02
-2.212524414062500000e-02
-2.304077148437500000e-02
-2.441406250000000000e-02
-2.624511718750000000e-02
-2.792358398437500000e-02
-2.883911132812500000e-02
-3.128051757812500000e-02
-3.250122070312500000e-02
-3.387451171875000000e-02
-3.631591796875000000e-02
-3.753662109375000000e-02
-3.799438476562500000e-02
-3.829956054687500000e-02
-3.784179687500000000e-02
-3.814697265625000000e-02
-3.707885742187500000e-02
-3.631591796875000000e-02
-3.494262695312500000e-02
-3.265380859375000000e-02
-3.051757812500000000e-02
-2.807617187500000000e-02
-2.670288085937500000e-02
-2.517700195312500000e-02
-2.273559570312500000e-02
-2.166748046875000000e-02
-2.120971679687500000e-02
-2.044677734375000000e-02
-1.937866210937500000e-02
-1.876831054687500000e-02
-1.770019531250000000e-02
-1.663208007812500000e-02
-1.632690429687500000e-02
-1.617431640625000000e-02
-1.632690429687500000e-02
-1.617431640625000000e-02
-1.708984375000000000e-02
-1.815795898437500000e-02
-1.953125000000000000e-02
-2.075195312500000000e-02
-2.197265625000000000e-02
-2.395629882812500000e-02
-2.624511718750000000e-02
-2.761840820312500000e-02
-2.929687500000000000e-02
-3.036499023437500000e-02
-3.173828125000000000e-02
-3.356933593750000000e-02
-3.509521484375000000e-02
-3.540039062500000000e-02
-3.646850585937500000e-02
-3.723144531250000000e-02
-3.646850585937500000e-02
-3.494262695312500000e-02
-3.280639648437500000e-02
-3.143310546875000000e-02
-3.021240234375000000e-02
-2.761840820312500000e-02
-2.609252929687500000e-02
-2.349853515625000000e-02
-2.166748046875000000e-02
-2.059936523437500000e-02
-1.815795898437500000e-02
-1.663208007812500000e-02
-1.632690429687500000e-02
-1.525878906250000000e-02
-1.434326171875000000e-02
-1.373291015625000000e-02
-1.403808593750000000e-02
-1.373291015625000000e-02
-1.358032226562500000e-02
-1.358032226562500000e-02
-1.403808593750000000e-02
-1.403808593750000000e-02
-1.495361328125000000e-02
-1.647949218750000000e-02
-1.937866210937500000e-02
-2.075195312500000000e-02
-2.182006835937500000e-02
-2.395629882812500000e-02
-2.639770507812500000e-02
-2.868652343750000000e-02
-3.112792968750000000e-02
-3.250122070312500000e-02
-3.387451171875000000e-02
-3.540039062500000000e-02
-3.555297851562500000e-02
-3.540039062500000000e-02
-3.555297851562500000e-02
-3.479003906250000000e-02
-3.341674804687500000e-02
-3.234863281250000000e-02
-3.051757812500000000e-02
-2.807617187500000000e-02
-2.548217773437500000e-02
-2.334594726562500000e-02
-2.197265625000000000e-02
-2.044677734375000000e-02
-1.815795898437500000e-02
-1.693725585937500000e-02
-1.571655273437500000e-02
-1.434326171875000000e-02
-1.388549804687500000e-02
-1.388549804687500000e-02
-1.296997070312500000e-02
-1.205444335937500000e-02
-1.174926757812500000e-02
-1.113891601562500000e-02
-1.144409179687500000e-02
-1.251220703125000000e-02
-1.449584960937500000e-02
-1.556396484375000000e-02
-1.663208007812500000e-02
-1.907348632812500000e-02
-2.227783203125000000e-02
-2.609252929687500000e-02
-2.822875976562500000e-02
-3.112792968750000000e-02
-3.341674804687500000e-02
-3.509521484375000000e-02
-3.616333007812500000e-02
-3.860473632812500000e-02
-3.936767578125000000e-02
-4.043579101562500000e-02
-4.074096679687500000e-02
-3.967285156250000000e-02
-3.860473632812500000e-02
-3.738403320312500000e-02
-3.494262695312500000e-02
-3.311157226562500000e-02
-3.143310546875000000e-02
-3.005981445312500000e-02
-2.822875976562500000e-02
-2.655029296875000000e-02
-2.502441406250000000e-02
-2.365112304687500000e-02
-2.288818359375000000e-02
-2.136230468750000000e-02
-2.136230468750000000e-02
-2.044677734375000000e-02
-1.922607421875000000e-02
-1.907348632812500000e-02
-1.876831054687500000e-02
-1.861572265625000000e-02
-1.876831054687500000e-02
-1.846313476562500000e-02
-1.953125000000000000e-02
-2.182006835937500000e-02
-2.410888671875000000e-02
-2.609252929687500000e-02
-2.868652343750000000e-02
-3.097534179687500000e-02
-3.341674804687500000e-02
-3.585815429687500000e-02
-3.860473632812500000e-02
-3.982543945312500000e-02
-4.150390625000000000e-02
-4.348754882812500000e-02
-4.486083984375000000e-02
-4.547119140625000000e-02
-4.470825195312500000e-02
-4.348754882812500000e-02
-4.211425781250000000e-02
-4.043579101562500000e-02
-3.768920898437500000e-02
-3.631591796875000000e-02
-3.479003906250000000e-02
-3.265380859375000000e-02
-3.051757812500000000e-02
-2.914428710937500000e-02
-2.761840820312500000e-02
-2.593994140625000000e-02
-2.441406250000000000e-02
-2.273559570312500000e-02
-2.151489257812500000e-02
-2.059936523437500000e-02
-1.937866210937500000e-02
-1.876831054687500000e-02
-1.770019531250000000e-02
-1.647949218750000000e-02
-1.647949218750000000e-02
-1.693725585937500000e-02
-1.815795898437500000e-02
-1.937866210937500000e-02
-2.059936523437500000e-02
-2.197265625000000000e-02
-2.410888671875000000e-02
-2.624511718750000000e-02
-2.868652343750000000e-02
-3.097534179687500000e-02
-3.356933593750000000e-02
-3.585815429687500000e-02
-3.829956054687500000e-02
-4.089355468750000000e-02
-4.226684570312500000e-02
-4.272460937500000000e-02
-4.272460937500000000e-02
-4.302978515625000000e-02
-4.211425781250000000e-02
-3.997802734375000000e-02
-3.784179687500000000e-02
-3.631591796875000000e-02
-3.479003906250000000e-02
-3.311157226562500000e-02
-3.082275390625000000e-02
-2.914428710937500000e-02
-2.761840820312500000e-02
-2.578735351562500000e-02
-2.426147460937500000e-02
-2.319335937500000000e-02
-2.166748046875000000e-02
-2.120971679687500000e-02
-2.059936523437500000e-02
-1.937866210937500000e-02
-1.815795898437500000e-02
-1.678466796875000000e-02
-1.663208007812500000e-02
-1.617431640625000000e-02
-1.617431640625000000e-02
-1.693725585937500000e-02
-1.922607421875000000e-02
-2.044677734375000000e-02
-2.197265625000000000e-02
-2.426147460937500000e-02
-2.609252929687500000e-02
-2.838134765625000000e-02
-3.005981445312500000e-02
-3.158569335937500000e-02
-3.387451171875000000e-02
-3.509521484375000000e-02
-3.555297851562500000e-02
-3.555297851562500000e-02
-3.570556640625000000e-02
-3.570556640625000000e-02
-3.479003906250000000e-02
-3.265380859375000000e-02
-3.128051757812500000e-02
-2.990722656250000000e-02
-2.792358398437500000e-02
-2.578735351562500000e-02
-2.334594726562500000e-02
-2.182006835937500000e-02
-2.014160156250000000e-02
-1.846313476562500000e-02
-1.678466796875000000e-02
-1.541137695312500000e-02
-1.449584960937500000e-02
-1.434326171875000000e-02
-1.266479492187500000e-02
-1.190185546875000000e-02
-1.129150390625000000e-02
-1.037597656250000000e-02
-9.307861328125000000e-03
-9.002685546875000000e-03
-9.765625000000000000e-03
-1.083374023437500000e-02
-1.220703125000000000e-02
-1.312255859375000000e-02
-1.464843750000000000e-02
-1.632690429687500000e-02
-1.876831054687500000e-02
-2.136230468750000000e-02
-2.334594726562500000e-02
-2.548217773437500000e-02
-2.593994140625000000e-02
-2.609252929687500000e-02
-2.609252929687500000e-02
-2.578735351562500000e-02
-2.609252929687500000e-02
-2.609252929687500000e-02
-2.593994140625000000e-02
-2.609252929687500000e-02
-2.609252929687500000e-02
-2.593994140625000000e-02
-2.609252929687500000e-02
-2.578735351562500000e-02
-2.593994140625000000e-02
-2.578735351562500000e-02
-2.578735351562500000e-02
-2.593994140625000000e-02
-2.609252929687500000e-02
-2.578735351562500000e-02
-2.578735351562500000e-02
-2.578735351562500000e-02
-2.609252929687500000e-02
-2.609252929687500000e-02
-2.609252929687500000e-02
-2.593994140625000000e-02
-2.609252929687500000e-02
-2.609252929687500000e-02
-2.578735351562500000e-02
-2.609252929687500000e-02
-2.593994140625000000e-02
-2.609252929687500000e-02
-2.593994140625000000e-02
-2.593994140625000000e-02
-2.578735351562500000e-02
-2.578735351562500000e-02
-2.593994140625000000e-02
-2.578735351562500000e-02
-2.578735351562500000e-02
-2.593994140625000000e-02
-2.609252929687500000e-02
-2.609252929687500000e-02
-2.593994140625000000e-02
-2.624511718750000000e-02
-2.609252929687500000e-02
-2.609252929687500000e-02
-2.578735351562500000e-02
-2.593994140625000000e-02
-2.593994140625000000e-02
-2.624511718750000000e-02
-2.593994140625000000e-02
-2.655029296875000000e-02
-2.609252929687500000e-02
-2.609252929687500000e-02
-2.609252929687500000e-02
-2.624511718750000000e-02
-2.624511718750000000e-02
-2.593994140625000000e-02
-2.578735351562500000e-02
-2.609252929687500000e-02
-1.876831054687500000e-02
-1.052856445312500000e-02
-7.934570312500000000e-03
-9.002685546875000000e-03
-9.918212890625000000e-03
-1.174926757812500000e-02
-1.358032226562500000e-02
-1.464843750000000000e-02
-1.678466796875000000e-02
-1.907348632812500000e-02
-2.090454101562500000e-02
-2.105712890625000000e-02
-2.105712890625000000e-02
-2.227783203125000000e-02
-2.334594726562500000e-02
-2.365112304687500000e-02
-2.365112304687500000e-02
-2.365112304687500000e-02
-2.349853515625000000e-02
-2.258300781250000000e-02
-2.166748046875000000e-02
-2.029418945312500000e-02
-1.800537109375000000e-02
-1.693725585937500000e-02
-1.571655273437500000e-02
-1.342773437500000000e-02
-1.220703125000000000e-02
-1.068115234375000000e-02
-9.307861328125000000e-03
-7.781982421875000000e-03
-7.171630859375000000e-03
-6.561279296875000000e-03
-5.950927734375000000e-03
-4.577636718750000000e-03
-3.967285156250000000e-03
-3.967285156250000000e-03
-3.356933593750000000e-03
-1.983642578125000000e-03
-1.831054687500000000e-03
-1.831054687500000000e-03
-2.288818359375000000e-03
-3.662109375000000000e-03
-4.730224609375000000e-03
-6.713867187500000000e-03
-9.460449218750000000e-03
-1.129150390625000000e-02
-1.327514648437500000e-02
-1.449584960937500000e-02
-1.647949218750000000e-02
-1.892089843750000000e-02
-2.029418945312500000e-02
-2.136230468750000000e-02
-2.197265625000000000e-02
-2.288818359375000000e-02
-2.243041992187500000e-02
-2.151489257812500000e-02
-2.029418945312500000e-02
-1.831054687500000000e-02
-1.678466796875000000e-02
-1.541137695312500000e-02
-1.327514648437500000e-02
-1.083374023437500000e-02
-9.460449218750000000e-03
-8.239746093750000000e-03
-6.866455078125000000e-03
-5.798339843750000000e-03
-4.730224609375000000e-03
-3.814697265625000000e-03
-4.119873046875000000e-03
-3.204345703125000000e-03
-1.831054687500000000e-03
-1.983642578125000000e-03
-1.831054687500000000e-03
-1.678466796875000000e-03
-1.678466796875000000e-03
-1.525878906250000000e-03
-2.746582031250000000e-03
-4.425048828125000000e-03
-5.493164062500000000e-03
-7.324218750000000000e-03
-9.613037109375000000e-03
-1.174926757812500000e-02
-1.388549804687500000e-02
-1.647949218750000000e-02
-1.800537109375000000e-02
-1.907348632812500000e-02
-2.075195312500000000e-02
-2.182006835937500000e-02
-2.319335937500000000e-02
-2.349853515625000000e-02
-2.227783203125000000e-02
-2.166748046875000000e-02
-2.136230468750000000e-02
-1.983642578125000000e-02
-1.815795898437500000e-02
-1.617431640625000000e-02
-1.373291015625000000e-02
-1.190185546875000000e-02
-1.037597656250000000e-02
-8.697509765625000000e-03
-7.171630859375000000e-03
-5.493164062500000000e-03
-4.882812500000000000e-03
-3.509521484375000000e-03
-1.831054687500000000e-03
-1.831054687500000000e-03
-9.155273437500000000e-04
3.051757812500000000e-04
9.155273437500000000e-04
7.629394531250000000e-04
7.629394531250000000e-04
6.103515625000000000e-04
0.000000000000000000e+00
-1.068115234375000000e-03
-2.136230468750000000e-03
-4.425048828125000000e-03
-5.950927734375000000e-03
-7.476806640625000000e-03
-9.460449218750000000e-03
-1.190185546875000000e-02
-1.403808593750000000e-02
-1.647949218750000000e-02
-1.800537109375000000e-02
-1.922607421875000000e-02
-2.044677734375000000e-02
-2.090454101562500000e-02
-2.120971679687500000e-02
-2.105712890625000000e-02
-2.014160156250000000e-02
-1.922607421875000000e-02
-1.815795898437500000e-02
-1.586914062500000000e-02
-1.373291015625000000e-02
-1.113891601562500000e-02
-8.697509765625000000e-03
-7.171630859375000000e-03
-5.645751953125000000e-03
-3.662109375000000000e-03
-2.136230468750000000e-03
-1.831054687500000000e-03
-7.629394531250000000e-04
6.103515625000000000e-04
4.577636718750000000e-04
1.983642578125000000e-03
2.746582031250000000e-03
3.051757812500000000e-03
3.051757812500000000e-03
3.204345703125000000e-03
3.509521484375000000e-03
2.136230468750000000e-03
1.525878906250000000e-03
-4.577636718750000000e-04
-1.831054687500000000e-03
-4.272460937500000000e-03
-5.798339843750000000e-03
-7.324218750000000000e-03
-9.155273437500000000e-03
-1.190185546875000000e-02
-1.296997070312500000e-02
-1.434326171875000000e-02
-1.571655273437500000e-02
-1.602172851562500000e-02
-1.632690429687500000e-02
-1.647949218750000000e-02
-1.525878906250000000e-02
-1.342773437500000000e-02
-1.220703125000000000e-02
-1.098632812500000000e-02
-8.544921875000000000e-03
-6.103515625000000000e-03
-3.509521484375000000e-03
-2.136230468750000000e-03
-1.068115234375000000e-03
3.051757812500000000e-04
1.831054687500000000e-03
2.746582031250000000e-03
2.899169921875000000e-03
3.204345703125000000e-03
2.899169921875000000e-03
2.899169921875000000e-03
3.204345703125000000e-03
3.356933593750000000e-03
2.441406250000000000e-03
1.068115234375000000e-03
1.525878906250000000e-04
-1.831054687500000000e-03
-4.272460937500000000e-03
-7.171630859375000000e-03
-9.307861328125000000e-03
-1.266479492187500000e-02
-1.586914062500000000e-02
-1.998901367187500000e-02
-2.334594726562500000e-02
-2.609252929687500000e-02
-2.853393554687500000e-02
-3.112792968750000000e-02
-3.280639648437500000e-02
-3.433227539062500000e-02
-3.524780273437500000e-02
-3.555297851562500000e-02
-3.479003906250000000e-02
-3.311157226562500000e-02
-3.265380859375000000e-02
-3.051757812500000000e-02
-2.899169921875000000e-02
-2.761840820312500000e-02
-2.548217773437500000e-02
-2.395629882812500000e-02
-2.304077148437500000e-02
-2.166748046875000000e-02
-2.044677734375000000e-02
-1.937866210937500000e-02
-1.922607421875000000e-02
-1.861572265625000000e-02
-1.876831054687500000e-02
-1.861572265625000000e-02
-1.846313476562500000e-02
-1.846313476562500000e-02
-1.953125000000000000e-02
-2.059936523437500000e-02
-2.182006835937500000e-02
-2.395629882812500000e-02
-2.593994140625000000e-02
-2.960205078125000000e-02
-3.295898437500000000e-02
-3.692626953125000000e-02
-4.028320312500000000e-02
-4.318237304687500000e-02
-4.638671875000000000e-02
-5.020141601562500000e-02
-5.294799804687500000e-02
-5.523681640625000000e-02
-5.798339843750000000e-02
-6.057739257812500000e-02
-6.179809570312500000e-02
-6.225585937500000000e-02
-6.240844726562500000e-02
-6.256103515625000000e-02
-6.240844726562500000e-02
-6.149291992187500000e-02
-6.027221679687500000e-02
-5.950927734375000000e-02
-5.813598632812500000e-02
-5.676269531250000000e-02
-5.554199218750000000e-02
-5.523681640625000000e-02
-5.432128906250000000e-02
-5.294799804687500000e-02
-5.172729492187500000e-02
-5.050659179687500000e-02
-5.050659179687500000e-02
-4.928588867187500000e-02
-4.837036132812500000e-02
-4.714965820312500000e-02
-4.577636718750000000e-02
-4.547119140625000000e-02
-4.547119140625000000e-02
-4.531860351562500000e-02
-4.638671875000000000e-02
-4.730224609375000000e-02
-4.867553710937500000e-02
-4.943847656250000000e-02
-5.111694335937500000e-02
-5.310058593750000000e-02
-5.477905273437500000e-02
-5.599975585937500000e-02
-5.706787109375000000e-02
-5.752563476562500000e-02
-5.767822265625000000e-02
-5.722045898437500000e-02
-5.752563476562500000e-02
-5.645751953125000000e-02
-5.447387695312500000e-02
-5.325317382812500000e-02
-5.264282226562500000e-02
-5.294799804687500000e-02
-5.294799804687500000e-02
-5.294799804687500000e-02
-5.294799804687500000e-02
-5.294799804687500000e-02
-5.294799804687500000e-02
-5.279541015625000000e-02
-5.310058593750000000e-02
-4.257202148437500000e-02
-3.128051757812500000e-02
-2.624511718750000000e-02
-2.349853515625000000e-02
-2.090454101562500000e-02
-1.922607421875000000e-02
-1.785278320312500000e-02
-1.586914062500000000e-02
-1.419067382812500000e-02
-1.388549804687500000e-02
-1.266479492187500000e-02
-1.327514648437500000e-02
-1.358032226562500000e-02
-1.342773437500000000e-02
-1.449584960937500000e-02
-1.571655273437500000e-02
-1.632690429687500000e-02
-1.647949218750000000e-02
-1.708984375000000000e-02
-1.815795898437500000e-02
-1.892089843750000000e-02
-1.876831054687500000e-02
-1.770019531250000000e-02
-1.663208007812500000e-02
-1.541137695312500000e-02
-1.358032226562500000e-02
-1.113891601562500000e-02
-8.392333984375000000e-03
-5.950927734375000000e-03
-3.814697265625000000e-03
-1.373291015625000000e-03
1.831054687500000000e-03
4.425048828125000000e-03
6.103515625000000000e-03
8.544921875000000000e-03
1.068115234375000000e-02
1.327514648437500000e-02
1.510620117187500000e-02
1.602172851562500000e-02
1.724243164062500000e-02
1.861572265625000000e-02
1.968383789062500000e-02
2.090454101562500000e-02
2.212524414062500000e-02
2.243041992187500000e-02
2.243041992187500000e-02
2.258300781250000000e-02
2.273559570312500000e-02
2.273559570312500000e-02
2.182006835937500000e-02
2.059936523437500000e-02
2.044677734375000000e-02
1.922607421875000000e-02
1.861572265625000000e-02
1.663208007812500000e-02
1.571655273437500000e-02
1.571655273437500000e-02
1.541137695312500000e-02
1.556396484375000000e-02
1.541137695312500000e-02
1.556396484375000000e-02
1.617431640625000000e-02
1.815795898437500000e-02
1.983642578125000000e-02
2.120971679687500000e-02
2.304077148437500000e-02
2.548217773437500000e-02
2.761840820312500000e-02
2.960205078125000000e-02
3.067016601562500000e-02
3.189086914062500000e-02
3.295898437500000000e-02
3.448486328125000000e-02
3.463745117187500000e-02
3.555297851562500000e-02
3.692626953125000000e-02
3.707885742187500000e-02
3.738403320312500000e-02
3.829956054687500000e-02
3.952026367187500000e-02
3.952026367187500000e-02
3.967285156250000000e-02
3.875732421875000000e-02
3.768920898437500000e-02
3.631591796875000000e-02
3.448486328125000000e-02
3.204345703125000000e-02
3.021240234375000000e-02
2.960205078125000000e-02
2.700805664062500000e-02
2.578735351562500000e-02
2.548217773437500000e-02
2.517700195312500000e-02
2.502441406250000000e-02
2.517700195312500000e-02
2.502441406250000000e-02
2.487182617187500000e-02
2.517700195312500000e-02
2.502441406250000000e-02
2.502441406250000000e-02
2.548217773437500000e-02
2.517700195312500000e-02
2.502441406250000000e-02
3.128051757812500000e-02
3.875732421875000000e-02
4.119873046875000000e-02
4.165649414062500000e-02
4.165649414062500000e-02
4.226684570312500000e-02
4.165649414062500000e-02
4.150390625000000000e-02
4.074096679687500000e-02
3.906250000000000000e-02
3.723144531250000000e-02
3.448486328125000000e-02
3.219604492187500000e-02
2.975463867187500000e-02
2.761840820312500000e-02
2.502441406250000000e-02
2.243041992187500000e-02
1.968383789062500000e-02
1.846313476562500000e-02
1.724243164062500000e-02
1.586914062500000000e-02
1.571655273437500000e-02
1.541137695312500000e-02
1.541137695312500000e-02
1.556396484375000000e-02
1.632690429687500000e-02
1.708984375000000000e-02
1.892089843750000000e-02
1.968383789062500000e-02
2.105712890625000000e-02
2.227783203125000000e-02
2.273559570312500000e-02
2.288818359375000000e-02
2.258300781250000000e-02
2.273559570312500000e-02
2.258300781250000000e-02
2.288818359375000000e-02
2.243041992187500000e-02
2.288818359375000000e-02
2.273559570312500000e-02
2.258300781250000000e-02
2.258300781250000000e-02
2.273559570312500000e-02
2.273559570312500000e-02
2.258300781250000000e-02
2.243041992187500000e-02
2.273559570312500000e-02
2.258300781250000000e-02
2.258300781250000000e-02
2.258300781250000000e-02
2.273559570312500000e-02
2.288818359375000000e-02
2.258300781250000000e-02
2.243041992187500000e-02
2.273559570312500000e-02
2.258300781250000000e-02
2.273559570312500000e-02
2.273559570312500000e-02
2.243041992187500000e-02
2.273559570312500000e-02
2.258300781250000000e-02
2.258300781250000000e-02
2.273559570312500000e-02
2.304077148437500000e-02
2.258300781250000000e-02
2.258300781250000000e-02
2.288818359375000000e-02
2.258300781250000000e-02
2.258300781250000000e-02
2.273559570312500000e-02
2.273559570312500000e-02
2.288818359375000000e-02
2.273559570312500000e-02
2.273559570312500000e-02
2.258300781250000000e-02
2.273559570312500000e-02
7.003784179687500000e-02
1.274108886718750000e-01
1.542663574218750000e-01
1.693725585937500000e-01
1.811218261718750000e-01
1.914978027343750000e-01
2.020263671875000000e-01
2.127075195312500000e-01
2.229309082031250000e-01
2.326965332031250000e-01
2.413940429687500000e-01
2.502441406250000000e-01
2.590942382812500000e-01
2.665710449218750000e-01
2.738952636718750000e-01
2.810668945312500000e-01
2.885437011718750000e-01
2.961730957031250000e-01
3.033447265625000000e-01
3.100585937500000000e-01
3.150939941406250000e-01
3.166198730468750000e-01
3.167724609375000000e-01
3.167724609375000000e-01
3.167724609375000000e-01
3.167724609375000000e-01
3.164672851562500000e-01
3.169250488281250000e-01
3.163146972656250000e-01
3.166198730468750000e-01
3.305053710937500000e-01
3.453063964843750000e-01
3.469848632812500000e-01
3.421020507812500000e-01
3.344726562500000000e-01
3.254699707031250000e-01
3.135681152343750000e-01
2.990722656250000000e-01
2.828979492187500000e-01
2.644348144531250000e-01
2.516174316406250000e-01
2.389526367187500000e-01
2.188110351562500000e-01
1.937866210937500000e-01
1.654052734375000000e-01
1.350402832031250000e-01
1.022338867187500000e-01
6.912231445312500000e-02
3.463745117187500000e-02
-1.678466796875000000e-03
-3.890991210937500000e-02
-7.675170898437500000e-02
-1.145935058593750000e-01
-1.528930664062500000e-01
-1.907348632812500000e-01
-2.273559570312500000e-01
-2.641296386718750000e-01
-3.005981445312500000e-01
-3.363037109375000000e-01
-3.712463378906250000e-01
-4.052734375000000000e-01
-4.385375976562500000e-01
-4.713439941406250000e-01
-5.046081542968750000e-01
-5.363464355468750000e-01
-5.691528320312500000e-01
-6.019592285156250000e-01
-6.338500976562500000e-01
-6.665039062500000000e-01
-6.994628906250000000e-01
-7.304382324218750000e-01
-7.608032226562500000e-01
-7.916259765625000000e-01
-8.212280273437500000e-01
-8.508300781250000000e-01
-8.799743652343750000e-01
-9.092712402343750000e-01
-9.375000000000000000e-01
-9.651184082031250000e-01
-9.916687011718750000e-01
-1.017456054687500000e+00
-1.042633056640625000e+00
-1.065826416015625000e+00
-1.087646484375000000e+00
-1.106872558593750000e+00
-1.123809814453125000e+00
-1.137237548828125000e+00
-1.145935058593750000e+00
-1.150970458984375000e+00
-1.151428222656250000e+00
-1.147460937500000000e+00
-1.138153076171875000e+00
-1.123352050781250000e+00
-1.104125976562500000e+00
-1.080474853515625000e+00
-1.052856445312500000e+00
-1.020812988281250000e+00
-9.851074218750000000e-01
-9.451293945312500000e-01
-9.020996093750000000e-01
-8.569335937500000000e-01
-8.090209960937500000e-01
-7.598876953125000000e-01
-7.089233398437500000e-01
-6.570434570312500000e-01
-6.047058105468750000e-01
-5.522155761718750000e-01
-4.991149902343750000e-01
-4.461669921875000000e-01
-3.945922851562500000e-01
-3.439331054687500000e-01
-2.932739257812500000e-01
-2.449035644531250000e-01
-1.982116699218750000e-01
-1.525878906250000000e-01
-1.095581054687500000e-01
-6.820678710937500000e-02
-2.807617187500000000e-02
8.392333984375000000e-03
4.226684570312500000e-02
7.385253906250000000e-02
1.028442382812500000e-01
1.290893554687500000e-01
1.542663574218750000e-01
1.776123046875000000e-01
1.991271972656250000e-01
2.194213867187500000e-01
2.378845214843750000e-01
2.546691894531250000e-01
2.699279785156250000e-01
2.835083007812500000e-01
2.960205078125000000e-01
3.077697753906250000e-01
3.176879882812500000e-01
3.268432617187500000e-01
3.356933593750000000e-01
3.430175781250000000e-01
3.500366210937500000e-01
3.558349609375000000e-01
3.598022460937500000e-01
3.633117675781250000e-01
3.659057617187500000e-01
3.683471679687500000e-01
3.698730468750000000e-01
3.694152832031250000e-01
3.684997558593750000e-01
3.671264648437500000e-01
3.649902343750000000e-01
3.619384765625000000e-01
3.584289550781250000e-01
3.549194335937500000e-01
3.501892089843750000e-01
3.451538085937500000e-01
3.405761718750000000e-01
3.346252441406250000e-01
3.289794921875000000e-01
3.230285644531250000e-01
3.160095214843750000e-01
3.086853027343750000e-01
3.012084960937500000e-01
2.946472167968750000e-01
2.886962890625000000e-01
2.815246582031250000e-01
2.755737304687500000e-01
2.700805664062500000e-01
2.650451660156250000e-01
2.601623535156250000e-01
2.552795410156250000e-01
2.511596679687500000e-01
2.484130859375000000e-01
2.458190917968750000e-01
2.444458007812500000e-01
2.432250976562500000e-01
2.420043945312500000e-01
2.410888671875000000e-01
2.413940429687500000e-01
2.413940429687500000e-01
2.412414550781250000e-01
2.410888671875000000e-01
2.412414550781250000e-01
2.412414550781250000e-01
2.413940429687500000e-01
2.400207519531250000e-01
2.394104003906250000e-01
2.386474609375000000e-01
2.388000488281250000e-01
2.383422851562500000e-01
2.388000488281250000e-01
2.380371093750000000e-01
2.374267578125000000e-01
2.363586425781250000e-01
2.357482910156250000e-01
2.336120605468750000e-01
2.316284179687500000e-01
2.287292480468750000e-01
2.256774902343750000e-01
2.220153808593750000e-01
2.194213867187500000e-01
2.157592773437500000e-01
2.124023437500000000e-01
2.095031738281250000e-01
2.067565917968750000e-01
2.044677734375000000e-01
2.021789550781250000e-01
1.994323730468750000e-01
1.979064941406250000e-01
1.969909667968750000e-01
1.954650878906250000e-01
1.954650878906250000e-01
1.953125000000000000e-01
1.950073242187500000e-01
1.950073242187500000e-01
1.951599121093750000e-01
1.948547363281250000e-01
1.953125000000000000e-01
1.948547363281250000e-01
1.948547363281250000e-01
1.943969726562500000e-01
1.931762695312500000e-01
1.925659179687500000e-01
1.927185058593750000e-01
1.925659179687500000e-01
1.927185058593750000e-01
1.928710937500000000e-01
1.924133300781250000e-01
1.925659179687500000e-01
1.922607421875000000e-01
1.924133300781250000e-01
1.928710937500000000e-01
1.925659179687500000e-01
1.927185058593750000e-01
1.925659179687500000e-01
1.927185058593750000e-01
1.925659179687500000e-01
1.925659179687500000e-01
1.928710937500000000e-01
1.922607421875000000e-01
1.925659179687500000e-01
1.922607421875000000e-01
1.927185058593750000e-01
1.927185058593750000e-01
1.924133300781250000e-01
1.925659179687500000e-01
1.925659179687500000e-01
1.924133300781250000e-01
1.924133300781250000e-01
1.925659179687500000e-01
1.928710937500000000e-01
1.925659179687500000e-01
1.924133300781250000e-01
1.925659179687500000e-01
1.927185058593750000e-01
1.927185058593750000e-01
1.928710937500000000e-01
1.924133300781250000e-01
1.785278320312500000e-01
1.623535156250000000e-01
1.560974121093750000e-01
1.533508300781250000e-01
1.507568359375000000e-01
1.477050781250000000e-01
1.440429687500000000e-01
1.414489746093750000e-01
1.385498046875000000e-01
1.361083984375000000e-01
1.339721679687500000e-01
1.313781738281250000e-01
1.290893554687500000e-01
1.266479492187500000e-01
1.251220703125000000e-01
1.237487792968750000e-01
1.225280761718750000e-01
1.220703125000000000e-01
1.220703125000000000e-01
1.229858398437500000e-01
1.239013671875000000e-01
1.240539550781250000e-01
1.243591308593750000e-01
1.245117187500000000e-01
1.245117187500000000e-01
1.237487792968750000e-01
1.242065429687500000e-01
1.246643066406250000e-01
1.245117187500000000e-01
1.245117187500000000e-01
1.242065429687500000e-01
1.245117187500000000e-01
1.245117187500000000e-01
1.243591308593750000e-01
1.245117187500000000e-01
1.245117187500000000e-01
1.243591308593750000e-01
1.243591308593750000e-01
1.245117187500000000e-01
1.243591308593750000e-01
1.245117187500000000e-01
1.246643066406250000e-01
1.242065429687500000e-01
1.240539550781250000e-01
1.245117187500000000e-01
1.243591308593750000e-01
1.242065429687500000e-01
1.243591308593750000e-01
1.243591308593750000e-01
1.243591308593750000e-01
1.246643066406250000e-01
1.242065429687500000e-01
1.242065429687500000e-01
1.245117187500000000e-01
1.248168945312500000e-01
1.242065429687500000e-01
1.246643066406250000e-01
1.246643066406250000e-01
1.248168945312500000e-01
1.245117187500000000e-01
1.245117187500000000e-01
1.246643066406250000e-01
1.245117187500000000e-01
1.240539550781250000e-01
1.214599609375000000e-01
1.187133789062500000e-01
1.185607910156250000e-01
1.193237304687500000e-01
1.194763183593750000e-01
1.196289062500000000e-01
1.199340820312500000e-01
1.206970214843750000e-01
1.213073730468750000e-01
1.220703125000000000e-01
1.220703125000000000e-01
1.222229003906250000e-01
1.213073730468750000e-01
1.200866699218750000e-01
1.197814941406250000e-01
1.185607910156250000e-01
1.165771484375000000e-01
1.145935058593750000e-01
1.121520996093750000e-01
1.097106933593750000e-01
1.074218750000000000e-01
1.058959960937500000e-01
1.040649414062500000e-01
1.022338867187500000e-01
1.008605957031250000e-01
9.948730468750000000e-02
9.826660156250000000e-02
9.811401367187500000e-02
9.780883789062500000e-02
9.872436523437500000e-02
9.979248046875000000e-02
1.010131835937500000e-01
1.028442382812500000e-01
1.043701171875000000e-01
1.054382324218750000e-01
1.072692871093750000e-01
1.080322265625000000e-01
1.098632812500000000e-01
1.106262207031250000e-01
1.121520996093750000e-01
1.126098632812500000e-01
1.121520996093750000e-01
1.123046875000000000e-01
1.124572753906250000e-01
1.124572753906250000e-01
1.123046875000000000e-01
1.115417480468750000e-01
1.103210449218750000e-01
1.103210449218750000e-01
1.098632812500000000e-01
1.091003417968750000e-01
1.069641113281250000e-01
1.048278808593750000e-01
1.022338867187500000e-01
9.979248046875000000e-02
9.719848632812500000e-02
9.475708007812500000e-02
9.353637695312500000e-02
9.201049804687500000e-02
9.002685546875000000e-02
8.789062500000000000e-02
8.605957031250000000e-02
8.560180664062500000e-02
8.560180664062500000e-02
8.575439453125000000e-02
8.575439453125000000e-02
8.605957031250000000e-02
8.850097656250000000e-02
9.094238281250000000e-02
9.307861328125000000e-02
9.521484375000000000e-02
9.674072265625000000e-02
9.887695312500000000e-02
1.005554199218750000e-01
1.019287109375000000e-01
1.034545898437500000e-01
1.045227050781250000e-01
1.058959960937500000e-01
1.068115234375000000e-01
1.074218750000000000e-01
1.071166992187500000e-01
1.084899902343750000e-01
1.094055175781250000e-01
1.098632812500000000e-01
1.089477539062500000e-01
1.081848144531250000e-01
1.075744628906250000e-01
1.066589355468750000e-01
1.045227050781250000e-01
1.022338867187500000e-01
9.979248046875000000e-02
9.735107421875000000e-02
9.490966796875000000e-02
9.277343750000000000e-02
8.987426757812500000e-02
8.758544921875000000e-02
8.636474609375000000e-02
8.483886718750000000e-02
8.361816406250000000e-02
8.316040039062500000e-02
8.285522460937500000e-02
8.392333984375000000e-02
8.605957031250000000e-02
8.728027343750000000e-02
8.850097656250000000e-02
9.078979492187500000e-02
9.323120117187500000e-02
9.582519531250000000e-02
9.780883789062500000e-02
1.007080078125000000e-01
1.029968261718750000e-01
1.045227050781250000e-01
1.058959960937500000e-01
1.068115234375000000e-01
1.083374023437500000e-01
1.092529296875000000e-01
1.097106933593750000e-01
1.100158691406250000e-01
1.107788085937500000e-01
1.119995117187500000e-01
1.124572753906250000e-01
1.123046875000000000e-01
1.113891601562500000e-01
1.106262207031250000e-01
1.089477539062500000e-01
1.069641113281250000e-01
1.046752929687500000e-01
1.022338867187500000e-01
9.994506835937500000e-02
9.735107421875000000e-02
9.475708007812500000e-02
9.338378906250000000e-02
9.216308593750000000e-02
8.987426757812500000e-02
8.865356445312500000e-02
8.804321289062500000e-02
8.804321289062500000e-02
8.865356445312500000e-02
9.002685546875000000e-02
9.140014648437500000e-02
9.307861328125000000e-02
9.552001953125000000e-02
9.719848632812500000e-02
9.857177734375000000e-02
9.994506835937500000e-02
1.010131835937500000e-01
1.020812988281250000e-01
1.033020019531250000e-01
1.042175292968750000e-01
1.046752929687500000e-01
1.046752929687500000e-01
1.057434082031250000e-01
1.069641113281250000e-01
1.074218750000000000e-01
1.077270507812500000e-01
1.074218750000000000e-01
1.065063476562500000e-01
1.058959960937500000e-01
1.037597656250000000e-01
1.031494140625000000e-01
1.014709472656250000e-01
9.902954101562500000e-02
9.536743164062500000e-02
9.246826171875000000e-02
9.033203125000000000e-02
8.666992187500000000e-02
8.316040039062500000e-02
8.041381835937500000e-02
7.797241210937500000e-02
7.568359375000000000e-02
7.324218750000000000e-02
7.141113281250000000e-02
7.019042968750000000e-02
6.896972656250000000e-02
6.851196289062500000e-02
6.851196289062500000e-02
6.927490234375000000e-02
7.034301757812500000e-02
7.202148437500000000e-02
7.293701171875000000e-02
7.324218750000000000e-02
7.324218750000000000e-02
7.446289062500000000e-02
7.553100585937500000e-02
7.568359375000000000e-02
7.598876953125000000e-02
7.598876953125000000e-02
7.568359375000000000e-02
7.583618164062500000e-02
7.476806640625000000e-02
7.385253906250000000e-02
7.354736328125000000e-02
7.247924804687500000e-02
7.125854492187500000e-02
7.003784179687500000e-02
6.698608398437500000e-02
6.378173828125000000e-02
5.981445312500000000e-02
5.645751953125000000e-02
5.279541015625000000e-02
4.837036132812500000e-02
4.470825195312500000e-02
4.028320312500000000e-02
3.738403320312500000e-02
3.372192382812500000e-02
3.021240234375000000e-02
2.731323242187500000e-02
2.487182617187500000e-02
2.319335937500000000e-02
2.197265625000000000e-02
2.075195312500000000e-02
2.044677734375000000e-02
2.059936523437500000e-02
1.998901367187500000e-02
2.029418945312500000e-02
1.998901367187500000e-02
2.014160156250000000e-02
2.014160156250000000e-02
2.029418945312500000e-02
2.029418945312500000e-02
1.937866210937500000e-02
1.831054687500000000e-02
1.678466796875000000e-02
1.602172851562500000e-02
1.403808593750000000e-02
1.358032226562500000e-02
1.174926757812500000e-02
1.007080078125000000e-02
7.629394531250000000e-03
5.340576171875000000e-03
2.899169921875000000e-03
-4.577636718750000000e-04
-4.730224609375000000e-03
-9.765625000000000000e-03
-1.434326171875000000e-02
-1.907348632812500000e-02
-2.441406250000000000e-02
-2.883911132812500000e-02
-3.417968750000000000e-02
-3.890991210937500000e-02
-4.364013671875000000e-02
-4.852294921875000000e-02
-5.233764648437500000e-02
-5.615234375000000000e-02
-5.981445312500000000e-02
-6.286621093750000000e-02
-6.393432617187500000e-02
-6.576538085937500000e-02
-6.774902343750000000e-02
-6.912231445312500000e-02
-7.064819335937500000e-02
-7.217407226562500000e-02
-7.308959960937500000e-02
-7.400512695312500000e-02
-7.553100585937500000e-02
-7.736206054687500000e-02
-7.858276367187500000e-02
-8.026123046875000000e-02
-8.224487304687500000e-02
-8.468627929687500000e-02
-8.636474609375000000e-02
-8.743286132812500000e-02
-8.972167968750000000e-02
-9.109497070312500000e-02
-9.262084960937500000e-02
-9.460449218750000000e-02
-9.704589843750000000e-02
-9.963989257812500000e-02
-1.019287109375000000e-01
-1.049804687500000000e-01
-1.083374023437500000e-01
-1.113891601562500000e-01
-1.144409179687500000e-01
-1.184082031250000000e-01
-1.210021972656250000e-01
-1.245117187500000000e-01
-1.280212402343750000e-01
-1.306152343750000000e-01
-1.332092285156250000e-01
-1.348876953125000000e-01
-1.348876953125000000e-01
-1.362609863281250000e-01
-1.364135742187500000e-01
-1.358032226562500000e-01
-1.356506347656250000e-01
-1.354980468750000000e-01
-1.348876953125000000e-01
-1.335144042968750000e-01
-1.332092285156250000e-01
-1.319885253906250000e-01
-1.310729980468750000e-01
-1.307678222656250000e-01
-1.296997070312500000e-01
-1.287841796875000000e-01
-1.281738281250000000e-01
-1.283264160156250000e-01
-1.274108886718750000e-01
-1.260375976562500000e-01
-1.258850097656250000e-01
-1.248168945312500000e-01
-1.237487792968750000e-01
-1.235961914062500000e-01
-1.235961914062500000e-01
-1.243591308593750000e-01
-1.254272460937500000e-01
-1.263427734375000000e-01
-1.277160644531250000e-01
-1.290893554687500000e-01
-1.313781738281250000e-01
-1.325988769531250000e-01
-1.339721679687500000e-01
-1.348876953125000000e-01
-1.353454589843750000e-01
-1.364135742187500000e-01
-1.373291015625000000e-01
-1.370239257812500000e-01
-1.359558105468750000e-01
-1.342773437500000000e-01
-1.327514648437500000e-01
-1.301574707031250000e-01
-1.277160644531250000e-01
-1.254272460937500000e-01
-1.229858398437500000e-01
-1.202392578125000000e-01
-1.181030273437500000e-01
-1.167297363281250000e-01
-1.148986816406250000e-01
-1.133728027343750000e-01
-1.109313964843750000e-01
-1.092529296875000000e-01
-1.077270507812500000e-01
-1.058959960937500000e-01
-1.046752929687500000e-01
-1.033020019531250000e-01
-1.019287109375000000e-01
-1.007080078125000000e-01
-9.948730468750000000e-02
-9.796142578125000000e-02
-9.735107421875000000e-02
-9.643554687500000000e-02
-9.765625000000000000e-02
-9.841918945312500000e-02
-9.902954101562500000e-02
-9.979248046875000000e-02
-1.010131835937500000e-01
-1.022338867187500000e-01
-1.031494140625000000e-01
-1.039123535156250000e-01
-1.048278808593750000e-01
-1.060485839843750000e-01
-1.062011718750000000e-01
-1.060485839843750000e-01
-1.055908203125000000e-01
-1.043701171875000000e-01
-1.031494140625000000e-01
-1.011657714843750000e-01
-9.857177734375000000e-02
-9.719848632812500000e-02
-9.597778320312500000e-02
-9.368896484375000000e-02
-9.140014648437500000e-02
-8.956909179687500000e-02
-8.865356445312500000e-02
-8.728027343750000000e-02
-8.605957031250000000e-02
-8.468627929687500000e-02
-8.377075195312500000e-02
-8.255004882812500000e-02
-8.132934570312500000e-02
-8.010864257812500000e-02
-7.965087890625000000e-02
-7.858276367187500000e-02
-7.766723632812500000e-02
-7.705688476562500000e-02
-7.705688476562500000e-02
-7.766723632812500000e-02
-7.904052734375000000e-02
-8.041381835937500000e-02
-8.132934570312500000e-02
-8.255004882812500000e-02
-8.377075195312500000e-02
-8.499145507812500000e-02
-8.666992187500000000e-02
-8.773803710937500000e-02
-8.850097656250000000e-02
-8.911132812500000000e-02
-8.941650390625000000e-02
-8.941650390625000000e-02
-8.834838867187500000e-02
-8.728027343750000000e-02
-8.621215820312500000e-02
-8.407592773437500000e-02
-8.178710937500000000e-02
-7.904052734375000000e-02
-7.659912109375000000e-02
-7.431030273437500000e-02
-7.125854492187500000e-02
-6.835937500000000000e-02
-6.637573242187500000e-02
-6.454467773437500000e-02
-6.179809570312500000e-02
-5.950927734375000000e-02
-5.813598632812500000e-02
-5.645751953125000000e-02
-5.554199218750000000e-02
-5.371093750000000000e-02
-5.310058593750000000e-02
-5.294799804687500000e-02
-5.279541015625000000e-02
-5.294799804687500000e-02
-5.249023437500000000e-02
-5.233764648437500000e-02
-5.340576171875000000e-02
-5.569458007812500000e-02
-5.691528320312500000e-02
-5.844116210937500000e-02
-6.072998046875000000e-02
-6.286621093750000000e-02
-6.408691406250000000e-02
-6.576538085937500000e-02
-6.683349609375000000e-02
-6.805419921875000000e-02
-6.942749023437500000e-02
-6.988525390625000000e-02
-6.881713867187500000e-02
-6.713867187500000000e-02
-6.546020507812500000e-02
-6.423950195312500000e-02
-6.210327148437500000e-02
-5.981445312500000000e-02
-5.722045898437500000e-02
-5.477905273437500000e-02
-5.249023437500000000e-02
-4.974365234375000000e-02
-4.760742187500000000e-02
-4.608154296875000000e-02
-4.470825195312500000e-02
-4.333496093750000000e-02
-4.211425781250000000e-02
-4.104614257812500000e-02
-3.967285156250000000e-02
-3.845214843750000000e-02
-3.814697265625000000e-02
-3.814697265625000000e-02
-3.814697265625000000e-02
-3.784179687500000000e-02
-3.829956054687500000e-02
-3.921508789062500000e-02
-4.089355468750000000e-02
-4.257202148437500000e-02
-4.364013671875000000e-02
-4.608154296875000000e-02
-4.821777343750000000e-02
-5.050659179687500000e-02
-5.264282226562500000e-02
-5.569458007812500000e-02
-5.691528320312500000e-02
-5.828857421875000000e-02
-5.966186523437500000e-02
-6.011962890625000000e-02
-6.011962890625000000e-02
-6.027221679687500000e-02
-5.905151367187500000e-02
-5.752563476562500000e-02
-5.462646484375000000e-02
-5.233764648437500000e-02
-5.004882812500000000e-02
-4.760742187500000000e-02
-4.501342773437500000e-02
-4.287719726562500000e-02
-4.058837890625000000e-02
-3.768920898437500000e-02
-3.540039062500000000e-02
-3.341674804687500000e-02
-3.234863281250000000e-02
-3.021240234375000000e-02
-2.883911132812500000e-02
-2.792358398437500000e-02
-2.655029296875000000e-02
-2.624511718750000000e-02
-2.593994140625000000e-02
-2.609252929687500000e-02
-2.593994140625000000e-02
-2.593994140625000000e-02
-2.670288085937500000e-02
-2.899169921875000000e-02
-3.112792968750000000e-02
-3.387451171875000000e-02
-3.616333007812500000e-02
-3.845214843750000000e-02
-4.089355468750000000e-02
-4.318237304687500000e-02
-4.592895507812500000e-02
-4.730224609375000000e-02
-4.760742187500000000e-02
-4.806518554687500000e-02
-4.745483398437500000e-02
-4.776000976562500000e-02
-4.684448242187500000e-02
-4.501342773437500000e-02
-4.241943359375000000e-02
-4.013061523437500000e-02
-3.784179687500000000e-02
-3.555297851562500000e-02
-3.280639648437500000e-02
-3.051757812500000000e-02
-2.822875976562500000e-02
-2.670288085937500000e-02
-2.532958984375000000e-02
-2.349853515625000000e-02
-2.166748046875000000e-02
-2.044677734375000000e-02
-1.907348632812500000e-02
-1.876831054687500000e-02
-1.831054687500000000e-02
-1.770019531250000000e-02
-1.663208007812500000e-02
-1.708984375000000000e-02
-1.815795898437500000e-02
-1.968383789062500000e-02
-2.182006835937500000e-02
-2.334594726562500000e-02
-2.426147460937500000e-02
-2.746582031250000000e-02
-3.082275390625000000e-02
-3.326416015625000000e-02
-3.509521484375000000e-02
-3.646850585937500000e-02
-3.845214843750000000e-02
-4.074096679687500000e-02
-4.241943359375000000e-02
-4.287719726562500000e-02
-4.302978515625000000e-02
-4.211425781250000000e-02
-4.104614257812500000e-02
-3.952026367187500000e-02
-3.768920898437500000e-02
-3.555297851562500000e-02
-3.311157226562500000e-02
-3.051757812500000000e-02
-2.899169921875000000e-02
-2.777099609375000000e-02
-2.548217773437500000e-02
-2.426147460937500000e-02
-2.288818359375000000e-02
-2.182006835937500000e-02
-2.044677734375000000e-02
-1.907348632812500000e-02
-1.876831054687500000e-02
-1.785278320312500000e-02
-1.678466796875000000e-02
-1.663208007812500000e-02
-1.678466796875000000e-02
-1.632690429687500000e-02
-1.602172851562500000e-02
-1.724243164062500000e-02
-1.907348632812500000e-02
-2.075195312500000000e-02
-2.197265625000000000e-02
-2.410888671875000000e-02
-2.639770507812500000e-02
-2.868652343750000000e-02
-3.005981445312500000e-02
-3.128051757812500000e-02
-3.402709960937500000e-02
-3.524780273437500000e-02
-3.646850585937500000e-02
-3.753662109375000000e-02
-3.799438476562500000e-02
-3.723144531250000000e-02
-3.509521484375000000e-02
-3.402709960937500000e-02
-3.265380859375000000e-02
-3.036499023437500000e-02
-2.807617187500000000e-02
-2.578735351562500000e-02
-2.319335937500000000e-02
-2.151489257812500000e-02
-2.044677734375000000e-02
-1.831054687500000000e-02
-1.693725585937500000e-02
-1.541137695312500000e-02
-1.342773437500000000e-02
-1.190185546875000000e-02
-1.159667968750000000e-02
-1.068115234375000000e-02
-9.307861328125000000e-03
-8.239746093750000000e-03
-7.171630859375000000e-03
-6.713867187500000000e-03
-6.408691406250000000e-03
-7.934570312500000000e-03
-8.239746093750000000e-03
-9.765625000000000000e-03
-1.205444335937500000e-02
-1.373291015625000000e-02
-1.693725585937500000e-02
-1.800537109375000000e-02
-1.953125000000000000e-02
-2.212524414062500000e-02
-2.395629882812500000e-02
-2.563476562500000000e-02
-2.685546875000000000e-02
-2.792358398437500000e-02
-2.807617187500000000e-02
-2.838134765625000000e-02
-2.807617187500000000e-02
-2.761840820312500000e-02
-2.639770507812500000e-02
-2.532958984375000000e-02
-2.395629882812500000e-02
-2.258300781250000000e-02
-2.166748046875000000e-02
-2.029418945312500000e-02
-1.937866210937500000e-02
-1.861572265625000000e-02
-1.846313476562500000e-02
-1.892089843750000000e-02
-1.815795898437500000e-02
-1.663208007812500000e-02
-1.617431640625000000e-02
-1.663208007812500000e-02
-1.602172851562500000e-02
-1.647949218750000000e-02
-1.739501953125000000e-02
-1.815795898437500000e-02
-1.846313476562500000e-02
-1.968383789062500000e-02
-2.136230468750000000e-02
-2.304077148437500000e-02
-2.441406250000000000e-02
-2.639770507812500000e-02
-2.868652343750000000e-02
-3.112792968750000000e-02
-3.341674804687500000e-02
-3.601074218750000000e-02
-3.753662109375000000e-02
-3.890991210937500000e-02
-3.997802734375000000e-02
-4.135131835937500000e-02
-4.272460937500000000e-02
-4.272460937500000000e-02
-4.196166992187500000e-02
-4.089355468750000000e-02
-3.997802734375000000e-02
-3.845214843750000000e-02
-3.753662109375000000e-02
-3.631591796875000000e-02
-3.585815429687500000e-02
-3.463745117187500000e-02
-3.387451171875000000e-02
-3.311157226562500000e-02
-3.311157226562500000e-02
-3.234863281250000000e-02
-3.112792968750000000e-02
-3.051757812500000000e-02
-3.097534179687500000e-02
-2.975463867187500000e-02
-2.868652343750000000e-02
-2.838134765625000000e-02
-2.838134765625000000e-02
-2.838134765625000000e-02
-2.853393554687500000e-02
-2.822875976562500000e-02
-2.929687500000000000e-02
-3.021240234375000000e-02
-3.173828125000000000e-02
-3.372192382812500000e-02
-3.463745117187500000e-02
-3.616333007812500000e-02
-3.845214843750000000e-02
-3.967285156250000000e-02
-4.150390625000000000e-02
-4.272460937500000000e-02
-4.302978515625000000e-02
-4.394531250000000000e-02
-4.394531250000000000e-02
-4.333496093750000000e-02
-4.272460937500000000e-02
-4.241943359375000000e-02
-4.013061523437500000e-02
-3.768920898437500000e-02
-3.601074218750000000e-02
-3.494262695312500000e-02
-3.280639648437500000e-02
-3.143310546875000000e-02
-3.021240234375000000e-02
-2.899169921875000000e-02
-2.838134765625000000e-02
-2.746582031250000000e-02
-2.639770507812500000e-02
-2.593994140625000000e-02
-2.578735351562500000e-02
-2.502441406250000000e-02
-2.365112304687500000e-02
-2.380371093750000000e-02
-2.349853515625000000e-02
-2.365112304687500000e-02
-2.395629882812500000e-02
-2.410888671875000000e-02
-2.624511718750000000e-02
-2.792358398437500000e-02
-2.899169921875000000e-02
-3.112792968750000000e-02
-3.265380859375000000e-02
-3.402709960937500000e-02
-3.631591796875000000e-02
-3.753662109375000000e-02
-3.890991210937500000e-02
-3.967285156250000000e-02
-4.043579101562500000e-02
-4.058837890625000000e-02
-4.028320312500000000e-02
-3.967285156250000000e-02
-3.845214843750000000e-02
-3.768920898437500000e-02
-3.509521484375000000e-02
-3.265380859375000000e-02
-3.143310546875000000e-02
-3.021240234375000000e-02
-2.792358398437500000e-02
-2.639770507812500000e-02
-2.517700195312500000e-02
-2.380371093750000000e-02
-2.395629882812500000e-02
-2.258300781250000000e-02
-2.166748046875000000e-02
-2.136230468750000000e-02
-2.136230468750000000e-02
-2.120971679687500000e-02
-2.105712890625000000e-02
-2.151489257812500000e-02
-2.120971679687500000e-02
-2.120971679687500000e-02
-2.212524414062500000e-02
-2.304077148437500000e-02
-2.426147460937500000e-02
-2.532958984375000000e-02
-2.685546875000000000e-02
-2.883911132812500000e-02
-3.112792968750000000e-02
-3.311157226562500000e-02
-3.509521484375000000e-02
-3.631591796875000000e-02
-3.845214843750000000e-02
-4.013061523437500000e-02
-4.058837890625000000e-02
-4.013061523437500000e-02
-4.043579101562500000e-02
-3.967285156250000000e-02
-3.860473632812500000e-02
-3.753662109375000000e-02
-3.509521484375000000e-02
-3.311157226562500000e-02
-3.082275390625000000e-02
-2.883911132812500000e-02
-2.731323242187500000e-02
-2.563476562500000000e-02
-2.426147460937500000e-02
-2.304077148437500000e-02
-2.166748046875000000e-02
-2.151489257812500000e-02
-2.029418945312500000e-02
-1.922607421875000000e-02
-1.876831054687500000e-02
-1.861572265625000000e-02
-1.876831054687500000e-02
-1.922607421875000000e-02
-1.861572265625000000e-02
-1.861572265625000000e-02
-1.846313476562500000e-02
-1.922607421875000000e-02
-2.075195312500000000e-02
-2.197265625000000000e-02
-2.395629882812500000e-02
-2.624511718750000000e-02
-2.853393554687500000e-02
-3.005981445312500000e-02
-3.143310546875000000e-02
-3.372192382812500000e-02
-3.509521484375000000e-02
-3.616333007812500000e-02
-3.784179687500000000e-02
-3.799438476562500000e-02
-3.738403320312500000e-02
-3.616333007812500000e-02
-3.494262695312500000e-02
-3.280639648437500000e-02
-3.067016601562500000e-02
-2.807617187500000000e-02
-2.578735351562500000e-02
-2.410888671875000000e-02
-2.273559570312500000e-02
-2.075195312500000000e-02
-1.846313476562500000e-02
-1.647949218750000000e-02
-1.571655273437500000e-02
-1.434326171875000000e-02
-1.373291015625000000e-02
-1.251220703125000000e-02
-1.235961914062500000e-02
-1.144409179687500000e-02
-1.144409179687500000e-02
-1.052856445312500000e-02
-9.613037109375000000e-03
-9.155273437500000000e-03
-9.765625000000000000e-03
-1.037597656250000000e-02
-1.190185546875000000e-02
-1.403808593750000000e-02
-1.647949218750000000e-02
-1.937866210937500000e-02
-2.136230468750000000e-02
-2.334594726562500000e-02
-2.426147460937500000e-02
-2.639770507812500000e-02
-2.838134765625000000e-02
-3.021240234375000000e-02
-3.051757812500000000e-02
-3.097534179687500000e-02
-3.067016601562500000e-02
-3.082275390625000000e-02
-2.975463867187500000e-02
-2.792358398437500000e-02
-2.670288085937500000e-02
-2.517700195312500000e-02
-2.319335937500000000e-02
-2.075195312500000000e-02
-1.861572265625000000e-02
-1.693725585937500000e-02
-1.541137695312500000e-02
-1.358032226562500000e-02
-1.205444335937500000e-02
-1.022338867187500000e-02
-9.460449218750000000e-03
-9.002685546875000000e-03
-7.934570312500000000e-03
-7.019042968750000000e-03
-6.561279296875000000e-03
-6.408691406250000000e-03
-6.561279296875000000e-03
-6.408691406250000000e-03
-6.561279296875000000e-03
-7.171630859375000000e-03
-9.155273437500000000e-03
-1.083374023437500000e-02
-1.205444335937500000e-02
-1.419067382812500000e-02
-1.663208007812500000e-02
-1.800537109375000000e-02
-1.922607421875000000e-02
-2.166748046875000000e-02
-2.304077148437500000e-02
-2.456665039062500000e-02
-2.563476562500000000e-02
-2.624511718750000000e-02
-2.609252929687500000e-02
-2.517700195312500000e-02
-2.380371093750000000e-02
-2.288818359375000000e-02
-2.075195312500000000e-02
-1.815795898437500000e-02
-1.617431640625000000e-02
-1.342773437500000000e-02
-1.129150390625000000e-02
-9.613037109375000000e-03
-8.239746093750000000e-03
-6.103515625000000000e-03
-3.814697265625000000e-03
-2.441406250000000000e-03
-1.068115234375000000e-03
3.051757812500000000e-04
1.983642578125000000e-03
2.746582031250000000e-03
3.204345703125000000e-03
4.272460937500000000e-03
5.035400390625000000e-03
5.493164062500000000e-03
4.882812500000000000e-03
3.509521484375000000e-03
2.441406250000000000e-03
1.525878906250000000e-04
-1.983642578125000000e-03
-4.730224609375000000e-03
-6.713867187500000000e-03
-9.155273437500000000e-03
-1.159667968750000000e-02
-1.312255859375000000e-02
-1.464843750000000000e-02
-1.678466796875000000e-02
-1.800537109375000000e-02
-1.831054687500000000e-02
-1.876831054687500000e-02
-1.876831054687500000e-02
-1.815795898437500000e-02
-1.586914062500000000e-02
-1.327514648437500000e-02
-1.205444335937500000e-02
-1.068115234375000000e-02
-8.239746093750000000e-03
-6.103515625000000000e-03
-3.356933593750000000e-03
-1.373291015625000000e-03
-1.525878906250000000e-04
1.373291015625000000e-03
2.593994140625000000e-03
4.119873046875000000e-03
5.035400390625000000e-03
6.713867187500000000e-03
7.476806640625000000e-03
8.239746093750000000e-03
7.934570312500000000e-03
8.087158203125000000e-03
8.087158203125000000e-03
7.934570312500000000e-03
7.171630859375000000e-03
6.103515625000000000e-03
4.882812500000000000e-03
2.899169921875000000e-03
6.103515625000000000e-04
-1.831054687500000000e-03
-4.577636718750000000e-03
-6.713867187500000000e-03
-8.850097656250000000e-03
-1.159667968750000000e-02
-1.419067382812500000e-02
-1.541137695312500000e-02
-1.693725585937500000e-02
-1.831054687500000000e-02
-1.800537109375000000e-02
-1.663208007812500000e-02
-1.556396484375000000e-02
-1.434326171875000000e-02
-1.327514648437500000e-02
-1.205444335937500000e-02
-1.052856445312500000e-02
-9.765625000000000000e-03
-8.239746093750000000e-03
-7.171630859375000000e-03
-5.798339843750000000e-03
-4.272460937500000000e-03
-4.425048828125000000e-03
-3.356933593750000000e-03
-1.831054687500000000e-03
-1.831054687500000000e-03
-9.155273437500000000e-04
1.525878906250000000e-04
7.629394531250000000e-04
9.155273437500000000e-04
9.155273437500000000e-04
9.155273437500000000e-04
3.051757812500000000e-04
-4.577636718750000000e-04
-2.288818359375000000e-03
-4.577636718750000000e-03
-5.950927734375000000e-03
-7.476806640625000000e-03
-9.460449218750000000e-03
-1.174926757812500000e-02
-1.419067382812500000e-02
-1.541137695312500000e-02
-1.708984375000000000e-02
-1.815795898437500000e-02
-1.922607421875000000e-02
-2.059936523437500000e-02
-2.105712890625000000e-02
-2.059936523437500000e-02
-1.892089843750000000e-02
-1.907348632812500000e-02
-1.785278320312500000e-02
-1.678466796875000000e-02
-1.541137695312500000e-02
-1.464843750000000000e-02
-1.388549804687500000e-02
-1.342773437500000000e-02
-1.373291015625000000e-02
-1.373291015625000000e-02
-1.388549804687500000e-02
-1.358032226562500000e-02
-1.373291015625000000e-02
-1.449584960937500000e-02
-1.556396484375000000e-02
-1.708984375000000000e-02
-1.785278320312500000e-02
-1.968383789062500000e-02
-2.075195312500000000e-02
-2.197265625000000000e-02
-2.395629882812500000e-02
-2.639770507812500000e-02
-2.975463867187500000e-02
-3.311157226562500000e-02
-3.570556640625000000e-02
-3.921508789062500000e-02
-4.287719726562500000e-02
-4.562377929687500000e-02
-4.791259765625000000e-02
-5.050659179687500000e-02
-5.294799804687500000e-02
-5.523681640625000000e-02
-5.813598632812500000e-02
-5.966186523437500000e-02
-5.981445312500000000e-02
-6.027221679687500000e-02
-5.996704101562500000e-02
-5.905151367187500000e-02
-5.813598632812500000e-02
-5.706787109375000000e-02
-5.554199218750000000e-02
-5.416870117187500000e-02
-5.325317382812500000e-02
-5.203247070312500000e-02
-4.989624023437500000e-02
-4.837036132812500000e-02
-4.791259765625000000e-02
-4.714965820312500000e-02
-4.608154296875000000e-02
-4.440307617187500000e-02
-4.333496093750000000e-02
-4.272460937500000000e-02
-4.196166992187500000e-02
-4.104614257812500000e-02
-4.074096679687500000e-02
-4.043579101562500000e-02
-4.074096679687500000e-02
-4.058837890625000000e-02
-4.028320312500000000e-02
-4.150390625000000000e-02
-4.257202148437500000e-02
-4.379272460937500000e-02
-4.501342773437500000e-02
-4.547119140625000000e-02
-4.638671875000000000e-02
-4.730224609375000000e-02
-4.760742187500000000e-02
-4.776000976562500000e-02
-4.791259765625000000e-02
-4.791259765625000000e-02
-4.699707031250000000e-02
-4.577636718750000000e-02
-4.470825195312500000e-02
-4.257202148437500000e-02
-4.043579101562500000e-02
-3.768920898437500000e-02
-3.524780273437500000e-02
-3.280639648437500000e-02
-3.036499023437500000e-02
-2.914428710937500000e-02
-2.777099609375000000e-02
-2.548217773437500000e-02
-2.426147460937500000e-02
-2.258300781250000000e-02
-2.059936523437500000e-02
-1.907348632812500000e-02
-1.800537109375000000e-02
-1.571655273437500000e-02
-1.434326171875000000e-02
-1.296997070312500000e-02
-1.190185546875000000e-02
-1.159667968750000000e-02
-1.037597656250000000e-02
-1.052856445312500000e-02
-1.083374023437500000e-02
-1.144409179687500000e-02
-1.129150390625000000e-02
-1.129150390625000000e-02
-1.129150390625000000e-02
-1.129150390625000000e-02
-1.190185546875000000e-02
-1.129150390625000000e-02
-1.144409179687500000e-02
-1.174926757812500000e-02
-1.129150390625000000e-02
-1.052856445312500000e-02
-9.307861328125000000e-03
-8.239746093750000000e-03
-6.103515625000000000e-03
-3.509521484375000000e-03
-1.373291015625000000e-03
1.220703125000000000e-03
3.356933593750000000e-03
5.035400390625000000e-03
6.713867187500000000e-03
8.392333984375000000e-03
9.918212890625000000e-03
1.129150390625000000e-02
1.266479492187500000e-02
1.373291015625000000e-02
1.480102539062500000e-02
1.571655273437500000e-02
1.617431640625000000e-02
1.724243164062500000e-02
1.831054687500000000e-02
1.983642578125000000e-02
1.998901367187500000e-02
2.029418945312500000e-02
2.014160156250000000e-02
2.044677734375000000e-02
1.907348632812500000e-02
1.831054687500000000e-02
1.678466796875000000e-02
1.586914062500000000e-02
1.464843750000000000e-02
1.327514648437500000e-02
1.220703125000000000e-02
1.098632812500000000e-02
1.068115234375000000e-02
1.037597656250000000e-02
1.007080078125000000e-02
1.052856445312500000e-02
1.113891601562500000e-02
1.327514648437500000e-02
1.586914062500000000e-02
1.785278320312500000e-02
1.953125000000000000e-02
2.090454101562500000e-02
2.304077148437500000e-02
2.517700195312500000e-02
2.761840820312500000e-02
2.944946289062500000e-02
3.067016601562500000e-02
3.219604492187500000e-02
3.326416015625000000e-02
3.387451171875000000e-02
3.494262695312500000e-02
3.479003906250000000e-02
3.463745117187500000e-02
3.479003906250000000e-02
3.479003906250000000e-02
3.494262695312500000e-02
3.463745117187500000e-02
3.417968750000000000e-02
3.265380859375000000e-02
3.173828125000000000e-02
2.929687500000000000e-02
2.716064453125000000e-02
2.471923828125000000e-02
2.227783203125000000e-02
2.105712890625000000e-02
1.968383789062500000e-02
1.724243164062500000e-02
1.495361328125000000e-02
1.342773437500000000e-02
1.327514648437500000e-02
1.296997070312500000e-02
1.266479492187500000e-02
1.373291015625000000e-02
1.510620117187500000e-02
1.586914062500000000e-02
1.831054687500000000e-02
2.014160156250000000e-02
2.288818359375000000e-02
2.532958984375000000e-02
2.685546875000000000e-02
2.807617187500000000e-02
3.036499023437500000e-02
3.189086914062500000e-02
3.311157226562500000e-02
3.448486328125000000e-02
3.479003906250000000e-02
3.463745117187500000e-02
3.463745117187500000e-02
3.585815429687500000e-02
3.692626953125000000e-02
3.723144531250000000e-02
3.753662109375000000e-02
3.616333007812500000e-02
3.540039062500000000e-02
3.417968750000000000e-02
3.189086914062500000e-02
3.051757812500000000e-02
2.899169921875000000e-02
2.731323242187500000e-02
2.471923828125000000e-02
2.258300781250000000e-02
1.998901367187500000e-02
1.785278320312500000e-02
1.586914062500000000e-02
1.571655273437500000e-02
1.480102539062500000e-02
1.358032226562500000e-02
1.419067382812500000e-02
1.480102539062500000e-02
1.632690429687500000e-02
1.831054687500000000e-02
1.968383789062500000e-02
2.105712890625000000e-02
2.304077148437500000e-02
2.532958984375000000e-02
2.777099609375000000e-02
2.944946289062500000e-02
3.082275390625000000e-02
3.204345703125000000e-02
3.356933593750000000e-02
3.433227539062500000e-02
3.540039062500000000e-02
3.662109375000000000e-02
3.799438476562500000e-02
3.921508789062500000e-02
3.997802734375000000e-02
4.104614257812500000e-02
4.257202148437500000e-02
4.364013671875000000e-02
4.394531250000000000e-02
4.409790039062500000e-02
4.440307617187500000e-02
4.409790039062500000e-02
4.440307617187500000e-02
4.425048828125000000e-02
4.425048828125000000e-02
4.409790039062500000e-02
4.516601562500000000e-02
4.730224609375000000e-02
4.928588867187500000e-02
5.279541015625000000e-02
5.706787109375000000e-02
6.271362304687500000e-02
6.958007812500000000e-02
7.659912109375000000e-02
8.514404296875000000e-02
9.384155273437500000e-02
1.037597656250000000e-01
1.136779785156250000e-01
1.242065429687500000e-01
1.350402832031250000e-01
1.458740234375000000e-01
1.568603515625000000e-01
1.670837402343750000e-01
1.777648925781250000e-01
1.881408691406250000e-01
1.989746093750000000e-01
2.081298828125000000e-01
2.172851562500000000e-01
2.261352539062500000e-01
2.354431152343750000e-01
2.438354492187500000e-01
2.517700195312500000e-01
2.595520019531250000e-01
2.662658691406250000e-01
2.740478515625000000e-01
2.803039550781250000e-01
2.857971191406250000e-01
2.896118164062500000e-01
2.926635742187500000e-01
2.954101562500000000e-01
2.967834472656250000e-01
2.970886230468750000e-01
2.973937988281250000e-01
2.964782714843750000e-01
2.937316894531250000e-01
2.891540527343750000e-01
2.842712402343750000e-01
2.787780761718750000e-01
2.722167968750000000e-01
2.645874023437500000e-01
2.566528320312500000e-01
2.462768554687500000e-01
2.349853515625000000e-01
2.221679687500000000e-01
2.069091796875000000e-01
1.893615722656250000e-01
1.693725585937500000e-01
1.478576660156250000e-01
1.229858398437500000e-01
9.582519531250000000e-02
6.729125976562500000e-02
3.707885742187500000e-02
4.577636718750000000e-03
-2.914428710937500000e-02
-6.378173828125000000e-02
-9.918212890625000000e-02
-1.342773437500000000e-01
-1.692199707031250000e-01
-2.049255371093750000e-01
-2.395629882812500000e-01
-2.734375000000000000e-01
-3.070068359375000000e-01
-3.398132324218750000e-01
-3.726196289062500000e-01
-4.039001464843750000e-01
-4.344177246093750000e-01
-4.652404785156250000e-01
-4.948425292968750000e-01
-5.239868164062500000e-01
-5.529785156250000000e-01
-5.836486816406250000e-01
-6.138610839843750000e-01
-6.433105468750000000e-01
-6.727600097656250000e-01
-7.020568847656250000e-01
-7.305908203125000000e-01
-7.575988769531250000e-01
-7.844543457031250000e-01
-8.103942871093750000e-01
-8.345031738281250000e-01
-8.569335937500000000e-01
-8.787536621093750000e-01
-8.999633789062500000e-01
-9.202575683593750000e-01
-9.388732910156250000e-01
-9.562683105468750000e-01
-9.724426269531250000e-01
-9.875488281250000000e-01
-1.001892089843750000e+00
-1.013183593750000000e+00
-1.023712158203125000e+00
-1.031799316406250000e+00
-1.036376953125000000e+00
-1.037902832031250000e+00
-1.035766601562500000e+00
-1.029815673828125000e+00
-1.020050048828125000e+00
-1.007080078125000000e+00
-9.901428222656250000e-01
-9.695434570312500000e-01
-9.454345703125000000e-01
-9.184265136718750000e-01
-8.886718750000000000e-01
-8.561706542968750000e-01
-8.195495605468750000e-01
-7.803344726562500000e-01
-7.386779785156250000e-01
-6.947326660156250000e-01
-6.488037109375000000e-01
-6.027221679687500000e-01
-5.566406250000000000e-01
-5.093383789062500000e-01
-4.618835449218750000e-01
-4.144287109375000000e-01
-3.677368164062500000e-01
-3.224182128906250000e-01
-2.781677246093750000e-01
-2.355957031250000000e-01
-1.942443847656250000e-01
-1.533508300781250000e-01
-1.148986816406250000e-01
-7.843017578125000000e-02
-4.409790039062500000e-02
-1.068115234375000000e-02
2.151489257812500000e-02
5.172729492187500000e-02
8.071899414062500000e-02
1.080322265625000000e-01
1.341247558593750000e-01
1.580810546875000000e-01
1.803588867187500000e-01
2.018737792968750000e-01
2.214050292968750000e-01
2.388000488281250000e-01
2.557373046875000000e-01
2.706909179687500000e-01
2.838134765625000000e-01
2.964782714843750000e-01
3.077697753906250000e-01
3.178405761718750000e-01
3.268432617187500000e-01
3.346252441406250000e-01
3.411865234375000000e-01
3.463745117187500000e-01
3.515625000000000000e-01
3.550720214843750000e-01
3.578186035156250000e-01
3.581237792968750000e-01
3.582763671875000000e-01
3.579711914062500000e-01
3.573608398437500000e-01
3.547668457031250000e-01
3.507995605468750000e-01
3.472900390625000000e-01
3.442382812500000000e-01
3.401184082031250000e-01
3.355407714843750000e-01
3.308105468750000000e-01
3.260803222656250000e-01
3.210449218750000000e-01
3.179931640625000000e-01
3.170776367187500000e-01
3.169250488281250000e-01
3.169250488281250000e-01
3.167724609375000000e-01
3.167724609375000000e-01
3.169250488281250000e-01
3.169250488281250000e-01
3.164672851562500000e-01
3.167724609375000000e-01
2.912902832031250000e-01
2.601623535156250000e-01
2.462768554687500000e-01
2.388000488281250000e-01
2.333068847656250000e-01
2.296447753906250000e-01
2.258300781250000000e-01
2.227783203125000000e-01
2.210998535156250000e-01
2.197265625000000000e-01
2.186584472656250000e-01
2.174377441406250000e-01
2.172851562500000000e-01
2.159118652343750000e-01
2.148437500000000000e-01
2.142333984375000000e-01
2.139282226562500000e-01
2.127075195312500000e-01
2.119445800781250000e-01
2.111816406250000000e-01
2.090454101562500000e-01
2.073669433593750000e-01
2.061462402343750000e-01
2.053833007812500000e-01
2.038574218750000000e-01
2.029418945312500000e-01
2.017211914062500000e-01
2.001953125000000000e-01
1.989746093750000000e-01
1.971435546875000000e-01
1.957702636718750000e-01
1.951599121093750000e-01
1.945495605468750000e-01
1.922607421875000000e-01
1.889038085937500000e-01
1.855468750000000000e-01
1.826477050781250000e-01
1.802062988281250000e-01
1.766967773437500000e-01
1.731872558593750000e-01
1.701354980468750000e-01
1.678466796875000000e-01
1.661682128906250000e-01
1.651000976562500000e-01
1.640319824218750000e-01
1.637268066406250000e-01
1.637268066406250000e-01
1.632690429687500000e-01
1.637268066406250000e-01
1.641845703125000000e-01
1.654052734375000000e-01
1.657104492187500000e-01
1.658630371093750000e-01
1.661682128906250000e-01
1.657104492187500000e-01
1.657104492187500000e-01
1.657104492187500000e-01
1.660156250000000000e-01
1.661682128906250000e-01
1.649475097656250000e-01
1.638793945312500000e-01
1.635742187500000000e-01
1.635742187500000000e-01
1.634216308593750000e-01
1.632690429687500000e-01
1.634216308593750000e-01
1.637268066406250000e-01
1.628112792968750000e-01
1.614379882812500000e-01
1.612854003906250000e-01
1.600646972656250000e-01
1.580810546875000000e-01
1.556396484375000000e-01
1.533508300781250000e-01
1.510620117187500000e-01
1.484680175781250000e-01
1.451110839843750000e-01
1.414489746093750000e-01
1.391601562500000000e-01
1.364135742187500000e-01
1.332092285156250000e-01
1.296997070312500000e-01
1.264953613281250000e-01
1.249694824218750000e-01
1.235961914062500000e-01
1.226806640625000000e-01
1.220703125000000000e-01
1.217651367187500000e-01
1.220703125000000000e-01
1.220703125000000000e-01
1.229858398437500000e-01
1.240539550781250000e-01
1.240539550781250000e-01
1.254272460937500000e-01
1.266479492187500000e-01
1.269531250000000000e-01
1.278686523437500000e-01
1.286315917968750000e-01
1.290893554687500000e-01
1.290893554687500000e-01
1.290893554687500000e-01
1.293945312500000000e-01
1.293945312500000000e-01
1.293945312500000000e-01
1.293945312500000000e-01
1.287841796875000000e-01
1.274108886718750000e-01
1.271057128906250000e-01
1.268005371093750000e-01
1.269531250000000000e-01
1.167297363281250000e-01
1.042175292968750000e-01
9.948730468750000000e-02
9.689331054687500000e-02
9.552001953125000000e-02
9.536743164062500000e-02
9.521484375000000000e-02
9.597778320312500000e-02
9.689331054687500000e-02
9.857177734375000000e-02
9.948730468750000000e-02
1.007080078125000000e-01
1.017761230468750000e-01
1.025390625000000000e-01
1.036071777343750000e-01
1.045227050781250000e-01
1.046752929687500000e-01
1.049804687500000000e-01
1.049804687500000000e-01
1.048278808593750000e-01
1.048278808593750000e-01
1.051330566406250000e-01
1.048278808593750000e-01
1.048278808593750000e-01
1.040649414062500000e-01
1.034545898437500000e-01
1.016235351562500000e-01
9.994506835937500000e-02
9.735107421875000000e-02
9.475708007812500000e-02
9.262084960937500000e-02
9.033203125000000000e-02
8.636474609375000000e-02
8.331298828125000000e-02
8.056640625000000000e-02
7.812500000000000000e-02
7.553100585937500000e-02
7.293701171875000000e-02
7.049560546875000000e-02
6.912231445312500000e-02
6.866455078125000000e-02
6.866455078125000000e-02
6.851196289062500000e-02
6.866455078125000000e-02
6.942749023437500000e-02
7.095336914062500000e-02
7.247924804687500000e-02
7.461547851562500000e-02
7.629394531250000000e-02
7.751464843750000000e-02
7.888793945312500000e-02
8.087158203125000000e-02
8.255004882812500000e-02
8.316040039062500000e-02
8.377075195312500000e-02
8.499145507812500000e-02
8.560180664062500000e-02
8.636474609375000000e-02
8.743286132812500000e-02
8.834838867187500000e-02
8.789062500000000000e-02
8.758544921875000000e-02
8.804321289062500000e-02
8.804321289062500000e-02
8.712768554687500000e-02
8.590698242187500000e-02
8.453369140625000000e-02
8.270263671875000000e-02
8.041381835937500000e-02
7.781982421875000000e-02
7.553100585937500000e-02
7.308959960937500000e-02
7.049560546875000000e-02
6.805419921875000000e-02
6.591796875000000000e-02
6.332397460937500000e-02
6.195068359375000000e-02
6.118774414062500000e-02
6.118774414062500000e-02
6.118774414062500000e-02
6.103515625000000000e-02
6.210327148437500000e-02
6.393432617187500000e-02
6.637573242187500000e-02
6.896972656250000000e-02
7.034301757812500000e-02
7.156372070312500000e-02
7.369995117187500000e-02
7.598876953125000000e-02
7.766723632812500000e-02
7.904052734375000000e-02
7.980346679687500000e-02
8.148193359375000000e-02
8.255004882812500000e-02
8.300781250000000000e-02
8.377075195312500000e-02
8.499145507812500000e-02
8.544921875000000000e-02
8.560180664062500000e-02
8.560180664062500000e-02
8.468627929687500000e-02
8.346557617187500000e-02
8.224487304687500000e-02
8.026123046875000000e-02
7.797241210937500000e-02
7.568359375000000000e-02
7.324218750000000000e-02
7.064819335937500000e-02
6.820678710937500000e-02
6.591796875000000000e-02
6.347656250000000000e-02
6.072998046875000000e-02
5.905151367187500000e-02
5.920410156250000000e-02
5.874633789062500000e-02
5.874633789062500000e-02
5.874633789062500000e-02
5.996704101562500000e-02
6.164550781250000000e-02
6.317138671875000000e-02
6.439208984375000000e-02
6.652832031250000000e-02
6.881713867187500000e-02
7.003784179687500000e-02
7.156372070312500000e-02
7.278442382812500000e-02
7.415771484375000000e-02
7.537841796875000000e-02
7.659912109375000000e-02
7.797241210937500000e-02
7.812500000000000000e-02
7.827758789062500000e-02
7.919311523437500000e-02
8.010864257812500000e-02
8.071899414062500000e-02
8.087158203125000000e-02
8.071899414062500000e-02
7.965087890625000000e-02
7.781982421875000000e-02
7.568359375000000000e-02
7.324218750000000000e-02
7.064819335937500000e-02
6.851196289062500000e-02
6.591796875000000000e-02
6.332397460937500000e-02
6.103515625000000000e-02
5.859375000000000000e-02
5.615234375000000000e-02
5.462646484375000000e-02
5.310058593750000000e-02
5.172729492187500000e-02
5.172729492187500000e-02
5.233764648437500000e-02
5.325317382812500000e-02
5.447387695312500000e-02
5.554199218750000000e-02
5.706787109375000000e-02
5.889892578125000000e-02
6.057739257812500000e-02
6.179809570312500000e-02
6.393432617187500000e-02
6.561279296875000000e-02
6.607055664062500000e-02
6.713867187500000000e-02
6.790161132812500000e-02
6.942749023437500000e-02
7.080078125000000000e-02
7.095336914062500000e-02
7.171630859375000000e-02
7.263183593750000000e-02
7.324218750000000000e-02
7.339477539062500000e-02
7.324218750000000000e-02
7.232666015625000000e-02
7.141113281250000000e-02
7.003784179687500000e-02
6.820678710937500000e-02
6.561279296875000000e-02
6.347656250000000000e-02
6.088256835937500000e-02
5.935668945312500000e-02
5.783081054687500000e-02
5.569458007812500000e-02
5.325317382812500000e-02
5.203247070312500000e-02
5.081176757812500000e-02
4.959106445312500000e-02
4.928588867187500000e-02
4.928588867187500000e-02
4.989624023437500000e-02
5.111694335937500000e-02
5.233764648437500000e-02
5.401611328125000000e-02
5.584716796875000000e-02
5.722045898437500000e-02
5.859375000000000000e-02
5.874633789062500000e-02
5.950927734375000000e-02
6.072998046875000000e-02
6.103515625000000000e-02
6.118774414062500000e-02
6.134033203125000000e-02
6.118774414062500000e-02
6.118774414062500000e-02
6.118774414062500000e-02
6.118774414062500000e-02
6.118774414062500000e-02
6.118774414062500000e-02
6.042480468750000000e-02
5.905151367187500000e-02
5.783081054687500000e-02
5.493164062500000000e-02
5.172729492187500000e-02
4.867553710937500000e-02
4.653930664062500000e-02
4.302978515625000000e-02
3.967285156250000000e-02
3.707885742187500000e-02
3.463745117187500000e-02
3.204345703125000000e-02
2.975463867187500000e-02
2.716064453125000000e-02
2.471923828125000000e-02
2.319335937500000000e-02
2.288818359375000000e-02
2.288818359375000000e-02
2.273559570312500000e-02
2.273559570312500000e-02
2.258300781250000000e-02
2.365112304687500000e-02
2.487182617187500000e-02
2.502441406250000000e-02
2.517700195312500000e-02
2.502441406250000000e-02
2.502441406250000000e-02
2.502441406250000000e-02
2.517700195312500000e-02
2.517700195312500000e-02
2.502441406250000000e-02
2.426147460937500000e-02
2.319335937500000000e-02
2.288818359375000000e-02
2.182006835937500000e-02
2.090454101562500000e-02
1.937866210937500000e-02
1.724243164062500000e-02
1.510620117187500000e-02
1.251220703125000000e-02
9.613037109375000000e-03
6.866455078125000000e-03
3.509521484375000000e-03
-6.103515625000000000e-04
-3.967285156250000000e-03
-6.561279296875000000e-03
-1.007080078125000000e-02
-1.373291015625000000e-02
-1.617431640625000000e-02
-1.876831054687500000e-02
-2.059936523437500000e-02
-2.212524414062500000e-02
-2.334594726562500000e-02
-2.349853515625000000e-02
-2.319335937500000000e-02
-2.365112304687500000e-02
-2.365112304687500000e-02
-2.334594726562500000e-02
-2.349853515625000000e-02
-2.365112304687500000e-02
-2.471923828125000000e-02
-2.548217773437500000e-02
-2.609252929687500000e-02
-2.685546875000000000e-02
-2.746582031250000000e-02
-2.929687500000000000e-02
-3.021240234375000000e-02
-3.173828125000000000e-02
-3.265380859375000000e-02
-3.341674804687500000e-02
-3.402709960937500000e-02
-3.631591796875000000e-02
-3.829956054687500000e-02
-4.074096679687500000e-02
-4.348754882812500000e-02
-4.531860351562500000e-02
-4.898071289062500000e-02
-5.279541015625000000e-02
-5.630493164062500000e-02
-5.981445312500000000e-02
-6.286621093750000000e-02
-6.622314453125000000e-02
-6.942749023437500000e-02
-7.247924804687500000e-02
-7.492065429687500000e-02
-7.736206054687500000e-02
-7.873535156250000000e-02
-7.949829101562500000e-02
-7.949829101562500000e-02
-7.949829101562500000e-02
-7.934570312500000000e-02
-7.949829101562500000e-02
-7.965087890625000000e-02
-7.949829101562500000e-02
-7.949829101562500000e-02
-7.873535156250000000e-02
-7.751464843750000000e-02
-7.705688476562500000e-02
-7.812500000000000000e-02
-7.919311523437500000e-02
-7.949829101562500000e-02
-7.919311523437500000e-02
-7.949829101562500000e-02
-8.041381835937500000e-02
-8.148193359375000000e-02
-8.163452148437500000e-02
-8.193969726562500000e-02
-8.270263671875000000e-02
-8.392333984375000000e-02
-8.499145507812500000e-02
-8.712768554687500000e-02
-8.972167968750000000e-02
-9.216308593750000000e-02
-9.429931640625000000e-02
-9.689331054687500000e-02
-9.902954101562500000e-02
-1.016235351562500000e-01
-1.040649414062500000e-01
-1.060485839843750000e-01
-1.072692871093750000e-01
-1.084899902343750000e-01
-1.094055175781250000e-01
-1.106262207031250000e-01
-1.101684570312500000e-01
-1.092529296875000000e-01
-1.081848144531250000e-01
-1.060485839843750000e-01
-1.042175292968750000e-01
-1.028442382812500000e-01
-1.004028320312500000e-01
-9.963989257812500000e-02
-9.841918945312500000e-02
-9.643554687500000000e-02
-9.445190429687500000e-02
-9.429931640625000000e-02
-9.323120117187500000e-02
-9.185791015625000000e-02
-9.201049804687500000e-02
-9.078979492187500000e-02
-8.972167968750000000e-02
-8.926391601562500000e-02
-8.956909179687500000e-02
-8.941650390625000000e-02
-8.956909179687500000e-02
-8.956909179687500000e-02
-8.911132812500000000e-02
-9.017944335937500000e-02
-9.185791015625000000e-02
-9.353637695312500000e-02
-9.460449218750000000e-02
-9.719848632812500000e-02
-9.933471679687500000e-02
-1.016235351562500000e-01
-1.031494140625000000e-01
-1.045227050781250000e-01
-1.058959960937500000e-01
-1.069641113281250000e-01
-1.083374023437500000e-01
-1.078796386718750000e-01
-1.068115234375000000e-01
-1.054382324218750000e-01
-1.034545898437500000e-01
-1.022338867187500000e-01
-1.007080078125000000e-01
-9.872436523437500000e-02
-9.628295898437500000e-02
-9.368896484375000000e-02
-9.109497070312500000e-02
-8.911132812500000000e-02
-8.743286132812500000e-02
-8.605957031250000000e-02
-8.499145507812500000e-02
-8.346557617187500000e-02
-8.239746093750000000e-02
-8.117675781250000000e-02
-7.980346679687500000e-02
-7.873535156250000000e-02
-7.751464843750000000e-02
-7.705688476562500000e-02
-7.720947265625000000e-02
-7.705688476562500000e-02
-7.705688476562500000e-02
-7.827758789062500000e-02
-7.995605468750000000e-02
-8.117675781250000000e-02
-8.270263671875000000e-02
-8.483886718750000000e-02
-8.712768554687500000e-02
-8.895874023437500000e-02
-9.002685546875000000e-02
-9.124755859375000000e-02
-9.231567382812500000e-02
-9.368896484375000000e-02
-9.414672851562500000e-02
-9.399414062500000000e-02
-9.292602539062500000e-02
-9.124755859375000000e-02
-8.972167968750000000e-02
-8.758544921875000000e-02
-8.453369140625000000e-02
-8.178710937500000000e-02
-7.919311523437500000e-02
-7.659912109375000000e-02
-7.415771484375000000e-02
-7.186889648437500000e-02
-6.927490234375000000e-02
-6.805419921875000000e-02
-6.652832031250000000e-02
-6.454467773437500000e-02
-6.286621093750000000e-02
-6.286621093750000000e-02
-6.179809570312500000e-02
-6.057739257812500000e-02
-6.011962890625000000e-02
-5.920410156250000000e-02
-5.828857421875000000e-02
-5.889892578125000000e-02
-5.966186523437500000e-02
-6.072998046875000000e-02
-6.301879882812500000e-02
-6.423950195312500000e-02
-6.576538085937500000e-02
-6.774902343750000000e-02
-7.019042968750000000e-02
-7.202148437500000000e-02
-7.492065429687500000e-02
-7.751464843750000000e-02
-7.904052734375000000e-02
-8.026123046875000000e-02
-8.148193359375000000e-02
-8.148193359375000000e-02
-8.193969726562500000e-02
-8.117675781250000000e-02
-8.026123046875000000e-02
-7.888793945312500000e-02
-7.690429687500000000e-02
-7.431030273437500000e-02
-7.202148437500000000e-02
-6.942749023437500000e-02
-6.713867187500000000e-02
-6.454467773437500000e-02
-6.225585937500000000e-02
-5.981445312500000000e-02
-5.813598632812500000e-02
-5.676269531250000000e-02
-5.477905273437500000e-02
-5.325317382812500000e-02
-5.172729492187500000e-02
-5.111694335937500000e-02
-4.943847656250000000e-02
-4.806518554687500000e-02
-4.806518554687500000e-02
-4.760742187500000000e-02
-4.776000976562500000e-02
-4.776000976562500000e-02
-4.882812500000000000e-02
-4.974365234375000000e-02
-5.126953125000000000e-02
-5.310058593750000000e-02
-5.432128906250000000e-02
-5.554199218750000000e-02
-5.828857421875000000e-02
-5.935668945312500000e-02
-6.088256835937500000e-02
-6.225585937500000000e-02
-6.225585937500000000e-02
-6.240844726562500000e-02
-6.164550781250000000e-02
-6.042480468750000000e-02
-5.966186523437500000e-02
-5.691528320312500000e-02
-5.508422851562500000e-02
-5.233764648437500000e-02
-5.081176757812500000e-02
-4.959106445312500000e-02
-4.745483398437500000e-02
-4.501342773437500000e-02
-4.287719726562500000e-02
-4.104614257812500000e-02
-3.982543945312500000e-02
-3.875732421875000000e-02
-3.784179687500000000e-02
-3.631591796875000000e-02
-3.524780273437500000e-02
-3.387451171875000000e-02
-3.250122070312500000e-02
-3.112792968750000000e-02
-3.067016601562500000e-02
-3.082275390625000000e-02
-3.082275390625000000e-02
-3.158569335937500000e-02
-3.356933593750000000e-02
-3.494262695312500000e-02
-3.646850585937500000e-02
-3.829956054687500000e-02
-4.074096679687500000e-02
-4.257202148437500000e-02
-4.394531250000000000e-02
-4.592895507812500000e-02
-4.730224609375000000e-02
-4.821777343750000000e-02
-4.959106445312500000e-02
-5.020141601562500000e-02
-5.035400390625000000e-02
-4.928588867187500000e-02
-4.806518554687500000e-02
-4.699707031250000000e-02
-4.486083984375000000e-02
-4.272460937500000000e-02
-4.104614257812500000e-02
-3.982543945312500000e-02
-3.768920898437500000e-02
-3.555297851562500000e-02
-3.387451171875000000e-02
-3.234863281250000000e-02
-3.128051757812500000e-02
-3.005981445312500000e-02
-2.868652343750000000e-02
-2.761840820312500000e-02
-2.639770507812500000e-02
-2.593994140625000000e-02
-2.548217773437500000e-02
-2.410888671875000000e-02
-2.410888671875000000e-02
-2.365112304687500000e-02
-2.365112304687500000e-02
-2.456665039062500000e-02
-2.563476562500000000e-02
-2.685546875000000000e-02
-2.777099609375000000e-02
-2.899169921875000000e-02
-3.128051757812500000e-02
-3.356933593750000000e-02
-3.540039062500000000e-02
-3.631591796875000000e-02
-3.753662109375000000e-02
-3.890991210937500000e-02
-4.028320312500000000e-02
-4.074096679687500000e-02
-4.089355468750000000e-02
-4.058837890625000000e-02
-4.089355468750000000e-02
-3.967285156250000000e-02
-3.784179687500000000e-02
-3.616333007812500000e-02
-3.524780273437500000e-02
-3.341674804687500000e-02
-3.250122070312500000e-02
-3.112792968750000000e-02
-2.990722656250000000e-02
-2.838134765625000000e-02
-2.761840820312500000e-02
-2.624511718750000000e-02
-2.532958984375000000e-02
-2.426147460937500000e-02
-2.365112304687500000e-02
-2.273559570312500000e-02
-2.182006835937500000e-02
-2.136230468750000000e-02
-1.998901367187500000e-02
-1.983642578125000000e-02
-2.075195312500000000e-02
-2.120971679687500000e-02
-2.227783203125000000e-02
-2.380371093750000000e-02
-2.639770507812500000e-02
-2.761840820312500000e-02
-2.929687500000000000e-02
-3.097534179687500000e-02
-3.356933593750000000e-02
-3.585815429687500000e-02
-3.753662109375000000e-02
-3.890991210937500000e-02
-3.982543945312500000e-02
-4.028320312500000000e-02
-4.058837890625000000e-02
-3.997802734375000000e-02
-3.829956054687500000e-02
-3.753662109375000000e-02
-3.524780273437500000e-02
-3.387451171875000000e-02
-3.265380859375000000e-02
-3.051757812500000000e-02
-2.822875976562500000e-02
-2.655029296875000000e-02
-2.487182617187500000e-02
-2.410888671875000000e-02
-2.304077148437500000e-02
-2.182006835937500000e-02
-2.014160156250000000e-02
-1.907348632812500000e-02
-1.892089843750000000e-02
-1.754760742187500000e-02
-1.693725585937500000e-02
-1.647949218750000000e-02
-1.617431640625000000e-02
-1.617431640625000000e-02
-1.647949218750000000e-02
-1.693725585937500000e-02
-1.815795898437500000e-02
-1.983642578125000000e-02
-2.197265625000000000e-02
-2.380371093750000000e-02
-2.548217773437500000e-02
-2.685546875000000000e-02
-2.868652343750000000e-02
-3.128051757812500000e-02
-3.265380859375000000e-02
-3.387451171875000000e-02
-3.540039062500000000e-02
-3.555297851562500000e-02
-3.570556640625000000e-02
-3.570556640625000000e-02
-3.555297851562500000e-02
-3.524780273437500000e-02
-3.356933593750000000e-02
-3.234863281250000000e-02
-3.158569335937500000e-02
-3.005981445312500000e-02
-2.883911132812500000e-02
-2.746582031250000000e-02
-2.639770507812500000e-02
-2.624511718750000000e-02
-2.532958984375000000e-02
-2.441406250000000000e-02
-2.365112304687500000e-02
-2.273559570312500000e-02
-2.212524414062500000e-02
-2.136230468750000000e-02
-2.120971679687500000e-02
-2.136230468750000000e-02
-2.136230468750000000e-02
-2.136230468750000000e-02
-2.136230468750000000e-02
-2.227783203125000000e-02
-2.349853515625000000e-02
-2.395629882812500000e-02
-2.639770507812500000e-02
-2.853393554687500000e-02
-3.112792968750000000e-02
-3.295898437500000000e-02
-3.417968750000000000e-02
-3.601074218750000000e-02
-3.784179687500000000e-02
-3.890991210937500000e-02
-3.997802734375000000e-02
-4.043579101562500000e-02
-4.089355468750000000e-02
-3.952026367187500000e-02
-3.845214843750000000e-02
-3.723144531250000000e-02
-3.509521484375000000e-02
-3.417968750000000000e-02
-3.280639648437500000e-02
-3.051757812500000000e-02
-2.868652343750000000e-02
-2.731323242187500000e-02
-2.670288085937500000e-02
-2.532958984375000000e-02
-2.410888671875000000e-02
-2.380371093750000000e-02
-2.273559570312500000e-02
-2.166748046875000000e-02
-2.151489257812500000e-02
-2.120971679687500000e-02
-2.120971679687500000e-02
-2.044677734375000000e-02
-1.907348632812500000e-02
-1.968383789062500000e-02
-2.090454101562500000e-02
-2.197265625000000000e-02
-2.304077148437500000e-02
-2.441406250000000000e-02
-2.655029296875000000e-02
-2.853393554687500000e-02
-3.097534179687500000e-02
-3.265380859375000000e-02
-3.372192382812500000e-02
-3.601074218750000000e-02
-3.753662109375000000e-02
-3.784179687500000000e-02
-3.875732421875000000e-02
-3.936767578125000000e-02
-3.860473632812500000e-02
-3.860473632812500000e-02
-3.753662109375000000e-02
-3.540039062500000000e-02
-3.311157226562500000e-02
-3.112792968750000000e-02
-2.990722656250000000e-02
-2.822875976562500000e-02
-2.670288085937500000e-02
-2.532958984375000000e-02
-2.410888671875000000e-02
-2.288818359375000000e-02
-2.151489257812500000e-02
-2.105712890625000000e-02
-2.014160156250000000e-02
-1.876831054687500000e-02
-1.846313476562500000e-02
-1.892089843750000000e-02
-1.876831054687500000e-02
-1.861572265625000000e-02
-1.892089843750000000e-02
-1.876831054687500000e-02
-1.937866210937500000e-02
-2.075195312500000000e-02
-2.197265625000000000e-02
-2.395629882812500000e-02
-2.624511718750000000e-02
-2.899169921875000000e-02
-3.112792968750000000e-02
-3.341674804687500000e-02
-3.601074218750000000e-02
-3.753662109375000000e-02
-3.906250000000000000e-02
-4.013061523437500000e-02
-4.135131835937500000e-02
-4.257202148437500000e-02
-4.196166992187500000e-02
-4.104614257812500000e-02
-3.967285156250000000e-02
-3.784179687500000000e-02
-3.601074218750000000e-02
-3.479003906250000000e-02
-3.265380859375000000e-02
-3.067016601562500000e-02
-2.822875976562500000e-02
-2.639770507812500000e-02
-2.532958984375000000e-02
-2.410888671875000000e-02
-2.288818359375000000e-02
-2.151489257812500000e-02
-2.136230468750000000e-02
-2.120971679687500000e-02
-2.044677734375000000e-02
-1.922607421875000000e-02
-1.892089843750000000e-02
-1.861572265625000000e-02
-1.876831054687500000e-02
-1.998901367187500000e-02
-2.090454101562500000e-02
-2.182006835937500000e-02
-2.426147460937500000e-02
-2.624511718750000000e-02
-2.868652343750000000e-02
-3.112792968750000000e-02
-3.387451171875000000e-02
-3.616333007812500000e-02
-3.738403320312500000e-02
-3.875732421875000000e-02
-4.119873046875000000e-02
-4.272460937500000000e-02
-4.302978515625000000e-02
-4.302978515625000000e-02
-4.287719726562500000e-02
-4.211425781250000000e-02
-4.104614257812500000e-02
-3.982543945312500000e-02
-3.768920898437500000e-02
-3.540039062500000000e-02
-3.311157226562500000e-02
-3.051757812500000000e-02
-2.838134765625000000e-02
-2.578735351562500000e-02
-2.410888671875000000e-02
-2.273559570312500000e-02
-2.090454101562500000e-02
-1.907348632812500000e-02
-1.876831054687500000e-02
-1.800537109375000000e-02
-1.632690429687500000e-02
-1.632690429687500000e-02
-1.556396484375000000e-02
-1.434326171875000000e-02
-1.388549804687500000e-02
-1.373291015625000000e-02
-1.464843750000000000e-02
-1.586914062500000000e-02
-1.693725585937500000e-02
-1.937866210937500000e-02
-2.136230468750000000e-02
-2.380371093750000000e-02
-2.593994140625000000e-02
-2.868652343750000000e-02
-3.128051757812500000e-02
-3.280639648437500000e-02
-3.402709960937500000e-02
-3.524780273437500000e-02
-3.662109375000000000e-02
-3.768920898437500000e-02
-3.784179687500000000e-02
-3.707885742187500000e-02
-3.631591796875000000e-02
-3.509521484375000000e-02
-3.295898437500000000e-02
-3.051757812500000000e-02
-2.929687500000000000e-02
-2.746582031250000000e-02
-2.563476562500000000e-02
-2.380371093750000000e-02
-2.288818359375000000e-02
-2.166748046875000000e-02
-2.029418945312500000e-02
-1.922607421875000000e-02
-1.876831054687500000e-02
-1.770019531250000000e-02
-1.678466796875000000e-02
-1.632690429687500000e-02
-1.632690429687500000e-02
-1.617431640625000000e-02
-1.617431640625000000e-02
-1.632690429687500000e-02
-1.617431640625000000e-02
-1.724243164062500000e-02
-1.892089843750000000e-02
-2.120971679687500000e-02
-2.380371093750000000e-02
-2.639770507812500000e-02
-2.853393554687500000e-02
-3.082275390625000000e-02
-3.250122070312500000e-02
-3.417968750000000000e-02
-3.616333007812500000e-02
-3.738403320312500000e-02
-3.784179687500000000e-02
-3.829956054687500000e-02
-3.799438476562500000e-02
-3.799438476562500000e-02
-3.707885742187500000e-02
-3.540039062500000000e-02
-3.280639648437500000e-02
-3.051757812500000000e-02
-2.807617187500000000e-02
-2.639770507812500000e-02
-2.609252929687500000e-02
-2.578735351562500000e-02
-2.532958984375000000e-02
-2.334594726562500000e-02
-2.090454101562500000e-02
-1.937866210937500000e-02
-1.815795898437500000e-02
-1.617431640625000000e-02
-1.449584960937500000e-02
-1.419067382812500000e-02
-1.296997070312500000e-02
-1.205444335937500000e-02
-1.159667968750000000e-02
-1.022338867187500000e-02
-9.155273437500000000e-03
-9.613037109375000000e-03
-1.098632812500000000e-02
-1.205444335937500000e-02
-1.281738281250000000e-02
-1.495361328125000000e-02
-1.663208007812500000e-02
-1.907348632812500000e-02
-2.151489257812500000e-02
-2.395629882812500000e-02
-2.624511718750000000e-02
-2.868652343750000000e-02
-3.112792968750000000e-02
-3.250122070312500000e-02
-3.341674804687500000e-02
-3.417968750000000000e-02
-3.402709960937500000e-02
-3.387451171875000000e-02
-3.341674804687500000e-02
-3.234863281250000000e-02
-3.051757812500000000e-02
-2.807617187500000000e-02
-2.685546875000000000e-02
-2.532958984375000000e-02
-2.319335937500000000e-02
-2.090454101562500000e-02
-1.937866210937500000e-02
-1.800537109375000000e-02
-1.602172851562500000e-02
-1.449584960937500000e-02
-1.312255859375000000e-02
-1.190185546875000000e-02
-1.083374023437500000e-02
-9.613037109375000000e-03
-9.002685546875000000e-03
-8.087158203125000000e-03
-7.171630859375000000e-03
-6.408691406250000000e-03
-6.408691406250000000e-03
-7.629394531250000000e-03
-9.155273437500000000e-03
-1.098632812500000000e-02
-1.220703125000000000e-02
-1.434326171875000000e-02
-1.663208007812500000e-02
-1.892089843750000000e-02
-2.044677734375000000e-02
-2.182006835937500000e-02
-2.395629882812500000e-02
-2.624511718750000000e-02
-2.731323242187500000e-02
-2.853393554687500000e-02
-2.853393554687500000e-02
-2.853393554687500000e-02
-2.746582031250000000e-02
-2.655029296875000000e-02
-2.532958984375000000e-02
-2.334594726562500000e-02
-2.151489257812500000e-02
-2.029418945312500000e-02
-1.815795898437500000e-02
-1.693725585937500000e-02
-1.571655273437500000e-02
-1.434326171875000000e-02
-1.312255859375000000e-02
-1.205444335937500000e-02
-1.068115234375000000e-02
-9.307861328125000000e-03
-8.087158203125000000e-03
-6.713867187500000000e-03
-6.866455078125000000e-03
-5.798339843750000000e-03
-4.882812500000000000e-03
-4.119873046875000000e-03
-5.187988281250000000e-03
-6.256103515625000000e-03
-7.324218750000000000e-03
-9.307861328125000000e-03
-1.159667968750000000e-02
-1.312255859375000000e-02
-1.464843750000000000e-02
-1.678466796875000000e-02
-1.876831054687500000e-02
-2.151489257812500000e-02
-2.319335937500000000e-02
-2.456665039062500000e-02
-2.548217773437500000e-02
-2.593994140625000000e-02
-2.563476562500000000e-02
-2.593994140625000000e-02
-2.502441406250000000e-02
-2.410888671875000000e-02
-2.304077148437500000e-02
-2.059936523437500000e-02
-1.907348632812500000e-02
-1.815795898437500000e-02
-1.571655273437500000e-02
-1.449584960937500000e-02
-1.296997070312500000e-02
-1.220703125000000000e-02
-1.037597656250000000e-02
-9.613037109375000000e-03
-8.850097656250000000e-03
-7.934570312500000000e-03
-6.866455078125000000e-03
-6.561279296875000000e-03
-6.408691406250000000e-03
-5.798339843750000000e-03
-4.425048828125000000e-03
-4.272460937500000000e-03
-4.272460937500000000e-03
-5.035400390625000000e-03
-6.866455078125000000e-03
-8.544921875000000000e-03
-1.022338867187500000e-02
-1.205444335937500000e-02
-1.403808593750000000e-02
-1.647949218750000000e-02
-1.815795898437500000e-02
-1.953125000000000000e-02
-2.151489257812500000e-02
-2.304077148437500000e-02
-2.471923828125000000e-02
-2.548217773437500000e-02
-2.593994140625000000e-02
-2.532958984375000000e-02
-2.441406250000000000e-02
-2.288818359375000000e-02
-2.105712890625000000e-02
-1.937866210937500000e-02
-1.785278320312500000e-02
-1.602172851562500000e-02
-1.419067382812500000e-02
-1.327514648437500000e-02
-1.174926757812500000e-02
-1.144409179687500000e-02
-1.144409179687500000e-02
-1.068115234375000000e-02
-9.613037109375000000e-03
-9.155273437500000000e-03
-8.850097656250000000e-03
-8.697509765625000000e-03
-1.007080078125000000e-02
-1.098632812500000000e-02
-1.113891601562500000e-02
-1.235961914062500000e-02
-1.342773437500000000e-02
-1.464843750000000000e-02
-1.678466796875000000e-02
-1.907348632812500000e-02
-2.105712890625000000e-02
-2.441406250000000000e-02
-2.639770507812500000e-02
-2.868652343750000000e-02
-3.097534179687500000e-02
-3.356933593750000000e-02
-3.616333007812500000e-02
-3.829956054687500000e-02
-4.028320312500000000e-02
-4.043579101562500000e-02
-4.043579101562500000e-02
-4.058837890625000000e-02
-3.982543945312500000e-02
-3.845214843750000000e-02
-3.753662109375000000e-02
-3.494262695312500000e-02
-3.387451171875000000e-02
-3.234863281250000000e-02
-3.051757812500000000e-02
-2.929687500000000000e-02
-2.746582031250000000e-02
-2.639770507812500000e-02
-2.609252929687500000e-02
-2.517700195312500000e-02
-2.410888671875000000e-02
-2.395629882812500000e-02
-2.365112304687500000e-02
-2.380371093750000000e-02
-2.380371093750000000e-02
-2.365112304687500000e-02
-2.380371093750000000e-02
-2.441406250000000000e-02
-2.532958984375000000e-02
-2.670288085937500000e-02
-2.929687500000000000e-02
-3.143310546875000000e-02
-3.417968750000000000e-02
-3.814697265625000000e-02
-4.058837890625000000e-02
-4.394531250000000000e-02
-4.714965820312500000e-02
-5.050659179687500000e-02
-5.264282226562500000e-02
-5.523681640625000000e-02
-5.783081054687500000e-02
-5.935668945312500000e-02
-6.103515625000000000e-02
-6.179809570312500000e-02
-6.210327148437500000e-02
-6.149291992187500000e-02
-6.042480468750000000e-02
-6.027221679687500000e-02
-5.889892578125000000e-02
-5.783081054687500000e-02
-5.737304687500000000e-02
-5.767822265625000000e-02
-5.752563476562500000e-02
-5.737304687500000000e-02
-5.737304687500000000e-02
-5.752563476562500000e-02
-5.813598632812500000e-02
-5.767822265625000000e-02
-5.752563476562500000e-02
-5.722045898437500000e-02
-5.752563476562500000e-02
-5.844116210937500000e-02
-5.966186523437500000e-02
-5.981445312500000000e-02
-6.011962890625000000e-02
-6.103515625000000000e-02
-6.195068359375000000e-02
-6.301879882812500000e-02
-6.530761718750000000e-02
-6.774902343750000000e-02
-6.912231445312500000e-02
-7.064819335937500000e-02
-7.171630859375000000e-02
-7.278442382812500000e-02
-7.415771484375000000e-02
-7.446289062500000000e-02
-7.446289062500000000e-02
-7.385253906250000000e-02
-7.232666015625000000e-02
-7.110595703125000000e-02
-6.866455078125000000e-02
-6.484985351562500000e-02
-6.240844726562500000e-02
-5.996704101562500000e-02
-5.645751953125000000e-02
-5.310058593750000000e-02
-4.989624023437500000e-02
-4.745483398437500000e-02
-4.501342773437500000e-02
-4.287719726562500000e-02
-4.013061523437500000e-02
-3.814697265625000000e-02
-3.540039062500000000e-02
-3.433227539062500000e-02
-3.265380859375000000e-02
-3.051757812500000000e-02
-2.914428710937500000e-02
-2.761840820312500000e-02
-2.639770507812500000e-02
-2.609252929687500000e-02
-2.609252929687500000e-02
-2.624511718750000000e-02
-2.685546875000000000e-02
-2.777099609375000000e-02
-2.899169921875000000e-02
-3.051757812500000000e-02
-3.158569335937500000e-02
-3.311157226562500000e-02
-3.311157226562500000e-02
-3.402709960937500000e-02
-3.555297851562500000e-02
-3.570556640625000000e-02
-3.494262695312500000e-02
-3.372192382812500000e-02
-3.265380859375000000e-02
-3.051757812500000000e-02
-2.792358398437500000e-02
-2.578735351562500000e-02
-2.349853515625000000e-02
-2.014160156250000000e-02
-1.678466796875000000e-02
-1.266479492187500000e-02
-9.307861328125000000e-03
-6.408691406250000000e-03
-3.662109375000000000e-03
-1.220703125000000000e-03
1.068115234375000000e-03
3.662109375000000000e-03
5.645751953125000000e-03
8.544921875000000000e-03
1.007080078125000000e-02
1.098632812500000000e-02
1.312255859375000000e-02
1.480102539062500000e-02
1.541137695312500000e-02
1.525878906250000000e-02
1.541137695312500000e-02
1.480102539062500000e-02
1.525878906250000000e-02
1.480102539062500000e-02
1.251220703125000000e-02
1.144409179687500000e-02
9.765625000000000000e-03
8.087158203125000000e-03
7.629394531250000000e-03
6.256103515625000000e-03
5.187988281250000000e-03
3.814697265625000000e-03
3.356933593750000000e-03
3.051757812500000000e-03
4.119873046875000000e-03
6.103515625000000000e-03
7.324218750000000000e-03
8.850097656250000000e-03
1.098632812500000000e-02
1.342773437500000000e-02
1.556396484375000000e-02
1.815795898437500000e-02
2.044677734375000000e-02
2.319335937500000000e-02
2.532958984375000000e-02
2.777099609375000000e-02
2.929687500000000000e-02
3.067016601562500000e-02
3.189086914062500000e-02
3.356933593750000000e-02
3.402709960937500000e-02
3.479003906250000000e-02
3.555297851562500000e-02
3.692626953125000000e-02
3.707885742187500000e-02
3.723144531250000000e-02
3.601074218750000000e-02
3.524780273437500000e-02
3.417968750000000000e-02
3.204345703125000000e-02
2.960205078125000000e-02
2.716064453125000000e-02
2.471923828125000000e-02
2.243041992187500000e-02
1.983642578125000000e-02
1.739501953125000000e-02
1.602172851562500000e-02
1.449584960937500000e-02
1.342773437500000000e-02
1.220703125000000000e-02
1.205444335937500000e-02
1.251220703125000000e-02
1.373291015625000000e-02
1.495361328125000000e-02
1.586914062500000000e-02
1.831054687500000000e-02
2.075195312500000000e-02
2.334594726562500000e-02
2.563476562500000000e-02
2.792358398437500000e-02
2.929687500000000000e-02
3.067016601562500000e-02
3.265380859375000000e-02
3.433227539062500000e-02
3.555297851562500000e-02
3.677368164062500000e-02
3.784179687500000000e-02
3.906250000000000000e-02
3.997802734375000000e-02
4.013061523437500000e-02
4.119873046875000000e-02
4.150390625000000000e-02
4.165649414062500000e-02
4.058837890625000000e-02
3.997802734375000000e-02
3.906250000000000000e-02
3.692626953125000000e-02
3.524780273437500000e-02
3.433227539062500000e-02
3.204345703125000000e-02
2.960205078125000000e-02
2.792358398437500000e-02
2.670288085937500000e-02
2.471923828125000000e-02
2.319335937500000000e-02
2.182006835937500000e-02
2.090454101562500000e-02
2.044677734375000000e-02
2.014160156250000000e-02
2.136230468750000000e-02
2.212524414062500000e-02
2.349853515625000000e-02
2.471923828125000000e-02
2.593994140625000000e-02
2.792358398437500000e-02
2.944946289062500000e-02
3.097534179687500000e-02
3.189086914062500000e-02
3.234863281250000000e-02
3.326416015625000000e-02
3.463745117187500000e-02
3.448486328125000000e-02
3.509521484375000000e-02
3.463745117187500000e-02
3.555297851562500000e-02
3.707885742187500000e-02
3.707885742187500000e-02
3.753662109375000000e-02
3.707885742187500000e-02
3.601074218750000000e-02
3.555297851562500000e-02
3.387451171875000000e-02
3.189086914062500000e-02
2.975463867187500000e-02
2.700805664062500000e-02
2.502441406250000000e-02
2.319335937500000000e-02
2.227783203125000000e-02
2.075195312500000000e-02
1.922607421875000000e-02
1.846313476562500000e-02
1.770019531250000000e-02
1.785278320312500000e-02
1.846313476562500000e-02
2.059936523437500000e-02
2.273559570312500000e-02
2.639770507812500000e-02
3.051757812500000000e-02
3.524780273437500000e-02
3.967285156250000000e-02
4.470825195312500000e-02
5.065917968750000000e-02
5.722045898437500000e-02
6.454467773437500000e-02
7.171630859375000000e-02
7.888793945312500000e-02
8.697509765625000000e-02
9.628295898437500000e-02
1.049804687500000000e-01
1.148986816406250000e-01
1.249694824218750000e-01
1.353454589843750000e-01
1.448059082031250000e-01
1.557922363281250000e-01
1.661682128906250000e-01
1.766967773437500000e-01
1.855468750000000000e-01
1.943969726562500000e-01
2.026367187500000000e-01
2.102661132812500000e-01
2.175903320312500000e-01
2.250671386718750000e-01
2.334594726562500000e-01
2.420043945312500000e-01
2.497863769531250000e-01
2.568054199218750000e-01
2.651977539062500000e-01
2.735900878906250000e-01
2.819824218750000000e-01
2.905273437500000000e-01
2.990722656250000000e-01
3.076171875000000000e-01
3.161621093750000000e-01
3.244018554687500000e-01
3.314208984375000000e-01
3.364562988281250000e-01
3.419494628906250000e-01
3.448486328125000000e-01
3.466796875000000000e-01
3.471374511718750000e-01
3.456115722656250000e-01
3.422546386718750000e-01
3.376770019531250000e-01
3.306579589843750000e-01
3.213500976562500000e-01
3.102111816406250000e-01
2.987670898437500000e-01
2.844238281250000000e-01
2.673339843750000000e-01
2.478027343750000000e-01
2.259826660156250000e-01
2.009582519531250000e-01
1.737976074218750000e-01
1.443481445312500000e-01
1.135253906250000000e-01
8.041381835937500000e-02
4.470825195312500000e-02
9.002685546875000000e-03
-2.838134765625000000e-02
-6.683349609375000000e-02
-1.045227050781250000e-01
-1.426696777343750000e-01
-1.814270019531250000e-01
-2.194213867187500000e-01
-2.554321289062500000e-01
-2.911376953125000000e-01
-3.265380859375000000e-01
-3.599548339843750000e-01
-3.919982910156250000e-01
-4.238891601562500000e-01
-4.557800292968750000e-01
-4.873657226562500000e-01
-5.201721191406250000e-01
-5.526733398437500000e-01
-5.856323242187500000e-01
-6.184387207031250000e-01
-6.515502929687500000e-01
-6.851196289062500000e-01
-7.177734375000000000e-01
-7.502746582031250000e-01
-7.823181152343750000e-01
-8.142089843750000000e-01
-8.447265625000000000e-01
-8.755493164062500000e-01
-9.059143066406250000e-01
-9.347534179687500000e-01
-9.629821777343750000e-01
-9.918212890625000000e-01
-1.019744873046875000e+00
-1.047363281250000000e+00
-1.073913574218750000e+00
-1.100006103515625000e+00
-1.124420166015625000e+00
-1.145935058593750000e+00
-1.163940429687500000e+00
-1.179046630859375000e+00
-1.189270019531250000e+00
-1.194610595703125000e+00
-1.196289062500000000e+00
-1.192626953125000000e+00
-1.182556152343750000e+00
-1.167755126953125000e+00
-1.147766113281250000e+00
-1.122894287109375000e+00
-1.093597412109375000e+00
-1.060333251953125000e+00
-1.022644042968750000e+00
-9.822082519531250000e-01
-9.385681152343750000e-01
-8.923339843750000000e-01
-8.430480957031250000e-01
-7.925415039062500000e-01
-7.405090332031250000e-01
-6.883239746093750000e-01
-6.359863281250000000e-01
-5.828857421875000000e-01
-5.291748046875000000e-01
-4.757690429687500000e-01
-4.231262207031250000e-01
-3.701782226562500000e-01
-3.187561035156250000e-01
-2.694702148437500000e-01
-2.212524414062500000e-01
-1.744079589843750000e-01
-1.296997070312500000e-01
-8.834838867187500000e-02
-4.852294921875000000e-02
-1.129150390625000000e-02
2.365112304687500000e-02
5.599975585937500000e-02
8.605957031250000000e-02
1.142883300781250000e-01
1.417541503906250000e-01
1.670837402343750000e-01
1.907348632812500000e-01
2.128601074218750000e-01
2.345275878906250000e-01
2.551269531250000000e-01
2.738952636718750000e-01
2.914428710937500000e-01
3.080749511718750000e-01
3.222656250000000000e-01
3.353881835937500000e-01
3.466796875000000000e-01
3.569030761718750000e-01
3.657531738281250000e-01
3.727722167968750000e-01
3.784179687500000000e-01
3.823852539062500000e-01
3.851318359375000000e-01
3.869628906250000000e-01
3.875732421875000000e-01
3.877258300781250000e-01
3.868103027343750000e-01
3.849792480468750000e-01
3.825378417968750000e-01
3.788757324218750000e-01
3.747558593750000000e-01
3.689575195312500000e-01
3.627014160156250000e-01
3.572082519531250000e-01
3.500366210937500000e-01
3.425598144531250000e-01
3.347778320312500000e-01
3.260803222656250000e-01
3.184509277343750000e-01
3.112792968750000000e-01
3.039550781250000000e-01
2.967834472656250000e-01
2.906799316406250000e-01
2.841186523437500000e-01
2.777099609375000000e-01
2.735900878906250000e-01
2.693176269531250000e-01
2.658081054687500000e-01
2.639770507812500000e-01
2.626037597656250000e-01
2.610778808593750000e-01
2.600097656250000000e-01
2.590942382812500000e-01
2.584838867187500000e-01
2.577209472656250000e-01
2.563476562500000000e-01
2.551269531250000000e-01
2.542114257812500000e-01
2.525329589843750000e-01
2.516174316406250000e-01
2.507019042968750000e-01
2.490234375000000000e-01
2.474975585937500000e-01
2.465820312500000000e-01
2.452087402343750000e-01
2.433776855468750000e-01
2.416992187500000000e-01
2.404785156250000000e-01
2.383422851562500000e-01
2.352905273437500000e-01
2.316284179687500000e-01
2.282714843750000000e-01
2.241516113281250000e-01
2.209472656250000000e-01
2.162170410156250000e-01
2.124023437500000000e-01
2.085876464843750000e-01
2.049255371093750000e-01
2.021789550781250000e-01
1.992797851562500000e-01
1.974487304687500000e-01
1.948547363281250000e-01
1.931762695312500000e-01
1.924133300781250000e-01
1.924133300781250000e-01
1.927185058593750000e-01
1.924133300781250000e-01
1.927185058593750000e-01
1.934814453125000000e-01
1.943969726562500000e-01
1.948547363281250000e-01
1.950073242187500000e-01
1.950073242187500000e-01
1.950073242187500000e-01
1.950073242187500000e-01
1.953125000000000000e-01
1.953125000000000000e-01
1.950073242187500000e-01
1.937866210937500000e-01
1.933288574218750000e-01
1.928710937500000000e-01
1.918029785156250000e-01
1.905822753906250000e-01
1.892089843750000000e-01
1.870727539062500000e-01
1.850891113281250000e-01
1.815795898437500000e-01
1.785278320312500000e-01
1.747131347656250000e-01
1.710510253906250000e-01
1.670837402343750000e-01
1.635742187500000000e-01
1.606750488281250000e-01
1.573181152343750000e-01
1.538085937500000000e-01
1.509094238281250000e-01
1.486206054687500000e-01
1.469421386718750000e-01
1.466369628906250000e-01
1.463317871093750000e-01
1.464843750000000000e-01
1.461791992187500000e-01
1.472473144531250000e-01
1.483154296875000000e-01
1.487731933593750000e-01
1.492309570312500000e-01
1.509094238281250000e-01
1.522827148437500000e-01
1.528930664062500000e-01
1.535034179687500000e-01
1.538085937500000000e-01
1.536560058593750000e-01
1.536560058593750000e-01
1.539611816406250000e-01
1.535034179687500000e-01
1.535034179687500000e-01
1.536560058593750000e-01
1.528930664062500000e-01
1.515197753906250000e-01
1.504516601562500000e-01
1.480102539062500000e-01
1.458740234375000000e-01
1.435852050781250000e-01
1.414489746093750000e-01
1.379394531250000000e-01
1.342773437500000000e-01
1.318359375000000000e-01
1.281738281250000000e-01
1.245117187500000000e-01
1.219177246093750000e-01
1.194763183593750000e-01
1.171875000000000000e-01
1.145935058593750000e-01
1.127624511718750000e-01
1.113891601562500000e-01
1.104736328125000000e-01
1.109313964843750000e-01
1.118469238281250000e-01
1.130676269531250000e-01
1.141357421875000000e-01
1.153564453125000000e-01
1.165771484375000000e-01
1.168823242187500000e-01
1.177978515625000000e-01
1.191711425781250000e-01
1.193237304687500000e-01
1.205444335937500000e-01
1.214599609375000000e-01
1.217651367187500000e-01
1.217651367187500000e-01
1.222229003906250000e-01
1.220703125000000000e-01
1.216125488281250000e-01
1.220703125000000000e-01
1.222229003906250000e-01
1.222229003906250000e-01
1.210021972656250000e-01
1.200866699218750000e-01
1.187133789062500000e-01
1.167297363281250000e-01
1.144409179687500000e-01
1.112365722656250000e-01
1.074218750000000000e-01
1.048278808593750000e-01
1.020812988281250000e-01
9.979248046875000000e-02
9.719848632812500000e-02
9.582519531250000000e-02
9.460449218750000000e-02
9.338378906250000000e-02
9.277343750000000000e-02
9.292602539062500000e-02
9.277343750000000000e-02
9.368896484375000000e-02
9.475708007812500000e-02
9.597778320312500000e-02
9.841918945312500000e-02
9.963989257812500000e-02
1.007080078125000000e-01
1.023864746093750000e-01
1.033020019531250000e-01
1.045227050781250000e-01
1.057434082031250000e-01
1.071166992187500000e-01
1.071166992187500000e-01
1.083374023437500000e-01
1.092529296875000000e-01
1.098632812500000000e-01
1.097106933593750000e-01
1.097106933593750000e-01
1.095581054687500000e-01
1.098632812500000000e-01
1.100158691406250000e-01
1.089477539062500000e-01
1.068115234375000000e-01
1.046752929687500000e-01
1.022338867187500000e-01
9.979248046875000000e-02
9.750366210937500000e-02
9.490966796875000000e-02
9.246826171875000000e-02
9.002685546875000000e-02
8.743286132812500000e-02
8.514404296875000000e-02
8.361816406250000000e-02
8.316040039062500000e-02
8.300781250000000000e-02
8.316040039062500000e-02
8.331298828125000000e-02
8.407592773437500000e-02
8.483886718750000000e-02
8.636474609375000000e-02
8.834838867187500000e-02
9.063720703125000000e-02
9.246826171875000000e-02
9.368896484375000000e-02
9.475708007812500000e-02
9.613037109375000000e-02
9.719848632812500000e-02
9.719848632812500000e-02
9.857177734375000000e-02
9.979248046875000000e-02
9.963989257812500000e-02
1.011657714843750000e-01
1.019287109375000000e-01
1.022338867187500000e-01
1.025390625000000000e-01
1.020812988281250000e-01
1.023864746093750000e-01
1.028442382812500000e-01
1.014709472656250000e-01
9.979248046875000000e-02
9.796142578125000000e-02
9.567260742187500000e-02
9.445190429687500000e-02
9.246826171875000000e-02
9.002685546875000000e-02
8.743286132812500000e-02
8.514404296875000000e-02
8.239746093750000000e-02
8.087158203125000000e-02
8.087158203125000000e-02
8.041381835937500000e-02
8.056640625000000000e-02
8.041381835937500000e-02
8.148193359375000000e-02
8.239746093750000000e-02
8.331298828125000000e-02
8.590698242187500000e-02
8.743286132812500000e-02
8.850097656250000000e-02
9.078979492187500000e-02
9.201049804687500000e-02
9.353637695312500000e-02
9.460449218750000000e-02
9.521484375000000000e-02
9.613037109375000000e-02
9.704589843750000000e-02
9.857177734375000000e-02
9.979248046875000000e-02
1.002502441406250000e-01
1.011657714843750000e-01
1.020812988281250000e-01
1.025390625000000000e-01
1.026916503906250000e-01
1.019287109375000000e-01
1.008605957031250000e-01
9.933471679687500000e-02
9.857177734375000000e-02
9.689331054687500000e-02
9.506225585937500000e-02
9.277343750000000000e-02
9.109497070312500000e-02
8.956909179687500000e-02
8.758544921875000000e-02
8.605957031250000000e-02
8.560180664062500000e-02
8.544921875000000000e-02
8.514404296875000000e-02
8.529663085937500000e-02
8.636474609375000000e-02
8.850097656250000000e-02
8.972167968750000000e-02
9.124755859375000000e-02
9.307861328125000000e-02
9.506225585937500000e-02
9.704589843750000000e-02
9.811401367187500000e-02
1.004028320312500000e-01
1.020812988281250000e-01
1.034545898437500000e-01
1.042175292968750000e-01
1.045227050781250000e-01
1.057434082031250000e-01
1.071166992187500000e-01
1.072692871093750000e-01
1.074218750000000000e-01
1.084899902343750000e-01
1.098632812500000000e-01
1.094055175781250000e-01
1.086425781250000000e-01
1.078796386718750000e-01
1.075744628906250000e-01
1.077270507812500000e-01
1.074218750000000000e-01
1.011657714843750000e-01
9.414672851562500000e-02
9.124755859375000000e-02
9.048461914062500000e-02
9.140014648437500000e-02
9.246826171875000000e-02
9.368896484375000000e-02
9.552001953125000000e-02
9.719848632812500000e-02
9.857177734375000000e-02
1.002502441406250000e-01
1.019287109375000000e-01
1.033020019531250000e-01
1.045227050781250000e-01
1.055908203125000000e-01
1.066589355468750000e-01
1.072692871093750000e-01
1.071166992187500000e-01
1.083374023437500000e-01
1.092529296875000000e-01
1.100158691406250000e-01
1.097106933593750000e-01
1.098632812500000000e-01
1.098632812500000000e-01
1.089477539062500000e-01
1.078796386718750000e-01
1.063537597656250000e-01
1.049804687500000000e-01
1.042175292968750000e-01
1.020812988281250000e-01
1.008605957031250000e-01
1.000976562500000000e-01
9.933471679687500000e-02
9.719848632812500000e-02
9.521484375000000000e-02
9.246826171875000000e-02
9.002685546875000000e-02
8.773803710937500000e-02
8.499145507812500000e-02
8.331298828125000000e-02
8.224487304687500000e-02
8.117675781250000000e-02
8.071899414062500000e-02
8.041381835937500000e-02
8.132934570312500000e-02
8.255004882812500000e-02
8.316040039062500000e-02
8.407592773437500000e-02
8.483886718750000000e-02
8.514404296875000000e-02
8.529663085937500000e-02
8.575439453125000000e-02
8.529663085937500000e-02
8.560180664062500000e-02
8.575439453125000000e-02
8.468627929687500000e-02
8.346557617187500000e-02
