3.411638141614080633e-01
3.386217111024631410e-01
3.351372561585546084e-01
3.306954892272021551e-01
3.252817017861976412e-01
3.188811982000713807e-01
3.114791006949972907e-01
3.030602062042761502e-01
2.936089022224039891e-01
2.831091480887645284e-01
2.715445265182917511e-01
2.588983691746450377e-01
2.451539585068518434e-01
2.302948064605409018e-01
2.143050091838133997e-01
1.971696751818817483e-01
1.788754226467164088e-01
1.594109402090711225e-01
1.387676038059571515e-01
1.169401407396675752e-01
9.392733071376009601e-02
6.973273255297236795e-02
4.436542411830630278e-02
1.784074196337881099e-02
-9.818993051607168010e-03
-3.858377879523441217e-02
-6.841527802393558566e-02
-9.926622225603187744e-02
-1.310798876421755410e-01
-1.637896564229487095e-01
-1.973186769207786184e-01
-2.315796339775259283e-01
-2.664746402150068305e-01
-3.018952572595405281e-01
-3.377226543515839952e-01
-3.738279096916752309e-01
-4.100724581347165998e-01
-4.463086865615555343e-01
-4.823806761279531563e-01
-5.181250882272060432e-01
-5.533721889092986235e-01
-5.879470040879288817e-01
-6.216705957021951834e-01
-6.543614471522479770e-01
-6.858369439421835301e-01
-7.159149340137894724e-01
-7.444153505339360377e-01
-7.711618784896738799e-01
-7.959836452662052420e-01
-8.187169146697022004e-01
-8.392067630854812554e-01
-8.573087163935168009e-01
-8.728903261372119582e-01
-8.858326638543958520e-01
-8.960317131296715587e-01
-9.033996398156399765e-01
-9.078659222963859632e-01
-9.093783251740178430e-01
-9.079037013443539417e-01
-9.034286097421158068e-01
-8.959597381566052343e-01
-8.855241230414135911e-01
-8.721691606197379265e-01
-8.559624064741176985e-01
-8.369911634577221760e-01
-8.153618605469489244e-01
-7.911992279506609993e-01
-7.646452765832174592e-01
-7.358580925312588894e-01
-7.050104597433487497e-01
-6.722883263637198237e-01
-6.378891322007643749e-01
-6.020200167893899890e-01
-5.648959290004975653e-01
-5.267376605457045891e-01
-4.877698266330071641e-01
-4.482188178414751589e-01
-4.083107474583584362e-01
-3.682694186025768923e-01
-3.283143352035345353e-01
-2.886587801282498589e-01
-2.495079828077533257e-01
-2.110573974976733547e-01
-1.734911115614035104e-01
-1.369804014986635010e-01
-1.016824523417137333e-01
-6.773925356489647609e-02
-3.527668257847359212e-02
-4.403783963213614427e-03
2.478774991201038863e-02
5.222389395930369244e-02
7.784840088526791269e-02
1.016227098400545037e-01
1.235256582719769514e-01
1.435530046691429751e-01
1.617167723755525144e-01
1.780444267094941635e-01
1.925778997548568405e-01
2.053724788907754784e-01
2.164955767902833894e-01
2.260254016648727271e-01
2.340495476732308844e-01
2.406635259112236414e-01
2.459692568485238040e-01
2.500735451462781089e-01
2.530865574658416883e-01
2.551203233623750566e-01
2.562872785535246778e-01
2.566988685708521678e-01
2.564642298455755420e-01
2.556889633199028178e-01
2.544740141416640955e-01
2.529146690874281567e-01
2.510996812871686967e-01
2.491105297586721223e-01
2.470208189950690580e-01
2.448958215075688338e-01
2.427921645470906831e-01
2.407576593349589344e-01
2.388312696411403202e-01
2.370432143110670908e-01
2.354151965189928419e-01
2.339607508569688799e-01
2.326856979896115563e-01
2.315886951760038059e-01
2.306618698730684980e-01
2.298915228495876373e-01
2.292588867332632785e-01
2.287409253849603807e-01
2.283111593807686246e-01
2.279405031115999403e-01
2.275980992992121532e-01
2.272521372562352204e-01
2.268706419412232778e-01
2.264222220690335352e-01
2.258767663350749466e-01
2.252060781449005122e-01
2.243844407817582876e-01
2.233891063077246275e-01
2.222007028381899341e-01
2.208035568383757141e-01
2.191859282036068002e-01
2.173401577659623274e-01
2.152627282506444917e-01
2.129542411489496745e-01
2.104193135087267519e-01
2.076663996384041921e-01
2.047075440682320779e-01
2.015580729530309645e-01
1.982362320425699598e-01
1.947627799473587995e-01
1.911605458868521346e-01
1.874539614630318929e-01
1.836685761613150725e-01
1.798305661522063004e-01
1.759662458860645207e-01
1.721015914291624260e-01
1.682617842661965346e-01
1.644707831385936736e-01
1.607509313222811875e-01
1.571226054795053784e-01
1.536039112826942665e-01
1.502104301443241141e-01
1.469550202120192828e-01
1.438476736911304399e-01
1.408954313776234757e-01
1.381023545211813308e-01
1.354695525250338428e-01
1.329952646186688681e-01
1.306749922458268487e-01
1.285016782849430772e-01
1.264659282865585599e-01
1.245562686154174786e-01
1.227594353795674748e-01
1.210606880097695875e-01
1.194441409813336158e-01
1.178931068416693706e-01
1.163904439870665775e-01
1.149189023778088709e-01
1.134614609766213256e-01
1.120016507330759969e-01
1.105238575647314869e-01
1.090136001746731531e-01
1.074577782336561815e-01
1.058448871294321303e-01
1.041651962322881486e-01
1.024108882511709784e-01
1.005761582707231927e-01
9.865727167111483509e-02
9.665258095405160343e-02
9.456250237122107438e-02
9.238945380901353310e-02
9.013775629018828950e-02
8.781350181592960380e-02
8.542439097937067072e-02
8.297954431646244189e-02
8.048929155596595830e-02
7.796494344877334670e-02
7.541855085688509153e-02
7.286265604443999122e-02
7.031004109318318707e-02
6.777347824062954218e-02
6.526548683773869541e-02
6.279810132850363602e-02
6.038265435117658869e-02
5.802957878114898410e-02
5.574823179818463870e-02
5.354674388032365506e-02
5.143189485052534343e-02
4.940901877837836076e-02
4.748193855591370527e-02
4.565293086621532992e-02
4.392272131467404167e-02
4.229050909741197822e-02
4.075402002980933053e-02
3.930958609288984912e-02
3.795224943038249393e-02
3.667588825402018360e-02
3.547336163918122370e-02
3.433667003200165796e-02
3.325712802225976039e-02
3.222554594539446537e-02
3.123241646313396416e-02
3.026810260218517137e-02
2.932302366530242441e-02
2.838783552285604334e-02
2.745360205324038835e-02
2.651195468090438920e-02
2.555523733361859604e-02
2.457663442225248643e-02
2.357027996025406677e-02
2.253134603196405711e-02
2.145610964155861625e-02
2.034199713679197760e-02
1.918760601007108921e-02
1.799270408197925844e-02
1.675820684272511657e-02
1.548613377022116204e-02
1.417954508921731929e-02
1.284246053670575101e-02
1.147976225764875055e-02
1.009708393727334376e-02
8.700688656882074601e-03
7.297338044195576454e-03
5.894155394022135980e-03
4.498485537601669762e-03
3.117754037613444835e-03
1.759328506928237775e-03
4.303845782075996023e-04
-8.622211741608677314e-04
-2.112069096974000283e-03
-3.313283117638876271e-03
-4.460624532929071372e-03
-5.549571461981612358e-03
-6.576383019737919514e-03
-7.538147212028228558e-03
-8.432812224923934979e-03
-9.259200964038928963e-03
-1.001700895345530688e-02
-1.070678630282935299e-02
-1.132990430182655335e-02
-1.188850781135533836e-02
-1.238545477364787033e-02
-1.282424432271483776e-02
-1.320893524250982623e-02
-1.354405650890421614e-02
-1.383451184908493503e-02
-1.408548040908756856e-02
-1.430231545161590213e-02
-1.449044315988040621e-02
-1.465526326622133661e-02
-1.480205364949544605e-02
-1.493588031684191068e-02
-1.506151459163807861e-02
-1.518335870455920882e-02
-1.530538101731324964e-02
-1.543106184201493807e-02
-1.556335063113079877e-02
-1.570463492287614907e-02
-1.585672132371799409e-02
-1.602082850275117487e-02
-1.619759201202119331e-02
-1.638708045353342788e-02
-1.658882231061028362e-02
-1.680184257149872420e-02
-1.702470818137324232e-02
-1.725558109296884343e-02
-1.749227758466768631e-02
-1.773233259493901121e-02
-1.797306754377579752e-02
-1.821166016762180290e-02
-1.844521495847112336e-02
-1.867083278753152789e-02
-1.888567823158691927e-02
-1.908704337752144264e-02
-1.927240692536231689e-02
-1.943948745707660061e-02
-1.958629000751381868e-02
-1.971114513887238517e-02
-1.981273994561382618e-02
-1.989014057152109147e-02
-1.994280593179220684e-02
-1.997059272874774499e-02
-1.997375172145758604e-02
-1.995291564296701459e-02
-1.990907915977229922e-02
-1.984357157055092677e-02
-1.975802285071864492e-02
-1.965432393893695381e-02
-1.953458223241231334e-02
-1.940107333182404872e-02
-1.925618999458095920e-02
-1.910238946186685813e-02
-1.894214034147709974e-02
-1.877787005661396211e-02
-1.861191385259722622e-02
-1.844646654963161964e-02
-1.828353774993528302e-02
-1.812491151386873972e-02
-1.797211114125173495e-02
-1.782636972914020124e-02
-1.768860691328665025e-02
-1.755941226983174022e-02
-1.743903550731472699e-02
-1.732738356151956177e-02
-1.722402443228751578e-02
-1.712819777299854490e-02
-1.703883174780546420e-02
-1.695456578891793575e-02
-1.687377867564842163e-02
-1.679462137423649165e-02
-1.671505386777643806e-02
-1.663288522913793435e-02
-1.654581594815340145e-02
-1.645148195923037612e-02
-1.634749924760999992e-02
-1.623150828380223731e-02
-1.610121740649967867e-02
-1.595444435883018944e-02
-1.578915517812395225e-02
-1.560349981129303780e-02
-1.539584378662025958e-02
-1.516479544094388558e-02
-1.490922820525853940e-02
-1.462829770562918547e-02
-1.432145334071130947e-02
-1.398844435337353448e-02
-1.362932021692995696e-02
-1.324442552618305610e-02
-1.283438954101964388e-02
-1.240011071275514895e-02
-1.194273650024236383e-02
-1.146363901597318921e-02
-1.096438694374447624e-02
-1.044671436799893445e-02
-9.912487029377843248e-03
-9.363666822415461777e-03
-8.802275099041110412e-03
-8.230355483133706615e-03
-7.649936921280133320e-03
-7.062997605541459535e-03
-6.471430318085931097e-03
-5.877009914131391122e-03
-5.281363409214753953e-03
-4.685943195123267943e-03
-4.092003713523695296e-03
-3.500582068969783790e-03
-2.912482633953490923e-03
-2.328266093325850796e-03
-1.748242808511572257e-03
-1.172470609337726219e-03
-6.007569801666053566e-04
-3.266548333539292192e-05
5.324737853915518116e-04
1.095550007823349213e-03
1.657654010761629377e-03
2.220057462561994890e-03
2.784189599069715991e-03
3.351611654138839450e-03
3.923989663269074335e-03
4.503066001212220441e-03
5.090630257335949059e-03
5.688489861274300709e-03
6.298441034366551380e-03
6.922240444012200782e-03
7.561578094654068660e-03
8.218051714924038895e-03
8.893143157342254732e-03
9.588197006177769793e-03
1.030440176186146750e-02
1.104277377700422016e-02
1.180414398386451548e-02
1.258914769153270628e-02
1.339821740063443581e-02
1.423157858518859543e-02
1.508924854064651495e-02
1.597103800073888455e-02
1.687655548478950510e-02
1.780521415557904247e-02
1.875624096245425906e-02
1.972868778848646185e-02
2.072144436457487582e-02
2.173325258191790427e-02
2.276272199976163771e-02
2.380834612517749097e-02
2.486851923033851428e-02
2.594155341567265863e-02
2.702569553650276471e-02
2.811914384863792998e-02
2.922006402506063805e-02
3.032660438706067524e-02
3.143691012263884199e-02
3.254913639143986598e-02
3.366146009615773177e-02
3.477209027766484800e-02
3.587927706324924026e-02
3.698131917700377136e-02
3.807656995187676252e-02
3.916344196911339393e-02
4.024041032339920054e-02
4.130601463874868096e-02
4.235885990410061253e-02
4.339761627475726552e-02
4.442101798565161602e-02
4.542786153781715186e-02
4.641700341220370701e-02
4.738735724612122557e-02
4.833789080026758278e-02
4.926762287349609887e-02
5.017562019441015875e-02
5.106099457648657913e-02
5.192290028675604352e-02
5.276053189588292974e-02
5.357312259451948305e-02
5.435994298211927617e-02
5.512030053707001054e-02
5.585353962663115734e-02
5.655904217573001769e-02
5.723622885655127446e-02
5.788456088214884859e-02
5.850354221549653594e-02
5.909272223408702090e-02
5.965169868458044394e-02
6.018012084561188968e-02
6.067769275306903604e-02
6.114417653214743870e-02
6.157939550044109339e-02
6.198323709214491328e-02
6.235565535140416560e-02
6.269667301074707821e-02
6.300638303161133769e-02
6.328494941660674222e-02
6.353260732726510873e-02
6.374966243198362803e-02
6.393648940577488504e-02
6.409352949428059887e-02
6.422128729675459502e-02
6.432032657609866588e-02
6.439126526336022560e-02
6.443476965178895899e-02
6.445154786979995221e-02
6.444234263261296169e-02
6.440792338204529011e-02
6.434907798269980106e-02
6.426660396741426529e-02
6.416129960569939839e-02
6.403395474664250187e-02
6.388534167955678411e-02
6.371620609590993023e-02
6.352725825963036199e-02
6.331916458000405590e-02
6.309253966993133567e-02
6.284793886909059712e-02
6.258585151046731909e-02
6.230669495835654964e-02
6.201080945217450624e-02
6.169845387369956441e-02
6.136980235710437492e-02
6.102494197251003699e-02
6.066387130813405415e-02
6.028650003061484380e-02
5.989264940450834962e-02
5.948205367411862898e-02
5.905436240841363538e-02
5.860914352970689883e-02
5.814588720283193207e-02
5.766401028816669355e-02
5.716286142596589681e-02
5.664172656606068085e-02
5.609983490857572280e-02
5.553636513420659448e-02
5.495045184995176607e-02
5.434119209862978833e-02
5.370765192762955165e-02
5.304887286332323620e-02
5.236387830853494324e-02
5.165167964669977602e-02
5.091128218553922502e-02
5.014169077750513237e-02
4.934191509078466459e-02
4.851097451800490123e-02
4.764790283109084784e-02
4.675175237943107742e-02
4.582159802757200529e-02
4.485654069649934461e-02
4.385571072868817838e-02
4.281827100101213285e-02
4.174341983560394403e-02
4.063039382307679498e-02
3.947847054082337381e-02
3.828697131618109123e-02
3.705526408901444607e-02
3.578276631087949633e-02
3.446894808884586742e-02
3.311333555476300011e-02
3.171551450495713187e-02
3.027513434628189767e-02
2.879191241964288578e-02
2.726563864949407140e-02
2.569618054642747867e-02
2.408348861757044976e-02
2.242760201489765043e-02
2.072865457405463629e-02
1.898688104924247180e-02
1.720262353284801593e-02
1.537633795091925167e-02
1.350860063537451597e-02
1.160011480491807308e-02
9.651716922970040094e-03
7.664382667259613847e-03
5.639232566850829395e-03
3.577537112099014090e-03
1.480721218159836497e-03
-6.496321061399068985e-04
-2.811778914802090870e-03
-5.003812517517690003e-03
-7.223662763011794857e-03
-9.469096485258572671e-03
-1.173771923185521100e-02
-1.402697836743728443e-02
-1.633416756841483269e-02
-1.865643271590827768e-02
-2.099077927062724391e-02
-2.333408117544606697e-02
-2.568309109218460534e-02
-2.803445213101077305e-02
-3.038471091977408903e-02
-3.273033196049068144e-02
-3.506771318236823892e-02
-3.739320248282557158e-02
-3.970311532749380007e-02
-4.199375314946909160e-02
-4.426142230502724817e-02
-4.650245356269008812e-02
-4.871322179584881146e-02
-5.089016594232102092e-02
-5.302980873025228692e-02
-5.512877614574115265e-02
-5.718381650221932705e-02
-5.919181875108200930e-02
-6.114982985663586224e-02
-6.305507119144325434e-02
-6.490495375638306863e-02
-6.669709194579474809e-02
-6.842931577546454425e-02
-7.009968147472744882e-02
-7.170648021405175154e-02
-7.324824504845715845e-02
-7.472375590476042218e-02
-7.613204254980600327e-02
-7.747238550415848357e-02
-7.874431496539986697e-02
-7.994760771808463728e-02
-8.108228204128212213e-02
-8.214859069705274242e-02
-8.314701212093779381e-02
-8.407823984498609404e-02
-8.494317026892568567e-02
-8.574288904427873614e-02
-8.647865610449259610e-02
-8.715188950117637445e-02
-8.776414829020609543e-02
-8.831711460953969861e-02
-8.881257520795321492e-02
-8.925240250627906879e-02
-8.963853550763990763e-02
-8.997296065285365074e-02
-9.025769293657057157e-02
-9.049475735657060149e-02
-9.068617087210426031e-02
-9.083392524155629866e-02
-9.093997062930397890e-02
-9.100620029324918425e-02
-9.103443643886385828e-02
-9.102641747603107403e-02
-9.098378655440234053e-02
-9.090808162992568275e-02
-9.080072708624770117e-02
-9.066302696900029046e-02
-9.049615982880324094e-02
-9.030117519888000710e-02
-9.007899171423995599e-02
-8.983039686369606591e-02
-8.955604826247792749e-02
-8.925647648094200970e-02
-8.893208924281195693e-02
-8.858317702671088256e-02
-8.820991987769304099e-02
-8.781239545010753600e-02
-8.739058794898371674e-02
-8.694439809030578281e-02
-8.647365370768336779e-02
-8.597812105661339910e-02
-8.545751660475683908e-02
-8.491151918068770565e-02
-8.433978229633833090e-02
-8.374194657398784103e-02
-8.311765214182983974e-02
-8.246655077026572578e-02
-8.178831773822653473e-02
-8.108266326078797381e-02
-8.034934329891993410e-02
-7.958816978368918327e-02
-7.879902012176669135e-02
-7.798184582200867743e-02
-7.713668027970617402e-02
-7.626364551908351719e-02
-7.536295798147521485e-02
-7.443493323909483594e-02
-7.347998956497189815e-02
-7.249865048851596161e-02
-7.149154619819515777e-02
-7.045941378710811331e-02
-6.940309643699640874e-02
-6.832354155191794343e-02
-6.722179773565468974e-02
-6.609901087185524049e-02
-6.495641916354528977e-02
-6.379534725757531055e-02
-6.261719953966736474e-02
-6.142345267077076176e-02
-6.021564736042486071e-02
-5.899537956755358109e-02
-5.776429115527555169e-02
-5.652406002521061928e-02
-5.527638998401949999e-02
-5.402300030551458743e-02
-5.276561508082072000e-02
-5.150595255972741787e-02
-5.024571442066970428e-02
-4.898657527991662208e-02
-4.773017234271421244e-02
-4.647809540477008255e-02
-4.523187725902082235e-02
-4.399298458693250841e-02
-4.276280941733037050e-02
-4.154266126366139289e-02
-4.033376000792621152e-02
-3.913722954906291573e-02
-3.795409233595881809e-02
-3.678526482561678829e-02
-3.563155390498722735e-02
-3.449365427630748243e-02
-3.337214689303658749e-02
-3.226749842059407902e-02
-3.118006171120098896e-02
-3.011007734594785615e-02
-2.905767619460549248e-02
-2.802288295950688610e-02
-2.700562068623960782e-02
-2.600571617903408780e-02
-2.502290623760959620e-02
-2.405684473970871873e-02
-2.310711034716280560e-02
-2.217321492050843348e-02
-2.125461240096328600e-02
-2.035070819445908979e-02
-1.946086882221974637e-02
-1.858443177919666400e-02
-1.772071554349212083e-02
-1.686902953470476724e-02
-1.602868398472668751e-02
-1.519899955622026205e-02
-1.437931656728509006e-02
-1.356900380934364901e-02
-1.276746682361426001e-02
-1.197415540390571465e-02
-1.118857049460706375e-02
-1.041027017924023301e-02
-9.638874769162031342e-03
-8.874070991097611494e-03
-8.115615164914739485e-03
-7.363335302547593247e-03
-6.617132218256372572e-03
-5.876979568800809461e-03
-5.142922821004769669e-03
-4.415077273522922084e-03
-3.693625034119410715e-03
-2.978811112559947086e-03
-2.270938612133935677e-03
-1.570363180077828050e-03
-8.774866790562974332e-04
-1.927503847517738668e-04
4.833724216608218521e-04
1.150384203569214609e-03
1.807771187493563544e-03
2.455011508411316084e-03
3.091583408702381578e-03
3.716973248019425895e-03
4.330683426835423011e-03
4.932239822764838619e-03
5.521198827292063578e-03
6.097153868066397531e-03
6.659741213026903681e-03
7.208645088707178392e-03
7.743601938133967341e-03
8.264403791012618281e-03
8.770900838327563495e-03
9.263002891691534194e-03
9.740680001785784886e-03
1.020396206619226739e-02
1.065293750655004097e-02
1.108775099773585612e-02
1.150860039560703402e-02
1.191573281773225523e-02
1.230943998067060043e-02
1.269005287319658996e-02
1.305793594122386242e-02
1.341348078115911849e-02
1.375709944413137410e-02
1.408921763301375710e-02
1.441026773499297885e-02
1.472068185362458530e-02
1.502088500551775237e-02
1.531128865476982792e-02
1.559228450903328567e-02
1.586423881861011992e-02
1.612748731100954389e-02
1.638233077317201650e-02
1.662903127678024354e-02
1.686780936565675237e-02
1.709884197135934022e-02
1.732226125240287143e-02
1.753815434355157632e-02
1.774656397105537839e-02
1.794748998790467176e-02
1.814089175154924224e-02
1.832669130699638230e-02
1.850477728877445924e-02
1.867500955140921279e-02
1.883722432971455044e-02
1.899123993337425292e-02
1.913686282524653878e-02
1.927389393817997496e-02
1.940213510317812667e-02
1.952139562003724418e-02
1.963149866976622582e-02
1.973228757467990549e-02
1.982363161807329868e-02
1.990543150249529311e-02
1.997762428907293858e-02
2.004018765149178857e-02
2.009314346746548380e-02
2.013656056518859511e-02
2.017055664211377108e-02
2.019529926454938576e-02
2.021100606614661607e-02
2.021794386090825998e-02
2.021642704345392311e-02
2.020681492850929378e-02
2.018950833519483901e-02
2.016494533415183130e-02
2.013359629341914675e-02
2.009595826232110291e-02
2.005254884839078808e-02
2.000389964660125725e-02
1.995054930503727120e-02
1.989303641775245005e-02
1.983189228901099596e-02
1.976763383852881556e-02
1.970075659938853169e-02
1.963172801747499127e-02
1.956098117154526916e-02
1.948890898665690471e-02
1.941585913858678500e-02
1.934212963899877707e-02
1.926796520553834824e-02
1.919355449769880387e-02
1.911902828518651301e-02
1.904445856036326989e-02
1.896985864985738582e-02
1.889518424834744220e-02
1.882033542274839585e-02
1.874515955184557353e-02
1.866945513252063482e-02
1.859297641239415419e-02
1.851543873985863828e-02
1.843652456679439888e-02
1.835588998326089655e-02
1.827317168407232781e-02
1.818799425375173737e-02
1.809997764372376500e-02
1.800874467670579571e-02
1.791392850766440961e-02
1.781517986793117528e-02
1.771217408622400430e-02
1.760461752178294273e-02
1.749225352534640801e-02
1.737486776370587155e-02
1.725229279111206368e-02
1.712441176816617908e-02
1.699116137588863387e-02
1.685253380296020814e-02
1.670857774927021061e-02
1.655939848925229094e-02
1.640515695800505783e-02
1.624606793424293941e-02
1.608239738425495252e-02
1.591445886549703800e-02
1.574260919277580689e-02
1.556724345687487271e-02
1.538878940471731342e-02
1.520770130634497945e-02
1.502445348475062517e-02
1.483953362045009085e-02
1.465343586906208383e-02
1.446665394737531828e-02
1.427967434870347149e-02
1.409296979161346608e-02
1.390699300419622093e-02
1.372217102700861932e-02
1.353889992490522193e-02
1.335754027575337434e-02
1.317841331585362617e-02
1.300179787041294208e-02
1.282792806597434811e-02
1.265699201975760413e-02
1.248913129025814098e-02
1.232444123942023906e-02
1.216297221845742856e-02
1.200473161277202522e-02
1.184968653061345238e-02
1.169776732283871364e-02
1.154887165925624383e-02
1.140286913340230607e-02
1.125960631947108340e-02
1.111891209860880504e-02
1.098060326186165239e-02
1.084449012432492192e-02
1.071038209552960772e-02
1.057809314061435024e-02
1.044744699389226275e-02
1.031828193921792945e-02
1.019045506652152544e-02
1.006384593211132571e-02
9.938359663736365257e-03
9.813929193777194693e-03
9.690516738846128089e-03
9.568114435736872758e-03
9.446744092806448265e-03
9.326456128320809169e-03
9.207327546944721677e-03
9.089459124135945700e-03
8.972971786531714483e-03
8.858002281534976124e-03
8.744698166109839826e-03
8.633212209417167118e-03
8.523696316419748786e-03
8.416295121253965922e-03
8.311139338364513865e-03
8.208339046516185261e-03
8.107976916761131664e-03
8.010101689612851572e-03
7.914721861506613873e-03
7.821799870723492379e-03
7.731246824692073957e-03
7.642917910024689225e-03
7.556608569973847014e-03
7.472051643381036334e-03
7.388915397080101678e-03
7.306802639903000642e-03
7.225250937010383248e-03
7.143733969742088047e-03
7.061664033373933440e-03
6.978395677782658207e-03
6.893230488671775978e-03
6.805422979602643134e-03
6.714187478611521875e-03
6.618705954757173396e-03
6.518136765015004365e-03
6.411624088972570946e-03
6.298307987290623772e-03
6.177334954045337126e-03
6.047868853265525591e-03
5.909101986818009189e-03
5.760266183344123735e-03
5.600643809490019054e-03
5.429578414351724815e-03
5.246484985568654509e-03
5.050859516543459472e-03
4.842287886514311419e-03
4.620453812880668219e-03
4.385145751842279421e-03
4.136262717803452886e-03
3.873818835513695782e-03
3.597946570668766452e-03
3.308898616564579561e-03
3.007048381106101551e-03
2.692889006823706056e-03
2.367030978703296359e-03
2.030198307445022551e-03
1.683223416830516902e-03
1.327040599710347822e-03
9.626783242337168213e-04
5.912503719919827688e-04
2.139460421640842504e-04
-1.679806594431081123e-04
-5.532224758713759653e-04
-9.404310056731155507e-04
-1.328229226617990430e-03
-1.715224385590252872e-03
-2.100020897649463193e-03
-2.481233241636428104e-03
-2.857498587502461159e-03
-3.227489108653036707e-03
-3.589923686311552800e-03
-3.943579079251090941e-03
-4.287300166444006112e-03
-4.620009302897657918e-03
-4.940714612435570703e-03
-5.248517212596850133e-03
-5.542617196853709231e-03
-5.822318376547355734e-03
-6.087031714698184874e-03
-6.336277585757174938e-03
-6.569686581476878728e-03
-6.786999145766883096e-03
-6.988063906195623835e-03
-7.172834879575466609e-03
-7.341367532705016935e-03
-7.493813838606132663e-03
-7.630416399832945507e-03
-7.751501779885251915e-03
-7.857473123384946592e-03
-7.948802233251568705e-03
-8.026021185256285509e-03
-8.089713700385926451e-03
-8.140506271211026337e-03
-8.179059348960873027e-03
-8.206058620988439939e-03
-8.222206477425912305e-03
-8.228213837207766501e-03
-8.224792483063755530e-03
-8.212647889339206447e-03
-8.192472701290004489e-03
-8.164940914442909287e-03
-8.130702873950509252e-03
-8.090381060749109524e-03
-8.044566721032205686e-03
-7.993817364810622966e-03
-7.938655090196554409e-03
-7.879565748724014912e-03
-7.816998946154344458e-03
-7.751368800202614040e-03
-7.683055396209942725e-03
-7.612406846270985093e-03
-7.539741950486401369e-03
-7.465353275540292065e-03
-7.389510688265684205e-03
-7.312465092378925453e-03
-7.234452381998573121e-03
-7.155697500638390045e-03
-7.076418426845230286e-03
-6.996830107576368710e-03
-6.917148078673219548e-03
-6.837591892878441824e-03
-6.758388102635142294e-03
-6.679772753519654278e-03
-6.601993445285471267e-03
-6.525310738396551680e-03
-6.449999049296128474e-03
-6.376346793444702052e-03
-6.304655954899655163e-03
-6.235240968841335683e-03
-6.168426986692770314e-03
-6.104547491004114201e-03
-6.043941328212116930e-03
-5.986949163762913043e-03
-5.933909540648957259e-03
-5.885154435745975840e-03
-5.841004551396634416e-03
-5.801764311688127618e-03
-5.767716645722459866e-03
-5.739117756682357574e-03
-5.716191916907389231e-03
-5.699126281488947274e-03
-5.688065962267397670e-03
-5.683109412314409602e-03
-5.684304184322002372e-03
-5.691643175619191634e-03
-5.705061340932468875e-03
-5.724433147881618535e-03
-5.749570598000671405e-03
-5.780222018393523474e-03
-5.816071663269193823e-03
-5.856740023490450073e-03
-5.901784985345017581e-03
-5.950703810550169413e-03
-6.002935893056108273e-03
-6.057866313036967300e-03
-6.114830129383984347e-03
-6.173117411479712817e-03
-6.231978867600801962e-03
-6.290632113291361530e-03
-6.348268459798205379e-03
-6.404060060439779531e-03
-6.457167432123499945e-03
-6.506747278111255604e-03
-6.551960384249141088e-03
-6.591979626120647064e-03
-6.625997908007611598e-03
-6.653236001115261401e-03
-6.672950087138466990e-03
-6.684438949820904231e-03
-6.687050763028312347e-03
-6.680189376159163285e-03
-6.663320057226085336e-03
-6.635974517090793140e-03
-6.597755242500164333e-03
-6.548339083659185725e-03
-6.487479989135117552e-03
-6.415011019260614782e-03
-6.330845429910641683e-03
-6.234976916781047492e-03
-6.127479044917357072e-03
-6.008503831776489806e-03
-5.878279582740177436e-03
-5.737107906549973081e-03
-5.585360087116108749e-03
-5.423472727630704315e-03
-5.251942875831578164e-03
-5.071322575878139949e-03
-4.882213019153544900e-03
-4.685258307675321289e-03
-4.481138936913508543e-03
-4.270565071735476538e-03
-4.054269751435517211e-03
-3.833002026672569819e-03
-3.607520115588467094e-03
-3.378584729248343150e-03
-3.146952622658268865e-03
-2.913370384868792847e-03
-2.678568578010942589e-03
-2.443256225700276164e-03
-2.208115843218673782e-03
-1.973798881885482307e-03
-1.740921670278491222e-03
-1.510061958390056377e-03
-1.281755925027191654e-03
-1.056495792658141124e-03
-8.347280097460608051e-04
-6.168519722300489297e-04
-4.032193227035068368e-04
-1.941337021890691310e-04
1.014895559894643038e-05
2.094197965394075614e-04
4.035158727576470378e-04
5.923186626575549030e-04
7.757522502220987872e-04
9.537812465295258599e-04
1.126408462056622531e-03
1.293672379074715679e-03
1.455644467514894931e-03
1.612426494205203590e-03
1.764147671375047334e-03
1.910961821025133596e-03
2.053044538810773739e-03
2.190590345455360570e-03
2.323809993629082256e-03
2.452927724059947127e-03
2.578178704624188404e-03
2.699806508851847718e-03
2.818060715326313644e-03
2.933194592791328690e-03
3.045462842034892415e-03
3.155119515187378067e-03
3.262415883946985333e-03
3.367598433581643971e-03
3.470906890296405339e-03
3.572572256979165799e-03
3.672814890582070703e-03
3.771842558775171175e-03
3.869848474526603292e-03
3.967009343499436000e-03
4.063483320667492238e-03
4.159407972394341645e-03
4.254898212780240489e-03
4.350044192561517906e-03
4.444909155518901069e-03
4.539527344578232065e-03
4.633901963044808128e-03
4.728003118234430646e-03
4.821765855310061050e-03
4.915088347663228684e-03
5.007830256715097537e-03
5.099811308711297078e-03
5.190810068642810748e-03
5.280563042515892119e-03
5.368764211342659347e-03
5.455064899383370650e-03
5.539074100727215365e-03
5.620359317181093141e-03
5.698447859682808161e-03
5.772828816808633565e-03
5.842955562548606159e-03
5.908248885948604034e-03
5.968100712144778532e-03
6.021878542875782996e-03
6.068930392054833201e-03
6.108590382191550656e-03
6.140184906259945480e-03
6.163039259621184290e-03
6.176484805816302021e-03
6.179866461793825407e-03
6.172550561848098166e-03
6.153932920831689524e-03
6.123447050724048837e-03
6.080572391559096145e-03
6.024842474445044754e-03
5.955852848599034986e-03
5.873268701077024624e-03
5.776832038658461822e-03
5.666368281545622505e-03
5.541792187295884776e-03
5.403112967698055213e-03
5.250438455534120474e-03
5.083978329088464226e-03
4.904046129297283396e-03
4.711060158441931871e-03
4.505543105469640708e-03
4.288120391364092475e-03
4.059517210869147130e-03
3.820554156144973998e-03
3.572141594849791418e-03
3.315272748768554722e-03
3.051015510747096763e-03
2.780503071728716424e-03
2.504923503775070316e-03
2.225508351459941619e-03
1.943520425344065538e-03
1.660240842956107804e-03
1.376955595447671441e-03
1.094941750378408381e-03
8.154534896381578730e-04
5.397081574742141870e-04
2.688725239641637471e-04
4.049590894590802464e-06
-2.537340630659352665e-04
-5.035400684165415499e-04
-7.445289758811904704e-04
-9.759698126887641914e-04
-1.197248280303941231e-03
-1.407873397781403543e-03
-1.607482419451938599e-03
-1.795844060584828169e-03
-1.972859842172657550e-03
-2.138563495762787169e-03
-2.293118552621885558e-03
-2.436813857386959086e-03
-2.570057232488337767e-03
-2.693367255820039528e-03
-2.807363330925757069e-03
-2.912754122177291325e-03
-3.010324445900286298e-03
-3.100920918614569026e-03
-3.185436428206353879e-03
-3.264793775872406028e-03
-3.339928657638845545e-03
-3.411772255357355035e-03
-3.481233679413380834e-03
-3.549182588321783769e-03
-3.616432267176563579e-03
-3.683723347436325228e-03
-3.751708588229089435e-03
-3.820938851017154601e-03
-3.891850581920357471e-03
-3.964755012255124361e-03
-4.039829291407851831e-03
-4.117109736767324106e-03
-4.196487301835018398e-03
-4.277705497556114067e-03
-4.360360683514954462e-03
-4.443904887636651070e-03
-4.527651136850703237e-03
-4.610781273153342387e-03
-4.692356055457176135e-03
-4.771327658698487802e-03
-4.846554199792834500e-03
-4.916816228617617961e-03
-4.980834906712077771e-03
-5.037291579084172272e-03
-5.084848574175955364e-03
-5.122170769379008094e-03
-5.147947725983674158e-03
-5.160915952283149331e-03
-5.159880967918953690e-03
-5.143738852503632920e-03
-5.111496860936167071e-03
-5.062292790406338824e-03
-4.995412735259182821e-03
-4.910307000279370317e-03
-4.806603752359317645e-03
-4.684120281554638061e-03
-4.542871528719497412e-03
-4.383075757239879473e-03
-4.205157208566776862e-03
-4.009745669188126242e-03
-3.797672853502423885e-03
-3.569965511141221827e-03
-3.327835575056356607e-03
-3.072667212106709213e-03
-2.806000987822235802e-03
-2.529515402668304058e-03
-2.245005951665151201e-03
-1.954362054121480154e-03
-1.659542157047543117e-03
-1.362547350372574030e-03
-1.065393943575625385e-03
-7.700853931872638858e-04
-4.785839748854474698e-04
-1.927827344638749030e-04
8.552197322453403974e-05
3.546568107040037258e-04
6.130962462474485791e-04
8.594853825896908326e-04
1.092660523931665703e-03
1.311666941914289147e-03
1.515773715087527593e-03
1.704485193782186202e-03
1.877548958722738718e-03
2.034960123126032961e-03
2.176961778681955114e-03
2.304041543334960952e-03
2.416924258008361186e-03
2.516560854901953633e-03
2.604113501521002159e-03
2.680937280307275645e-03
2.748558586274214843e-03
2.808650503966841558e-03
2.863005672384968513e-03
2.913506812035242602e-03
2.962095604530094912e-03
3.010740166299317663e-03
3.061401789287052869e-03
3.116001382049191949e-03
3.176386213272401268e-03
3.244297368211851353e-03
3.321338630624381776e-03
3.408947144485716639e-03
3.508366462504285046e-03
3.620622417583468228e-03
3.746502173396933609e-03
3.886536948699062348e-03
4.040988641073071062e-03
4.209840698786377136e-03
4.392793371883580225e-03
4.589263535189624064e-03
4.798389071152171954e-03
5.019037921003951554e-03
5.249821578079655326e-03
5.489112923789923881e-03
5.735068193276389968e-03
5.985652692225437721e-03
6.238670044259824084e-03
6.491794300639934338e-03
6.742604656980125816e-03
6.988622095674966971e-03
7.227347458200743258e-03
7.456300257901798782e-03
7.673057703315196501e-03
7.875293189846867617e-03
8.060813695194492257e-03
8.227595425391635853e-03
8.373817097907108181e-03
8.497890277650776633e-03
8.598486223165429515e-03
8.674558808607528773e-03
8.725362937887885806e-03
8.750468252324379234e-03
8.749767769546289847e-03
8.723481184471431130e-03
8.672152842586912380e-03
8.596644212057892587e-03
8.498120942292365296e-03
8.378034662577584293e-03
8.238099735402671514e-03
8.080265271256777126e-03
7.906682798974735277e-03
7.719670092476241599e-03
7.521671661445578604e-03
7.315216538910200572e-03
7.102874000922066583e-03
6.887207856356298598e-03
6.670730251895968209e-03
6.455855514095028627e-03
6.244854937710174470e-03
6.039813243312380439e-03
5.842587435191767820e-03
5.654768765502299691e-03
5.477648585389086056e-03
5.312188490459627578e-03
5.158995559613801032e-03
5.018303066805310415e-03
4.889956997062792562e-03
4.773408832743475556e-03
4.667714704912501525e-03
4.571541071039440969e-03
4.483176965524309984e-03
4.400552601544230509e-03
4.321264292429857247e-03
4.242605246904030195e-03
4.161601899310892264e-03
4.075055229019254252e-03
3.979586571248997125e-03
3.871687093747989798e-03
3.747770306697775777e-03
3.604226788845687861e-03
3.437480358483523384e-03
3.244044656198669368e-03
3.020579349845070247e-03
2.763945139040576652e-03
2.471256428934805009e-03
2.139931120553607759e-03
1.767736500466878012e-03
1.352830481244064525e-03
8.937975797587201926e-04
3.896789718676840590e-04
-1.600038792186626705e-04
-7.552324742722540604e-04
-1.395481760274447629e-03
-2.079717881183461292e-03
-2.806403519089708566e-03
-3.573510595452548174e-03
-4.378540279672736568e-03
-5.218549944281450186e-03
-6.090186740468084454e-03
-6.989727272326839297e-03
-7.913122773428246659e-03
-8.856049050645712836e-03
-9.813960461528582757e-03
-1.078214703123713848e-02
-1.175579384522553242e-02
-1.273004178819256600e-02
-1.370004863200159281e-02
-1.466104948787217213e-02
-1.560841564459115004e-02
-1.653771101647704550e-02
-1.744474509049528596e-02
-1.832562167198575204e-02
-1.917678258002450745e-02
-1.999504564076386506e-02
-2.077763648487268577e-02
-2.152221352196354021e-02
-2.222688584035611287e-02
-2.289022373990816719e-02
-2.351126184780107445e-02
-2.408949470188509467e-02
-2.462486517862414598e-02
-2.511774578055034346e-02
-2.556891341503483503e-02
-2.597951794272529077e-02
-2.635104535599126774e-02
-2.668527609078660129e-02
-2.698423934119817055e-02
-2.725016428163815410e-02
-2.748542900852564419e-02
-2.769250825638615299e-02
-2.787392073300447304e-02
-2.803217714013064160e-02
-2.816972974794152915e-02
-2.828892452116140918e-02
-2.839195654114410119e-02
-2.848082955949373524e-02
-2.855732044352054036e-02
-2.862294903628210402e-02
-2.867895397229789853e-02
-2.872627487943849728e-02
-2.876554112840176008e-02
-2.879706736579250304e-02
-2.882085578930199121e-02
-2.883660500946296640e-02
-2.884372528619336129e-02
-2.884135969287382126e-02
-2.882841077383997697e-02
-2.880357209456938308e-02
-2.876536391473967155e-02
-2.871217228038254465e-02
-2.864229065015643991e-02
-2.855396316952435454e-02
-2.844542868802559313e-02
-2.831496458272220532e-02
-2.816092941263522234e-02
-2.798180360494573540e-02
-2.777622722142207567e-02
-2.754303404689961016e-02
-2.728128130603671778e-02
-2.699027439777799964e-02
-2.666958601039450330e-02
-2.631906934760437286e-02
-2.593886524704676344e-02
-2.552940287913230133e-02
-2.509139415170585571e-02
-2.462582194400261132e-02
-2.413392243074105950e-02
-2.361716184880945785e-02
-2.307720828711826849e-02
-2.251589916634805580e-02
-2.193520504743670316e-02
-2.133719076952046712e-02
-2.072397454051222790e-02
-2.009768616651571096e-02
-1.946042527105660072e-02
-1.881422049415851575e-02
-1.816099063438830763e-02
-1.750250867968494023e-02
-1.684036962767020834e-02
-1.617596284484844674e-02
-1.551044967246026883e-02
-1.484474693671741612e-02
-1.417951677974983206e-02
-1.351516316344011925e-02
-1.285183535943100128e-02
-1.218943817765009811e-02
-1.152764907276768169e-02
-1.086594176219083351e-02
-1.020361589025867155e-02
-9.539832168887020514e-03
-8.873652347310145155e-03
-8.204083066021414933e-03
-7.530122663166467258e-03
-6.850809933970611158e-03
-6.165273678994372640e-03
-5.472781784248529312e-03
-4.772788852628947510e-03
-4.064981026136765124e-03
-3.349316830141096674e-03
-2.626063051116550324e-03
-1.895824525543883532e-03
-1.159566924146448064e-03
-4.186316877657250517e-04
3.252574631327853432e-04
1.069996968152347929e-03
1.813115126327097346e-03
2.551793191553919544e-03
3.282895853939291758e-03
4.003010698432113781e-03
4.708496156076972909e-03
5.395537381174812797e-03
6.060209105373765698e-03
6.698544406671002281e-03
7.306608130064506067e-03
7.880573688876126373e-03
8.416801803927469530e-03
8.911919428290537501e-03
9.362897409816431024e-03
9.767125152997388829e-03
1.012248067930750402e-02
1.042739442772036909e-02
1.068090525352271766e-02
1.088270720516750292e-02
1.103318581297276293e-02
1.113344274104251762e-02
1.118530784430902571e-02
1.119133797327583925e-02
1.115480206616061877e-02
1.107965229925879369e-02
1.097048134360043177e-02
1.083246610115257830e-02
1.067129857753961776e-02
1.049310471792295682e-02
1.030435249956705539e-02
1.011175055581395657e-02
9.922139068067501247e-03
9.742374702263597794e-03
9.579211752425908707e-03
9.439181541610885962e-03
9.328472378986863572e-03
9.252812351806272498e-03
9.217357401763550187e-03
9.226586873977513786e-03
9.284208762858452146e-03
9.393076892502542560e-03
9.555121788539903266e-03
9.771297109183037580e-03
1.004154303545272756e-02
1.036476780949532536e-02
1.073884832799605962e-02
1.116065026797034669e-02
1.162606798012854117e-02
1.213008382945547116e-02
1.266684652635195578e-02
1.322976735654611546e-02
1.381163299906551685e-02
1.440473325066320316e-02
1.500100158964889040e-02
1.559216623116143480e-02
1.616990906750849846e-02
1.672602964550145427e-02
1.725261116470108713e-02
1.774218543259346512e-02
1.818789347544634907e-02
1.858363864660347864e-02
1.892422901358350312e-02
1.920550620692111285e-02
1.942445759713735606e-02
1.957930938629822565e-02
1.966959813190963594e-02
1.969621893421389172e-02
1.966144854285997723e-02
1.956894228194604873e-02
1.942370416819566223e-02
1.923203008202619899e-02
1.900142417833424260e-02
1.874048947403005733e-02
1.845879402491874127e-02
1.816671460012011033e-02
1.787526002320092081e-02
1.759587728629979572e-02
1.734024341990497708e-02
1.712004682708201039e-02
1.694676193593436242e-02
1.683142137329413091e-02
1.678438985811727541e-02
1.681514430811250141e-02
1.693206450426844659e-02
1.714223875093021446e-02
1.745128856298723205e-02
1.786321650890070056e-02
1.838028073599387927e-02
1.900289951511957565e-02
1.972958855118692872e-02
2.055693335043517686e-02
2.147959830104731113e-02
2.249037362674266571e-02
2.358026052440428955e-02
2.473859427459896079e-02
2.595320430727232966e-02
2.721060949508151069e-02
2.849624638204173790e-02
2.979472728060349879e-02
3.109012458485106364e-02
3.236627702891429342e-02
3.360711311775153864e-02
3.479698659489392082e-02
3.592101830827475889e-02
3.696543868432271285e-02
3.791792480001726640e-02
3.876792595269148295e-02
3.950697163788325500e-02
4.012895609573195049e-02
4.063039371468906563e-02
4.101063991928429603e-02
4.127207276798683377e-02
4.142023087856550739e-02
4.146390401942219583e-02
4.141517334278442541e-02
4.128939910459088203e-02
4.110515447641180375e-02
4.088410493779957161e-02
4.065083363678357459e-02
4.043261405347272491e-02
4.025913210972693890e-02
4.016216085744004488e-02
4.017519162889233303e-02
4.033302639362857517e-02
4.067133664084428279e-02
4.122619503808806068e-02
4.203358631935855128e-02
4.312890453376584665e-02
4.454644407455767702e-02
4.631889194671896109e-02
4.847682916410136350e-02
5.104824864620835512e-02
5.405809726697736323e-02
5.752784907532876302e-02
6.147511643539804727e-02
6.591330520032535889e-02
7.085131939050687278e-02
7.629332018022094708e-02
8.223854298947809449e-02
8.868117558393115440e-02
9.561029920876304433e-02
1.030098936536423676e-01
1.108589061079264249e-01
1.191313827223805105e-01
1.277966606261995430e-01
1.368196170936000766e-01
1.461609717830816557e-01
1.557776370587880266e-01
1.656231104801331455e-01
1.756479028846151536e-01
1.857999949224573566e-01
1.960253146487561660e-01
2.062682280164057635e-01
2.164720344020884535e-01
2.265794590063461289e-01
2.365331341026267464e-01
2.462760615236675166e-01
2.557520490423020876e-01
2.649061139712606261e-01
2.736848479072244711e-01
2.820367374319260323e-01
2.899124364563504530e-01
2.972649868488888014e-01
3.040499851765633421e-01
3.102256944363251390e-01
3.157531006971254772e-01
3.205959160327250257e-01
3.247205300136949968e-01
3.280959132158930980e-01
3.306934772854920879e-01
3.324868970631416065e-01
3.334519012271743854e-01
3.335660385802691197e-01
3.328084276431479416e-01
3.311594980204534688e-01
3.286007320284468070e-01
3.251144153989358188e-01
3.206834057200916299e-01
3.152909272218918368e-01
3.089204000285605822e-01
3.015553114771433174e-01
2.931791364552488455e-01
2.837753127145127285e-01
2.733272760911741872e-01
2.618185595379781683e-01
2.492329585833738814e-01
2.355547643365810406e-01
2.207690638170582142e-01
2.048621060657090931e-01
1.878217306949914733e-01
1.696378544172768010e-01
1.503030094289957153e-01
1.298129261846845406e-01
1.081671519565685774e-01
8.536969520651496723e-02
6.142968500252345837e-02
3.636203357993228469e-02
1.018808975076013375e-02
-1.706372983020898113e-02
-4.535734461435304843e-02
-7.464846261143870398e-02
-1.048840944235711337e-01
-1.360021414272522544e-01
-1.679310701545009832e-01
-2.005896838380976377e-01
-2.338870013504055212e-01
-2.677222522266707316e-01
-3.019849950226756730e-01
-3.365553647003819426e-01
-3.713044528941470412e-01
-4.060948229827354705e-01
-4.407811600656238449e-01
-4.752110535862743013e-01
-5.092259086700130499e-01
-5.426619798390212024e-01
-5.753515190531116597e-01
-6.071240276336171693e-01
-6.378076002665389321e-01
-6.672303472054109674e-01
-6.952218794796476420e-01
-7.216148404152776807e-01
-7.462464656753547976e-01
-7.689601531636849341e-01
-7.896070234974317259e-01
-8.080474512594608694e-01
-8.241525474329457479e-01
-8.378055732613939321e-01
-8.489032665371012421e-01
-8.573570620332917613e-01
-8.630941887092006271e-01
-8.660586279094291129e-01
-8.662119180291016907e-01
-8.635337931237162534e-01
-8.580226448374487225e-01
-8.496957992430618223e-01
-8.385896025311021518e-01
-8.247593117640567018e-01
-8.082787895705995096e-01
-7.892400042448172170e-01
-7.677523389671933041e-01
-7.439417167900614913e-01
-7.179495501223381870e-01
-6.899315259893760155e-01
-6.600562404283826234e-01
-6.285036974521395203e-01
-5.954636897699119302e-01
-5.611340802159667795e-01
-5.257190037685199879e-01
-4.894270115065890714e-01
-4.524691784252992677e-01
-4.150571974294551270e-01
-3.774014819325449688e-01
-3.397092995001323446e-01
-3.021829584389410517e-01
-2.650180683151103223e-01
-2.284018944490757708e-01
-1.925118250055738722e-01
-1.575139678123411713e-01
-1.235618921642381296e-01
-9.079552878912515446e-02
-5.934023900970947923e-02
-2.930606187371046986e-02
-7.871454844617849786e-04
2.613863363811487484e-02
5.140986191128034399e-02
7.498159201353055137e-02
9.682516188145044722e-02
1.169278353376409230e-01
1.352922729877407138e-01
1.519358436309404814e-01
1.668897886295612476e-01
1.801982535096122717e-01
1.919172023537668859e-01
2.021132319889309137e-01
2.108623038305242892e-01
2.182484121545078537e-01
2.243622078557314103e-01
2.292995969579544879e-01
2.331603330600324486e-01
2.360466225148268593e-01
2.380617605016276672e-01
2.393088150553675242e-01
2.398893753387733030e-01
2.399023787249483786e-01
2.394430299952775010e-01
2.386018241249175387e-01
2.374636822892174370e-01
2.361072089997296730e-01
2.346040759529707254e-01
2.330185364255205893e-01
2.314070718895247791e-01
2.298181705453933854e-01
2.282922355708636442e-01
2.268616188150274493e-01
2.255507741643726638e-01
2.243765231011509986e-01
2.233484235197714107e-01
2.224692314889593070e-01
2.217354447961781549e-01
2.211379160241818409e-01
2.206625223680492576e-01
2.202908790536811101e-01
2.200010827588710083e-01
2.197684717025808199e-01
2.195663891297219561e-01
2.193669375222436768e-01
2.191417111945108409e-01
2.188624961958073600e-01
2.185019269252641005e-01
2.180340902520801205e-01
2.174350691329164087e-01
2.166834189561321622e-01
2.157605712755860661e-01
2.146511609543081678e-01
2.133432743636033690e-01
2.118286175114030001e-01
2.101026045900593608e-01
2.081643687299948864e-01
2.060166978237411850e-01
2.036658998951149102e-01
2.011216032139346854e-01
1.983964975571706202e-01
1.955060236624465153e-01
1.924680186498473888e-01
1.893023257930464276e-01
1.860303771431648101e-01
1.826747580433894236e-01
1.792587622746217857e-01
1.758059464899738022e-01
1.723396925283459113e-01
1.688827855885672025e-01
1.654570156630656430e-01
1.620828090889744333e-01
1.587788962570131912e-01
1.555620206227448787e-01
1.524466931543272397e-01
1.494449956820240455e-01
1.465664352907095624e-01
1.438178509839947994e-01
1.412033729528631154e-01
1.387244336382919274e-01
1.363798289138880293e-01
1.341658268491590089e-01
1.320763206602823814e-01
1.301030217383826737e-01
1.282356880236904251e-01
1.264623825586506101e-01
1.247697564208969101e-01
1.231433501604969755e-01
1.215679075900217426e-01
1.200276956321504190e-01
1.185068243003726124e-01
1.169895605300822899e-01
1.154606304275752338e-01
1.139055044596773980e-01
1.123106607399837892e-01
1.106638221102510533e-01
1.089541632592412879e-01
1.071724847611245923e-01
1.053113517900098189e-01
1.033651958213312599e-01
1.013303783389374879e-01
9.920521644006036199e-02
9.698997086085028863e-02
9.468679763545598260e-02
9.229966532035609184e-02
8.983424018441507619e-02
8.729774244541393946e-02
8.469877688714957942e-02
8.204714197676064857e-02
7.935362140713360379e-02
7.662976251182351817e-02
7.388764614165370392e-02
7.113965247426029537e-02
6.839822736995176955e-02
6.567565358932266062e-02
6.298383105714644437e-02
6.033407015402152129e-02
5.773690157244191351e-02
5.520190584192981309e-02
5.273756532303084527e-02
5.035114081759763799e-02
4.804857452937311840e-02
4.583442045708545354e-02
4.371180296528291709e-02
4.168240341542220340e-02
3.974647454019745313e-02
3.790288146419450166e-02
3.614916800976446937e-02
3.448164624094534475e-02
3.289550705406229375e-02
3.138494913336395409e-02
2.994332336107614206e-02
2.856328950343099346e-02
2.723698190794318283e-02
2.595618080992313087e-02
2.471248584064157650e-02
2.349748833869556852e-02
2.230293927731810330e-02
2.112090961257751323e-02
1.994394024061931295e-02
1.876517890169978470e-02
1.757850183602926303e-02
1.637861812675273088e-02
1.516115517233957571e-02
1.392272415209466242e-02
1.266096477445542885e-02
1.137456875458386918e-02
1.006328235605900498e-02
8.727888242066566063e-03
7.370167504821398610e-03
5.992843225849545097e-03
4.599506920489403183e-03
3.194529779049907255e-03
1.782960679722505812e-03
3.704133246298662750e-04
-1.037055102854829956e-03
-2.433071256697954751e-03
-3.811076409964275248e-03
-5.164457991680893555e-03
-6.486679396257148157e-03
-7.771405641906812753e-03
-9.012622528853512713e-03
-1.020474730979204457e-02
-1.134272874456761920e-02
-1.242213503347178866e-02
-1.343922815007522753e-02
-1.439102352107646254e-02
-1.527533417625641550e-02
-1.609079906612146879e-02
-1.683689510652298243e-02
-1.751393328967881455e-02
-1.812303925897791601e-02
-1.866611903745170331e-02
-1.914581098408922252e-02
-1.956542512090063760e-02
-1.992887134984374850e-02
-2.024057811578263213e-02
-2.050540328559962919e-02
-2.072853922797404658e-02
-2.091541387199440452e-02
-2.107158987558201829e-02
-2.120266373294982937e-02
-2.131416678136369147e-02
-2.141146994491319178e-02
-2.149969394367491973e-02
-2.158362651046992833e-02
-2.166764800724298862e-02
-2.175566673720151847e-02
-2.185106482314086787e-02
-2.195665551636511587e-02
-2.207465241159719399e-02
-2.220665082776657889e-02
-2.235362153028981960e-02
-2.251591651841136285e-02
-2.269328643415830654e-02
-2.288490907949346578e-02
-2.308942810660755823e-02
-2.330500094378355064e-02
-2.352935481356520364e-02
-2.375984951588521951e-02
-2.399354565376688592e-02
-2.422727682043840022e-02
-2.445772428458193107e-02
-2.468149264552071259e-02
-2.489518494542314678e-02
-2.509547587535483973e-02
-2.527918168004053556e-02
-2.544332543129413510e-02
-2.558519656095788533e-02
-2.570240366319074057e-02
-2.579291962865188498e-02
-2.585511847369528771e-02
-2.588780334199653962e-02
-2.589022525005066355e-02
-2.586209252745179724e-02
-2.580357090782567364e-02
-2.571527460143151200e-02
-2.559824851064632437e-02
-2.545394227895988667e-02
-2.528417685567932796e-02
-2.509110423448178070e-02
-2.487716151881797649e-02
-2.464502009371877245e-02
-2.439753108643785695e-02
-2.413766827911814281e-02
-2.386846954862550246e-02
-2.359297800787082261e-02
-2.331418399881867928e-02
-2.303496895605963365e-02
-2.275805230899586445e-02
-2.248594217745421980e-02
-2.222089092262681878e-02
-2.196485611346611286e-02
-2.171946768659098817e-02
-2.148600167251830256e-02
-2.126536093211485456e-02
-2.105806306151244978e-02
-2.086423557932927386e-02
-2.068361830451937930e-02
-2.051557276902832294e-02
-2.035909829794842196e-02
-2.021285432576771027e-02
-2.007518843736688999e-02
-1.994416942307512819e-02
-1.981762470232829865e-02
-1.969318118672925069e-02
-1.956830893510049310e-02
-1.944036661912214303e-02
-1.930664788756483730e-02
-1.916442783023211346e-02
-1.901100860294547765e-02
-1.884376345468121230e-02
-1.866017836370206101e-02
-1.845789053293109619e-02
-1.823472311468738588e-02
-1.798871569849112145e-02
-1.771814997719877230e-02
-1.742157032866177568e-02
-1.709779898247505703e-02
-1.674594573920044904e-02
-1.636541202940105383e-02
-1.595588955934136924e-02
-1.551735359820052666e-02
-1.505005120183406167e-02
-1.455448476383161202e-02
-1.403139120409814186e-02
-1.348171746308015131e-02
-1.290659274336278424e-02
-1.230729814157351977e-02
-1.168523427531505815e-02
-1.104188766684971630e-02
-1.037879647969848322e-02
-9.697516294039117482e-03
-8.999586538235064548e-03
-8.286498312189685342e-03
-7.559664025992780638e-03
-6.820389577235623502e-03
-6.069849308533699014e-03
-5.309064388984318338e-03
-4.538884863250872669e-03
-3.759975619252114900e-03
-2.972806500646888242e-03
-2.177646633407923429e-03
-1.374563021006423033e-03
-5.634233453604131896e-04
2.560971802197810994e-04
1.084505043506751084e-03
1.922474077095677036e-03
2.770827798339673027e-03
3.630518921210302164e-03
4.502606267358882572e-03
5.388229794284922144e-03
6.288584047767974312e-03
7.204890586135721808e-03
8.138369901154770061e-03
9.090213313132431208e-03
1.006155533727877589e-02
1.105344703959984867e-02
1.206683084280885283e-02
1.310251710118631903e-02
1.416116289770668994e-02
1.524325339348736250e-02
1.634908594243132673e-02
1.747875717311871135e-02
1.863215327467140567e-02
1.980894358150774026e-02
2.100857737834511962e-02
2.223028408557318689e-02
2.347307652053133575e-02
2.473575736100821001e-02
2.601692846017209307e-02
2.731500288024672068e-02
2.862821931437521672e-02
2.995465859177688997e-02
3.129226207542501470e-02
3.263885145520842995e-02
3.399214964860709787e-02
3.534980250401924956e-02
3.670940080287683760e-02
3.806850230016749215e-02
3.942465351577454508e-02
4.077541077627973298e-02
4.211836031307746031e-02
4.345113718986268192e-02
4.477144271916361218e-02
4.607706018075776594e-02
4.736586871890757083e-02
4.863585522984108928e-02
4.988512419857826785e-02
5.111190541872000226e-02
5.231455959799465733e-02
5.349158178962704069e-02
5.464160288704700968e-02
5.576338912970055239e-02
5.685583976513060300e-02
5.791798311106866048e-02
5.894897115064477028e-02
5.994807283733136205e-02
6.091466631576891722e-02
6.184823041782158692e-02
6.274833546064910450e-02
6.361463368528660900e-02
6.444684954986923398e-02
6.524477003471726433e-02
6.600823525718917117e-02
6.673712954471472392e-02
6.743137309350534514e-02
6.809091436032017886e-02
6.871572334671184612e-02
6.930578592784414349e-02
6.986109917935588720e-02
7.038166774706026974e-02
7.086750142053531432e-02
7.131861375956931315e-02
7.173502171673874772e-02
7.211674632050664446e-02
7.246381424114889391e-02
7.277626022652498861e-02
7.305413023276989548e-02
7.329748510192383992e-02
7.350640461194425657e-02
7.368099191156728123e-02
7.382137803488357519e-02
7.392772638187697365e-02
7.400023701157742995e-02
7.403915066941667289e-02
7.404475233278726143e-02
7.401737417128510799e-02
7.395739781003123070e-02
7.386525582200077766e-02
7.374143237766422887e-02
7.358646297046607387e-02
7.340093322763935335e-02
7.318547670083168366e-02
7.294077171642317226e-02
7.266753728077648966e-02
7.236652815437746855e-02
7.203852900154834871e-02
7.168434783873467442e-02
7.130480887780620003e-02
7.090074473445800995e-02
7.047298833379032901e-02
7.002236443963065493e-02
6.954968102630941507e-02
6.905572070060561618e-02
6.854123221771821206e-02
6.800692226755881975e-02
6.745344768770085431e-02
6.688140819322400954e-02
6.629133973244517863e-02
6.568370860334007966e-02
6.505890648519949138e-02
6.441724634901947744e-02
6.375895933988211250e-02
6.308419275856481934e-02
6.239300910347266721e-02
6.168538618619770486e-02
6.096121834018099900e-02
6.022031861061354768e-02
5.946242199089325081e-02
5.868718961411466262e-02
5.789421384637761375e-02
5.708302404641939221e-02
5.625309308920958123e-02
5.540384445960500753e-02
5.453465981481598474e-02
5.364488680028771384e-02
5.273384711836013455e-02
5.180084467924624819e-02
5.084517367094573692e-02
4.986612645348629386e-02
4.886300120507429401e-02
4.783510916855471945e-02
4.678178135950182559e-02
4.570237470050113326e-02
4.459627760988073980e-02
4.346291474208757027e-02
4.230175106390730161e-02
4.111229512328556934e-02
3.989410153498440526e-02
3.864677267972769364e-02
3.736995968193486395e-02
3.606336264962711063e-02
3.472673027219352893e-02
3.335985879227530704e-02
3.196259049417386061e-02
3.053481179745928809e-02
2.907645099306922429e-02
2.758747580405328248e-02
2.606789080895836885e-02
2.451773488599130399e-02
2.293707887218095209e-02
2.132602340150056147e-02
1.968469711067255545e-02
1.801325528312088670e-02
1.631187901979372357e-02
1.458077518047641574e-02
1.282017690204004419e-02
1.103034493916576521e-02
9.211569787749705057e-03
7.364174582473259970e-03
5.488518899015266267e-03
3.585003351131397630e-03
1.654074984163189481e-03
-3.037666097567717858e-04
-2.287962547104682894e-03
-4.297887282054912647e-03
-6.332840732383213274e-03
-8.392040085151675557e-03
-1.047461141271732211e-02
-1.257958109608818195e-02
-1.470586739073537381e-02
-1.685227220140315257e-02
-1.901747323964433911e-02
-2.120001669753973639e-02
-2.339831071278454522e-02
-2.561061968994425217e-02
-2.783505967636273198e-02
-3.006959488465837244e-02
-3.231203558830308964e-02
-3.456003748022144773e-02
-3.681110257031577210e-02
-3.906258177444496549e-02
-4.131167919147903794e-02
-4.355545817327020897e-02
-4.579084926010110884e-02
-4.801465984214334237e-02
-5.022358565609219561e-02
-5.241422403320306761e-02
-5.458308875478981581e-02
-5.672662654608668503e-02
-5.884123501418417335e-02
-6.092328187782904136e-02
-6.296912535413827505e-02
-6.497513551115982611e-02
-6.693771637160852994e-02
-6.885332856612007280e-02
-7.071851234281097132e-02
-7.252991061971335307e-02
-7.428429185198215379e-02
-7.597857246905345696e-02
-7.760983867328688501e-02
-7.917536728405945301e-02
-8.067264544726319986e-02
-8.209938893254940806e-02
-8.345355879314839131e-02
-8.473337616569559527e-02
-8.593733514306939325e-02
-8.706421342123966955e-02
-8.811308059766796708e-02
-8.908330401628930528e-02
-8.997455213220141579e-02
-9.078679520401787550e-02
-9.152030335358875279e-02
-9.217564201841027538e-02
-9.275366480153944548e-02
-9.325550377197328045e-02
-9.368255723698727666e-02
-9.403647526054523254e-02
-9.431914289790128969e-02
-9.453266150354017183e-02
-9.467932813720952856e-02
-9.476161340416389134e-02
-9.478213792971709739e-02
-9.474364772506119192e-02
-9.464898869951893223e-02
-9.450108064399870278e-02
-9.430289095335353533e-02
-9.405740841552463760e-02
-9.376761722439733160e-02
-9.343647165183981140e-02
-9.306687162261678692e-02
-9.266163947311545357e-02
-9.222349805928214961e-02
-9.175505056908392354e-02
-9.125876214490474814e-02
-9.073694361321747726e-02
-9.019173741229202790e-02
-8.962510591849828789e-02
-8.903882217892571116e-02
-8.843446326298762261e-02
-8.781340617271812810e-02
-8.717682640608562239e-02
-8.652569908125495868e-02
-8.586080256416941947e-02
-8.518272463593377919e-02
-8.449187093142593308e-02
-8.378847554458843105e-02
-8.307261376196173330e-02
-8.234421654745932573e-02
-8.160308664713081250e-02
-8.084891609762187570e-02
-8.008130477646954737e-02
-7.929977989483651124e-02
-7.850381598260303129e-02
-7.769285525725679042e-02
-7.686632788004636729e-02
-7.602367200117475521e-02
-7.516435326803676265e-02
-7.428788350718212863e-02
-7.339383833148217795e-02
-7.248187344320528025e-02
-7.155173937488240599e-02
-7.060329454079167233e-02
-6.963651641953938487e-02
-6.865151069851974097e-02
-6.764851823797973784e-02
-6.662791983423246855e-02
-6.559023871455670063e-02
-6.453614068807149440e-02
-6.346643209263616581e-02
-6.238205542101668555e-02
-6.128408286346653105e-02
-6.017370779584201718e-02
-5.905223435871352622e-02
-5.792106522756754194e-02
-5.678168794165281558e-02
-5.563565979022764424e-02
-5.448459167140962817e-02
-5.333013105592170761e-02
-5.217394431942564553e-02
-5.101769876012800242e-02
-4.986304455388516910e-02
-4.871159688253226538e-02
-4.756491858320640448e-02
-4.642450343609545033e-02
-4.529176053449297107e-02
-4.416799982597416352e-02
-4.305441906695152421e-02
-4.195209246756194388e-02
-4.086196107465697031e-02
-3.978482510775610548e-02
-3.872133837755077634e-02
-3.767200481493530179e-02
-3.663717721450518439e-02
-3.561705820277247941e-02
-3.461170336074732845e-02
-3.362102654954670505e-02
-3.264480724081262469e-02
-3.168269988809399584e-02
-3.073424504823394493e-02
-2.979888217580583046e-02
-2.887596387642947515e-02
-2.796477139451759159e-02
-2.706453109346085642e-02
-2.617443173591462932e-02
-2.529364214751278137e-02
-2.442132920846036212e-02
-2.355667571512710251e-02
-2.269889790872972254e-02
-2.184726236790323489e-02
-2.100110209854956847e-02
-2.015983150016054451e-02
-1.932295989504581590e-02
-1.849010352335636945e-02
-1.766099574497136809e-02
-1.683549537818994010e-02
-1.601359286839268078e-02
-1.519541438098634227e-02
-1.438122357666881887e-02
-1.357142114371120804e-02
-1.276654202399068669e-02
-1.196725033626770164e-02
-1.117433218850471914e-02
-1.038868636393957406e-02
-9.611313033146710871e-03
-8.843300713236886337e-03
-8.085811504544957937e-03
-7.340065118704771491e-03
-6.607321660181708113e-03
-5.888863477316741944e-03
-5.185976494532039578e-03
-4.499931178325966390e-03
-3.831963422538516625e-03
-3.183255691671472987e-03
-2.554918749484080039e-03
-1.947974162680169135e-03
-1.363337930915027845e-03
-8.018054087833299381e-04
-2.640378540043937386e-04
2.494492128528610453e-04
7.382957674966532857e-04
1.202304759253049714e-03
1.641447473648437617e-03
2.055866491674834904e-03
2.445876206451016912e-03
2.811960968847216497e-03
3.154770858046285383e-03
3.475115070953463132e-03
3.773953092716433519e-03
4.052383784664079919e-03
4.311632447969730025e-03
4.553036131945796192e-03
4.778027474326099894e-03
4.988117226701866726e-03
5.184875681840811490e-03
5.369913349201105128e-03
5.544861285212192292e-03
5.711351143965051613e-03
5.870995368979639757e-03
6.025367928967099648e-03
6.175985656378415317e-03
6.324290703774238312e-03
6.471634206210174350e-03
6.619261556621321499e-03
6.768299321462089777e-03
6.919744202375021497e-03
7.074453969617288014e-03
7.233140734336167277e-03
7.396366552266214235e-03
7.564541358326044330e-03
7.737923298517998365e-03
7.916621445037004198e-03
8.100600864216433994e-03
8.289689898666302223e-03
8.483589563207417916e-03
8.681884778487466287e-03
8.884057392696112498e-03
9.089500785849177755e-03
9.297535636869585715e-03
9.507426692004541588e-03
9.718400242327323441e-03
9.929662034631419817e-03
1.014041525564521144e-02
1.034987830483055475e-02
1.055730212830927571e-02
1.076198669875247024e-02
1.096329639455668851e-02
1.116067411294682787e-02
1.135365374239359973e-02
1.154187081864788827e-02
1.172507128455886789e-02
1.190311800502834132e-02
1.207599508485332832e-02
1.224380977657319423e-02
1.240679214191515133e-02
1.256529221690832858e-02
1.271977481404027409e-02
1.287081215964333732e-02
1.301907424292070119e-02
1.316531721647760771e-02
1.331037000598491414e-02
1.345511922770656517e-02
1.360049276974703569e-02
1.374744228231414289e-02
1.389692483643143600e-02
1.404988404506399800e-02
1.420723099697718435e-02
1.436982529315465953e-02
1.453845649520749649e-02
1.471382636437808950e-02
1.489653204592996348e-02
1.508705065544689930e-02
1.528572544454397629e-02
1.549275378853664543e-02
1.570817723045875650e-02
1.593187373259139297e-02
1.616355234633616231e-02
1.640275043978985103e-02
1.664883342453388898e-02
1.690099708448432672e-02
1.715827255178391242e-02
1.741953382881836210e-02
1.768350780402915337e-02
1.794878658159246299e-02
1.821384200400326392e-02
1.847704220334563455e-02
1.873666985395679510e-02
1.899094197472869783e-02
1.923803093312590959e-02
1.947608635776409275e-02
1.970325770578470331e-02
1.991771712977892170e-02
2.011768226931725384e-02
2.030143864803903020e-02
2.046736139375767566e-02
2.061393600804310375e-02
2.073977774725160525e-02
2.084364943730234246e-02
2.092447744847717936e-02
2.098136561241728884e-02
2.101360679910795060e-02
2.102069209073274825e-02
2.100231747508302799e-02
2.095838774181983319e-02
2.088901775303418293e-02
2.079453097327878600e-02
2.067545530681704977e-02
2.053251629796035149e-02
2.036662787936538779e-02
2.017888067995747547e-02
1.997052818868089510e-02
1.974297089569575572e-02
1.949773870364696418e-02
1.923647183603040614e-02
1.896090053988145480e-02
1.867282384679494478e-02
1.837408773572801052e-02
1.806656300477917088e-02
1.775212308143757703e-02
1.743262222516556853e-02
1.710987431478195459e-02
1.678563252372265377e-02
1.646157016575068577e-02
1.613926302596587273e-02
1.582017328563052952e-02
1.550563527898319270e-02
1.519684333993361232e-02
1.489484171858051695e-02
1.460051679930333621e-02
1.431459166276504748e-02
1.403762294909884425e-02
1.377000010517456623e-02
1.351194693456349641e-02
1.326352542594348011e-02
1.302464167064415826e-02
1.279505377479133420e-02
1.257438163791487450e-02
1.236211841052834402e-02
1.215764340043252317e-02
1.196023611193673154e-02
1.176909133775518729e-02
1.158333493796040795e-02
1.140204016412903545e-02
1.122424413748181020e-02
1.104896432427226495e-02
1.087521470542734438e-02
1.070202146676883966e-02
1.052843786479958250e-02
1.035355827577094656e-02
1.017653100333608916e-02
9.996569800779467330e-03
9.812964006102284018e-03
9.625087058287689831e-03
9.432403452059576199e-03
9.234473953789196915e-03
9.030959107118772047e-03
8.821621065944718412e-03
8.606323637342058394e-03
8.385030810889308739e-03
8.157803673956713283e-03
7.924795915046481398e-03
7.686247994839288424e-03
7.442480155077584904e-03
7.193884420801400885e-03
6.940915755937106073e-03
6.684082572079038699e-03
6.423936787507285827e-03
6.161063589884728346e-03
5.896071119434847553e-03
5.629580303216635308e-03
5.362214933422187330e-03
5.094592169643015131e-03
4.827313709755973355e-03
4.560957722999432057e-03
4.296071585598710413e-03
4.033165656662876866e-03
3.772708077697600575e-03
3.515120717636148473e-03
3.260776239070487317e-03
3.009996363129101900e-03
2.763051298332184352e-03
2.520160258074281151e-03
2.281493146903090709e-03
2.047173199206755480e-03
1.817280453527593846e-03
1.591856148326230638e-03
1.370907785844652574e-03
1.154414751669830203e-03
9.423342867299923636e-04
7.346078358208536861e-04
5.311674163454808018e-04
3.319419897919467940e-04
1.368636444832019208e-04
-5.412656969452999089e-05
-2.410732182804569020e-04
-4.240017243709354351e-04
-6.029141858108557099e-04
-7.777861169614424131e-04
-9.485640054939739217e-04
-1.115163802314914770e-03
-1.277470390103939554e-03
-1.435338036323037005e-03
-1.588591852551345584e-03
-1.737030217474788045e-03
-1.880428138988902596e-03
-2.018541448707141753e-03
-2.151111839873430173e-03
-2.277872548378149110e-03
-2.398554647462228153e-03
-2.512893747911768526e-03
-2.620637098416121920e-03
-2.721550713792285792e-03
-2.815426651841957360e-03
-2.902090059765086508e-03
-2.981405989576011752e-03
-3.053285703454221723e-03
-3.117692402330994941e-03
-3.174646243514840822e-03
-3.224228467905787023e-03
-3.266584590452442476e-03
-3.301926485550496244e-03
-3.330533345336107471e-03
-3.352751406704486230e-03
-3.368992454807506233e-03
-3.379731019183184956e-03
-3.385500365913873041e-03
-3.386887216704239072e-03
-3.384525276212161857e-03
-3.379087696638038724e-03
-3.371278543082740359e-03
-3.361823328384156567e-03
-3.351458842675813544e-03
-3.340922343239798638e-03
-3.330940331417326424e-03
-3.322217099051580445e-03
-3.315423174650736216e-03
-3.311183900593122308e-03
-3.310068349438256320e-03
-3.312578782710259503e-03
-3.319140770060260287e-03
-3.330094271852586905e-03
-3.345685738655561348e-03
-3.366061492062576068e-03
-3.391262459439929600e-03
-3.421220420786838523e-03
-3.455755901945677892e-03
-3.494577722319290331e-03
-3.537284260724842238e-03
-3.583366569602679415e-03
-3.632213273221610288e-03
-3.683117164211831707e-03
-3.735283528904113914e-03
-3.787840050965741827e-03
-3.839848266123204509e-03
-3.890316362175879564e-03
-3.938213205696706500e-03
-3.982483329650047046e-03
-4.022062806447469427e-03
-4.055895671912192017e-03
-4.082950717155435852e-03
-4.102238409059914652e-03
-4.112827674629032648e-03
-4.113862300011979049e-03
-4.104576666063403621e-03
-4.084310606452010856e-03
-4.052523166312083612e-03
-4.008804947286532562e-03
-3.952888906849658622e-03
-3.884659339423976714e-03
-3.804159026166160484e-03
-3.711594181993748982e-03
-3.607337284949133690e-03
-3.491927616402636103e-03
-3.366069462596303456e-03
-3.230627970395393619e-03
-3.086622639586946142e-03
-2.935218492273946721e-03
-2.777715099369333120e-03
-2.615533475626834106e-03
-2.450201035677915858e-03
-2.283334787536854451e-03
-2.116622959552266064e-03
-1.951805302784137205e-03
-1.790652270768029524e-03
-1.634943443824875969e-03
-1.486445444910068289e-03
-1.346889607508887149e-03
-1.217949724955827212e-03
-1.101220124169327141e-03
-9.981945368914455722e-04
-9.102459160736708693e-04
-8.386075574260629930e-04
-7.843557516066462050e-04
-7.483941536939839627e-04
-7.314402920545192170e-04
-7.340142539496552054e-04
-7.564297518297649799e-04
-7.987878021920013236e-04
-8.609729612363355329e-04
-9.426523096173058469e-04
-1.043277174234605266e-03
-1.162087610358953716e-03
-1.298119530681784246e-03
-1.450214504951308431e-03
-1.617031974546200577e-03
-1.797063844613182998e-03
-1.988651231057392537e-03
-2.190003131519861670e-03
-2.399216804969529857e-03
-2.614299533085889284e-03
-2.833191574793814203e-03
-3.053789904696065788e-03
-3.273972549238134567e-03
