-5.894129012481762464e-01
-5.537710788087698566e-01
-5.182193101209225938e-01
-4.828610839102200347e-01
-4.477925489034411677e-01
-4.131024667556783547e-01
-3.788722419379343398e-01
-3.451760221082350588e-01
-3.120808617672416463e-01
-2.796469417348498299e-01
-2.479278364154764713e-01
-2.169708208138672323e-01
-1.868172090128818463e-01
-1.575027160214051702e-01
-1.290578350199991786e-01
-1.015082224810806982e-01
-7.487508380833438060e-02
-4.917555307274919241e-02
-2.442306064865473053e-02
-6.276835021847451505e-04
2.220352647967261187e-02
4.406623988266163833e-02
6.495857578006029864e-02
8.488085860666991223e-02
1.038354069717957184e-01
1.218263551014931029e-01
1.388595064475943164e-01
1.549422184563646610e-01
1.700833167177688288e-01
1.842930362553321932e-01
1.975829870677032474e-01
2.099661404199261172e-01
2.214568324455278847e-01
2.320707809579045655e-01
2.418251114076656050e-01
2.507383878035175373e-01
2.588306445006737788e-01
2.661234146897168418e-01
2.726397517867078513e-01
2.784042402844159603e-01
2.834429926330608862e-01
2.877836295134769129e-01
2.914552411317095637e-01
2.944883277991021675e-01
2.969147184584659538e-01
2.987674664799507274e-01
3.000807226095463798e-01
3.008895854810803572e-01
3.012299308264870801e-01
3.011382208533565641e-01
3.006512958053807472e-01
2.998061502018361524e-01
2.986396966832186028e-01
2.971885207362931491e-01
2.954886296616164865e-01
2.935751996360942417e-01
2.914823246262694956e-01
2.892427710874344582e-01
2.868877422950926737e-01
2.844466561321811193e-01
2.819469398283820927e-01
2.794138450499108473e-01
2.768702865555609516e-01
2.743367069656431068e-01
2.718309699672855628e-01
2.693682838805510626e-01
2.669611568968464077e-01
2.646193848426073303e-01
2.623500717642921476e-01
2.601576833107721587e-01
2.580441319538841483e-01
2.560088929825655724e-01
2.540491494491426971e-01
2.521599639241010604e-01
2.503344744262755994e-01
2.485641115585693062e-01
2.468388335701656722e-01
2.451473756508049107e-01
2.434775097881805295e-01
2.418163112494142730e-01
2.401504276737417287e-01
2.384663466660053854e-01
2.367506581939915755e-01
2.349903077175282684e-01
2.331728364433245659e-01
2.312866054316212172e-01
2.293210003516963080e-01
2.272666142191656635e-01
2.251154055507536278e-01
2.228608301247763657e-01
2.204979448378811546e-01
2.180234826212130717e-01
2.154358977335364689e-01
2.127353814420226974e-01
2.099238484057638077e-01
2.070048946807783452e-01
2.039837285574959136e-01
2.008670759200076872e-01
1.976630622379687285e-01
1.943810735585005389e-01
1.910315992465715373e-01
1.876260593279807654e-01
1.841766196351567186e-01
1.806959979778053893e-01
1.771972647732137640e-01
1.736936413913384991e-01
1.701982996066873088e-01
1.667241654391693195e-01
1.632837304112129684e-01
1.598888732604132890e-01
1.565506947468027210e-01
1.532793679386339480e-01
1.500840061258847946e-01
1.469725502264563610e-01
1.439516769928686768e-01
1.410267291099355502e-01
1.382016679125441516e-01
1.354790489336553383e-01
1.328600202596993962e-01
1.303443431304335820e-01
1.279304339648719424e-01
1.256154267593070917e-01
1.233952542972380356e-01
1.212647464064046665e-01
1.192177433078017851e-01
1.172472218213923140e-01
1.153454321710791763e-01
1.135040428181713357e-01
1.117142907677560748e-01
1.099671347767471052e-01
1.082534089528738863e-01
1.065639741340112107e-01
1.048898646622438424e-01
1.032224283333806059e-01
1.015534573402727542e-01
9.987530829605381633e-02
9.818100970106195813e-02
9.646435537205932942e-02
9.471998263589236078e-02
9.294343443254800274e-02
9.113120482196941652e-02
8.928076747907964794e-02
8.739058722995776685e-02
8.546011487169112575e-02
8.348976581592935930e-02
8.148088337456735331e-02
7.943568772481071627e-02
7.735721174517053156e-02
7.524922525816618579e-02
7.311614922137220363e-02
7.096296149811782972e-02
6.879509613987866423e-02
6.661833804669042847e-02
6.443871475343994348e-02
6.226238742956465011e-02
6.009554287922978799e-02
5.794428819974994233e-02
5.581454996966097454e-02
5.371197943701629118e-02
5.164186515268689298e-02
4.960905431859624626e-02
4.761788394046640588e-02
4.567212267978226770e-02
4.377492399789582184e-02
4.192879116292003855e-02
4.013555415951056832e-02
3.839635883417856499e-02
3.671166805354782875e-02
3.508127432765837522e-02
3.350432359064754034e-02
3.197934923196279339e-02
3.050431569849285443e-02
2.907667058709677288e-02
2.769340412468648815e-02
2.635111484827297804e-02
2.504608015279605540e-02
2.377433052153143239e-02
2.253172601732392547e-02
2.131403378151069603e-02
2.011700520244109891e-02
1.893645149393030636e-02
1.776831650859501260e-02
1.660874562683604255e-02
1.545414992298386504e-02
1.430126440696345182e-02
1.314719986749767096e-02
1.198948749048837567e-02
1.082611584551422187e-02
9.655559863790382294e-03
8.476801622113937576e-03
7.289342825698718470e-03
6.093209096515964963e-03
4.888946220151137688e-03
3.677608703655922771e-03
2.460741012493058034e-03
1.240352122013139513e-03
1.888391735728542291e-05
-1.200825909861997576e-03
-2.415585644602432670e-03
-3.621895225525292861e-03
-4.815995077612902214e-03
-5.993917268175043452e-03
-7.151538029313054406e-03
-8.284631094497544104e-03
-9.388920856107839386e-03
-1.046013473161108362e-02
-1.149405398461360306e-02
-1.248656242954322010e-02
-1.343369246809091901e-02
-1.433166792130098448e-02
-1.517694334312564772e-02
-1.596623938006160037e-02
-1.669657400336943889e-02
-1.736528947004036330e-02
-1.797007475304293958e-02
-1.850898367044072346e-02
-1.898044852866994509e-02
-1.938328952267854427e-02
-1.971671995702221902e-02
-1.998034748488250814e-02
-2.017417181178801297e-02
-2.029857895762727377e-02
-2.035433231276933749e-02
-2.034256078313407406e-02
-2.026474448887874771e-02
-2.012269830554688083e-02
-1.991855338682577831e-02
-1.965473712589865807e-02
-1.933395165042305422e-02
-1.895915132427581154e-02
-1.853351926575855235e-02
-1.806044323536920918e-02
-1.754349086753457035e-02
-1.698638458637416818e-02
-1.639297616443528144e-02
-1.576722108836564260e-02
-1.511315281863432648e-02
-1.443485692197833160e-02
-1.373644516234338864e-02
-1.302202951516263571e-02
-1.229569622247267575e-02
-1.156147989574817826e-02
-1.082333768531403874e-02
-1.008512347470133866e-02
-9.350562325704647043e-03
-8.623225162594781376e-03
-7.906503763696134598e-03
-7.203586233171955372e-03
-6.517433134953469834e-03
-5.850754440237679321e-03
-5.205987479877540944e-03
-4.585276079073730311e-03
-3.990451183046483247e-03
-3.423013321719889368e-03
-2.884117043436631739e-03
-2.374557626173183413e-03
-1.894760396380384135e-03
-1.444773018724580371e-03
-1.024260818419306862e-03
-6.325056469529881462e-04
-2.684082934911054242e-04
6.950519393668551046e-05
3.830732790523399883e-04
6.744845634266778602e-04
9.462592755055286228e-04
1.201226602720747993e-03
1.442497991332866540e-03
1.673436386075056407e-03
1.897621826759844990e-03
2.118813565113781931e-03
2.340908984814065851e-03
2.567899845120307726e-03
2.803826261443426084e-03
3.052728889975616419e-03
3.318599917476971334e-03
3.605333523575661187e-03
3.916676543587521361e-03
4.256179719761386468e-03
4.627150636002241336e-03
5.032608726679053783e-03
5.475243145111708537e-03
5.957374204981249512e-03
6.480918981385550524e-03
7.047361786614639995e-03
7.657729868871697952e-03
8.312574927754735540e-03
9.011960784112919842e-03
9.755457650420098353e-03
1.054214301626821629e-02
1.137060938488924922e-02
1.223897885800920640e-02
1.314492442662185991e-02
1.408569775632565434e-02
1.505816322262378167e-02
1.605883768252012664e-02
1.708393549855493146e-02
1.812941813394002358e-02
1.919104769413085276e-02
2.026444358142265659e-02
2.134514139143708911e-02
2.242865309740105229e-02
2.351052773893149220e-02
2.458641146126194429e-02
2.565210603918591237e-02
2.670362488295884712e-02
2.773724555550451457e-02
2.874955808853194364e-02
2.973750794130329902e-02
3.069843310189275185e-02
3.163009452394582172e-02
3.253069938435564079e-02
3.339891670095495452e-02
3.423388494128072612e-02
3.503521142266774469e-02
3.580296342275511579e-02
3.653765111112473873e-02
3.724020246646588678e-02
3.791193052784108675e-02
3.855449358292045714e-02
3.916984867940246501e-02
3.976019938567503659e-02
4.032793855230202423e-02
4.087558706882978010e-02
4.140572960409707320e-02
4.192094843228813539e-02
4.242375646729128896e-02
4.291653070986704149e-02
4.340144723969659862e-02
4.388041891035839026e-02
4.435503696649101268e-02
4.482651757637169665e-02
4.529565436557318053e-02
4.576277785242201940e-02
4.622772262748926775e-02
4.668980301229985752e-02
4.714779762352350884e-02
4.759994351987291428e-02
4.804394005019937963e-02
4.847696255014479622e-02
4.889568580420106114e-02
4.929631716755451809e-02
4.967463887399990730e-02
5.002605902208055733e-02
5.034567061847829844e-02
5.062831767977678254e-02
5.086866767437246001e-02
5.106128903725864338e-02
5.120073266503220172e-02
5.128161610328590969e-02
5.129870911567356584e-02
5.124701936005229136e-02
5.112187662120030313e-02
5.091901438664116208e-02
5.063464737198622445e-02
5.026554373477733206e-02
4.980909059468462824e-02
4.926335198479045441e-02
4.862711796577436768e-02
4.789994419833786682e-02
4.708218111294752706e-02
4.617499211868936887e-02
4.518036039711346291e-02
4.410108406396865549e-02
4.294075965162219566e-02
4.170375400354714435e-02
4.039516480442959662e-02
3.902077030730633639e-02
3.758696887652474006e-02
3.610070914114038576e-02
3.456941176120017362e-02
3.300088385803930796e-02
3.140322727097084876e-02
2.978474206071757627e-02
2.815382660814360477e-02
2.651887571621386677e-02
2.488817823540255547e-02
2.326981565473014782e-02
2.167156326728328017e-02
2.010079527091477095e-02
1.856439513882367914e-02
1.706867263625541295e-02
1.561928872224032337e-02
1.422118932943346702e-02
1.287854903730041578e-02
1.159472538776896468e-02
1.037222455744350562e-02
9.212678829824535662e-03
8.116836018654594032e-03
7.084561147796642616e-03
6.114850150110676293e-03
5.205855399066484403e-03
4.354922568977406643e-03
3.558638213788087312e-03
2.812887328936402448e-03
2.112919988235116564e-03
1.453425911607000333e-03
8.286159025044474713e-04
2.323088265211819528e-04
-3.419771358333762671e-04
-9.009304614318526701e-04
-1.451350752264720257e-03
-2.000053162921898529e-03
-2.553774254245344804e-03
-3.119080581493256961e-03
-3.702281357986370990e-03
-4.309346395079145971e-03
-4.945830439065361343e-03
-5.616804984827802188e-03
-6.326798384212347498e-03
-7.079745018523372208e-03
-7.878944153863903094e-03
-8.727028900191061839e-03
-9.625945507386135178e-03
-1.057694307211595221e-02
-1.158057372229657697e-02
-1.263670291891617371e-02
-1.374452953787796798e-02
-1.490261523533954052e-02
-1.610892232714634595e-02
-1.736085944511578036e-02
-1.865533400563920002e-02
-1.998881064558628851e-02
-2.135737437014641193e-02
-2.275679739958512762e-02
-2.418260840123215294e-02
-2.563016304307516591e-02
-2.709471467204316655e-02
-2.857148384512669601e-02
-3.005572576333632659e-02
-3.154279439974695676e-02
-3.302820244564189101e-02
-3.450767607471278559e-02
-3.597720378154755511e-02
-3.743307867201840083e-02
-3.887193361101171085e-02
-4.029076885115599055e-02
-4.168697180539836927e-02
-4.305832883207668521e-02
-4.440302925346584911e-02
-4.571966150266459916e-02
-4.700720177543912803e-02
-4.826499541412553745e-02
-4.949273191505025593e-02
-5.069041398552968924e-02
-5.185832137841507594e-02
-5.299697035663296363e-02
-5.410706956955892849e-02
-5.518947335684138561e-02
-5.624513343988467307e-02
-5.727504983199253885e-02
-5.828022209267396531e-02
-5.926160178722879313e-02
-6.022004699552450241e-02
-6.115627992127613960e-02
-6.207084821020852905e-02
-6.296409073977489446e-02
-6.383610848183661479e-02
-6.468674103744728732e-02
-6.551554920450598785e-02
-6.632180381331359564e-02
-6.710448113221242905e-02
-6.786226483318888447e-02
-6.859355441355459437e-02
-6.929647998162254130e-02
-6.996892306834710806e-02
-7.060854309094194425e-02
-7.121280893384000776e-02
-7.177903509487700007e-02
-7.230442173520462701e-02
-7.278609788263723512e-02
-7.322116701726998078e-02
-7.360675421592012546e-02
-7.394005402724376785e-02
-7.421837823481906848e-02
-7.443920266922861295e-02
-7.460021215715610665e-02
-7.469934293814528559e-02
-7.473482181313727268e-02
-7.470520125317180182e-02
-7.460938988905628511e-02
-7.444667793353410001e-02
-7.421675701072691367e-02
-7.391973407892099557e-02
-7.355613924805544379e-02
-7.312692738133010073e-02
-7.263347336278930255e-02
-7.207756118645002041e-02
-7.146136702808515706e-02
-7.078743660517732017e-02
-7.005865722342655144e-02
-6.927822491669928529e-02
-6.844960724077393810e-02
-6.757650240003597319e-02
-6.666279528416650668e-02
-6.571251118118694168e-02
-6.472976795139430417e-02
-6.371872736899282519e-02
-6.268354641615005163e-02
-6.162832931459703151e-02
-6.055708105647757133e-02
-5.947366313270026350e-02
-5.838175211164375183e-02
-5.728480179607186445e-02
-5.618600939506647463e-02
-5.508828626643680337e-02
-5.399423361927451620e-02
-5.290612347048543468e-02
-5.182588518700207564e-02
-5.075509763457748680e-02
-4.969498697763464340e-02
-4.864643016442483925e-02
-4.760996391351744739e-02
-4.658579895146996303e-02
-4.557383915020749021e-02
-4.457370530198673936e-02
-4.358476290751573529e-02
-4.260615352346987933e-02
-4.163682910369674584e-02
-4.067558865422036402e-02
-3.972111665025342825e-02
-3.877202233122949149e-02
-3.782687937098331427e-02
-3.688426521945519648e-02
-3.594279934453536302e-02
-3.500117980566504194e-02
-3.405821755536705270e-02
-3.311286785212835815e-02
-3.216425828275466803e-02
-3.121171299752665065e-02
-3.025477266714743374e-02
-2.929320999745470971e-02
-2.832704042509536987e-02
-2.735652796140301130e-02
-2.638218607703891189e-02
-2.540477360289648823e-02
-2.442528582633177528e-02
-2.344494095482452939e-02
-2.246516216778037672e-02
-2.148755562935865046e-02
-2.051388480885131191e-02
-1.954604164792491869e-02
-1.858601505031676204e-02
-1.763585717258090227e-02
-1.669764822855463252e-02
-1.577346042120068847e-02
-1.486532145829128244e-02
-1.397517840329363069e-02
-1.310486246205428210e-02
-1.225605531447000393e-02
-1.143025757151287965e-02
-1.062875988588881000e-02
-9.852617194570799722e-03
-9.102626584927020828e-03
-8.379309087108903140e-03
-7.682895817560489275e-03
-7.013318686422047830e-03
-6.370205820665783038e-03
-5.752881813676283089e-03
-5.160372886767975766e-03
-4.591416862978727614e-03
-4.044477794781773695e-03
-3.517765121665815831e-03
-3.009257064890738173e-03
-2.516727874925521208e-03
-2.037778563627748278e-03
-1.569870762751281309e-03
-1.110363135537961125e-03
-6.565497298242600321e-04
-2.056998303385383479e-04
2.449013157521923558e-04
6.979115125702833704e-04
1.155890965244561709e-03
1.621262600979604673e-03
2.096273872472195678e-03
2.582960696468956322e-03
3.083113991609940166e-03
3.598249350344146901e-03
4.129580325699802948e-03
4.677995659791338648e-03
5.244040834733989555e-03
5.827904222625146687e-03
6.429408018123884509e-03
7.048004186517233156e-03
7.682775358773585687e-03
8.332440739287766407e-03
8.995367040670563044e-03
9.669584163239116834e-03
1.035280550680313556e-02
1.104245257461993618e-02
1.173568364839681390e-02
1.242942600236345181e-02
1.312041136653330740e-02
1.380521406443736485e-02
1.448029127270444860e-02
1.514202499762571860e-02
1.578676515273186656e-02
1.641087309941098235e-02
1.701076508178855570e-02
1.758295510465370318e-02
1.812409657647561304e-02
1.863102220023957201e-02
1.910078155308867279e-02
1.953067601135732509e-02
1.991829041640214709e-02
2.026152116327238975e-02
2.055860043334584511e-02
2.080811610840274661e-02
2.100902730072331734e-02
2.116067528290301730e-02
2.126278964436710897e-02
2.131548977433901995e-02
2.131928153286926503e-02
2.127504936883544903e-02
2.118404384186238151e-02
2.104786495316545922e-02
2.086844144561647574e-02
2.064800639347960654e-02
2.038906946386357874e-02
2.009438631593827435e-02
1.976692546574386825e-02
1.940983312730258994e-02
1.902639656343240587e-02
1.862000641614912355e-02
1.819411852188837150e-02
1.775221572551195781e-02
1.729777031432074008e-02
1.683420735868226131e-02
1.636486960645308283e-02
1.589298434860110867e-02
1.542163263069491926e-02
1.495372117481396507e-02
1.449195737541881558e-02
1.403882773696912140e-02
1.359657980642832442e-02
1.316720797172791016e-02
1.275244313332395303e-02
1.235374635130907783e-02
1.197230645489587644e-02
1.160904166619120513e-02
1.126460503980270672e-02
1.093939350468597048e-02
1.063356054149442592e-02
1.034703193606261763e-02
1.007952453561011298e-02
9.830567583953063113e-03
9.599526187765175522e-03
9.385626636794260763e-03
9.187983112461623608e-03
9.005625347470787995e-03
8.837526705238397257e-03
8.682632282029414603e-03
8.539886601713468986e-03
8.408260447977322638e-03
8.286776339297264801e-03
8.174532266539354802e-03
8.070723391061847968e-03
7.974661295074217740e-03
7.885790509180276228e-03
7.803701966648757260e-03
7.728143253687540411e-03
7.659025461921541676e-03
7.596426560396996909e-03
7.540591214432366962e-03
7.491926968472987884e-03
7.450996938962548000e-03
7.418509082511744179e-03
7.395302170634724531e-03
7.382328790241519424e-03
7.380635504893694535e-03
7.391340562819788754e-03
7.415609399589379903e-03
7.454628424187568353e-03
7.509577451963711167e-03
7.581601184638614606e-03
7.671780262689209366e-03
7.781102319483348441e-03
7.910433500744815105e-03
8.060490914574761426e-03
8.231816483562822903e-03
8.424752698405483381e-03
8.639420617264630120e-03
8.875700539646251552e-03
9.133215793699109991e-03
9.411319746101553391e-03
9.709086564141567247e-03
1.002530584591231934e-02
1.035848125848514573e-02
1.070683338032309660e-02
1.106830672754769741e-02
1.144058099812307605e-02
1.182108656054214370e-02
1.220702390475066068e-02
1.259538691990882628e-02
1.298298985108510030e-02
1.336649756794747179e-02
1.374245875883543279e-02
1.410734168144087142e-02
1.445757205615174484e-02
1.478957258480303148e-02
1.509980355817225686e-02
1.538480411284064153e-02
1.564123343667584570e-02
1.586591144487106350e-02
1.605585836038967221e-02
1.620833263219615197e-02
1.632086656590754636e-02
1.639129922268752967e-02
1.641780611949080967e-02
1.639892518418958195e-02
1.633357858596396622e-02
1.622109006050193730e-02
1.606119748633957206e-02
1.585406039211871565e-02
1.560026229935956681e-02
1.530080766834416087e-02
1.495711355484223570e-02
1.457099596707116945e-02
1.414465094319459354e-02
1.368063071496417211e-02
1.318181510144250321e-02
1.265137850139576303e-02
1.209275295609840012e-02
1.150958766382141618e-02
1.090570543595613916e-02
1.028505675821419531e-02
9.651672079960912920e-03
9.009612978340358555e-03
8.362922752861856254e-03
7.715577247359952338e-03
7.071436604889065440e-03
6.434198662183891401e-03
5.807354528654146315e-03
5.194147182102970377e-03
4.597533619039541851e-03
4.020151151705697069e-03
3.464288219913473112e-03
2.931860478578843330e-03
2.424392318397041845e-03
1.943004187175676996e-03
1.488406017459705617e-03
1.060896809812097996e-03
6.603704386112146984e-04
2.863276574572423596e-04
-6.210585593117011363e-05
-3.861556055390667568e-04
-6.873689119669589226e-04
-9.675804212946302607e-04
-1.228873069161738520e-03
-1.473534972960001931e-03
-1.704012969304478237e-03
-1.922863543145169815e-03
-2.132701737593305311e-03
-2.336148970447582233e-03
-2.535780618358534581e-03
-2.734074035041801892e-03
-2.933358062082178867e-03
-3.135764736029817475e-03
-3.343183970025852617e-03
-3.557222059974338071e-03
-3.779164763199626548e-03
-4.009945514703161171e-03
-4.250119463802158257e-03
-4.499843787445874030e-03
-4.758864780717097544e-03
-5.026511872115708643e-03
-5.301698932688689823e-03
-5.582932821246563461e-03
-5.868329302609085613e-03
-6.155636160324026544e-03
-6.442263126727565230e-03
-6.725318366883313755e-03
-7.001651048770474867e-03
-7.267899319696393030e-03
-7.520543088914460189e-03
-7.755960777605063784e-03
-7.970489214326555508e-03
-8.160485694198879245e-03
-8.322391332990957888e-03
-8.452794636951328072e-03
-8.548494288744965669e-03
-8.606560098246705121e-03
-8.624391071418316054e-03
-8.599769639845981917e-03
-8.530911072506195889e-03
-8.416507340033988968e-03
-8.255764327157626148e-03
-8.048431920996836075e-03
-7.794826270802131078e-03
-7.495843690937586956e-03
-7.152965903580972909e-03
-6.768256364337789377e-03
-6.344347570906985062e-03
-5.884419376854315223e-03
-5.392168535572116304e-03
-4.871769803692208023e-03
-4.327829076840382198e-03
-3.765329202572151313e-03
-3.189569209168153455e-03
-2.606097715519130852e-03
-2.020641601286579225e-03
-1.439030994573643708e-03
-8.671216245891435288e-04
-3.107157588069874412e-04
2.245169652550282674e-04
7.331177238723991232e-04
1.209914351200335175e-03
1.650093691713999276e-03
2.049269225224653428e-03
2.403542866729547773e-03
2.709560000032750025e-03
2.964556607400066143e-03
3.166397918969470447e-03
3.313607741858853959e-03
3.405388026929825635e-03
3.441628249168940216e-03
3.422904339554546857e-03
3.350467223435959173e-03
3.226221023535169510e-03
3.052691240496558170e-03
2.832983376399784894e-03
2.570732649380447037e-03
2.270045617344053097e-03
1.935434463161814873e-03
1.571745220795769515e-03
1.184080904700569349e-03
7.777210025623233899e-04
3.580385484739436472e-04
-6.958388787601214745e-05
-4.998377687396096669e-04
-9.275704902538215455e-04
-1.347863904696468707e-03
-1.756108481268054853e-03
-2.148071582942028511e-03
-2.519958814988901112e-03
-2.868467295834902994e-03
-3.190829924020908894e-03
-3.484849909101395658e-03
-3.748924822915112188e-03
-3.982059908219777629e-03
-4.183870202866123329e-03
-4.354571542110295679e-03
-4.494960517911753516e-03
-4.606383716907863288e-03
-4.690696796320771751e-03
-4.750214087011987024e-03
-4.787649581921460396e-03
-4.806050338933426543e-03
-4.808723582423602393e-03
-4.799158726754181557e-03
-4.780945733243238682e-03
-4.757691311985705156e-03
-4.732934491209457063e-03
-4.710063228958270322e-03
-4.692233441268569075e-03
-4.682292117921557292e-03
-4.682705990789300110e-03
-4.695497174289405690e-03
-4.722187007553026866e-03
-4.763749201138273853e-03
-4.820573464312459012e-03
-4.892440256895903491e-03
-4.978507375010576483e-03
-5.077308755479638912e-03
-5.186765829216156976e-03
-5.304211219991818681e-03
-5.426424714239835682e-03
-5.549680954108341356e-03
-5.669808223754538475e-03
-5.782257332769379608e-03
-5.882179709713762118e-03
-5.964513320254135123e-03
-6.024075041898011365e-03
-6.055657933630389025e-03
-6.054131807273655831e-03
-6.014545210691883692e-03
-5.932227153644521571e-03
-5.802886805031354234e-03
-5.622709348062237926e-03
-5.388446094807769135e-03
-5.097497394055750149e-03
-4.747986664636691216e-03
-4.338824032272850864e-03
-3.869758364643645625e-03
-3.341416604623894619e-03
-2.755329577628551699e-03
-2.113943395311784247e-03
-1.420616183097853048e-03
-6.795998006436048235e-04
1.039931870986832450e-04
9.242371816764636486e-04
1.774455227717377593e-03
2.647293910652555315e-03
3.534810412695015523e-03
4.428570547451907320e-03
5.319756232134991922e-03
6.199280898691382317e-03
7.057911024543057736e-03
7.886391913779619220e-03
8.675575739792360658e-03
9.416549866383024103e-03
1.010076338919764852e-02
1.072014991811382628e-02
1.126724448878414081e-02
1.173529289629981522e-02
1.211835153839893771e-02
1.241137615843413040e-02
1.261029807541016838e-02
1.271208644777186390e-02
1.271479586555760745e-02
1.261759811056691744e-02
1.242079773778203937e-02
1.212583115160380774e-02
1.173524908719982170e-02
1.125268274082259594e-02
1.068279411757246458e-02
1.003121135738160863e-02
9.304449925786979422e-03
8.509821069984990771e-03
7.655328858805227760e-03
6.749557375091203536e-03
5.801550050936838884e-03
4.820682806250295438e-03
3.816533155044143748e-03
2.798747208557566049e-03
1.776906651141701076e-03
7.603978506914503381e-04
-2.417150025874898324e-04
-1.220810699426871796e-03
-2.168823966235752278e-03
-3.078348859792338302e-03
-3.942731246248146540e-03
-4.756148776573954420e-03
-5.513677410029469393e-03
-6.211343582725986634e-03
-6.846161413190635266e-03
-7.416154532302128045e-03
-7.920362287324185513e-03
-8.358830689605425968e-03
-8.732588353073410248e-03
-9.043608017191217055e-03
-9.294754533660059409e-03
-9.489720435361956655e-03
-9.632950245579106896e-03
-9.729555025191969145e-03
-9.785218702069633373e-03
-9.806097764436774028e-03
-9.798716257630207815e-03
-9.769857751582239000e-03
-9.726456103459761235e-03
-9.675486865864261002e-03
-9.623861089474701133e-03
-9.578323219357086013e-03
-9.545354608191452747e-03
-9.531084149779186013e-03
-9.541207332766804897e-03
-9.580914853170989856e-03
-9.654831646427037770e-03
-9.766967108066768738e-03
-9.920676972514794190e-03
-1.011863724744096332e-02
-1.036283021690329910e-02
-1.065454234942808491e-02
-1.099437372387836176e-02
-1.138225853784476625e-02
-1.181749590158203550e-02
-1.229878999278733419e-02
-1.282429850492641278e-02
-1.339168826662558848e-02
-1.399819673312356280e-02
-1.464069799876420615e-02
-1.531577195290981588e-02
-1.601977510583898340e-02
-1.674891167107360468e-02
-1.749930365448654213e-02
-1.826705852209030423e-02
-1.904833323663689473e-02
-1.983939357310958093e-02
-2.063666762400643770e-02
-2.143679277749883580e-02
-2.223665545646505426e-02
-2.303342295765927958e-02
-2.382456712378697855e-02
-2.460787972244234123e-02
-2.538147937700835702e-02
-2.614381039302492160e-02
-2.689363365843012305e-02
-2.763001022277273774e-02
-2.835227817414190735e-02
-2.906002346445905188e-02
-2.975304567658635865e-02
-3.043131961122678281e-02
-3.109495379119658551e-02
-3.174414687550398961e-02
-3.237914306769008183e-02
-3.300018764853444864e-02
-3.360748369214772852e-02
-3.420115094831711194e-02
-3.478118783324148089e-02
-3.534743749101435656e-02
-3.589955852129168845e-02
-3.643700112499446281e-02
-3.695898916620759395e-02
-3.746450859993388088e-02
-3.795230237977492704e-02
-3.842087197310922048e-02
-3.886848550215225157e-02
-3.929319225184175340e-02
-3.969284326123781459e-02
-4.006511748218039015e-02
-4.040755302955752193e-02
-4.071758276822794176e-02
-4.099257349614835594e-02
-4.122986790812394747e-02
-4.142682848321597305e-02
-4.158088244582046344e-02
-4.168956666035242287e-02
-4.175057183031445629e-02
-4.176178489593367765e-02
-4.172132887166663667e-02
-4.162759941678892406e-02
-4.147929731693855704e-02
-4.127545639824192758e-02
-4.101546615341590540e-02
-4.069908889368304555e-02
-4.032647101008341589e-02
-3.989814827806478087e-02
-3.941504512373036201e-02
-3.887846786903276924e-02
-3.829009232844757249e-02
-3.765194588442998674e-02
-3.696638450525913805e-02
-3.623606524579347371e-02
-3.546391483655087634e-02
-3.465309492344565562e-02
-3.380696474938832408e-02
-3.292904191838900291e-02
-3.202296202102981881e-02
-3.109243787475650736e-02
-3.014121918271862877e-02
-2.917305312713992099e-02
-2.819164663477083388e-02
-2.720063106722873936e-02
-2.620353000229210319e-02
-2.520372995319162396e-02
-2.420445475693301998e-02
-2.320874386907478479e-02
-2.221943479760866633e-02
-2.123914966066052512e-02
-2.027028587323935135e-02
-1.931501083230229357e-02
-1.837526046499768015e-02
-1.745274122346655507e-02
-1.654893527408840895e-02
-1.566510847041951981e-02
-1.480232059297366919e-02
-1.396143738236522991e-02
-1.314314388830936306e-02
-1.234795863857873419e-02
-1.157624796842493184e-02
-1.082824016992672139e-02
-1.010403898931418708e-02
-9.403636025987122116e-03
-8.726921642198473550e-03
-8.073694254014881361e-03
-7.443667590217679583e-03
-6.836475983033895448e-03
-6.251677471687653101e-03
-5.688754802814144883e-03
-5.147114505845801387e-03
-4.626084146926129174e-03
-4.124908037928148516e-03
-3.642741757394564722e-03
-3.178645789417003896e-03
-2.731578737438037415e-03
-2.300390569984280507e-03
-1.883816293490422032e-03
-1.480470687275825450e-03
-1.088844389329809113e-03
-7.073017923783760444e-04
-3.340812298787159047e-04
3.270225951327043078e-05
3.950513325094587649e-04
7.550776163315394557e-04
1.114989748521526269e-03
1.477078159906192829e-03
1.843696710963243493e-03
2.217241194293857482e-03
2.600125067337679275e-03
2.994752667926513841e-03
3.403490378887194089e-03
3.828636200659023096e-03
4.272388309975561939e-03
4.736813282243114605e-03
5.223814652782180108e-03
5.735102430333947031e-03
6.272164340567589966e-03
6.836239548571669891e-03
7.428295510873011986e-03
8.049008688147594320e-03
8.698749581511780113e-03
9.377572758270114051e-03
1.008521226295443218e-02
1.082108268558539324e-02
1.158428628700755234e-02
1.237362614620620381e-02
1.318762530402467319e-02
1.402455183221522177e-02
1.488244948824275597e-02
1.575917355073829657e-02
1.665243123743907067e-02
1.755982601604152288e-02
1.847890505488163429e-02
1.940720893422930027e-02
2.034232264506196861e-02
2.128192672214059000e-02
2.222384763591806270e-02
2.316610617536482564e-02
2.410696274677532128e-02
2.504495859672754496e-02
2.597895183970068758e-02
2.690814743835296535e-02
2.783212011578302739e-02
2.875082959727552623e-02
2.966462755368917681e-02
3.057425573792890705e-02
3.148083512561212355e-02
3.238584586774901491e-02
3.329109816772609504e-02
3.419869436891785630e-02
3.511098275291985732e-02
3.603050360902546739e-02
3.695992854395164368e-02
3.790199387988954505e-02
3.885942949469784607e-02
3.983488425506341579e-02
4.083084949080855591e-02
4.184958203075307692e-02
4.289302840933269939e-02
4.396275173380343598e-02
4.505986284276564113e-02
4.618495739207874318e-02
4.733806025534065265e-02
4.851857883258771376e-02
4.972526629494114503e-02
5.095619610070765276e-02
5.220874876605638426e-02
5.347961151132651220e-02
5.476479135224045919e-02
5.605964199387875047e-02
5.735890464113906767e-02
5.865676239621513827e-02
5.994690786685353406e-02
6.122262333651972560e-02
6.247687246638996411e-02
6.370240241610403142e-02
6.489185493802139548e-02
6.603788493388575154e-02
6.713328468678511629e-02
6.817111192089871097e-02
6.914481972309548252e-02
7.004838626314377481e-02
7.087644220547763274e-02
7.162439378578198956e-02
7.228853955388490904e-02
7.286617877121355502e-02
7.335570978206498727e-02
7.375671660724708589e-02
7.407004232213834638e-02
7.429784796240486433e-02
7.444365599532824784e-02
7.451237756674490564e-02
7.451032310786544210e-02
7.444519611247443769e-02
7.432607016161335567e-02
7.416334968586620058e-02
7.396871505253886647e-02
7.375505298651494068e-02
7.353637355760841987e-02
7.332771496670859035e-02
7.314503801800074922e-02
7.300511187790936773e-02
7.292539299022279820e-02
7.292389921710304423e-02
7.301908106438932677e-02
7.322969217340132009e-02
7.357466088555236761e-02
7.407296466320165140e-02
7.474350927207855377e-02
7.560501401940679378e-02
7.667590450629616083e-02
7.797421385308993258e-02
7.951749326038679011e-02
8.132273224101151110e-02
8.340628879898896730e-02
8.578382942028868474e-02
8.847027827542247591e-02
9.147977484707661699e-02
9.482563897232677841e-02
9.852034183664726275e-02
1.025754812507633090e-01
1.070017593209710849e-01
1.118089606003960790e-01
1.170059284361841118e-01
1.226005372252210041e-01
1.285996584539424170e-01
1.350091180743395181e-01
1.418336432317994222e-01
1.490767963263072982e-01
1.567408945410090904e-01
1.648269134994289620e-01
1.733343737929892991e-01
1.822612095914058483e-01
1.916036191035168645e-01
2.013558968998572507e-01
2.115102487989139191e-01
2.220565904237820076e-01
2.329823311827361465e-01
2.442721458640200738e-01
2.559077366092508687e-01
2.678675885803897261e-01
2.801267230958655596e-01
2.926564524982951387e-01
3.054241413115587056e-01
3.183929787797480926e-01
3.315217679211875934e-01
3.447647366834518112e-01
3.580713766131518594e-01
3.713863147934818865e-01
3.846492244757864221e-01
3.977947797644541539e-01
4.107526594700701694e-01
4.234476048814654892e-01
4.357995357162677830e-01
4.477237278750228477e-01
4.591310561822737335e-01
4.699283043177874819e-01
4.800185435512281384e-01
4.893015809297641683e-01
4.976744765241379875e-01
5.050321286534015242e-01
5.112679247592305520e-01
5.162744547856015220e-01
5.199442826387971062e-01
5.221707707332959858e-01
5.228489512535312578e-01
5.218764370289679100e-01
5.191543642330367359e-01
5.145883579734257252e-01
5.080895114309403882e-01
4.995753685660426768e-01
4.889708999667619627e-01
4.762094608664787510e-01
4.612337204662850798e-01
4.439965513640559691e-01
4.244618680988515580e-01
4.026054039694758058e-01
3.784154156571103989e-01
3.518933055994923897e-01
3.230541529251060862e-01
2.919271443447132852e-01
2.585558973518543024e-01
2.229986690408924666e-01
1.853284451443293901e-01
1.456329049437612433e-01
1.040142590481944740e-01
6.058895848072193280e-02
1.548727475621086702e-02
-3.114724781589724156e-02
-7.915846507679985544e-02
-1.283784270442432651e-01
-1.786282876311585943e-01
-2.297193233055739026e-01
-2.814540526129414855e-01
-3.336274472921952894e-01
-3.860282246311934617e-01
-4.384402098002967985e-01
-4.906437558646635777e-01
-5.424172085938788745e-01
-5.935384026552361636e-01
-6.437861751333846527e-01
-6.929418824401711863e-01
-7.407909062160992208e-01
-7.871241340898582628e-01
-8.317394014150546466e-01
-8.744428803877191125e-01
-9.150504036822950660e-01
-9.533887102097092781e-01
-9.892966017483268981e-01
-1.022625999969849930e+00
-1.053242894466698498e+00
-1.081028173600835585e+00
-1.105878331397373682e+00
-1.127706044897291315e+00
-1.146440617835139175e+00
-1.162028287924192549e+00
-1.174432396531810197e+00
-1.183633420796512237e+00
-1.189628869935234645e+00
-1.192433048592715705e+00
-1.192076691537506949e+00
-1.188606475318502831e+00
-1.182084413627860098e+00
-1.172587143992266379e+00
-1.160205114692207884e+00
-1.145041681566028036e+00
-1.127212124833530948e+00
-1.106842597021608476e+00
-1.084069013189119302e+00
-1.059035895282880224e+00
-1.031895182315996751e+00
-1.002805018247922897e+00
-9.719285292722982250e-01
-9.394326021181289565e-01
-9.054866743726269762e-01
-8.702615475277389878e-01
-8.339282327901793579e-01
-7.966568390793681287e-01
-7.586155117414249416e-01
-7.199694297016020483e-01
-6.808798680357557309e-01
-6.415033317725427064e-01
-6.019907657966169223e-01
-5.624868448904830620e-01
-5.231293467926648733e-01
-4.840486100503808564e-01
-4.453670776826483824e-01
-4.071989267191189477e-01
-3.696497826140115461e-01
-3.328165166685723153e-01
-2.967871239929553151e-01
-2.616406786488237879e-01
-2.274473620520545969e-01
-1.942685600681662295e-01
-1.621570238675149600e-01
-1.311570890758627927e-01
-1.013049475275997063e-01
-7.262896547968934746e-02
-4.515004256027028984e-02
-1.888200501169183879e-02
6.167972865355278618e-03
2.999892500733979811e-02
5.261563359628340653e-02
7.402815836948947736e-02
9.425136065056316514e-02
1.133044270877524018e-01
1.312103977822767498e-01
1.479957030786331895e-01
1.636897128182588645e-01
1.783243014804324067e-01
1.919334320472307343e-01
2.045527610915571504e-01
2.162192671107952824e-01
2.269709035418901455e-01
2.368462776414479720e-01
2.458843559307928583e-01
2.541241964368157746e-01
2.616047078118627911e-01
2.683644347758071813e-01
2.744413692973768915e-01
2.798727866138125964e-01
2.846951049353579899e-01
2.889437674849708038e-01
2.926531454321179559e-01
2.958564601603328459e-01
2.985857232641345727e-01
3.008716925351063720e-01
3.027438423448846061e-01
3.042303467527552319e-01
3.053580737126101452e-01
3.061525888986564303e-01
3.066381676374328458e-01
3.068378135950229901e-01
3.067732831256366199e-01
3.064651140131984808e-01
3.059326577062786434e-01
3.051941141339190589e-01
3.042665683896653150e-01
3.031660286684172423e-01
3.019074649356564555e-01
3.005048480010256151e-01
2.989711886349413206e-01
2.973185765098250166e-01
2.955582188103603736e-01
2.937004785307584243e-01
2.917549123286813928e-01
2.897303081092967858e-01
2.876347221802480481e-01
2.854755161216384618e-01
2.832593934918184453e-01
2.809924362960281030e-01
2.786801414121052312e-01
2.763274568857978508e-01
2.739388181673303446e-01
2.715181842345323338e-01
2.690690735450225746e-01
2.665945997522731759e-01
2.640975071294526244e-01
2.615802054545945943e-01
2.590448043245805465e-01
2.564931465507669928e-01
2.539268406208110562e-01
2.513472918841595516e-01
2.487557323244014851e-01
2.461532486958524502e-01
2.435408087638666896e-01
2.409192855349841234e-01
2.382894792439583243e-01
2.356521369562472323e-01
2.330079696794858934e-01
2.303576669380494046e-01
2.277019085764481199e-01
2.250413740881068991e-01
2.223767492428949388e-01
2.197087301193882125e-01
2.170380246982731021e-01
2.143653521716130939e-01
2.116914401007911339e-01
2.090170196633813204e-01
2.063428192374994752e-01
2.036695566095731713e-01
2.009979300566950289e-01
1.983286086658156422e-01
1.956622221246288595e-01
1.929993504261327542e-01
1.903405137300659411e-01
1.876861627605949379e-01
1.850366699454941977e-01
1.823923216835387495e-01
1.797533119095043319e-01
1.771197372194311115e-01
1.744915938608304906e-01
1.718687765372059473e-01
1.692510793130832525e-01
1.666381987001533393e-01
1.640297388226341357e-01
1.614252188407732380e-01
1.588240824348382818e-01
1.562257093374509187e-01
1.536294287228160138e-01
1.510345344256335820e-01
1.484403015614683963e-01
1.458460044756137719e-01
1.432509356823880309e-01
1.406544255187053283e-01
1.380558622504079180e-01
1.354547122096430856e-01
1.328505397065559424e-01
1.302430263329433235e-01
1.276319893791669213e-01
1.250173989767138227e-01
1.223993936872529165e-01
1.197782942462498057e-01
1.171546151294096672e-01
1.145290738041239431e-01
1.119025972792013074e-01
1.092763259340513854e-01
1.066516144095524948e-01
1.040300294303672241e-01
1.014133445261475586e-01
9.880353157304525014e-02
9.620274924452305865e-02
9.361332842848406333e-02
9.103775462761648507e-02
8.847864756890340410e-02
8.593873826922082682e-02
8.342084364003556074e-02
8.092783901285728609e-02
7.846262887277390130e-02
7.602811607656534409e-02
7.362716994933767023e-02
7.126259369379224495e-02
6.893709140093927379e-02
6.665323523519649240e-02
6.441343310971034408e-02
6.221989734105012881e-02
6.007461462748021896e-02
5.797931786911422747e-02
5.593546032141406832e-02
5.394419226398078360e-02
5.200634070954389399e-02
5.012239249554089476e-02
4.829248111493961854e-02
4.651637742840545459e-02
4.479348455123997874e-02
4.312283718389743614e-02
4.150310552733111474e-02
3.993260376878790541e-02
3.840930323973498067e-02
3.693085017243175061e-02
3.549458811606597680e-02
3.409758466610540023e-02
3.273666245166973604e-02
3.140843403648906074e-02
3.010934046522412491e-02
2.883569303901108508e-02
2.758371791286417726e-02
2.634960297170724566e-02
2.512954652597457900e-02
2.391980721422376846e-02
2.271675450435226354e-02
2.151691918076231377e-02
2.031704316008641278e-02
1.911412792435478528e-02
1.790548103569076024e-02
1.668875988583710945e-02
1.546201211797699690e-02
1.422371212789631106e-02
1.297279295939186665e-02
1.170867317990155823e-02
1.043127802366418909e-02
9.141054574351405865e-03
7.838980464620856278e-03
6.526565801358972033e-03
5.205848189220865438e-03
3.879380644568849231e-03
2.550212350681282242e-03
1.221862307817633570e-03
-1.017138928131596323e-04
-1.416164033810076621e-03
-2.716785542819850473e-03
-3.998577669673664299e-03
-5.256299018350436489e-03
-6.484529779059712735e-03
-7.677738063997469574e-03
-8.830349428123641931e-03
-9.936818719838699104e-03
-1.099170354707978969e-02
-1.198973814190391722e-02
-1.292590688576120486e-02
-1.379551631836793170e-02
-1.459426472361009808e-02
-1.531830817520878421e-02
-1.596432227006901530e-02
-1.652955844764312718e-02
-1.701189406170353774e-02
-1.740987539530581066e-02
-1.772275281380483042e-02
-1.795050756065995345e-02
-1.809386950674277128e-02
-1.815432547396116092e-02
-1.813411783817780662e-02
-1.803623324993636895e-02
-1.786438137171078230e-02
-1.762296381939520984e-02
-1.731703346023633766e-02
-1.695224445461279011e-02
-1.653479366428744352e-02
-1.607135385580752904e-02
-1.556899963296604940e-02
-1.503512694575855936e-02
-1.447736711242412003e-02
-1.390349650167175752e-02
-1.332134300359518950e-02
-1.273869044865414205e-02
-1.216318231059709300e-02
-1.160222596605644391e-02
-1.106289876036152010e-02
-1.055185720192586100e-02
-1.007525059711470751e-02
-9.638640297373589697e-03
-9.246925644544238751e-03
-8.904277710106846960e-03
-8.614081855992890280e-03
-8.378889949962924771e-03
-8.200382855367996035e-03
-8.079343875847749476e-03
-8.015643554812807922e-03
-8.008236133941141338e-03
-8.055167746177675434e-03
-8.153596280137129573e-03
-8.299822749714635961e-03
-8.489333724534468828e-03
-8.716854364363908411e-03
-8.976411312023261507e-03
-9.261404602498836403e-03
-9.564687716110626195e-03
-9.878654584208361109e-03
-1.019533249277638706e-02
-1.050647957872453964e-02
-1.080368562420892624e-02
-1.107847468896653795e-02
-1.132240832800709453e-02
-1.152718798441897466e-02
-1.168475510738417773e-02
-1.178738779032194491e-02
-1.182779249582677911e-02
-1.179918982847376688e-02
-1.169539320977858177e-02
-1.151087942469930341e-02
-1.124085020417337280e-02
-1.088128412551605910e-02
-1.042897824762697989e-02
-9.881579047716977648e-03
-9.237602392561683820e-03
-8.496442508678252181e-03
-7.658369935588129479e-03
-6.724518714856023843e-03
-5.696863187316718487e-03
-4.578185026252442301e-03
-3.372030907684508538e-03
-2.082661937980148821e-03
-7.149955025437204582e-04
7.254593345527703824e-04
2.232671904778798198e-03
3.800164308991728010e-03
5.421088890055841651e-03
7.088307620316753113e-03
8.794472254914715431e-03
1.053210405236273094e-02
1.229367182914839485e-02
1.407166744736273491e-02
1.585867756769382408e-02
1.764745079331824992e-02
1.943095942918585464e-02
2.120245507839849108e-02
2.295551760089297594e-02
2.468409675223349684e-02
2.638254652922540286e-02
2.804565167796886291e-02
2.966864659019538206e-02
3.124722659447116968e-02
3.277755184524654836e-02
3.425624421380252249e-02
3.568037759410793569e-02
3.704746225079187660e-02
3.835542379194239321e-02
3.960257758169163228e-02
4.078759937462495683e-02
4.190949295574671052e-02
4.296755579466027264e-02
4.396134347549171539e-02
4.489063372807620966e-02
4.575539100165090106e-02
4.655573245511019503e-02
4.729189594423894444e-02
4.796421081536744041e-02
4.857307205543519996e-02
4.911891825646613752e-02
4.960221384174749726e-02
5.002343591744413259e-02
5.038306577689592725e-02
5.068158515900497013e-02
5.091947731336947391e-02
5.109723273788428777e-02
5.121535905006899952e-02
5.127439479790909388e-02
5.127492660266351476e-02
5.121760930308646292e-02
5.110318824658492687e-02
5.093252319816932161e-02
5.070661305243825273e-02
5.042662064191461707e-02
5.009389680018799806e-02
4.971000298332814427e-02
4.927673169782480211e-02
4.879612401816752626e-02
4.827048353894728555e-02
4.770238618043595030e-02
4.709468540590514007e-02
4.645051231158468102e-02
4.577327034917084980e-02
4.506662444985753274e-02
4.433448448428360666e-02
4.358098303704874277e-02
4.281044767317242900e-02
4.202736785726623320e-02
4.123635705685699954e-02
4.044211030411095503e-02
3.964935787193613753e-02
3.886281577383981362e-02
3.808713376315923244e-02
3.732684160337351731e-02
3.658629454506575479e-02
3.586961879529621672e-02
3.518065790118816982e-02
3.452292102394756423e-02
3.389953389123894628e-02
3.331319339840732585e-02
3.276612658778011583e-02
3.226005473461489997e-02
3.179616329058790325e-02
3.137507819507853041e-02
3.099684903314254072e-02
3.066093946371485635e-02
3.036622515270617773e-02
3.011099937178572314e-02
2.989298619049156683e-02
2.970936120162000552e-02
2.955677944859048251e-02
2.943141034502160663e-02
2.932897897557596584e-02
2.924481326311289750e-02
2.917389629944706908e-02
2.911092298054060098e-02
2.905036023777065463e-02
2.898650992465061013e-02
2.891357346080703286e-02
2.882571717724542043e-02
2.871713748152117385e-02
2.858212482885082867e-02
2.841512565669286616e-02
2.821080131940698066e-02
2.796408319720143643e-02
2.767022332094327963e-02
2.732483968356267875e-02
2.692395582967116452e-02
2.646403420000079110e-02
2.594200285146588611e-02
2.535527531248331010e-02
2.470176353918708198e-02
2.397988395926193422e-02
2.318855669885611440e-02
2.232719833486447938e-02
2.139570839898305085e-02
2.039445021723531454e-02
1.932422667539433411e-02
1.818625142443006451e-02
1.698211631237819819e-02
1.571375586814476380e-02
1.438340950981704773e-02
1.299358238012872542e-02
1.154700562371055277e-02
1.004659692832938697e-02
8.495422074579797936e-03
6.896658318674331670e-03
5.253560182899320689e-03
3.569428329629205799e-03
1.847582061382397819e-03
9.133585070670502328e-05
-1.696019795961870849e-03
-3.511232918196018331e-03
-5.351099962181356945e-03
-7.212470994551891702e-03
-9.092250364966303344e-03
-1.098739311023089714e-02
-1.289489737793801487e-02
-1.481179337484509959e-02
-1.673512933002253497e-02
-1.866195516338664540e-02
-2.058930442498113633e-02
-2.251417528250842029e-02
-2.443351139959460544e-02
-2.634418335412301929e-02
-2.824297151829059313e-02
-3.012655103475651505e-02
-3.199147966492697087e-02
-3.383418927143998917e-02
-3.565098145217125009e-02
-3.743802781367295412e-02
-3.919137544252700167e-02
-4.090695785026118858e-02
-4.258061155260228076e-02
-4.420809836602834775e-02
-4.578513346619870333e-02
-4.730741894038903439e-02
-4.877068260823824719e-02
-5.017072150367741373e-02
-5.150344961483117184e-02
-5.276494909878901018e-02
-5.395152424878166264e-02
-5.505975728588752977e-02
-5.608656498574001587e-02
-5.702925513682865349e-02
-5.788558175225017033e-02
-5.865379791334950077e-02
-5.933270513404275553e-02
-5.992169828193567860e-02
-6.042080477148461387e-02
-6.083071717239261350e-02
-6.115281831486835129e-02
-6.138919805063136614e-02
-6.154266092509691477e-02
-6.161672420025171570e-02
-6.161560581657067603e-02
-6.154420201483296049e-02
-6.140805451456610858e-02
-6.121330727649136605e-02
-6.096665317631394521e-02
-6.067527094050142317e-02
-6.034675286576497016e-02
-5.998902429513534168e-02
-5.961025570734803519e-02
-5.921876832903036347e-02
-5.882293470646846739e-02
-5.843107545157329857e-02
-5.805135368710830773e-02
-5.769166858700065098e-02
-5.735954956937993482e-02
-5.706205291186774303e-02
-5.680566215739950992e-02
-5.659619404531779363e-02
-5.643871144778712934e-02
-5.633744473532616842e-02
-5.629572291979604431e-02
-5.631591584147156715e-02
-5.639938847884620049e-02
-5.654646828409543718e-02
-5.675642622964686274e-02
-5.702747224147434318e-02
-5.735676519165185810e-02
-5.774043768113843594e-02
-5.817363539177931864e-02
-5.865057078182286249e-02
-5.916459047114267650e-02
-5.970825552466637459e-02
-6.027343383220430673e-02
-6.085140311540918057e-02
-6.143296344110715096e-02
-6.200855760375727221e-02
-6.256839771272276751e-02
-6.310259629163968154e-02
-6.360129993041416241e-02
-6.405482365771458797e-02
-6.445378403025101011e-02
-6.478922905703651813e-02
-6.505276287513307720e-02
-6.523666352166727911e-02
-6.533399198342837444e-02
-6.533869072943808420e-02
-6.524567041814316459e-02
-6.505088337703383849e-02
-6.475138262770081810e-02
-6.434536565910405070e-02
-6.383220212839633978e-02
-6.321244514452092900e-02
-6.248782573937174817e-02
-6.166123075285612903e-02
-6.073666428957830848e-02
-5.971919334652478484e-02
-5.861487833116472979e-02
-5.743068954059567244e-02
-5.617441072464510882e-02
-5.485453124967558380e-02
-5.348012845947769378e-02
-5.206074194464390542e-02
-5.060624160567511048e-02
-4.912669145765989620e-02
-4.763221123742782115e-02
-4.613283797036038525e-02
-4.463838935838063127e-02
-4.315833130875994933e-02
-4.170165134429199699e-02
-4.027673996614666158e-02
-3.889128158125524509e-02
-3.755215673722224479e-02
-3.626535705345167171e-02
-3.503591410047127153e-02
-3.386784327513744919e-02
-3.276410343058096947e-02
-3.172657282279956609e-02
-3.075604168472270000e-02
-2.985222149839683592e-02
-2.901377059260048033e-02
-2.823833578613992035e-02
-2.752260926070638006e-02
-2.686239972120884126e-02
-2.625271664810675462e-02
-2.568786632069250744e-02
-2.516155793600374432e-02
-2.466701831987338708e-02
-2.419711321352774683e-02
-2.374447330563168174e-02
-2.330162295873525191e-02
-2.286110966528178898e-02
-2.241563213807066385e-02
-2.195816506884776600e-02
-2.148207863765150966e-02
-2.098125086826677088e-02
-2.045017116790576878e-02
-1.988403339038553874e-02
-1.927881707900094138e-02
-1.863135565394587884e-02
-1.793939057159638084e-02
-1.720161056284823936e-02
-1.641767555945416665e-02
-1.558822490898294916e-02
-1.471486986390754294e-02
-1.380017055232949513e-02
-1.284759785527998799e-02
-1.186148085051085509e-02
-1.084694080045352227e-02
-9.809812661348320945e-03
-8.756555512863599747e-03
-7.694153295017857816e-03
-6.630007486024628791e-03
-5.571823452657577273e-03
-4.527492254519883616e-03
-3.504969810608356186e-03
-2.512155229459054478e-03
-1.556770213992012767e-03
-6.462414343671276425e-04
2.124123142567695718e-04
1.012686494121340687e-03
1.748689215830231177e-03
2.415230127191872467e-03
3.007898467611862161e-03
3.523129301065192152e-03
3.958256873857378226e-03
4.311554540643923288e-03
4.582260679846994131e-03
4.770590291389466275e-03
4.877732384799772850e-03
4.905833272397472702e-03
4.857966034694055808e-03
4.738087012695037931e-03
4.550980036744690232e-03
4.302189230284690288e-03
3.997941826366863474e-03
3.645062039344211177e-03
3.250877584480412526e-03
2.823120231006936813e-03
2.369822044284547544e-03
1.899208895648933160e-03
1.419592961543537403e-03
9.392657353821377798e-04
4.663931818789606278e-04
8.914604374469707024e-06
-4.255533152144157769e-04
-8.298060267802812159e-04
-1.197132954435585744e-03
-1.521390576101921879e-03
-1.797065813792977267e-03
-2.019329109079824429e-03
-2.184076527203348324e-03
-2.287960498384406568e-03
-2.328409164550101444e-03
-2.303634278995397681e-03
-2.212627830471447250e-03
-2.055147744269411950e-03
-1.831693345386251840e-03
-1.543471156602118028e-03
-1.192351946169044937e-03
-7.808200225714448167e-04
-3.119157931612475212e-04
2.108272569237310348e-04
7.834499190079672465e-04
1.401637685661408792e-03
2.060792904099416518e-03
2.756107552830686439e-03
3.482635231024175035e-03
4.235361197015595665e-03
5.009269406985609498e-03
5.799405441428776876e-03
6.600934452051238598e-03
7.409193226161837204e-03
8.219735750395381832e-03
9.028371736401887698e-03
9.831197726636160816e-03
1.062462048909133122e-02
1.140537261241373994e-02
1.217052046061430776e-02
1.291746457446607543e-02
1.364393299282845584e-02
1.434796794602980798e-02
1.502790650943558112e-02
1.568235594738601191e-02
1.631016453466482483e-02
1.691038872287939018e-02
1.748225767510189557e-02
1.802513608198143963e-02
1.853848617458885364e-02
1.902183007148506438e-02
1.947471326342636519e-02
1.989667030182235702e-02
2.028719348435191472e-02
2.064570530915015717e-02
2.097153544069514305e-02
2.126390274871371722e-02
2.152190288016667466e-02
2.174450184529287677e-02
2.193053567261190120e-02
2.207871632970942119e-02
2.218764389925463251e-02
2.225582472518039534e-02
2.228169524908376470e-02
2.226365117787517875e-02
2.220008137646580643e-02
2.208940584904786619e-02
2.193011702996902276e-02
2.172082363551701770e-02
2.146029605942971138e-02
2.114751247676067980e-02
2.078170467153247353e-02
2.036240263162913261e-02
1.988947684507168245e-02
1.936317747572930542e-02
1.878416942646519636e-02
1.815356252278485516e-02
1.747293600945135778e-02
1.674435668745875155e-02
1.597039019972801982e-02
1.515410486845459107e-02
1.429906788197353798e-02
1.340933360733762882e-02
1.248942393307787661e-02
1.154430077892309309e-02
1.057933093769795191e-02
9.600243563333509672e-03
8.613080909183772060e-03
7.624142771851668936e-03
6.639925512332809504e-03
5.667056252416577400e-03
4.712223410705176224e-03
3.782104324628732424e-03
2.883291098284286591e-03
2.022215811547694447e-03
1.205076007085522944e-03
4.377617096893585483e-04
-2.742149319991721746e-04
-9.257864191596967005e-04
-1.512392092245873690e-03
-2.030034618918382695e-03
-2.475330117875655829e-03
-2.845551117402260639e-03
-3.138661556603307770e-03
-3.353343426389998778e-03
-3.489014564287910587e-03
-3.545837341674005529e-03
-3.524718078183342648e-03
-3.427297186365831343e-03
-3.255930237378253534e-03
-3.013660147530296610e-03
-2.704180860018704727e-03
-2.331793077994300661e-03
-1.901352680890201893e-03
-1.418212587847820843e-03
-8.881589307076203504e-04
-3.173423658058027209e-04
2.877944165310168342e-04
9.205920423088926339e-04
1.574251528215853471e-03
2.241911971347698967e-03
2.916727902758998667e-03
3.591945196385404500e-03
4.260974414842554243e-03
4.917460835278469888e-03
5.555349970960788558e-03
6.168947990397733588e-03
6.752976234045296976e-03
7.302619083393862773e-03
7.813564701630144882e-03
8.282038379586124932e-03
8.704827979572454452e-03
9.079301400932897684e-03
9.403415985631193019e-03
9.675719920931614981e-03
9.895345841196017192e-03
1.006199692498601847e-02
1.017592587380533424e-02
1.023790728758388301e-02
1.024920404916509174e-02
1.021152831107341626e-02
1.012699786977908252e-02
9.998088728917765150e-03
9.827584574614604482e-03
9.618524125131765884e-03
9.374147112939410637e-03
9.097839794165157173e-03
8.793080827435163782e-03
8.463388304416284355e-03
8.112268690868071688e-03
7.743168411370068144e-03
7.359428629665252554e-03
6.964243960492112230e-03
6.560625485721754968e-03
6.151368486386285354e-03
5.739025261754592856e-03
5.325883258786355198e-03
4.913948621056853962e-03
4.504935195917262290e-03
4.100259001122629095e-03
3.701037952693336450e-03
3.308096744805978564e-03
2.921976457144626147e-03
2.542948638331613432e-03
2.171033415465192795e-03
1.806021180466673391e-03
1.447497325210973232e-03
1.094869389007718232e-03
7.473963127568171872e-04
4.042189646790860956e-04
6.439149098899087944e-05
-2.730871162598444532e-04
-6.092417281881891671e-04
-9.450906174908457746e-04
-1.281616316215123492e-03
-1.619738251596198860e-03
-1.960287534232125779e-03
-2.303984210617197534e-03
-2.651417293407591289e-03
-3.003027852571929848e-03
-3.359095186716592584e-03
-3.719726310790556073e-03
-4.084848771895696964e-03
-4.454206738501715994e-03
-4.827360349104833741e-03
-5.203688124149012835e-03
-5.582392326680418217e-03
-5.962507075790098726e-03
-6.342908901615393856e-03
-6.722329476127972096e-03
-7.099370277418227092e-03
-7.472518791636946142e-03
-7.840165944533135367e-03
-8.200624514744939489e-03
-8.552148089955491708e-03
-8.892950235987172672e-03
-9.221223692671205729e-03
-9.535159223793724520e-03
-9.832963869203683108e-03
-1.011287838900514977e-02
-1.037319372158602114e-02
-1.061226622222873929e-02
-1.082853161900787856e-02
-1.102051758226180525e-02
-1.118685479352940319e-02
-1.132628651163319899e-02
-1.143767666951310893e-02
-1.152001654026168186e-02
-1.157242995256979254e-02
-1.159417726320693780e-02
-1.158465806779970103e-02
-1.154341287842188847e-02
-1.147012382763740006e-02
-1.136461452754157671e-02
-1.122684925889408554e-02
-1.105693164648137612e-02
-1.085510280962071611e-02
-1.062173934717996343e-02
-1.035735100190321618e-02
-1.006257833451229718e-02
-9.738190283652994189e-03
-9.385081738988590785e-03
-9.004271139811821298e-03
-8.596898159999758621e-03
-8.164221359621318119e-03
-7.707615793815470948e-03
-7.228570626349771662e-03
-6.728686525107337169e-03
-6.209672819989456825e-03
-5.673344307387037135e-03
-5.121617626521766942e-03
-4.556506970564293095e-03
-3.980119196829902915e-03
-3.394648005334634754e-03
-2.802367229349062364e-03
-2.205623119117112313e-03
-1.606825393308337381e-03
-1.008437216823014886e-03
-4.129639119001754575e-04
1.770595873057730248e-04
7.590825357157813136e-04
1.330553417781208010e-03
1.888936149175130062e-03
2.431727293207572218e-03
2.956474204128815581e-03
3.460793960350102162e-03
3.942392907122977720e-03
4.399086584837868207e-03
4.828819801390511063e-03
5.229686604022011111e-03
5.599949862919762454e-03
5.938060249256869698e-03
6.242674218716250979e-03
6.512670771190093473e-03
6.747166721634488031e-03
6.945530132349382428e-03
7.107391662865281123e-03
7.232653636065750763e-03
7.321496563803021017e-03
7.374382903530108876e-03
7.392057954867749595e-03
7.375547656768741481e-03
7.326153287703064676e-03
7.245443035158001359e-03
7.135240353099768333e-03
6.997609273111955915e-03
6.834836619729636915e-03
6.649411405880580918e-03
6.444001498489800202e-03
6.221427840807955238e-03
5.984636428676829920e-03
5.736668433490910157e-03
5.480628794466782701e-03
5.219653592644404351e-03
4.956876693055853843e-03
4.695395960076388826e-03
4.438239533239264449e-03
4.188332647593027286e-03
3.948465370310431585e-03
3.721261629516555650e-03
3.509150019772648305e-03
3.314336769517215332e-03
3.138781216760822609e-03
2.984174119359257315e-03
2.851919116024016852e-03
2.743117641635276372e-03
2.658557428530589680e-03
2.598704805161243525e-03
2.563700917973424625e-03
2.553361833617293335e-03
2.567182708597022522e-03
2.604345819931028119e-03
2.663732471740114238e-03
2.743938536486696233e-03
2.843293454283868978e-03
2.959882412910486670e-03
3.091571564815800022e-03
3.236035747461817220e-03
3.390788396676963461e-03
3.553213386895231508e-03
3.720598218709361693e-03
3.890168226074177445e-03
4.059121301455839194e-03
4.224662662080292189e-03
4.384039308228605998e-03
4.534573637310745919e-03
4.673695905631686243e-03
4.798974969905212690e-03
4.908147130335045565e-03
4.999142525916665941e-03
5.070108950577406973e-03
5.119432712197857262e-03
5.145756355411120267e-03
5.147993002832393188e-03
5.125337272514119552e-03
5.077272644279033631e-03
5.003575208585029147e-03
4.904313855777876936e-03
4.779846950617814422e-03
4.630815496669349676e-03
4.458133101218593811e-03
4.262972893108103387e-03
4.046751548476871033e-03
3.811110666662016755e-03
3.557895858772072272e-03
3.289133825971535599e-03
3.007007752899461435e-03
2.713831389666480388e-03
2.412022103109195004e-03
2.104073331390224431e-03
1.792526714835675043e-03
1.479944318139469811e-03
1.168881244876039237e-03
8.618590046385437567e-04
5.613398542844286795e-04
2.697024414165762789e-04
-1.078090905223757728e-05
-2.779651974594395049e-04
-5.298517632740525974e-04
-7.646051853364922626e-04
-9.805678689430983620e-04
-1.176272297264071122e-03
-1.350450863223880398e-03
-1.502043219464189224e-03
-1.630201205441261401e-03
-1.734291322652472449e-03
-1.813894894445583278e-03
-1.868805935488008748e-03
-1.899026878411915961e-03
-1.904762325721034511e-03
-1.886410915396327572e-03
-1.844555471208009787e-03
-1.779951687328532083e-03
-1.693515538696027710e-03
-1.586309506678976276e-03
-1.459527925248514484e-03
-1.314481684071575800e-03
-1.152582356400267240e-03
-9.753260887293443938e-04
-7.842773364436100587e-04
-5.810527205319514655e-04
-3.673050940906207192e-04
-1.447080355296306538e-04
8.505912104925484826e-05
3.203255740722851450e-04
5.594425048310570046e-04
8.007956874822575160e-04
1.042817046762856744e-03
1.283995155483087357e-03
1.522884651145779179e-03
1.758114474067711160e-03
1.988394911551619008e-03
2.212523456084525275e-03
2.429389438448890156e-03
2.637977493659482333e-03
2.837369789871353829e-03
3.026747104868801781e-03
3.205388833398411901e-03
3.372671904457546881e-03
3.528068626687270309e-03
3.671143558830632786e-03
3.801549476528505878e-03
3.919022451605871926e-03
4.023376227163421269e-03
4.114495791651518776e-03
4.192330324761218106e-03
4.256885538407665856e-03
4.308215561577602784e-03
4.346414399106554062e-03
4.371607056848936593e-03
4.383940399924244127e-03
4.383573843805166348e-03
4.370670017916460960e-03
4.345385424702284845e-03
4.307861255103067645e-03
4.258214384150573080e-03
4.196528718454853486e-03
4.122846900027585769e-03
4.037162615005533868e-03
3.939413510663953080e-03
3.829474780930935181e-03
3.707153693710234146e-03
3.572184941249823692e-03
3.424227106120395631e-03
3.262860206085601948e-03
3.087584426080218405e-03
2.897820146035746600e-03
2.692909346778171991e-03
2.472118341366758357e-03
2.234641974611907556e-03
1.979609320260559621e-03
1.706090791713925922e-03
1.413106742922697447e-03
1.099637515992493405e-03
7.646348370946395205e-04
4.070345807010229862e-04
2.577072051946090707e-05
-3.802096016633889830e-04
-8.119300656570133416e-04
-1.270368274982451974e-03
-1.756438248690891804e-03
-2.270972479916576105e-03
-2.814703785280835147e-03
-3.388247127876347145e-03
-3.992081691927705858e-03
-4.626533472032821198e-03
-5.291758603031189792e-03
-5.987727767274872090e-03
-6.714211842518242115e-03
-7.470769177770733398e-03
-8.256734673672889990e-03
-9.071210908021664493e-03
-9.913061591143581056e-03
-1.078090752379951174e-02
-1.167312519755769711e-02
-1.258784828706324167e-02
-1.352297206311444538e-02
-1.447616089702333415e-02
-1.544485884807848819e-02
-1.642630331600592603e-02
-1.741754180810315550e-02
-1.841545161902518116e-02
-1.941676243940497135e-02
-2.041808162449081782e-02
-2.141592184279840494e-02
-2.240673090282985572e-02
-2.338692351500040387e-02
-2.435291457296873477e-02
-2.530115350916033526e-02
-2.622815937477072923e-02
-2.713055618678004988e-02
-2.800510810466144695e-02
-2.884875389669563570e-02
-2.965864023916910119e-02
-3.043215336377861138e-02
-3.116694855578072340e-02
-3.186097698296971870e-02
-3.251250948992647632e-02
-3.312015691804261197e-02
-3.368288648946645564e-02
-3.420003399872909716e-02
-3.467131146434986044e-02
-3.509681007213515808e-02
-3.547699817302167602e-02
-3.581271422147635358e-02
-3.610515471325551756e-02
-3.635585704829236847e-02
-3.656667742134143972e-02
-3.673976408340492994e-02
-3.687752615402033196e-02
-3.698259827609692851e-02
-3.705780151186337246e-02
-3.710610113346803768e-02
-3.713056167059533563e-02
-3.713429986905703722e-02
-3.712043619236632397e-02
-3.709204560657097111e-02
-3.705210836399684682e-02
-3.700346143648012426e-02
-3.694875142365067894e-02
-3.689038961982709502e-02
-3.683051000926628599e-02
-3.677093093382528127e-02
-3.671312099738549550e-02
-3.665816989107454488e-02
-3.660676472711095475e-02
-3.655917228473792163e-02
-3.651522767084994237e-02
-3.647432963745875223e-02
-3.643544285860867565e-02
-3.639710716947678476e-02
-3.635745393639074757e-02
-3.631422939078556705e-02
-3.626482471153796849e-02
-3.620631263429283098e-02
-3.613548995505829614e-02
-3.604892565334499865e-02
-3.594301388472338071e-02
-3.581403112563685126e-02
-3.565819670993884694e-02
-3.547173587157398389e-02
-3.525094439019600678e-02
-3.499225373903786657e-02
-3.469229595939640060e-02
-3.434796698635268070e-02
-3.395648762896338185e-02
-3.351546101549525425e-02
-3.302292558238349024e-02
-3.247740276178846808e-02
-3.187793836497635619e-02
-3.122413694653428801e-02
-3.051618846808900470e-02
-2.975488661467555473e-02
-2.894163839697878882e-02
-2.807846459439621370e-02
-2.716799090872311015e-02
-2.621342971293354890e-02
-2.521855249381778699e-02
-2.418765323755523930e-02
-2.312550316010598267e-02
-2.203729721468081562e-02
-2.092859319982932204e-02
-1.980524412151786137e-02
-1.867332478707380006e-02
-1.753905362662710674e-02
-1.640871087201319772e-02
-1.528855434380600904e-02
-1.418473404063407169e-02
-1.310320680598727264e-02
-1.204965249137607969e-02
-1.102939277429323614e-02
-1.004731412161951297e-02
-9.107795991325480164e-03
-8.214645541471145285e-03
-7.371039956871896191e-03
-6.579477363393263639e-03
-5.841737157478484738e-03
-5.158850627582979055e-03
-4.531082353609537129e-03
-3.957922808442084980e-03
-3.438092493276528796e-03
-2.969557620548015156e-03
-2.549557241272717989e-03
-2.174641542542408296e-03
-1.840720799192918774e-03
-1.543124312944776965e-03
-1.276668575796179516e-03
-1.035733628593267985e-03
-8.143465639515823449e-04
-6.062707184230916408e-04
-4.050993898607889074e-04
-2.043525694082054121e-04
2.424914011459012201e-06
2.215652453468406734e-04
4.591811458840389733e-04
7.210726681774602036e-04
1.012638645333569084e-03
1.338794408332643010e-03
1.703897073487442267e-03
2.111679662640276837e-03
2.565195187563869966e-03
3.066771703931929494e-03
3.617979176313376559e-03
4.219608628990739393e-03
4.871664124478019414e-03
5.573367719102929191e-03
6.323177502297092079e-03
7.118818292281302307e-03
7.957324700307839491e-03
8.835095892132086362e-03
9.747961138575471710e-03
1.069125517812798826e-02
1.165990213028220319e-02
1.264850654693300963e-02
1.365145017900689338e-02
1.466299286830761821e-02
1.567737578232994422e-02
1.668892525638752955e-02
1.769215551692642635e-02
1.868186847514151372e-02
1.965324885963331061e-02
2.060195306281835392e-02
2.152419006325379316e-02
2.241679297608204641e-02
2.327727998486683186e-02
2.410390350367273837e-02
2.489568653447051666e-02
2.565244562780874885e-02
2.637479985221188178e-02
2.706416547689503155e-02
2.772273648791829734e-02
2.835345097836987349e-02
2.895994397342168195e-02
2.954648744807403596e-02
3.011791826929138827e-02
3.067955537492618803e-02
3.123710748627707076e-02
3.179657280618820164e-02
3.236413242058836653e-02
3.294603914004190504e-02
3.354850371955925975e-02
3.417758034602975253e-02
3.483905338452371325e-02
3.553832723898095458e-02
3.628032145656162610e-02
3.706937272589554827e-02
3.790914566350106485e-02
3.880255384160096604e-02
3.975169267123414285e-02
4.075778533417312444e-02
4.182114280326316297e-02
4.294113876481918390e-02
4.411620009724163266e-02
4.534381317636576592e-02
4.662054605519678346e-02
4.794208635891603065e-02
4.930329446561126233e-02
5.069827118952226902e-02
5.212043905066494898e-02
5.356263600612799769e-02
5.501722021083360614e-02
5.647618422052295278e-02
5.793127704796361549e-02
5.937413217526921888e-02
6.079639953876178615e-02
6.218987958419093520e-02
6.354665734560360768e-02
6.485923460552515951e-02
6.612065811790965308e-02
6.732464213041221279e-02
6.846568335355075752e-02
6.953916678779792360e-02
7.054146098193211922e-02
7.147000144787975240e-02
7.232336127641501855e-02
7.310130805365211426e-02
7.380484650850704931e-02
7.443624660708388074e-02
7.499905697426968720e-02
7.549810391580508151e-02
7.593947633494192717e-02
7.633049730882701667e-02
7.667968302173600037e-02
7.699669016043202141e-02
7.729225298921139908e-02
7.757811139022800784e-02
7.786693134262902272e-02
7.817221930498902127e-02
7.850823203785617377e-02
7.888988340266847588e-02
7.933264969865871929e-02
7.985247482679902475e-02
8.046567672719787123e-02
8.118885620955376692e-02
8.203880920275380406e-02
8.303244328754512404e-02
8.418669905248317431e-02
8.551847674599395710e-02
8.704456834528624676e-02
8.878159482007080827e-02
9.074594847938405318e-02
9.295373965163096497e-02
9.542074688572528551e-02
9.816236966435323841e-02
1.011935825065852640e-01
1.045288888649054115e-01
1.081822734987466089e-01
1.121671515881908637e-01
1.164963129424257393e-01
1.211818596297783712e-01
1.262351354115372193e-01
1.316666453324385755e-01
1.374859641240563368e-01
1.437016320309315032e-01
1.503210371549882907e-01
1.573502834018482566e-01
1.647940435978856033e-01
1.726553976358080333e-01
1.809356558668618054e-01
1.896341683534325528e-01
1.987481209725817932e-01
2.082723199268357306e-01
2.181989664503819204e-01
2.285174240439321047e-01
2.392139809360468716e-01
2.502716109202198780e-01
2.616697360789551063e-01
2.733839951380042654e-01
2.853860215186112548e-01
2.976432355043555078e-01
3.101186549426128702e-01
3.227707292178787490e-01
3.355532009561129070e-01
3.484150003308316701e-01
3.613001763208646966e-01
3.741478693098750918e-01
3.868923292225905364e-01
3.994629828184707576e-01
4.117845534780696926e-01
4.237772364378562528e-01
4.353569317940639283e-01
4.464355368604644436e-01
4.569212989042920614e-01
4.667192287088128277e-01
4.757315743284856735e-01
4.838583539116199650e-01
4.909979454678594091e-01
4.970477307310122717e-01
5.019047894707306945e-01
5.054666397076649220e-01
5.076320186998496409e-01
5.083016986526359693e-01
5.073793303408674626e-01
5.047723075686672001e-01
5.003926445060661310e-01
4.941578575740772084e-01
4.859918432365661900e-01
4.758257426078074670e-01
4.635987837284581969e-01
4.492590922538538534e-01
4.327644613453123790e-01
4.140830716541809564e-01
3.931941524917437203e-01
3.700885758288229854e-01
3.447693751483201785e-01
3.172521816475100120e-01
2.875655712880147430e-01
2.557513165982281400e-01
2.218645382502591745e-01
1.859737523902463552e-01
1.481608105816837329e-01
1.085207302104096161e-01
6.716141462357759495e-02
2.420326313054421349e-02
-2.022132775012318653e-02
-6.596856936472282606e-02
-1.128839885287717115e-01
-1.608032330751841543e-01
-2.095529694523219910e-01
-2.589518655939980207e-01
-3.088116513577819355e-01
-3.589382478189520054e-01
-4.091329561186797248e-01
-4.591936958316430450e-01
-5.089162821559970462e-01
-5.580957309642836650e-01
-6.065275802628352642e-01
-6.540092165374111755e-01
-7.003411942840011006e-01
-7.453285371339612997e-01
-7.887820090931454420e-01
-8.305193448114895904e-01
-8.703664281239320566e-01
-9.081584087460902177e-01
-9.437407475886329111e-01
-9.769701818226889101e-01
-1.007715601793098825e+00
-1.035858832726451073e+00
-1.061295315134382911e+00
-1.083934678864983736e+00
-1.103701206877041763e+00
-1.120534185825116991e+00
-1.134388141732215693e+00
-1.145232960141316481e+00
-1.153053891239703921e+00
-1.157851441565094008e+00
-1.159641154916498662e+00
-1.158453286151370776e+00
-1.154332372449221156e+00
-1.147336707660574939e+00
-1.137537725877684647e+00
-1.125019301433290764e+00
-1.109876972976546972e+00
-1.092217099822192505e+00
-1.072155959234579514e+00
-1.049818793778344084e+00
-1.025338817841174199e+00
-9.988561928416271885e-01
-9.705169804886061291e-01
-9.404720835054766193e-01
-9.088761829771078160e-01
-8.758866812905629073e-01
-8.416626593243748955e-01
-8.063638559946438855e-01
-7.701496779615104593e-01
-7.331782465879361776e-01
-6.956054888179338258e-01
-6.575842777685789731e-01
-6.192636283209927983e-01
-5.807879522253633908e-01
-5.422963764622948935e-01
-5.039221278523007275e-01
-4.657919863587048348e-01
-4.280258085240389865e-01
-3.907361218662895319e-01
-3.540277904506052287e-01
-3.179977511070116725e-01
-2.827348191133846056e-01
-2.483195616555107510e-01
-2.148242367906120776e-01
-1.823127951502139521e-01
-1.508409411799848387e-01
-1.204562503341554541e-01
-9.119833835320208248e-02
-6.309907848585155632e-02
-3.618286224491968489e-02
-1.046689918864446116e-02
1.403844894320064804e-02
3.732930439622389462e-02
5.940788438855622300e-02
8.028209180585424432e-02
9.996508995835873268e-02
1.184748658817882938e-01
1.358337862941802476e-01
1.520681504300477604e-01
1.672077433976194571e-01
1.812853937219185974e-01
1.943365383014806769e-01
2.063987979813341478e-01
2.175115662833647379e-01
2.277156139356362741e-01
2.370527111532801379e-01
2.455652696409247326e-01
2.532960059316621271e-01
2.602876273216606084e-01
2.665825413723712511e-01
2.722225897430911035e-01
2.772488068861770349e-01
2.817012038385511841e-01
2.856185771716049371e-01
2.890383429181686004e-01
2.919963951499410793e-01
2.945269885550134137e-01
2.966626445309181737e-01
2.984340797199485085e-01
2.998701561729551490e-01
3.009978520462306406e-01
3.018422516014450108e-01
3.024265533298259867e-01
3.027720948773777176e-01
3.028983933081971225e-01
3.028231993565680402e-01
3.025625641916207531e-01
3.021309172080254291e-01
3.015411533572944780e-01
3.008047286196655068e-01
2.999317620248272420e-01
2.989311427643177588e-01
2.978106410437491580e-01
2.965770212508521686e-01
2.952361560600569867e-01
2.937931401824016020e-01
2.922524024762830352e-01
2.906178154026232696e-01
2.888928006007751015e-01
2.870804294805014423e-01
2.851835180805660785e-01
2.832047153104807480e-01
2.811465837347013608e-01
2.790116723725205028e-01
2.768025809332856357e-01
2.745220150806258474e-01
2.721728324832266011e-01
2.697580794873515875e-01
2.672810181665976059e-01
2.647451440508247211e-01
2.621541944887278430e-01
2.595121480965888461e-01
2.568232155890412538e-01
2.540918225416181619e-01
2.513225846888095250e-01
2.485202764288688415e-01
2.456897932890340919e-01
2.428361092259186949e-01
2.399642296510646200e-01
2.370791411517413350e-01
2.341857588848253457e-01
2.312888726768743131e-01
2.283930928219743139e-01
2.255027965748805929e-01
2.226220764117941842e-01
2.197546910105592777e-01
2.169040197645731027e-01
2.140730218305820776e-01
2.112642004039675114e-01
2.084795729650242568e-01
2.057206480262263881e-01
2.029884089475255393e-01
2.002833051823855182e-01
1.976052512319783905e-01
1.949536334600056875e-01
1.923273247151702503e-01
1.897247067646962715e-01
1.871437001670163969e-01
1.845818013998519191e-01
1.820361266085035179e-01
1.795034615321135785e-01
1.769803167392941246e-01
1.744629875694244936e-01
1.719476179201156474e-01
1.694302668371100995e-01
1.669069770006565145e-01
1.643738440814188628e-01
1.618270859691130770e-01
1.592631108312266286e-01
1.566785828963772886e-01
1.540704850403276371e-01
1.514361771622050323e-01
1.487734494775168337e-01
1.460805698666598484e-01
1.433563245738028180e-01
1.406000515438017018e-01
1.378116658796726957e-01
1.349916770089359674e-01
1.321411972564417725e-01
1.292619415500066149e-01
1.263562183316691845e-01
1.234269117219215089e-01
1.204774550808646733e-01
1.175117963975927105e-01
1.145343559768098873e-01
1.115499769050803808e-01
1.085638690129717698e-01
1.055815471974567710e-01
1.026087649143024583e-01
9.965144378334873931e-02
9.671560032826710673e-02
9.380727082431916664e-02
9.093243541922096940e-02
8.809694259871138355e-02
8.530643493661169141e-02
8.256627737315454241e-02
7.988148893428177744e-02
7.725667889698888124e-02
7.469598821711324887e-02
7.220303721175613809e-02
6.978088006727993509e-02
6.743196685991162398e-02
6.515811363967974335e-02
6.296048101812311282e-02
6.083956144502875030e-02
5.879517534711494603e-02
5.682647625016324505e-02
5.493196474423613779e-02
5.310951103992581079e-02
5.135638581066642033e-02
4.966929885686340723e-02
4.804444506667691905e-02
4.647755696720436147e-02
4.496396310009103531e-02
4.349865148822884553e-02
4.207633721810392219e-02
4.069153322955943591e-02
3.933862334995808646e-02
3.801193655516051789e-02
3.670582138125196014e-02
3.541471963011054436e-02
3.413323825479443879e-02
3.285621849298876740e-02
3.157880146840508218e-02
3.029648913896834314e-02
2.900520008718649942e-02
2.770131934379323896e-02
2.638174157265402511e-02
2.504390714499043005e-02
2.368583076550464031e-02
2.230612223675066882e-02
2.090399913912591515e-02
1.947929147220910789e-02
1.803243814909923776e-02
1.656447552392642172e-02
1.507701815730436677e-02
1.357223218441376729e-02
1.205280172414220467e-02
1.052188883220449983e-02
8.983087568651361085e-03
7.440372896612803752e-03
5.898045157120490427e-03
4.360670832929081260e-03
2.833020518564088267e-03
1.320004861367280943e-03
-1.733905706319672612e-04
-1.642170667895294714e-03
-3.081395486958419128e-03
-4.486243537812076125e-03
-5.852072728852791318e-03
-7.174478182511895979e-03
-8.449346188280951533e-03
-9.672903642272153921e-03
-1.084176236349464542e-02
-1.195295767634543295e-02
-1.300398085199075578e-02
-1.399280496457473884e-02
-1.491790398940659804e-02
-1.577826482634555466e-02
-1.657339219043871964e-02
-1.730330634310547552e-02
-1.796853378082517716e-02
-1.857009090956864353e-02
-1.910946118679038991e-02
-1.958856596532052019e-02
-2.000972939497182301e-02
-2.037563802885311581e-02
-2.068929559473376562e-02
-2.095397357952817619e-02
-2.117315839879832171e-02
-2.135049571547878444e-02
-2.148973284329614222e-02
-2.159465997402047754e-02
-2.166905093540167151e-02
-2.171660438229238571e-02
-2.174088624944791118e-02
-2.174527414539854930e-02
-2.173290459028486346e-02
-2.170662373092844405e-02
-2.166894229251695170e-02
-2.162199536248120973e-02
-2.156750759987658556e-02
-2.150676435336997330e-02
-2.144058913792416463e-02
-2.136932790509633515e-02
-2.129284025051804419e-02
-2.121049783711007400e-02
-2.112119002419746844e-02
-2.102333681893859413e-02
-2.091490899021770239e-02
-2.079345512475224561e-02
-2.065613537541670722e-02
-2.049976147604810200e-02
-2.032084263811770666e-02
-2.011563670024053493e-02
-1.988020590377288094e-02
-1.961047671806917525e-02
-1.930230280741764351e-02
-1.895153039315875323e-02
-1.855406520316765784e-02
-1.810594006606850576e-02
-1.760338231329953637e-02
-1.704287993793608680e-02
-1.642124575935189831e-02
-1.573567864177291206e-02
-1.498382078935633042e-02
-1.416381044804465410e-02
-1.327432910651238536e-02
-1.231464246760439335e-02
-1.128463463334654707e-02
-1.018483483111036654e-02
-9.016436221655925454e-03
-7.781306330125613464e-03
-6.481988960360741611e-03
-5.121697291970930647e-03
-3.704298147405339636e-03
-2.234287435407694006e-03
-7.167569808499785287e-04
8.426469832491988122e-04
2.437773253136228842e-03
4.062022513554658203e-03
5.708411024809784476e-03
7.369640349724617540e-03
9.038172371005489050e-03
1.070630863629028900e-02
1.236627313620411450e-02
1.401029739732481509e-02
1.563070690159962944e-02
1.722000762171738142e-02
1.877097158730737722e-02
2.027672044111917399e-02
2.173080564351012253e-02
2.312728439174267445e-02
2.446079019466792029e-02
2.572659706981705874e-02
2.692067641255330851e-02
2.803974570731381996e-02
2.908130843778454835e-02
3.004368442162119388e-02
3.092603015958999071e-02
3.172834881307340371e-02
3.245148949350759593e-02
3.309713590783007475e-02
3.366778425988887352e-02
3.416671068298443581e-02
3.459792848476037075e-02
3.496613573764466992e-02
3.527665382485835333e-02
3.553535765479714365e-02
3.574859839840661274e-02
3.592311983869935638e-02
3.606596922613448941e-02
3.618440395679888011e-02
3.628579525135906120e-02
3.637753006428019742e-02
3.646691254555384926e-02
3.656106647240519453e-02
3.666683988779158992e-02
3.679071320515547167e-02
3.693871218257951256e-02
3.711632678743075064e-02
3.732843719322086889e-02
3.757924794748559311e-02
3.787223110203725984e-02
3.821007921803035168e-02
3.859466886214859421e-02
3.902703513642778732e-02
3.950735745299064489e-02
4.003495697905614520e-02
4.060830566362167576e-02
4.122504666318835276e-02
4.188202595168147302e-02
4.257533461984936568e-02
4.330036123957279465e-02
4.405185357728423623e-02
4.482398876463550980e-02
4.561045081029287129e-02
4.640451442560852152e-02
4.719913400848126106e-02
4.798703631213820098e-02
4.876081558365276403e-02
4.951302976898519503e-02
5.023629638408504822e-02
5.092338668292719500e-02
5.156731676262851088e-02
5.216143426402438527e-02
5.269949949472757522e-02
5.317575974945276673e-02
5.358501586184222926e-02
5.392268000844539777e-02
5.418482399070553845e-02
5.436821737170611374e-02
5.447035492744248253e-02
5.448947321081444584e-02
5.442455599213427003e-02
5.427532856256900295e-02
5.404224123474839908e-02
5.372644229129036608e-02
5.332974095045706076e-02
5.285456105349853329e-02
5.230388629708539183e-02
5.168119788146897930e-02
5.099040579338899593e-02
5.023577478249477424e-02
4.942184628211333808e-02
4.855335769856253952e-02
4.763516031908152787e-02
4.667213718570044356e-02
4.566912235875108389e-02
4.463082289154998022e-02
4.356174473155506599e-02
4.246612382915618267e-02
4.134786356147835545e-02
4.021047952584937829e-02
3.905705247562050314e-02
3.789019021853851088e-02
3.671199913446165225e-02
3.552406561516592565e-02
3.432744791046231370e-02
3.312267821789306038e-02
3.190977506464293817e-02
3.068826582137245546e-02
2.945721872164281871e-02
2.821528398118338526e-02
2.696074318296246691e-02
2.569156608217292373e-02
2.440547380106856262e-02
2.310000728829781497e-02
2.177259986346595511e-02
2.042065258235419012e-02
1.904161106770344350e-02
1.763304232091717633e-02
1.619271037041426775e-02
1.471864924440986419e-02
1.320923198751495879e-02
1.166323451378774474e-02
1.007989302008139437e-02
8.458953992858574827e-03
6.800715877335627470e-03
5.106061481074649147e-03
3.376480486562890519e-03
1.614081658237191165e-03
-1.784056938849576271e-04
-1.997641091422091338e-03
-3.839693081310941846e-03
-5.700070055503968398e-03
-7.573761324134969768e-03
-9.455287810934928303e-03
-1.133876173916113957e-02
-1.321795442413856332e-02
-1.508637110163331060e-02
-1.693733165389625997e-02
-1.876405606356530351e-02
-2.055975321096936356e-02
-2.231771162989290569e-02
-2.403139083630188161e-02
-2.569451171059674091e-02
-2.730114456813337656e-02
-2.884579345003709244e-02
-3.032347528701132694e-02
-3.172979267864737413e-02
-3.306099903991976258e-02
-3.431405509958762590e-02
-3.548667577515655924e-02
-3.657736662055591226e-02
-3.758544923949304339e-02
-3.851107521133812633e-02
-3.935522827866098916e-02
-4.011971457617603126e-02
-4.080714118397838625e-02
-4.142088304972194740e-02
-4.196503901401437558e-02
-4.244437729109510476e-02
-4.286427144280161722e-02
-4.323062768567056957e-02
-4.354980457767423235e-02
-4.382852633226841377e-02
-4.407379107665104767e-02
-4.429277541895864506e-02
-4.449273673398106144e-02
-4.468091467975560116e-02
-4.486443345286816875e-02
-4.505020609036942264e-02
-4.524484242739721523e-02
-4.545456199390363744e-02
-4.568511312327700608e-02
-4.594169943303851728e-02
-4.622891484941794860e-02
-4.655068798590679402e-02
-4.691023664125298920e-02
-4.731003311874947687e-02
-4.775178068629522959e-02
-4.823640153830760502e-02
-4.876403623717812802e-02
-4.933405464605425395e-02
-4.994507792282856795e-02
-5.059501116771363688e-02
-5.128108612489912232e-02
-5.199991315580120704e-02
-5.274754158268400717e-02
-5.351952728634794265e-02
-5.431100645267203375e-02
-5.511677427285109621e-02
-5.593136719324137002e-02
-5.674914747414271793e-02
-5.756438865611409467e-02
-5.837136060465090981e-02
-5.916441271391113810e-02
-5.993805401431284013e-02
-6.068702900857027988e-02
-6.140638803715559729e-02
-6.209155117171775984e-02
-6.273836465999679812e-02
-6.334314922292856587e-02
-6.390273955435180064e-02
-6.441451451077429002e-02
-6.487641770397098440e-02
-6.528696827779022216e-02
-6.564526198940742741e-02
-6.595096271703006219e-02
-6.620428473381888279e-02
-6.640596620959171581e-02
-6.655723459874589298e-02
-6.665976471641242573e-02
-6.671563023900925482e-02
-6.672724978111375937e-02
-6.669732845552819867e-02
-6.662879609396005209e-02
-6.652474318650632157e-02
-6.638835590948403975e-02
-6.622285115235183872e-02
-6.603141293563138947e-02
-6.581713118536092200e-02
-6.558294394815927797e-02
-6.533158404076810921e-02
-6.506553103444616404e-02
-6.478696924799165480e-02
-6.449775258141726697e-02
-6.419937649098668431e-02
-6.389295774475708956e-02
-6.357922196577669993e-02
-6.325849918440833164e-02
-6.293072738905541863e-02
-6.259546376781062460e-02
-6.225190340850603882e-02
-6.189890494560457146e-02
-6.153502266121625014e-02
-6.115854421779760852e-02
-6.076753334948837432e-02
-6.035987656064270568e-02
-5.993333298599233527e-02
-5.948558647542018241e-02
-5.901429876805729113e-02
-5.851716279622325156e-02
-5.799195516195266437e-02
-5.743658679210157658e-02
-5.684915087444162435e-02
-5.622796708503085411e-02
-5.557162149161854608e-02
-5.487900128341333117e-02
-5.414932379808689439e-02
-5.338215936402678635e-02
-5.257744755264869008e-02
-5.173550658417006010e-02
-5.085703578815238546e-02
-4.994311119366224433e-02
-4.899517432639367148e-02
-4.801501443523434332e-02
-4.700474465829149184e-02
-4.596677248249933512e-02
-4.490376521586591368e-02
-4.381861107369964398e-02
-4.271437658771642248e-02
-4.159426128033254233e-02
-4.046155036539585137e-02
-3.931956642405374375e-02
-3.817162092083977581e-02
-3.702096636370155042e-02
-3.587075013199278462e-02
-3.472397076317604303e-02
-3.358343736877602431e-02
-3.245173300671745642e-02
-3.133118258841779968e-02
-3.022382583580241616e-02
-2.913139580231573211e-02
-2.805530325568436623e-02
-2.699662714817095341e-02
-2.595611118383239768e-02
-2.493416659003062225e-02
-2.393088094517805894e-02
-2.294603278791546713e-02
-2.197911162828409745e-02
-2.102934296663094837e-02
-2.009571780987904482e-02
-1.917702597960684388e-02
-1.827189260303550833e-02
-1.737881699797879861e-02
-1.649621320530614624e-02
-1.562245135247380956e-02
-1.475589907964695857e-02
-1.389496211605092263e-02
-1.303812337836922006e-02
-1.218397972929566482e-02
-1.133127579085995741e-02
-1.047893411071005448e-02
-9.626081107319271399e-03
-8.772068397339793933e-03
-7.916489138644036000e-03
-7.059189021910496423e-03
-6.200271802631360935e-03
-5.340099322005684331e-03
-4.479286020751321526e-03
-3.618688127741230467e-03
-2.759387738369489546e-03
-1.902672188479984008e-03
-1.050009153436274288e-03
-2.030179812573576742e-04
6.365621542953576540e-04
1.466906552773739134e-03
2.286141140378607824e-03
3.092379629420661559e-03
3.883761038236335436e-03
4.658486747593057649e-03
5.414856302298721655e-03
6.151301353568149229e-03
6.866416976871620240e-03
7.558989772985298498e-03
8.228022101532454086e-03
8.872752103458468598e-03
9.492668973376035269e-03
1.008752324132802455e-02
1.065733181826634610e-02
1.120237769383720418e-02
1.172320427377809837e-02
1.222060449196392048e-02
1.269560483916267433e-02
1.314944462742918124e-02
1.358355090747883145e-02
1.399950948767645330e-02
1.439903259180836531e-02
1.478392388148414699e-02
1.515604132122672434e-02
1.551725883431673628e-02
1.586942733751956630e-02
1.621433599635029379e-02
1.655367439569363497e-02
1.688899640972164884e-02
1.722168649512976352e-02
1.755292904492750453e-02
1.788368143741601163e-02
1.821465130203972493e-02
1.854627853235052068e-02
1.887872237523921873e-02
1.921185390678518609e-02
1.954525411657834569e-02
1.987821756051456543e-02
2.020976156650665032e-02
2.053864107550708654e-02
2.086336865543575794e-02
2.118223939920272844e-02
2.149336033927473633e-02
2.179468376334025778e-02
2.208404390261755820e-02
2.235919635493083951e-02
2.261785941703088262e-02
2.285775664948371672e-02
2.307665990760633667e-02
2.327243189312786995e-02
2.344306762678151357e-02
2.358673393153259273e-02
2.370180621763841658e-02
2.378690186450836686e-02
2.384090950430625341e-02
2.386301369306925713e-02
2.385271457123325917e-02
2.380984188391474868e-02
2.373456320210592940e-02
2.362738613578636154e-02
2.348915453177105594e-02
2.332103851920599991e-02
2.312451866337459847e-02
2.290136446023981545e-02
2.265360757281158557e-02
2.238351010687432072e-02
2.209352860761179885e-02
2.178627438480322531e-02
2.146447094827664756e-02
2.113090918348967465e-02
2.078840118960099265e-02
2.043973353609676927e-02
2.008762081545759776e-02
1.973466040491260801e-02
1.938328929577529808e-02
1.903574371084383599e-02
1.869402234975705429e-02
1.835985394204657159e-02
1.803466972130915447e-02
1.771958148341468489e-02
1.741536551821932718e-02
1.712245287846940120e-02
1.684092623539872394e-02
1.657052337903190675e-02
1.631064736727219633e-02
1.606038325950504692e-02
1.581852110130085864e-02
1.558358493165608316e-02
1.535386723214293009e-02
1.512746827860764545e-02
1.490233976725156666e-02
1.467633194512868097e-02
1.444724330484006315e-02
1.421287219250548170e-02
1.397106925794340884e-02
1.371978977214314763e-02
1.345714491247887966e-02
1.318145113082101576e-02
1.289127654975645576e-02
1.258548359179599736e-02
1.226326689319838861e-02
1.192418585685325882e-02
1.156819120405308543e-02
1.119564484163185908e-02
1.080733255040650445e-02
1.040446928598573635e-02
9.988696674882866638e-03
9.562072830147738331e-03
9.127054354742845238e-03
8.686470766345866928e-03
8.243491525969804529e-03
7.801586319546507421e-03
7.364478930554974045e-03
6.936095532349907840e-03
6.520508050325262567e-03
6.121873494035490366e-03
5.744370166211591744e-03
5.392131781853718581e-03
5.069180562535314724e-03
4.779360289420363402e-03
4.526270528666095916e-03
4.313203020602968812e-03
4.143081293817116317e-03
4.018404607589056918e-03
3.941197081902000389e-03
3.912962933141115457e-03
3.934648684052351013e-03
4.006612937032071400e-03
4.128604313052812100e-03
4.299748119217993922e-03
4.518541901634124183e-03
4.782860143753744041e-03
5.089968202079768120e-03
5.436545261935350239e-03
5.818716194846813849e-03
6.232091805318626387e-03
6.671817022371826639e-03
7.132626319749691551e-03
7.608905678395324300e-03
8.094760109109876839e-03
8.584085920519714252e-03
9.070646505028387083e-03
9.548150712742375576e-03
1.001033253920669691e-02
1.045103104727540880e-02
1.086426931315467338e-02
1.124433112028567702e-02
1.158583445192612124e-02
1.188380057293077045e-02
1.213371768786385488e-02
1.233159825654619145e-02
1.247402908137759496e-02
1.255821351288998605e-02
1.258200504693107041e-02
1.254393193090763518e-02
1.244321234841645404e-02
1.227976001843881712e-02
1.205418017962873491e-02
1.176775597122585969e-02
1.142242554543955457e-02
1.102075021340140348e-02
1.056587420468073531e-02
1.006147663631695895e-02
9.511716483630595562e-03
8.921171335062098168e-03
8.294771066774318108e-03
7.637727239765343401e-03
6.955459511252315430e-03
6.253520063956659672e-03
5.537517292172823742e-03
4.813039872673222606e-03
4.085582339283217769e-03
3.360473355113013753e-03
2.642807709455560761e-03
1.937383061300336105e-03
1.248642288146256099e-03
5.806223289324819858e-04
-6.308971383470460866e-05
-6.793926846745636976e-04
-1.265699190895051623e-03
-1.819954814639123883e-03
-2.340648453839540462e-03
-2.826813833431657957e-03
-3.278022176632652308e-03
-3.694366275309952496e-03
-4.076436376953269068e-03
-4.425288336086109775e-03
-4.742404620072044469e-03
-5.029648901306710100e-03
-5.289215119767498759e-03
-5.523571821536095786e-03
-5.735402816253371873e-03
-5.927545163890783099e-03
-6.102925560140908846e-03
-6.264496186817595721e-03
-6.415171198199129746e-03
-6.557764795644241244e-03
-6.694932009062404266e-03
-6.829113174098754881e-03
-6.962483037959865499e-03
-7.096905333473841997e-03
-7.233893564860500308e-03
-7.374578635041640490e-03
-7.519683977800948813e-03
-7.669508400565223580e-03
-7.823917084987608642e-03
-7.982340928831110211e-03
-8.143783996951512588e-03
-8.306839261578003938e-03
-8.469712202382835217e-03
-8.630251891331945993e-03
-8.785989062928593885e-03
-8.934180672196959452e-03
-9.071860033779089935e-03
-9.195891813005927645e-03
-9.303031004048223362e-03
-9.389984847398160847e-03
-9.453476737276048092e-03
-9.490311099214530227e-03
-9.497438057079530746e-03
-9.472016984453386634e-03
-9.411477777946370207e-03
-9.313578886934716083e-03
-9.176461127909549612e-03
-8.998696425242645389e-03
-8.779330581796555497e-03
-8.517919394328801047e-03
-8.214557464453991695e-03
-7.869899195189844834e-03
-7.485171617163418126e-03
-7.062178722148457037e-03
-6.603297155866852571e-03
-6.111463216512921445e-03
-5.590151399129382123e-03
-5.043344655214063513e-03
-4.475496747733338603e-03
-3.891487183339996294e-03
-3.296569383354158375e-03
-2.696312696477387236e-03
-2.096539175185148200e-03
-1.503255837480352644e-03
-9.225835359156054445e-04
-3.606832887236529933e-04
1.763188422274197928e-04
6.824072849605842097e-04
1.151751767433795886e-03
1.578780564318451023e-03
1.958250991637388444e-03
2.285316207272168089e-03
2.555587397648554065e-03
2.765190528557334455e-03
2.910816796831965526e-03
2.989766279638244890e-03
2.999983963378844484e-03
2.940087915110863471e-03
2.809389137557572347e-03
2.607902800121553698e-03
2.336350843692401157e-03
1.996155913113125367e-03
1.589426709630682027e-03
1.118935147659173021e-03
5.880855633994203427e-04
8.764444886683964579e-07
-6.381447187363297781e-04
-1.323932815740329122e-03
-2.051001957528449538e-03
-2.813487076211716991e-03
-3.605209274795620998e-03
-4.419744150712273147e-03
-5.250492120028036822e-03
-6.090749824640439604e-03
-6.933781601799248427e-03
-7.772890127774271379e-03
-8.601485381576777847e-03
-9.413151028564546371e-03
-1.020170738415533164e-02
-1.096127026352142382e-02
-1.168630497865317738e-02
-1.237167499434914733e-02
-1.301268456085428148e-02
-1.360511508676669375e-02
-1.414525487321620714e-02
-1.462992198591624507e-02
-1.505648018800846005e-02
-1.542284785479675763e-02
-1.572750009782044808e-02
-1.596946418944562157e-02
-1.614830857416970494e-02
-1.626412590567178143e-02
-1.631751047550009798e-02
-1.630953054372727765e-02
-1.624169625867749253e-02
-1.611592371555809269e-02
-1.593449577797691544e-02
-1.570002038827556304e-02
-1.541538708376508603e-02
-1.508372243433520575e-02
-1.470834507418919759e-02
-1.429272099570200183e-02
-1.384041979658237782e-02
-1.335507247646036330e-02
-1.284033136896354892e-02
-1.229983266026634520e-02
-1.173716195834328090e-02
-1.115582338178090771e-02
-1.055921237104864158e-02
-9.950592458374069027e-03
-9.333076158071109199e-03
-8.709610082659739738e-03
-8.082964232217028366e-03
-7.455725382072632933e-03
-6.830294426024776863e-03
-6.208887437100314016e-03
-5.593540197849862505e-03
-4.986115743588892882e-03
-4.388314726848951616e-03
-3.801687989022385031e-03
-3.227650989318905320e-03
-2.667499547332410122e-03
-2.122426419536839904e-03
-1.593538294148350238e-03
-1.081872536242052063e-03
-5.884134202246623377e-04
-1.141073178106420715e-04
3.401237217042493775e-04
7.733700760339539846e-04
1.184724918122581280e-03
1.573277024279850361e-03
1.938106259057826176e-03
2.278281823591173181e-03
2.592863495182207243e-03
2.880905725473103911e-03
3.141464711336542683e-03
3.373608153200066510e-03
3.576427763283610440e-03
3.749054091952694519e-03
3.890673452581247527e-03
4.000546715264302437e-03
4.078029456453085774e-03
4.122593113189061340e-03
4.133846698683050699e-03
4.111558675158767835e-03
4.055678341519416974e-03
3.966356448542079222e-03
3.843964486342150207e-03
3.689112142536722476e-03
3.502662562419691684e-03
3.285744988451316621e-03
3.039764363748779282e-03
2.766407585767251352e-03
2.467646201728965118e-03
2.145735241222678294e-03
1.803207965002545134e-03
1.442866626470354656e-03
1.067769026237898669e-03
6.812109329196226488e-04
2.867046058898937424e-04
-1.120466302165766829e-04
-5.111774680814187063e-04
-9.066929634365786294e-04
-1.294503878211893848e-03
-1.670464687655112950e-03
-2.030413662321249070e-03
-2.370214652172945684e-03
-2.685800041527100241e-03
-2.973214310837554546e-03
-3.228657674679136138e-03
-3.448529236105127294e-03
-3.629469039600134554e-03
-3.768398498673961559e-03
-3.862558625157989055e-03
-3.909545614786868496e-03
-3.907343245862149837e-03
-3.854351650058755741e-03
-3.749412002528357008e-03
-3.591826794833033812e-03
-3.381375481192504077e-03
-3.118325158302307377e-03
-2.803436089356555871e-03
-2.437961994879131108e-03
-2.023645031400440972e-03
-1.562705503495215526e-03
-1.057826350559394439e-03
-5.121326145079581858e-04
7.083401704215228252e-05
6.871451796488606831e-04
1.332520169002335145e-03
2.002364159851437609e-03
2.691809885596185229e-03
3.395762370693060535e-03
4.108946259226767261e-03
4.825955189879191191e-03
5.541302608923805162e-03
6.249473589881364421e-03
6.944977058981305698e-03
7.622397853880354818e-03
8.276448069438948132e-03
8.902017133798718548e-03
9.494220175976576456e-03
1.004844408526290277e-02
1.056039086583759543e-02
1.102611768618480884e-02
1.144207353249942008e-02
1.180513184737879383e-02
1.211261885460299462e-02
1.236233742736655809e-02
1.255258615920528537e-02
1.268217351941900405e-02
1.275042696243444858e-02
1.275719691503598464e-02
1.270285562237009197e-02
1.258829085390407443e-02
1.241489452710769527e-02
1.218454643322884091e-02
1.189959321574960219e-02
1.156282274401180914e-02
1.117743415807870809e-02
1.074700391953069441e-02
1.027544814134780972e-02
9.766981579528806121e-03
9.226073651974980513e-03
8.657401849898419335e-03
8.065803064045489260e-03
7.456223220020166687e-03
6.833665666444535026e-03
6.203138920151733855e-03
5.569604139441635023e-03
4.937922827995281684e-03
4.312805349700211781e-03
3.698760695523746391e-03
3.100047989861497329e-03
2.520630318448102789e-03
1.964131246134602320e-03
1.433794509761801951e-03
9.324473656240206279e-04
4.624679876083199288e-04
2.575722298669411958e-05
-3.762847779007906621e-04
-7.427768962361911689e-04
-1.073369956033564179e-03
-1.368254052945645219e-03
-1.628160136620960445e-03
-1.854355635324832913e-03
-2.048634057403377322e-03
-2.213298652011534435e-03
-2.351140090400400100e-03
-2.465408334726460187e-03
-2.559778812826870881e-03
-2.638313212472322491e-03
-2.705415174050661981e-03
-2.765781202239553371e-03
-2.824347324020717431e-03
-2.886231970720707762e-03
-2.956675708043502489e-03
-3.040978288606951876e-03
-3.144433882975601353e-03
-3.272265038245157371e-03
-3.429556213514111176e-03
-3.621187689076793559e-03
-3.851770606814950305e-03
-4.125583989959573893e-03
-4.446514551201894393e-03
-4.818000129611428595e-03
-5.242977457367643118e-03
-5.723835076275669842e-03
-6.262372234958776818e-03
-6.859764189076543450e-03
-7.516534686320958461e-03
-8.232536089778082905e-03
-9.006937591576358662e-03
-9.838221798084138131e-03
-1.072419004097222538e-02
-1.166197643023997484e-02
-1.264807069516541045e-02
-1.367834971765000476e-02
-1.474811744281597121e-02
-1.585215292429383374e-02
-1.698476588679851199e-02
-1.813985928081326277e-02
-1.931099816880900086e-02
-2.049148398007368671e-02
-2.167443326425697037e-02
-2.285285993611417196e-02
-2.401975994093462005e-02
-2.516819715062597676e-02
-2.629138928348795715e-02
-2.738279268102034730e-02
-2.843618468378581593e-02
-2.944574228313095662e-02
-3.040611597066639887e-02
-3.131249757138011847e-02
-3.216068101175450361e-02
-3.294711497985165077e-02
-3.366894657206522673e-02
-3.432405513868600627e-02
-3.491107575743498254e-02
-3.542941178636812433e-02
-3.587923607373267459e-02
-3.626148077459005054e-02
-3.657781573003064668e-02
-3.683061563341054334e-02
-3.702291636156684884e-02
-3.715836089172847023e-02
-3.724113566957390487e-02
-3.727589824340989122e-02
