-4.763084936260214217e-03
-6.476216002956395462e-03
-1.051142141562919942e-02
-1.505944733323323105e-02
-1.308166169247560774e-02
-7.735655248137490725e-03
-7.978375107492504271e-04
1.265491413259397721e-02
2.667553915969743394e-02
2.946375959561915031e-02
1.693491045727296002e-02
3.468831048581853187e-04
-8.799209091748021183e-03
-1.095149002366456632e-02
-1.040082813401280344e-02
-1.022472946341807139e-02
-9.369140772939375458e-03
-6.295457523551789558e-03
-2.785318669929506569e-03
-1.215295381892404010e-04
2.742336139434187452e-03
5.362616911672475964e-03
4.730242866190341629e-03
2.433991801182007388e-03
2.210754612735301838e-03
1.545798439915570038e-03
2.117278600757829875e-04
-9.565269869389141349e-04
1.003737941432439589e-03
3.552436268341285786e-03
1.698555446973358963e-03
-4.020719525874613784e-04
-1.346948585436287494e-03
-4.774012165960877206e-03
-6.695711202140623708e-03
-4.501745904295787262e-03
-1.385741944598764238e-03
6.022419880389993539e-05
1.961088681424451308e-03
4.134906639732138615e-03
2.715212054150206722e-03
2.049971595130482913e-03
3.256831600607486884e-03
3.920066913857456550e-03
3.436329233041848091e-03
3.022831631792555467e-03
8.453830058432718368e-04
1.186494205013547765e-03
1.947005925794835892e-03
-1.525612481637799930e-03
-5.744161227056767717e-03
-8.991146471219398778e-03
-1.253537039179697561e-02
-1.239397221848914654e-02
-7.122786901520937637e-03
-7.303441916318052177e-04
4.015821834909555701e-03
6.633759824268128935e-03
7.682104069608091355e-03
8.890356797197336222e-03
9.021215993465036762e-03
8.589487174954890669e-03
1.184215065021217324e-02
1.165673353672843325e-02
1.607971396979178185e-03
-1.058605394007434801e-02
-1.494352804434951817e-02
-1.247089613646790857e-02
-8.275289234598290355e-03
-6.664990108078659714e-03
-3.051332370189090235e-03
2.780985994798067847e-03
4.079176525421463612e-03
1.155275658463024652e-03
9.201568387481615183e-04
2.682952111597840510e-03
3.939017885452289133e-03
1.733388857521467449e-03
1.960132303726640473e-03
3.639175551634826495e-03
3.642097892629128121e-03
3.251198925673022024e-03
-5.382422901006992961e-04
-4.793362001431032172e-03
-6.287590671620981071e-03
-5.008567288841756296e-03
-6.293866395569100436e-03
-6.641449139015125590e-03
-2.867736664405794774e-03
3.310784173509861202e-03
8.477810382568354286e-03
1.132913526834091258e-02
1.129942942791132242e-02
8.108666185781212080e-03
4.059849465263699886e-03
2.376692203589810394e-04
-5.757031879631531804e-04
-2.274940309296045408e-03
-6.259228962182842443e-03
-1.126607883977796820e-02
-1.458427827222975350e-02
-1.632649389900366760e-02
-1.943862653616817635e-02
-1.751163296067118069e-02
-5.184766652557392178e-03
1.297129339995024139e-02
3.065952820574624829e-02
3.967284485953483791e-02
3.185527083393029785e-02
1.419837901251371111e-02
-1.835288410582137106e-03
-1.204363208430314462e-02
-1.793144631259043983e-02
-1.798029251458790195e-02
-1.570318850173369959e-02
-1.397087702733350485e-02
-1.041369247059842872e-02
-3.818664592035023262e-03
4.347362593707038841e-03
8.407118261232112214e-03
1.036470922703115055e-02
8.753834479533756721e-03
3.964971809005568559e-03
-5.461182276571814685e-04
5.310043966067775440e-05
2.150982386409621273e-04
-1.039341384853269745e-03
-7.347031437605190760e-04
-6.398640927743077383e-04
-4.020113417092700077e-04
-1.360795277128980718e-03
-4.436136675891836777e-04
7.042942415083343300e-05
1.250045939178218461e-03
3.089014910748803366e-03
5.414493435544647697e-04
-2.284799382112400433e-03
-2.196200007774179886e-03
-4.205674890338323099e-04
-6.214513694666270755e-04
-8.097456125755723598e-04
-6.675089303870356764e-04
-4.802733407802978346e-04
1.455799500042330918e-03
1.813157226430078817e-03
-2.924288732611021150e-04
-2.846384318638538278e-03
-2.768726172918135973e-03
4.215393964192216849e-04
4.451744913998240474e-03
5.667225390287733248e-03
2.997745477371807892e-03
-5.164876750450920258e-04
-3.064300980206436254e-03
-4.977343473995679904e-03
-3.845416532746212101e-03
-1.991820094883782737e-03
2.412658624484587881e-04
3.119525585984835037e-03
2.480701402628294073e-03
1.330858884090739287e-03
1.604645256803142366e-03
1.419427665151503553e-03
-8.032852354712405329e-04
-2.215655375711383848e-03
-2.559665065272580774e-03
-4.400874741519326993e-05
4.844594165243137560e-03
7.361194422550744118e-03
3.388866904754934527e-03
-1.707910631398903848e-03
-5.745386662607123579e-03
-9.108925154800122728e-03
-1.063424644777250655e-02
-1.005314574223148752e-02
-4.644407344910608457e-03
3.792450621934795383e-04
6.201555610876300154e-03
1.794854607654538040e-02
2.270545542370552144e-02
1.361973849264387117e-02
-9.436813253817461031e-04
-7.925047956140643390e-03
-9.853360238652035877e-03
-1.110041821240639187e-02
-9.322910682143250097e-03
-3.843923159270882465e-03
-9.861947423809495992e-04
8.848292688649493556e-04
5.268600940517389249e-04
-2.316997635056418261e-04
2.434703877966939035e-03
4.271540193735974197e-03
2.703346869589563686e-03
1.863478268655737206e-03
1.756185131585784537e-03
2.379439935577245461e-04
4.939544002387412456e-04
2.189661757034562072e-03
3.915486457334203634e-03
2.275969202175370711e-03
-6.278968812443203214e-04
-3.906841259599230440e-03
-8.183510989720962914e-03
-9.333064898134025775e-03
-8.095427457385744388e-03
-3.363602400386573547e-03
3.691482021129567550e-03
1.022441925273851436e-02
1.155528774802994270e-02
6.656381680195357781e-03
1.810179446680853848e-03
-2.056656269807983269e-03
-2.962947039105497549e-03
-1.226109928434800794e-03
-6.777959537873055624e-04
-2.097259099273251267e-03
-3.206548341441979328e-03
-3.854898312870432952e-03
-3.728009980198909029e-03
-1.737757786976995436e-03
4.662875580016165550e-04
1.717032652483010719e-04
1.227949966523358841e-03
4.123215047649808965e-03
4.759280697714072562e-03
4.061374679452190231e-03
2.331007994461814069e-03
3.146868259681809515e-04
5.796836047150216546e-04
-4.166183472024654016e-04
-3.166781818458472893e-03
-5.719041538039052776e-03
-4.131283942921370675e-03
-2.081806480179690996e-03
-1.713668174105074547e-03
-1.500028578142513285e-03
2.431196437326621474e-04
3.063858880098783814e-03
3.912004470717485131e-03
4.306674139087424656e-03
3.619625663563494095e-03
1.973433002839663532e-03
8.528645529743514742e-04
8.189856258089972269e-04
-2.758917631052493300e-03
-4.591932109238603364e-03
-1.978438650142322255e-03
1.256969376969597125e-05
-1.079013828526572847e-03
-2.203173931491744526e-03
-2.886425775902588028e-03
-1.974125006596968057e-04
3.011051042522879580e-03
2.828957919487419363e-03
8.466517146332363988e-04
-5.791741709955855379e-04
1.451713502626776771e-04
1.558584153928025068e-03
2.108884565218762416e-04
-6.414425641472537489e-04
-3.918485588494212543e-05
6.789330978655093701e-04
-5.981803766864257806e-04
-1.718559268794672430e-03
-5.394089143034917593e-04
4.956236690614104897e-04
-1.499157815401533172e-04
1.930715395372417697e-03
2.745002661316263328e-03
-6.373023358312217366e-04
-1.843097878374418911e-03
-1.826514374054254803e-03
-2.153570146694364171e-03
7.974468782883830428e-04
2.104060970645158044e-03
5.073784420829791173e-04
-1.129550914347392286e-03
2.115536585930527188e-04
1.601305791817734994e-03
1.792733842884170143e-03
-1.512611605270450265e-04
-1.652805080029344943e-03
-3.027108087537640040e-03
-2.294141707816079595e-03
8.539564105025214142e-04
2.916035950518758735e-03
2.989617509261872225e-03
2.310374383686250544e-05
-2.760415634620153307e-03
-2.136864740672702028e-03
-8.334157738958084417e-04
-8.160786412496211402e-04
-1.155068363563281023e-03
1.058078167547230270e-03
1.553924075816127178e-03
1.854441266784960518e-03
4.085379954291687432e-03
5.179622146070136934e-03
4.357177506214809926e-03
2.061657308294195454e-03
-1.712642694596495886e-03
-4.668461904444236137e-03
-6.320709640797217248e-03
-7.536144114424095028e-03
-8.855613706811435795e-03
-8.820264257158556137e-03
-8.405342528640393288e-03
-5.081489971600194194e-03
5.797692326368004793e-03
2.091069329368312746e-02
2.743088900990719309e-02
1.751659699868339873e-02
1.893087326072262619e-03
-4.633567010915514914e-03
-4.674806399651890675e-03
-3.590145983489193612e-03
-6.260500580681518067e-03
-1.081155554271672099e-02
-1.470135843609252958e-02
-1.455865416627632677e-02
-1.365893367192548558e-02
-1.170904811310598780e-02
-1.506238815217974961e-03
1.593383936533119757e-02
2.646984331174441138e-02
2.463152921163418510e-02
1.192278304292689224e-02
-1.358579540126971527e-03
-9.246607250175833612e-03
-9.035196155286194172e-03
-3.405220794472836078e-03
1.979005531325559657e-04
-1.267363773897583904e-03
-3.526666535581531297e-03
-4.133556222330038096e-03
-3.528124322684335953e-03
-1.062753927976085562e-03
1.645211805214849164e-03
-4.781278885941767131e-05
-3.588885965178055092e-03
-3.198244017595430581e-03
1.887286794235782566e-03
6.189327776656921611e-03
6.223608033949818048e-03
3.701197071148818862e-03
3.085596145147565753e-03
4.574084292913022792e-03
3.031713019864940972e-03
-2.239850170717225340e-03
-8.414515935723744164e-03
-1.127581940310549979e-02
-1.193106640490875295e-02
-1.040641207934113466e-02
-4.738971500013032523e-03
3.671627305962375885e-03
1.554356628035258141e-02
2.118811179207256631e-02
1.438531059064078639e-02
1.839282133518837506e-03
-5.824104852659535078e-03
-7.021719992695703468e-03
-7.525500192692266728e-03
-6.413260289059137358e-03
-3.076406979072129639e-03
8.067965852474113294e-04
2.958537799936900806e-03
4.018180324012002660e-03
3.428131771849607726e-03
9.641945057713314235e-04
-3.108620270377763454e-03
-6.508457890343135634e-03
-6.310032926064464837e-03
-3.372078610345886820e-03
-5.111351330245759647e-04
1.000927716817912082e-03
4.327501286910175396e-03
5.613997416955843894e-03
5.270689912654234581e-03
2.014534676238205740e-03
-8.799570462453157414e-04
-1.839814482446467054e-03
-2.672961983337102023e-03
-1.395705263567996761e-03
1.666048876292862543e-03
3.422477375955589735e-03
2.601935077525951902e-03
-9.109742335585284162e-05
-1.207001704633385358e-03
4.200133012257032945e-04
1.389393152182898496e-03
-1.377361627794928363e-03
-4.528904868950726741e-03
-3.774840568580731335e-03
-3.193657892120115548e-03
-4.096705299845458323e-03
-4.271058661193699070e-03
-3.328576530860644263e-03
-1.343138361235105428e-03
5.274227692054012442e-04
4.912841207289590263e-03
1.135455143915076702e-02
1.599463300670473515e-02
1.188007052683872668e-02
4.226431920786095919e-03
3.576791511848634720e-04
-5.384841799117502659e-03
-1.041495830012410286e-02
-1.151335663178793510e-02
-1.106855972928060504e-02
-8.674169380510942870e-03
-4.786579025316985495e-03
-2.558019594778447332e-03
7.005707760569409009e-04
5.877926117352515190e-03
8.843327413179101829e-03
6.840043589693290370e-03
3.201788164910344178e-03
3.832450472763048160e-03
5.907828383520040763e-03
4.892268782722620189e-03
1.559521859048060245e-03
-2.884665858768648006e-03
-6.336831263589633861e-03
-5.939220331107809836e-03
-3.564005864948943062e-03
-4.127321693802836998e-03
-2.919257526932648745e-03
5.131870522886619167e-04
2.976384998597962888e-03
1.289891387485739933e-03
-5.458885885219188225e-04
1.003514130186604933e-04
-9.238020939768520597e-05
-2.705045451684395504e-05
-1.448795012534301947e-04
1.639910588116833836e-04
1.031030696022277411e-03
2.717542643546613877e-03
3.783306440267701805e-03
4.597921457191212445e-03
2.309503864682621154e-03
6.241471360221780920e-06
-1.362694424329710056e-03
-2.367625034986093821e-03
-2.494974919921737373e-03
-2.885166146426526926e-03
-1.137493340736266947e-03
1.498733314294882035e-04
-3.871281790197167970e-03
-5.498866596217816261e-03
-3.405031612796567599e-03
-5.064113604277382334e-04
1.367607573758757586e-03
4.363603639341354784e-03
6.200727776555031712e-03
4.432565462644147240e-03
1.473313144278660383e-03
-2.922919750382388664e-04
-2.633938698376990951e-03
-3.696823935382500311e-03
-1.817694267469525385e-03
-1.323108279434010359e-03
-6.262269714060661723e-04
4.516674733500682863e-04
1.448422408601642312e-03
4.319089497944232636e-03
8.256690045214468143e-03
1.107703990494678797e-02
1.014866984890741217e-02
3.630365792850551686e-03
-5.695977162362179762e-03
-1.132331566571324714e-02
-1.307580200577652778e-02
-1.496390261536909537e-02
-1.435013337620203756e-02
-1.035044757606138309e-02
-5.836775519978774224e-03
-4.260383462583509223e-03
-3.277437217413653285e-03
2.466870670971967570e-03
1.321430848478301855e-02
2.512994543067000389e-02
3.256865691941308177e-02
3.050744989739928581e-02
1.775633890988451841e-02
1.710969047245493443e-03
-1.320802751812484056e-02
-2.200031765197657876e-02
-2.300471300159918214e-02
-2.014248600520630872e-02
-1.708181357508150797e-02
-1.141424791133773507e-02
-3.951223504918817062e-03
2.951991393363151677e-03
4.618762819046422913e-03
2.724471780698293783e-03
2.519402871873587229e-03
2.419027215569937144e-03
3.430485027071817055e-03
5.306391164559703250e-03
8.501844481106890158e-03
1.522283143122516239e-02
1.858129875132280909e-02
1.144351170378062749e-02
-4.397357145096063920e-04
-9.098502290523832053e-03
-1.256200770361570913e-02
-1.193558148960185104e-02
-1.000438822038505517e-02
-7.094292822534049858e-03
-5.178107652586867726e-03
-4.511556222471067509e-03
-2.106762395996636828e-03
9.385098680491042993e-04
2.635920170314314231e-03
4.977593837875497057e-03
7.209942496791870228e-03
6.433058740651525532e-03
6.900605512571164959e-03
7.961560703057387819e-03
5.129267126926050253e-03
9.207810830032271947e-04
-1.389688991406886525e-03
-3.709561965065580075e-03
-4.569945425869015136e-03
-5.064579536579216432e-03
-6.246708406764459910e-03
-9.276914475949436800e-03
-1.145655754054772033e-02
-1.050696555343934649e-02
-7.175974989454355149e-03
-9.827817307347258297e-04
7.167961378724803725e-03
1.694967667364679839e-02
2.432453761066534145e-02
2.351665943385152294e-02
1.662347324456442746e-02
5.689213040942039945e-03
-6.515280564625088033e-03
-1.555408184003060322e-02
-2.094691879457028991e-02
-2.340001942852088304e-02
-2.112792967132061731e-02
-1.549250172607347965e-02
-6.276247024795148996e-03
7.541734705469742978e-03
2.135736099151566703e-02
2.583458371226851624e-02
1.817582289734074458e-02
6.378402918467853885e-03
-1.302812537452681949e-03
-4.596279407346323329e-03
-3.883961971567851789e-03
-2.327091706773873250e-03
-1.122662658684048459e-03
-2.083273796268249756e-03
-7.166008323632880664e-03
-1.037410178952129051e-02
-6.293960309351334832e-03
-3.145857735931559891e-04
2.206083645967418187e-03
2.651420784973705213e-03
4.424106500032448197e-04
5.068756999832559843e-04
3.658626497509107154e-03
5.827516298486164203e-03
6.141271974640980999e-03
4.786260076546399074e-03
1.481233460877225258e-03
-1.468795322909281298e-03
-3.135831055545817026e-03
-4.116530831202084781e-03
-5.459291619261615741e-03
-4.235593253600115037e-03
-4.066924742382693921e-03
-2.613314880937704990e-03
1.404533775035806493e-03
3.470006312524743803e-03
1.961890694334127508e-03
4.367159576897591019e-04
1.671932519463389076e-03
2.931118998137932901e-03
2.827751626011172029e-03
3.766189684127226305e-03
4.772071084356481127e-03
7.337783504102796030e-04
-3.553060750364676890e-03
-3.296038387636097099e-03
-2.395294574756480326e-03
-2.907289571968558854e-03
-2.444492126514675404e-03
-5.796868805992927507e-04
-1.590425434858686515e-03
-2.685470194812147123e-04
6.824112542576911368e-04
-8.121736418148363217e-04
-2.236581545130920078e-03
-2.290058209498681187e-03
-5.892313334335324768e-04
2.019081624734031261e-03
4.519021769627291386e-03
6.788301233573510417e-03
7.306120116828657141e-03
3.457879430675323603e-03
-1.748446112063532136e-03
-4.102217536581161464e-03
-3.065958042318055882e-03
-2.530500145166241638e-03
-1.346977364020348874e-03
-1.712682512838391855e-03
-3.673102132673954426e-03
-4.813954009969049520e-03
-1.938986860428618944e-03
3.130379018557709597e-03
5.078093852075088108e-03
3.939864946728158061e-03
1.437192004745448505e-03
-2.467443128484025331e-04
4.394067567174254768e-06
1.020301586358517121e-04
-3.657034477382384578e-04
-1.355435519598621394e-03
-1.911392647544899901e-03
-1.691939441467572511e-03
-8.178769786231016503e-04
-6.365489406312213692e-04
1.159603449054575795e-03
3.207459732070262661e-03
2.303197680955435585e-03
-3.421207960303682062e-04
-1.704473898375571494e-04
-4.146862153680069504e-04
-4.262370455274122356e-05
5.994132753548333647e-04
5.518590007090448321e-04
-1.145304450989993381e-03
-2.245891241412594202e-03
-1.415399499698952049e-03
7.023614635042186010e-04
1.486165335406768994e-03
-1.528073433676041819e-04
-2.616668423972888860e-04
-8.328026493022555165e-04
-8.022432514239246585e-04
-7.812683099108581539e-04
-6.166668504738856329e-04
-4.606742998667380496e-04
-9.253505636165285791e-04
1.340969930345078985e-03
3.429402599684333672e-03
3.799984017575554467e-03
3.351143828931874968e-03
1.912997143777056715e-03
1.150722012902754459e-03
-3.130075853689642047e-04
-1.551790575896360705e-03
-2.229429778133248160e-03
-2.290851628369665761e-03
-4.401842806706585641e-03
-6.778763817157024488e-03
-7.618516154109836527e-03
-8.006433556733357632e-03
-6.130230440460281496e-03
-2.025249150371243902e-03
3.019636340624422786e-03
8.582891087672406272e-03
1.845534854501761080e-02
2.873254228046938710e-02
2.430766080289815251e-02
5.738912466414253233e-03
-1.149261420327448401e-02
-1.496100447716953823e-02
-1.281316806709821912e-02
-1.298877940020912863e-02
-1.297477879396407435e-02
-1.535637697325512550e-02
-1.438739076171965253e-02
-1.095348527027374327e-02
-7.099346744203369371e-03
-4.117575945738643811e-04
1.258961824802653194e-02
2.588921069303924682e-02
3.310059205980088459e-02
2.820793037623245750e-02
1.379623467724796181e-02
-2.301902479606930760e-03
-1.400969629854116952e-02
-1.743957941866188313e-02
-1.574742552786915009e-02
-1.422149100123050285e-02
-1.171337313070113482e-02
-7.029179015594364324e-03
-1.055853955512012438e-03
5.377628587124162404e-03
7.987323338881956516e-03
8.639851327088316976e-03
6.187604155612584644e-03
3.477996028527754937e-03
1.698832841229158111e-03
-1.460179570720612297e-03
-4.489239848542186939e-03
-3.436742185363899586e-03
-1.221635261335557573e-03
-1.229163445196879275e-03
-1.974876761092756502e-03
-1.686973939854998330e-03
1.231358509712271194e-03
4.078050939545712662e-03
4.121681810197350485e-03
3.940778582335753219e-03
3.642655664826159254e-03
4.087462684850422831e-04
-1.429387385369065280e-03
-2.437664293623223368e-03
-2.273410291598985424e-03
-2.424110061932548653e-03
-2.690702028864719753e-03
-1.029027301331388944e-03
-4.118989198854210968e-04
-7.392703830640550734e-04
-3.630973865129475124e-04
1.928578047735340873e-03
1.874610485846036224e-03
-6.486885963326767274e-04
-1.630598176688890762e-03
6.619274796371220999e-04
2.781514952655320203e-03
6.743956469222780591e-04
-5.574936503166163636e-04
-1.918657249709054260e-03
-1.825716856728357108e-03
-1.908803939680735933e-03
-7.583757034628282878e-04
1.647061493021412769e-03
2.565483872724688436e-03
7.624899787949204234e-04
6.310895067484665819e-04
1.969779049022575990e-03
2.579737267241870476e-03
3.915563751654435251e-03
4.378079650364130604e-03
2.374127945678362623e-03
-2.453880153961451958e-03
-3.573447183145276717e-03
-4.491690043784910165e-03
-5.475087644311522547e-03
-6.294542670362125378e-03
-7.601579245529014456e-03
-8.036907694539290048e-03
-7.752359673741082355e-03
-5.070255880009845451e-03
3.345313959141660558e-03
1.331432412625848348e-02
1.922794801248127808e-02
1.922553106469731057e-02
1.366547325748641850e-02
7.572539750071901818e-03
2.260491635712710227e-03
-3.272189157849868160e-03
-8.805707565252915078e-03
-1.348120437775946097e-02
-1.623322211023890335e-02
-1.546556470632750105e-02
-1.453456303253593263e-02
-1.457816568255119669e-02
-1.040755164676912363e-02
-1.209191483953533800e-03
1.247932910290652266e-02
2.583978503978649408e-02
2.776106565723705441e-02
1.744874534209456610e-02
4.869685702745459380e-03
-8.402996729842327666e-05
-5.569816884992159853e-04
-4.016360145996173553e-03
-5.445146154096853867e-03
-5.628063761151378894e-03
-6.550010164622442621e-03
-1.061263454230634319e-02
-1.527904146212872606e-02
-1.337167749548404116e-02
-7.111399580484682043e-03
-6.497322043155057906e-04
4.645529257357645415e-03
9.864864362006550702e-03
1.227913496371732700e-02
1.172803710864709498e-02
1.045150023195639925e-02
8.044397317667449643e-03
4.810600194753432077e-03
8.847575163591054432e-05
-5.145434502015273914e-03
-8.568016901891385706e-03
-9.546100416785238338e-03
-7.138113457493685914e-03
-3.591281715750119317e-03
-2.501825965057158808e-03
-1.333467173323757112e-03
1.869483831431512739e-03
2.376082322645989633e-03
1.886341022614145078e-03
1.505732408665139783e-03
1.890726288521524289e-03
1.716008458412507593e-03
2.398512956179675581e-03
1.577477105036818416e-04
-2.696518134257297732e-03
-2.191791701949883427e-03
-3.234687596742161523e-04
1.964206246213321457e-03
3.100912434949581933e-03
1.655785651808318586e-03
1.376882108672362187e-03
2.804384947159195302e-03
2.361922738790843412e-03
-1.588483678879950862e-04
-2.505644736354850372e-03
-1.788888076992565948e-03
-7.313618359729337059e-04
-1.865573937141291362e-03
-5.396160440766449053e-03
-7.828786635592263621e-03
-8.842761870854972533e-03
-5.045140883425881101e-03
-1.733824725351210865e-03
1.124097350758476851e-03
1.040084670107818514e-02
1.797162323968602704e-02
1.443451898463068983e-02
3.903581710943461371e-03
-5.758812368858711242e-03
-1.041495845527043267e-02
-8.727733392442184324e-03
-2.453896060130044288e-03
4.485371320658513780e-03
8.308535368172031629e-03
9.967684114944337995e-03
5.400247873024230545e-03
-1.482995410275747159e-03
-4.120639532346582340e-03
-3.050050898612335047e-03
-4.368739097141942883e-03
-9.503606784384208139e-03
-1.261669511972274282e-02
-1.510916640995703560e-02
-1.724614675649838516e-02
-1.467315941033610696e-02
-5.315852428878469448e-03
9.056369991131544769e-03
2.767509515383162477e-02
3.944810268420120836e-02
3.453267100903413545e-02
1.943240176581257847e-02
3.728590849843332802e-03
-1.118973951197876383e-02
-2.003831326508875507e-02
-2.153272861835658220e-02
-1.911129430665736012e-02
-1.189664163683546751e-02
-3.518166764139805339e-03
-1.178828096169823878e-03
-1.914903371069894564e-03
-2.363828409579018814e-03
-1.978802095260840006e-03
1.837608182584843201e-03
6.236199669107547576e-03
7.781698194556609625e-03
8.534486537462745298e-03
8.249316417581789920e-03
4.512614281765817137e-03
-5.540303468051096473e-04
-1.062114271687554902e-03
-1.394996749478765201e-03
-3.540024053435888649e-03
-2.199870040715673058e-03
-6.540281482645927350e-04
-1.137132488309049562e-03
-1.320408990897761975e-03
1.882621749888415156e-03
4.695435889017162377e-03
2.132435072674317318e-03
-1.007281241775446513e-03
-3.408704723672887488e-03
-5.405123256594319969e-03
-5.923870803696679871e-03
-4.317689158848002882e-03
-1.893987275442251443e-03
-9.010110683316756687e-05
2.874970693939376577e-03
3.598142694363322402e-03
9.586631095821012121e-04
1.906901803851373612e-03
4.519368492358817081e-03
5.317809341303105300e-03
3.387091709882448457e-03
2.665404013030980498e-03
2.946201588066022382e-03
1.907565537167159125e-04
-4.612493975539203733e-03
-5.590548617447216491e-03
-3.725656311388236743e-03
-5.474312064611945410e-03
-5.519791439111469862e-03
-2.181706217210751825e-03
1.667009188698868492e-03
2.410439042452427755e-03
2.608109956904172059e-04
6.240526966047735876e-04
2.800287455917141542e-03
3.943726225045676367e-03
3.023911412072382079e-03
2.500068107415938812e-03
1.910564459518490762e-03
1.077736684556665622e-03
2.630593721844190296e-04
-2.117455320517682132e-03
-3.994882979400335953e-03
-3.914365521559560676e-03
-2.555914242098874210e-03
-7.466018519048510816e-04
1.915746791424773011e-03
3.097180944292904879e-03
1.543359534128584468e-03
-1.851881468830888491e-03
-1.452455567231692021e-03
3.023917062669503582e-04
1.289957987573159747e-03
1.229266453269962488e-03
7.646538962759535322e-04
-8.240766772099415282e-04
-1.655554422302436780e-03
-1.520712339238683387e-03
-5.346497951937067227e-05
1.893893079376459841e-03
8.749394981456246100e-04
-1.676786217152943402e-03
-1.892067164028591372e-03
-9.457792546309298385e-04
-9.399900023348684410e-04
8.915402234673652912e-04
1.347148557954465234e-03
7.159517307903033156e-04
1.556444022723862865e-03
2.441098510816426970e-03
2.383775015352727206e-03
2.369736802368139703e-03
1.394241152043474222e-03
1.352725895879404883e-03
2.166416191330124488e-03
1.028192451023969512e-03
-1.332950544153221244e-03
-4.764869348818661157e-03
-7.551682695172326487e-03
-9.922570025823739329e-03
-1.115639092977461014e-02
-9.895579596970509317e-03
-3.549156111394443074e-03
6.502428304749757748e-03
1.412601207892555909e-02
1.726862223561494852e-02
1.489239726386013679e-02
7.882905251816306469e-03
1.948410917711104187e-03
-1.070306856055988501e-03
-6.390981491241258181e-03
-1.009826409700754872e-02
-7.822353605520261308e-03
-2.655319054506939062e-03
-1.778314400961059300e-03
-2.105992906682182132e-03
-4.386767481099246345e-05
-1.817054339039281372e-04
-2.475987122999852730e-03
-1.643002514003304073e-03
4.749538836186976520e-04
2.835024513988412820e-03
3.656909347367289301e-03
1.478837921297716058e-03
-2.718812569431937939e-03
-7.357129023494157587e-03
-7.676785192744916587e-03
1.961859070583338045e-03
1.342050085524987280e-02
1.515147321123128110e-02
7.605263575560926304e-03
-2.414723917745961821e-03
-6.629976217587672804e-03
-4.433363242143504093e-03
-3.030437542634321132e-03
-1.557875573502214917e-03
2.314201480768356546e-04
1.488733428614792752e-04
-9.262933990194322040e-04
-2.700476948342288210e-03
-3.780377028833699880e-03
-6.000140759748926692e-04
2.969104428214742065e-03
3.401001127522336725e-03
3.770833614052079060e-03
2.766853405538088027e-03
-1.497648248097547792e-03
-6.910565297172988931e-03
-9.960242927382940634e-03
-6.505462465643103119e-03
-1.397449597721132615e-03
3.258821271428188806e-03
9.924414937037604953e-03
1.508725424171148376e-02
1.184757358222885727e-02
7.462424163574234073e-04
-1.069501482366313865e-02
-1.270308260405166902e-02
-7.441851004658998209e-03
-3.669187247404815787e-03
-3.002265412900071827e-03
-1.900254947884099212e-03
4.521734585003367272e-03
1.150799076396685945e-02
1.183776424972126338e-02
1.170188952860063900e-02
1.026784508307132700e-02
3.510644462688524477e-03
-5.239058984393718879e-03
-9.393942639286853233e-03
-9.161234910022375902e-03
-1.061185700782064402e-02
-1.209168692971805334e-02
-1.078334578691658198e-02
-1.141422580583462132e-02
-1.345968150651771257e-02
-1.010447252626188279e-02
-3.080106405016111784e-03
8.892132691937086261e-03
2.487447307580039832e-02
3.801780605977299332e-02
3.477687753211027022e-02
1.901195554461141551e-02
3.300424478093031463e-03
-8.433813779614570891e-03
-1.706944600700237985e-02
-2.137858035778751262e-02
-2.011958620715933663e-02
-1.627081300302326075e-02
-1.104959324834241426e-02
-4.961275305438014524e-03
7.207316227274420490e-05
4.523255202797003480e-03
7.586071348363615519e-03
7.615196869419171496e-03
5.614307562704387231e-03
2.161728384377040093e-03
-4.753451966601314406e-04
-9.550580842035210575e-04
-7.096290584147903983e-04
-1.060847105868767274e-03
8.885304570943918564e-04
4.007553630398183811e-03
7.101112548272481804e-03
8.453546770681477987e-03
7.208146643390992737e-03
1.699555150433910934e-03
-4.275343735536076516e-03
-6.933231293092432905e-03
-7.369023437628518212e-03
-6.045693332571077001e-03
-4.916305563529003997e-03
-6.999686835759257129e-04
2.764097756847309299e-03
4.683313362198336031e-04
-3.695966804625580322e-03
-6.406664010368046114e-03
-5.684792019618835346e-03
-2.281729873582101324e-03
1.678275182640209503e-03
6.191202109952925921e-03
9.543168073918757710e-03
9.213384987191633804e-03
8.427284736467794898e-03
6.540835428089955897e-03
3.468810835419134601e-03
-1.527274922048677550e-03
-6.621956870081054970e-03
-6.952693218180112239e-03
-5.437711512593194040e-03
-4.826872554471081309e-03
-5.248500068280556249e-03
-4.048768548501196184e-03
-9.757849989391993110e-04
4.470482054945419215e-04
2.225419497322217010e-03
3.038017615918207556e-03
2.806690515605989034e-03
3.604021952312954843e-03
2.626719970693732007e-03
-7.919153704175013828e-04
-1.518398532555363428e-04
1.120051073559990727e-03
-1.092184198102613799e-04
-1.644714775179427621e-03
-2.067631963973054487e-03
-1.248027467709398740e-04
8.468580587049827444e-04
-3.648143251729527264e-04
5.323650541263466639e-05
2.701207977775150083e-03
3.290035885160842808e-03
1.341357783088648666e-03
-1.183045373002492582e-03
-3.998378248757769940e-03
-3.764272148626989986e-03
-2.475671980494548868e-03
-1.511729747656205243e-03
-1.179284383420007827e-03
-1.936107980712494349e-03
1.403965832941345311e-03
3.798075739243634338e-03
3.856336685337427572e-03
5.060087528766602991e-03
4.011791985727720597e-03
9.647156478503773978e-04
-6.318206849425108632e-04
-2.825437075626678618e-03
-3.847513203771386805e-03
-3.143279874187469500e-03
-2.893166866081527209e-03
-1.753516045465242567e-03
-8.059639713106270167e-04
1.020102274403857220e-03
1.605484948597687500e-03
6.741090200107654985e-04
4.003940685370133471e-04
6.759825768147924296e-04
7.854640399820882104e-04
1.387869318983890425e-03
4.210154589071481504e-03
3.196696834950463108e-03
7.377911131458612893e-05
-1.294913369099116038e-03
-1.773197718659041142e-03
-2.068333793198181073e-03
-3.646282018194475696e-03
-6.444205871304058142e-03
-7.958293444066642797e-03
-5.995864759725137022e-03
-1.429382430493057092e-03
4.083842186386849385e-03
1.099254864838906595e-02
1.528395428943209004e-02
1.092258267942459483e-02
5.111493414835526113e-03
1.820717362417951677e-03
-1.709392356475040358e-03
-5.186161606434557848e-03
-6.162283688626465049e-03
-5.206760495547538281e-03
-6.043380071527009248e-03
-7.148996826621003761e-03
-6.632965783735661654e-03
-8.343989756573737260e-03
-8.452498329441227032e-03
-4.317033095380904198e-03
3.066304640333982509e-04
4.701992109285756116e-03
1.116771071092543741e-02
1.629875543023779141e-02
1.692164815017498797e-02
1.161264169065454391e-02
5.887334425668690543e-03
3.819356996901559446e-03
-3.327834441889854678e-04
-8.520365690162798669e-03
-1.490935001489911843e-02
-1.394021675348186204e-02
-8.696566457430705485e-03
-3.257971457401521737e-03
3.621690205745147699e-04
1.151185370320945449e-03
-1.445077329022138976e-04
-3.166555121362164826e-03
-5.824547416146157695e-03
-2.790250106707836339e-03
5.941429797050323553e-04
3.466303923725062917e-04
3.740588465528320739e-03
1.463617081370414096e-02
2.217359094963675462e-02
1.495532363666822982e-02
1.339629138724828450e-03
-7.489646452496686799e-03
-1.185294140379584103e-02
-1.363940892526382259e-02
-9.116653340571604508e-03
-2.646039347615701618e-03
1.572149307731425310e-03
3.630637744908355845e-03
2.888977736382667121e-03
1.490036739383681372e-03
3.297231119463471093e-03
6.116739266911789055e-03
5.210274756807754468e-03
1.079278171774507951e-03
-4.349075198192019209e-03
-1.092786191683273699e-02
-1.602303481255885897e-02
-1.574370435014338376e-02
-8.008524807410268356e-03
4.840997679325234615e-03
1.433954958255769484e-02
1.426719019422317651e-02
9.631197898490470588e-03
4.290670420271643776e-03
1.100337856284879434e-03
2.520090982615154612e-03
4.671255970342377654e-03
6.506562262905564095e-03
6.779623145342585436e-03
4.529156655835995214e-03
-2.416990176629030783e-03
-9.476201196436306526e-03
-1.077472972868913012e-02
-8.277869761315653080e-03
-7.652054908620963339e-03
-8.337742612889180796e-03
-7.823331579700370381e-03
-7.913446144776575472e-03
-7.884905402000482594e-03
-7.722435733074973704e-03
-6.478405701088285965e-03
5.842086449997115332e-04
1.218377797037966705e-02
2.388072502474958975e-02
3.109924635633298448e-02
2.727871905620083207e-02
1.653630502953198564e-02
5.593838610401693015e-03
-6.264132997070837733e-03
-1.356998490314502599e-02
-1.698647742330488056e-02
-1.868251870265465187e-02
-1.923970757675375412e-02
-1.548361007686891062e-02
-9.771141482546244830e-03
-5.558165267092730205e-03
-8.051168996344094291e-05
6.474857528328361624e-03
9.267766362114656167e-03
8.389957891162435483e-03
7.615651512850450666e-03
7.355971426758995541e-03
7.230995602184989851e-03
6.816922165120071694e-03
4.874330446505816331e-03
2.855927698408526182e-03
4.861086320949332680e-04
-3.466353520846318041e-03
-5.376760641720313566e-03
-5.599856063904533852e-03
-4.945976257415441758e-03
-3.753296467976814568e-03
-3.557463796770662327e-03
-4.950745070654161660e-03
-5.903496831051671320e-03
-5.735843161073814027e-03
-2.226800928958072058e-03
3.949502722148189905e-03
8.906103983795208776e-03
1.041390466161007562e-02
9.722927634994495485e-03
7.131327929056610962e-03
3.662674584991762374e-03
1.540625745933994479e-04
-4.567217748353057626e-03
-7.264543694822796563e-03
-5.926240160081811675e-03
-5.400524757005826376e-03
-5.790075907734919779e-03
-4.277281461903218764e-03
1.480765651165388201e-04
3.483979948915461294e-03
4.342717446377977394e-03
3.641455240265943898e-03
2.308751450146366308e-03
2.195815219446430478e-03
1.190339806071253259e-03
-1.139984603679687321e-03
-1.717600288783355201e-03
-6.693140807295695771e-04
-8.683890753124864003e-04
-1.067724333782666801e-03
-6.297026828241385904e-04
1.542200994948061303e-03
2.120757482320478286e-03
5.266642102214500951e-04
-6.137204983646085861e-04
-1.877221411780480255e-03
-3.839899728376964128e-03
-2.957977433883144346e-03
8.014909136373649535e-04
4.111533716664705559e-03
5.013698268426012780e-03
2.458770312409656617e-03
-1.557913943043392471e-03
-3.217382995779878661e-03
-1.606906812779993442e-03
-5.504410934998496107e-04
-1.588997381015987620e-03
-1.691420996736018060e-03
4.897245773727552671e-04
3.245041540705814916e-03
3.792316377776161051e-03
2.397250299112661364e-03
-2.189935551511538428e-04
-1.351669622659199812e-03
-2.108053819757716926e-03
-2.369178723072077036e-03
-1.550184159311472241e-03
4.861448509410894419e-04
1.294363049054469018e-03
1.187359587150448948e-03
1.710171330079465844e-03
6.036259098858866821e-04
-2.551501492515598039e-03
-6.031631344585398381e-03
-4.295094274143787701e-03
2.644840065350436624e-04
2.806433181818983151e-03
2.599041179724669894e-03
1.488701998389584807e-03
1.301983855162557567e-03
2.622661027050783578e-03
2.807937910663134244e-03
3.620103387571962754e-03
4.364780856425843833e-03
1.897886252756872177e-03
-2.499188221629986776e-03
-3.262450059636089542e-03
-2.895261892946761340e-03
-4.177872204575567433e-03
-4.057632791562617788e-03
-2.190683028124546221e-03
-1.247409062039120256e-03
-2.186172955648446343e-03
-2.582300396484631198e-03
-4.725755164061574976e-03
-6.478767558179674216e-03
-1.900539299570755273e-03
7.446704002528168817e-03
1.477339627458755175e-02
1.385108606637141040e-02
9.230908486311329222e-03
3.885146723055188985e-03
-1.090488915723734605e-03
-3.259638193205511084e-03
-3.864055749023773915e-03
-4.906152182631532722e-03
-6.079473867727037094e-03
-7.347442411120492720e-03
-5.880453607971294731e-03
-4.594874835350541871e-03
-3.760537553447934177e-03
-3.752827856647457643e-03
-3.384774075619335996e-03
-1.294805254994087261e-03
8.320769580909832385e-04
8.470399725492997259e-03
1.791168519643885487e-02
1.884658135580557711e-02
8.396566444233482737e-03
-4.461044154609824022e-03
-8.347573480244565094e-03
-7.935575372722925708e-03
-7.608922772232478218e-03
-5.040780051139677476e-03
-1.099839793538984764e-03
9.221918226873305254e-04
2.001521670857359168e-04
5.781164246449285336e-05
1.872327004199126200e-04
6.151319039309367104e-04
-5.888092626024760395e-04
-3.349179609022752239e-03
-2.691546680364439222e-03
1.027245206363369299e-03
2.721913241578289341e-03
2.489396015449951705e-03
2.855334354866803214e-03
3.275213209428155716e-03
2.266612646976692586e-03
-1.066943968882883313e-03
-1.390346434431065977e-03
4.728214516023040602e-05
1.366357845344016476e-03
5.182961668436787510e-04
-2.574130669607697409e-03
-5.097123895573086455e-03
-4.241270751188085802e-03
-4.028319156519713788e-04
2.665921171459574319e-03
3.504069460505900187e-03
2.638234826587618383e-03
4.479226756275338033e-04
2.194079610213069890e-04
-1.311884343216685464e-03
-3.429321578697572866e-03
7.051879982619589041e-04
8.949410784174919101e-03
1.201657502443193026e-02
7.213212639704074530e-03
-2.624225158412067747e-03
-1.263531410623316802e-02
-1.837620987383278490e-02
-2.116396101077434866e-02
-1.954147231290923742e-02
-9.446690194471888888e-03
7.372693912418768619e-03
2.272333641458249356e-02
3.063889479441916572e-02
2.644469809012902142e-02
1.300282140724056713e-02
-8.139619427717534415e-04
-9.114209804734233963e-03
-1.232522804965216143e-02
-9.996226491100868722e-03
-4.738151136043051298e-03
-2.807369110490570783e-03
-2.790525013294170315e-03
-6.207749192140446601e-04
6.704489511406631127e-04
-1.103866449270548286e-03
-4.384944421655890753e-03
-6.313394589595009918e-03
-6.858739665255681253e-03
-8.071702343203495181e-03
-7.695615280206791198e-03
-2.547083954653524534e-03
8.559384390463026238e-03
1.944613816080842730e-02
2.051869704744486642e-02
1.462040305020561627e-02
6.955618008566422095e-03
-7.054339979961409077e-04
-4.827097227845221668e-03
-6.193835652361202350e-03
-6.684273823844011364e-03
-7.265195384629441477e-03
-7.360735547031382192e-03
-9.718774365479944388e-03
-9.718882680656060896e-03
-4.522954725178187502e-03
1.430062228883504987e-03
4.351816865661815338e-03
4.908485627707375419e-03
4.393355002585103836e-03
5.324421953298639001e-03
5.940127964369262305e-03
5.989518221148249985e-03
5.354476445843354797e-03
2.065570219716109535e-03
-1.896450437514713957e-03
-3.951555068835982745e-03
-4.727399719039052442e-03
-4.389123407444906790e-03
-3.089907518926305382e-03
-5.078786017382052893e-04
-1.336425787393869533e-03
-2.771895178125845152e-03
-2.908549826563281652e-03
-3.032496616610978833e-03
-2.135668708962431151e-03
1.092019986663137323e-03
5.354545275703477894e-03
8.572536294505559221e-03
8.639762508185955606e-03
4.640211060833798057e-03
2.047704134615268494e-04
-1.368510860028783081e-03
-3.822544224314202831e-03
-6.794915174874978543e-03
-4.894553219258808430e-03
-1.122293958331683226e-03
-6.089720814518308992e-04
-2.353397497052801064e-04
7.887181396013632313e-05
1.495883534925423553e-03
3.360768484939003539e-03
1.675071553919850508e-03
-8.331057981948875729e-04
-3.555599831984459732e-04
2.197060165366832886e-03
1.194677956746173280e-03
-1.658428197256914998e-03
-3.122891216143099981e-03
-4.224016189451745666e-03
-2.319343925728189169e-03
1.116420974531871562e-03
1.403299643892688296e-03
4.176880754960795379e-04
3.324493645599590585e-04
2.698303403720565211e-03
4.627270907500474241e-03
3.217491437212977035e-03
8.954419501888339402e-04
-7.369925082757945072e-05
1.302804203684762813e-04
1.788066853582567306e-03
7.647261860491559766e-04
-1.413085910516160637e-03
-4.265721061984000494e-03
-5.458104672108604963e-03
-6.750239271615599695e-03
-8.507105894958469361e-03
-8.027041784776966019e-03
-5.655638720909430400e-03
8.469837283060124410e-04
1.140928729919512934e-02
2.043100377670354836e-02
2.043579224609974598e-02
1.061229488905699424e-02
-1.351972085148568864e-03
-6.432966179486953109e-03
-9.362188047476798988e-03
-1.029962790143887190e-02
-8.937441587362317599e-03
-6.164844533548806751e-03
-4.516516822876969622e-03
-2.675038474875802551e-03
7.139081379503888197e-04
9.333065054915894079e-04
1.682868318897691798e-03
4.388404424235129928e-03
5.140339909435839849e-03
5.061052610798903555e-03
6.025964840605861801e-03
4.861686929392637982e-03
1.432872773681343566e-03
-1.660261505577085303e-03
-2.739040498092506354e-03
-2.565921310634105765e-03
-4.338112562340060673e-03
-4.832144510072062735e-03
-4.623915797853953187e-03
-4.578451828362674336e-03
-5.241699118902606348e-03
-2.420293960354242321e-03
5.029618547683859658e-03
9.548850373819460849e-03
1.073693552375542398e-02
7.717114579277367138e-03
2.490382732106482828e-03
-2.353159764136803379e-03
-6.530679487152839073e-03
-8.094900749430247386e-03
-5.718116402360449296e-03
-2.350208101579344660e-03
-2.796217611300756039e-05
1.194210196900656390e-03
2.023529917879976926e-03
2.860100096758185200e-03
3.643783773035933708e-03
4.464741227915835012e-03
3.275945550006157097e-03
6.260400335980590304e-04
-1.557609980905186016e-03
-3.016291123121486902e-03
-4.392708692614714222e-03
-4.023224557575604335e-03
-4.039514036038098846e-03
-3.349646860611486983e-03
-2.342656211333828402e-04
2.919240612002071446e-03
4.341868785223499533e-03
3.182763981462647610e-03
3.013843105323602695e-03
2.213047020569695791e-03
6.760736177771409835e-04
-1.840983734115772649e-04
-3.020791650977825782e-05
1.011729490930695892e-03
-6.966417998316401690e-04
-3.300574939265334042e-03
-2.959477641473033833e-03
-3.000935240293091128e-03
-4.155256054039189323e-03
-3.183968995130896217e-03
1.776277596800489170e-03
5.563498340065897371e-03
3.767392652138636978e-03
1.269570023486854852e-03
3.275394965668152912e-05
-1.359388148560520876e-03
-2.820312695809185175e-03
-1.539244178235893218e-03
1.307126631067266403e-03
3.915327533692317466e-03
5.691666570693077604e-03
7.870045774043828157e-03
5.129100619211341208e-03
-9.688652401051488314e-04
-2.576069021597556484e-03
-1.874278669331228952e-03
-5.113883731284381631e-03
-1.070559195319035865e-02
-1.150788800204324488e-02
-9.175186069879616088e-03
-9.744473840334893708e-03
-1.144649552578017385e-02
-7.323230646079784308e-03
6.200689167245963286e-03
2.028899392815084260e-02
3.030364660420061321e-02
3.334934451466616684e-02
2.476129691225436094e-02
9.406991766484460935e-03
-7.599238408165570266e-03
-2.162782309897661251e-02
-2.926178609371325734e-02
-2.795859141852809898e-02
-2.258596494727162923e-02
-1.548952745986353734e-02
-5.270767142065016855e-03
8.166898837667887004e-03
1.749481727224133989e-02
2.197242219013425396e-02
2.009782873121862198e-02
1.187503080707541341e-02
2.155473823564379218e-03
-3.642461706718614235e-03
-6.248567203473403067e-03
-8.264320697467195456e-03
-6.831374386961048574e-03
-3.083333614922832439e-03
-1.526797409851225100e-03
-1.154518859088542811e-04
1.516648992752915896e-03
3.281088136740683159e-03
3.571361623872803138e-03
1.860622015552814605e-03
-2.269601392856889486e-04
-3.033401732347910419e-03
-4.287472230614088227e-03
-3.834398611233690978e-03
-2.721463377203231244e-03
-1.217296389954160415e-03
1.154027321388460402e-04
1.634731911898517796e-03
2.629560812492992127e-03
3.297045107076788592e-03
3.059079318118087133e-03
2.084806678103237002e-03
4.188573877417119118e-03
4.013655938276287048e-03
-4.522347588114849809e-04
-3.141662025028504369e-03
-2.566154365746239029e-03
-4.556534773809734276e-03
-5.320181670221782802e-03
-2.881157482801863668e-03
1.752021251762833002e-04
1.585039317042287932e-03
3.218814577844882584e-03
1.922865376686442836e-03
-1.329258181263996480e-03
-1.746220610947781448e-03
1.215790112132053547e-04
1.277160341995564521e-03
2.071725672963126152e-03
1.624120405437982613e-03
-1.975352564686827018e-04
4.275204047904991611e-04
1.049378150866801590e-03
4.253104248550025569e-04
-1.173202114958894543e-03
-1.195097048505998480e-03
-1.063072282649450695e-03
-5.249983509832813287e-04
-3.977931335389386599e-04
3.342056141687372597e-04
1.164474846220394082e-03
2.202431346853467743e-03
1.733673137578779343e-03
-8.794696064926995054e-04
-4.281409359697093200e-03
-2.834087806514739433e-03
-1.977601436883088680e-04
2.805530780142866088e-04
-1.078510043625075096e-03
-2.426224672072214549e-03
-1.457747093961406053e-03
1.532181062644496225e-03
3.950885893909559556e-03
5.025143321565565119e-03
3.511519872192766199e-03
3.496004245053925541e-03
3.563891774637375966e-03
1.078036715624439796e-03
-1.710217134806417969e-03
-2.077918021699638827e-03
-3.536555066744864664e-03
-5.907563368909034621e-03
-7.607505644556075697e-03
-9.462644361988969272e-03
-8.151508413690842017e-03
-1.705763444408994961e-03
8.495380415702124058e-03
1.618694187996131198e-02
1.432601437837045105e-02
5.610471029814143029e-03
-2.410301501587610532e-03
-6.951207944880220119e-03
-9.075632877967006532e-03
-6.063861044382262006e-03
8.078777942506149608e-04
3.676352760347378294e-03
1.521775051937098019e-03
-1.355442222219176108e-03
-2.961208035693005305e-03
6.680809836290253854e-04
5.246248282387915365e-03
4.803658558310872073e-03
1.459047177609837419e-03
-2.187660354958144708e-04
1.609714376945575384e-03
1.181110046964646988e-03
-2.130999999265409416e-04
-1.237094919781223188e-03
-2.640070596312954748e-03
-3.132083809177850942e-03
-6.097128446784467332e-03
-8.762861840079301523e-03
-9.075282695862050761e-03
-6.016961993376925347e-03
-3.591704331749076811e-03
-9.268197317563101187e-04
7.705193328577060463e-03
1.928589804362318763e-02
1.959302465915152905e-02
1.355534746486922182e-02
3.735670049771738343e-03
-3.101687432473429571e-03
-5.437842290424291410e-03
-8.659152560601283966e-03
-7.946186204330742478e-03
-4.884708621918285726e-03
-3.937356567925161255e-03
-4.494122260818786407e-03
-3.456183529127100033e-03
-5.714457500131978843e-04
-1.129773791516003605e-04
1.028511965624970682e-04
1.383959177031804507e-03
9.472259494187160612e-04
-1.990792104410801528e-03
-1.649875530003362461e-03
1.096152126536153386e-04
2.624286553567265357e-03
6.111983471817915986e-03
8.307302361258633167e-03
7.204516172575784611e-03
4.873105683666013530e-03
1.359660075408250556e-03
-2.861238742215166386e-03
-6.569392290663085034e-03
-6.259163004378150499e-03
-3.602412995214695091e-03
-2.384328962675574034e-03
-7.114492139212683520e-04
1.365982210125714314e-03
1.400194565187382360e-03
-1.126024366087034594e-04
-9.548266323224953445e-04
-2.685259878627438337e-03
-4.390045069175564987e-03
-4.980966829593583799e-03
-3.054386864299104588e-03
1.965569172037796354e-04
4.020061688771903348e-03
5.956372744873015407e-03
6.556931254157759292e-03
7.240389802188273993e-03
7.237471646968366562e-03
4.508039147935661260e-03
6.303111134776447511e-04
-1.324796274819430930e-03
-4.867342166577658981e-03
-8.476903611374647998e-03
-7.114116575376538271e-03
-3.499841122183682072e-03
-1.239507501692579125e-03
9.806958136116181429e-04
1.308353321199012429e-03
-1.157076190327031200e-03
-1.791346440527075623e-03
-2.181600891931006710e-04
9.026143780742005695e-04
-1.083411609875700342e-03
-1.053795063920635227e-03
-1.531064530624067421e-03
-1.705846107112941575e-03
4.192554438090416512e-04
7.261794840649725413e-03
1.418148982046324967e-02
1.467171192021277625e-02
8.455478052485079429e-03
2.720264941526442330e-03
-2.206895967351665735e-03
-6.277580483410928093e-03
-9.396830727587658638e-03
-1.522159555658967114e-02
-2.031740191922740482e-02
-1.995612523491314266e-02
-1.667066642703796467e-02
-1.005151425567762415e-02
1.699041958174348768e-03
1.852933621287853813e-02
3.362218643777444699e-02
3.565566581195842022e-02
2.633284409781771335e-02
1.351093960861866373e-02
-1.148375963964750343e-03
-1.406940012235622338e-02
-1.973149412779831580e-02
-2.085830456245042416e-02
-1.907777940166078753e-02
-1.489649283162726955e-02
-9.666919412230029138e-03
-1.614157081151363369e-03
5.920567695386749762e-03
1.087705160328856190e-02
1.078111265475932556e-02
7.761449444103556139e-03
4.717032207943261043e-03
3.775857268016584705e-03
7.900434000925602492e-04
-2.617496162637858014e-03
-2.108816176859824865e-03
2.130320400770485483e-04
1.299035234036897317e-03
1.735762104596748432e-03
1.478325734711990417e-03
-6.009475790595322081e-04
-3.806474704467546159e-03
-5.765339980600936790e-03
-4.252566018232322928e-03
-1.306629408634551884e-03
2.266361930653846678e-03
4.147119836272514237e-03
1.723639177443322306e-03
-1.278749397497464337e-04
-1.556704217135355386e-03
-2.093575497685801288e-03
-9.576845593259218289e-04
2.636197280671859298e-03
2.914545500672794179e-03
6.659596713022122080e-04
-4.222283229579581435e-04
2.843218284459421408e-04
-1.159274536214578667e-03
-2.901205368668979042e-03
-6.498202094067159892e-04
1.340120915134050553e-03
1.559002213966427346e-03
1.547615989782010924e-03
7.094076222726698137e-04
-1.247672330646509538e-03
-8.010148387229221265e-04
6.898401854830740450e-04
3.557823214802061876e-05
-6.108781526108326369e-04
-1.231157688827421402e-03
-1.271944710434569684e-04
5.846032929889235412e-04
1.597382690289418183e-04
-2.149872183398489692e-03
-3.894329790730179010e-03
-2.023040166154148421e-03
-5.999694633090874940e-05
1.352958970354120648e-03
2.316645104921823389e-03
2.604246175043792126e-03
2.881603689642457666e-03
4.251384152709333439e-03
4.748227119425314953e-03
4.381679623076493481e-03
1.026519662290415261e-03
4.807465536393358682e-05
-2.762755523150439404e-05
-1.549646986640550519e-03
-3.763138513531867711e-03
-5.547307109279439249e-03
-8.157879641989922853e-03
-9.582982121407655068e-03
-1.065486038999450755e-02
-9.724342094384991544e-03
-7.107253894110291022e-03
-4.652964531593246737e-03
4.827918207332119625e-04
1.519917702503928783e-02
3.074232588723998724e-02
3.260767989751669343e-02
2.021947065698035881e-02
4.040575746029428580e-03
-3.865804540938563936e-03
-6.435513540246961227e-03
-1.042542815214533326e-02
-1.355563903772806500e-02
-1.591681444954674146e-02
-1.826318497466798696e-02
-2.046976935376824611e-02
-1.908788299661986695e-02
-1.361254599768369107e-02
-3.607831909238884849e-03
1.232646689311670506e-02
2.461242794031628933e-02
2.836965297117114912e-02
2.139585783427513932e-02
1.054942629203037795e-02
1.970010804831828690e-03
-2.954855381363949364e-04
1.903609200283427330e-03
1.300341554367299458e-03
-2.097562992466184186e-03
-8.300979433664852289e-03
-1.379881379761175274e-02
-1.610770131772237476e-02
-1.374999344715712585e-02
-6.850051012087044269e-03
-1.808108153952897525e-04
3.088960147733243577e-03
5.198834075909210609e-03
4.778389359215868062e-03
4.458111446129242768e-03
3.220792377992780838e-03
1.571385085158541256e-03
2.131657987788727459e-03
4.439917552325613886e-03
5.095352174498373257e-03
4.010278319633350970e-03
1.053763885621442379e-03
1.396842237298270362e-03
-1.960297772900556875e-04
-3.640061064914841289e-03
-4.129003375286426948e-03
-3.262772631869701682e-03
-3.696967775518910596e-03
-4.862878267170020648e-03
-3.573338590336426566e-03
-1.250727070536827444e-04
2.157002703263291663e-03
1.797714103579588652e-03
9.956603615549834262e-04
-1.835616055112768608e-04
-2.138043969845002546e-03
-2.992264813415506947e-03
-1.199943397504969669e-03
1.701517017453746177e-03
2.458161372737397744e-03
1.741607321509283223e-03
5.979883850800392885e-03
1.088193677079952147e-02
1.197498053319847114e-02
8.432937245973026394e-03
2.179131889162688740e-03
-6.669940001407177396e-03
-1.108464704252593892e-02
-9.918803859107330756e-03
-5.909700295942513920e-03
-7.957504036907632125e-03
-1.205099572606938875e-02
-1.195745801647863683e-02
-1.007466694505462085e-02
-1.059126632027406097e-02
-5.634716856737036032e-03
6.686294065427604051e-03
2.285557275038708688e-02
3.544372854086588059e-02
3.659585853983487319e-02
2.214305692020814009e-02
4.274113889780909933e-03
-9.652842816431887393e-03
-1.921415252175458915e-02
-2.401587053751749745e-02
-2.411318715231042936e-02
-1.768846426634789956e-02
-9.114222411622395839e-03
-2.988852358301675397e-03
1.969558870320556234e-03
8.491825136008952085e-03
1.281042276221653134e-02
1.303592403857555329e-02
1.020886391274993150e-02
3.555130616080150099e-03
-2.048501797509209594e-03
-4.016862743269651939e-03
-2.671840245671788881e-03
-1.245623375306730962e-03
-3.594277026786132229e-03
-8.249202325102119454e-03
-8.572684437513215447e-03
-2.222107686335884468e-03
4.420643233252578852e-03
8.757200366205862216e-03
1.059657672474329133e-02
1.032391692578811873e-02
6.615141452827101934e-03
8.694660964375679462e-04
-2.474423591712172216e-03
-6.148491666008155596e-03
-9.513032765180068004e-03
-9.765086063020960924e-03
-7.880274965372979085e-03
-4.946009819519726729e-03
-1.246129582394382403e-03
3.276641302718055326e-03
5.655546436084939871e-03
4.619718278184133803e-03
3.787672667033761733e-03
4.333065101979676099e-03
3.450630301990306129e-03
1.064301168897219046e-03
-4.811096311798078733e-04
-1.303447805501960167e-03
-2.150923907254687507e-03
-2.110679339211827751e-03
-2.267494420753030180e-03
-3.595156130768004566e-04
3.753103807768583505e-04
1.426101705151417874e-03
3.213972515711859771e-03
2.348553980567903102e-03
4.810197530086069762e-04
-1.949406131552429639e-03
-3.424649833193607520e-03
-4.246050649930808302e-03
-4.246162910883368238e-03
-2.180861152601773750e-03
-9.216582773550945160e-04
-1.358095014255366337e-03
1.257505270325473068e-03
3.417574800344996486e-03
4.797328698247624659e-03
5.809206349685177434e-03
6.228217157791984641e-03
3.820656648048679788e-03
1.521267322354998572e-03
7.280824822216175763e-04
-8.227236724111259419e-04
-4.161747456787569938e-03
-7.853562030248869077e-03
-6.307753229145826590e-03
-2.588630248747236535e-03
-4.766688371119741645e-04
-1.416826189444893953e-03
-1.013059905167229546e-03
-7.851702748898701633e-04
-2.838686295411408430e-03
-3.163558329411161885e-03
-1.260928040162074540e-03
2.894811622178156824e-03
8.690797267443870974e-03
1.501823521565917412e-02
1.477309565489231570e-02
4.315232784062783891e-03
-7.220151165280930608e-03
-1.164774645098501545e-02
-9.504069100551048796e-03
-4.543876922662797371e-03
-4.036294029924129313e-03
-2.889069628801125503e-03
1.096437327782755168e-03
4.022178655768237840e-03
2.301490378546806968e-03
4.394052912258242433e-04
2.790996759685255690e-03
3.794259527647802534e-03
1.702389939724005324e-03
-6.528112113886920271e-04
-1.047367551954914936e-03
-4.566710153274140534e-04
-6.110765189489693024e-04
-1.780393013508963927e-04
-5.574763755176936550e-04
-2.217164735157610769e-03
-1.334042554127280429e-03
5.936184926120153822e-04
2.391845485804494371e-03
2.904692390272673938e-03
-1.144010137523540074e-03
-5.540548149543159280e-03
-5.299109581830110764e-03
-3.516894156343297259e-03
-1.614568863436205599e-03
2.335375740626806623e-03
7.040464128751248996e-03
9.050356416414450517e-03
7.177774666320885233e-03
1.428871064618684279e-03
-3.180751032881198089e-03
-4.861974053855693152e-03
-6.725156397300291987e-03
-5.329888984201820376e-03
-1.394654701234240434e-04
4.805979518295565474e-03
6.082083200883312002e-03
3.936168641563889126e-03
3.075523314038671840e-04
-1.931615364444557456e-03
-2.482563998744106212e-03
-3.007289045991667735e-03
-3.923659086797572082e-03
-5.627872268843919258e-03
-5.904877380392206665e-03
-4.055358421238582436e-03
1.629503767232823200e-04
3.930357805948087556e-03
6.084297464629176942e-03
8.635335200271999564e-03
9.283248546125597023e-03
5.228544927358783415e-03
1.871350344494525494e-03
-4.578635148010009042e-04
-4.962757522126708121e-03
-7.230007676062999086e-03
-4.371239973807002771e-03
-5.030555514799691947e-04
2.877924869603353756e-03
4.158555355442504833e-03
8.541410514403533806e-04
-1.688520630729154230e-03
-2.190162838794634283e-03
-3.744554288253279083e-03
-5.582776070045317000e-03
-7.048671814630217726e-03
-7.306182949858987079e-03
-7.950008872560782036e-03
-9.821357767555426513e-03
-5.858466359715507922e-03
1.033638302478595908e-02
2.662486817450505569e-02
3.230861460849066696e-02
2.453420461420474999e-02
8.148360044943831967e-03
-4.435193119256115868e-03
-9.991224475627615356e-03
-1.093837738163659125e-02
-9.809725226337991794e-03
-1.150894775863155195e-02
-1.641909986021717824e-02
-2.176227635196697693e-02
-2.251479590600164241e-02
-1.813476525266486186e-02
-9.689753143656871723e-03
5.446547931642481410e-03
2.470115672067118781e-02
3.903812837206792341e-02
3.780487853011352956e-02
2.472952909455316747e-02
1.058803553724518322e-02
-1.741526218231719556e-03
-1.145819720205717117e-02
-1.644849782990588996e-02
-1.843684185564711461e-02
-2.035460145511511568e-02
-1.761100799301031777e-02
-9.361755470924855785e-03
-2.158554795494481513e-03
2.107555785869820713e-03
4.673729163488835915e-03
8.671561788392408154e-03
9.497381935462524336e-03
7.764651377234968108e-03
4.252397682631522263e-03
2.486070839411758365e-03
3.998096942266625431e-03
4.965850555863724793e-03
2.466462787610018432e-03
-1.706741076679522658e-03
-5.770824069158068947e-03
-7.949112557759764955e-03
-9.825042369514652360e-03
-1.130605323226815777e-02
-9.252841857103521334e-03
-1.147401186729090023e-03
8.489706656862687148e-03
1.434577848253336570e-02
1.259610139369755737e-02
8.069973502646073452e-03
4.789256974690345343e-03
2.005318860630917518e-03
-1.672026750977568610e-03
-5.972978119150018292e-03
-8.342712783847615679e-03
-6.520599428085125694e-03
-4.020171959786262086e-03
-1.573870338382543340e-03
4.323453801659815350e-04
1.046563683368033739e-03
1.802322230102267183e-03
3.065559666086869399e-04
-2.899813283325876432e-03
-3.739436032055442130e-03
-3.610749802638049243e-03
-1.464072418464474300e-03
6.940971442163919401e-04
3.893896666301570764e-03
1.158262404995748056e-02
1.695359270997361806e-02
9.504833287442691903e-03
-4.665092976991559726e-03
-1.322768640846028014e-02
-1.241771431632999328e-02
-6.872180788690145613e-03
-1.993534860127065423e-03
2.311781323819325686e-03
2.938936562773879647e-03
3.351660877360765432e-03
4.122071939804526457e-03
2.167685179654007307e-03
-8.561157620029121156e-04
5.289423497534431317e-04
1.586854105704664812e-03
-1.034931888751299336e-03
-3.506325145353067496e-03
-3.969609036155861970e-03
-2.692725988094802573e-03
-2.071173874111308447e-03
-6.801919426948441899e-04
2.906470481482693099e-03
4.618866838485827762e-03
3.431446055019676637e-03
1.664720098081270494e-03
1.168327727789997142e-03
4.210673848258035599e-04
-1.501277953111461146e-03
-3.093321417104585684e-03
-3.164481374951277296e-03
-2.262565232059816152e-04
1.711716647103405427e-03
3.153718281489905728e-04
4.212905329953376440e-04
1.068595232404888394e-03
1.604380225860971938e-03
1.380543858900733873e-03
-3.967386866152272889e-04
-1.002929783129493605e-03
-1.975453927821166095e-03
-3.314312065040062559e-03
-2.413811560052285879e-03
-1.082520053944682282e-03
-2.046603576440456812e-04
1.630367832903055090e-03
3.394512830499845247e-03
3.448942532022273005e-03
2.898349261971010140e-03
8.589949856478240695e-04
-1.269549616843801973e-03
-2.093084181997256505e-03
-1.442825742872966060e-03
-1.442776930667839016e-03
-2.694576661153461582e-03
-2.904314276887076055e-03
-1.308334778740532969e-03
4.099269326609700117e-04
1.780505491782048179e-03
2.782659440491436990e-03
5.065094760536565169e-03
6.301112775858585917e-03
5.074081275911742489e-03
2.560382839683629421e-03
-1.431927964431708262e-03
-6.778074047413444082e-03
-1.043651739798050898e-02
-9.343931939863749092e-03
-6.364886312470515763e-03
-1.901793337533724858e-03
4.115786777419836590e-03
7.645338428007165954e-03
5.557467048823563210e-03
2.188198469940151169e-03
1.091887404434049988e-03
2.900156191898167150e-03
5.167438271308983852e-03
3.745455015519126313e-03
2.552872523840365483e-03
1.527213195025288158e-03
-3.977684055864275439e-03
-9.298075614431858954e-03
-9.150810387594883813e-03
-6.631371448607729577e-03
-3.599490480461733661e-03
-2.817643664650706318e-03
-1.395275550358607937e-03
2.184409624643514868e-03
5.309313161227463204e-03
8.249819266877246246e-03
8.965748520656921169e-03
8.293390180075445317e-03
9.949661014822046637e-03
1.031831126912014472e-02
3.805027072841654038e-03
-4.784879899239225312e-03
-9.687533597874666350e-03
-1.194462343150688201e-02
-1.450734498689338833e-02
-1.566925166340815689e-02
-1.242669269938682756e-02
-8.427136217600319709e-03
-6.210760132477699015e-03
-4.648112622701989181e-03
-1.976468275870194740e-04
8.936221841624026815e-03
2.169990833037091504e-02
3.294262869385695958e-02
3.233305170223662456e-02
2.083885178515419018e-02
6.318277901735896637e-03
-7.281605306800194646e-03
-1.515093990243036697e-02
-1.660227956448446021e-02
-1.563035286448629171e-02
-1.613661607113006657e-02
-1.670613471780174261e-02
-1.470571271775242793e-02
-1.039711770385803521e-02
-4.961999657562438451e-03
-9.820270553828069644e-04
-7.939040417305257263e-04
2.930162228135146669e-03
1.325289980064584157e-02
2.160506795981043116e-02
2.285472552561551227e-02
1.848412373013184895e-02
9.707792619518202173e-03
-1.614545872232880106e-03
-8.391039003178727557e-03
-8.502270386120398815e-03
-5.996867457306142082e-03
-4.349665042066117038e-03
-4.908020276368900772e-03
-5.340726822964117493e-03
-5.720740004506697299e-03
-7.136764735582357480e-03
-8.632762021254717158e-03
-4.611757790022758333e-03
2.495482420981213253e-03
7.409579961534342937e-03
7.941249578378608079e-03
6.961237122682635212e-03
3.079023514855329987e-03
1.159535499460824645e-03
7.169175181242222038e-04
-7.355940901618556339e-04
-2.502451982199617366e-03
-1.471620012466428587e-03
-1.881653839570559617e-03
-2.046984512316084911e-03
-7.662829211551125484e-04
2.373347486215082128e-03
3.793722691453115491e-03
2.489428878702654602e-03
-1.647048746786964864e-03
-3.395631781002565221e-03
-1.358369128189768809e-03
1.741607119070152010e-03
2.423686560610084813e-03
2.865471042593853001e-03
3.280629535134830296e-03
3.146949865128031727e-03
1.213445721661859890e-03
-2.051970044363435851e-03
-6.441559819226493414e-03
-9.564524703477322864e-03
-8.680005070322009686e-03
-6.959681657985731552e-03
-8.158491300782208522e-03
-4.575789489015390926e-03
3.394748090690918266e-03
1.243341370938789818e-02
1.764953394592903499e-02
1.638208244148351908e-02
1.048081440582546500e-02
5.085591903419695373e-03
1.004760665758099849e-03
-5.270587229261820654e-03
-1.193506661611750015e-02
-1.352749042614200849e-02
-1.067785352695378720e-02
-6.125062658392277024e-03
-2.113080518516877258e-03
1.291816557392102193e-03
3.148405454309015274e-03
3.466597809723705268e-03
2.741943118696677211e-03
2.099061434787914595e-03
8.408149121314687207e-04
7.119762885081256081e-04
1.771839999006728566e-03
2.541016595595137553e-03
2.439056676250679363e-03
2.087996507849933063e-03
2.610911220540794333e-04
-7.742275464449679956e-04
-2.424130517805668603e-03
-1.981646142933346250e-03
-5.561506697752277312e-04
1.356541929030539301e-03
-5.466409845824818804e-04
-2.623468108411355307e-03
-2.439541057920246656e-03
-1.514069656908838138e-03
-7.428409454501674111e-04
-5.527621128417854399e-04
1.059695596780351364e-05
6.852078900682436781e-04
2.887701974475574782e-03
3.911248815893002446e-03
1.805343673578434617e-03
-6.588132441488396638e-04
8.067156207550894246e-04
1.478651669244382448e-03
-4.740215569443648473e-04
-1.088581646495028225e-03
-1.592297355663390129e-03
-2.296446648388753443e-03
-2.441794474199144964e-03
-6.552636266206567344e-04
-1.053359592337880157e-03
-1.188621825390796674e-03
7.770515221571774791e-04
2.102947972743943530e-03
2.791523695514795678e-03
2.839953353885914591e-03
1.476055491512558290e-03
5.726868138531472944e-05
-8.277700347603465358e-04
-1.968081404322204620e-03
-1.561138839046960708e-03
-3.988645788031515882e-04
-3.480584497983848927e-05
-6.465474236641693137e-04
3.326562053816657432e-05
3.085987893963947569e-04
-1.394914325851973958e-04
2.044191378026404015e-04
-3.460795133139293444e-04
-1.644869921303665494e-03
-1.409326189023429312e-03
2.008038755550829659e-04
1.192616412020253711e-03
1.859140059658099869e-03
2.948138119758145128e-03
2.763716170999270562e-03
2.199581195555931515e-04
-4.258619173843497811e-04
1.275352428717404455e-03
1.358629836476720875e-03
1.367683877545107724e-03
-3.385384285033647255e-04
-3.852695497656938393e-03
-7.870539118767470865e-03
-8.319077276148865302e-03
-4.922417215076469767e-03
-2.277732935805818447e-03
-7.107620399335388799e-04
2.032993859866083150e-03
6.807711507691069017e-03
9.698184321736320196e-03
1.009767908868142681e-02
5.514865789212719353e-03
4.238845578365269397e-04
-1.207334045046691865e-03
-2.468656247952667141e-03
-3.576360882748989140e-03
-1.705200255511059174e-03
1.856227030954442142e-03
5.078460691486121753e-03
9.336124976483883234e-04
-7.485583436431005565e-03
-1.351719524148084668e-02
-1.104409614028111115e-02
-1.386221869035360256e-04
1.064467982027095944e-02
1.143220379471977625e-02
1.395237771364823054e-03
-7.449841968162338943e-03
-1.146757169484763535e-02
-1.343754119541639043e-02
-1.036643068794191810e-02
-3.741523712853529857e-04
1.469335244056710170e-02
2.787528144619612000e-02
2.861243146417902922e-02
1.617419251544354938e-02
1.956636419437941723e-03
-8.198938813900245176e-03
-1.459061003964436110e-02
-1.798111190324266917e-02
-1.789140318115775216e-02
-1.349295059941608803e-02
-5.270256571655944008e-03
-1.422033223831774143e-03
1.059117942473935528e-03
5.850940787553433713e-03
8.897543947118913624e-03
8.771711566402440319e-03
8.645138181751657255e-03
6.358871240057859323e-03
3.112651018377048714e-03
8.662524215689493181e-04
-1.171593362448338340e-03
-4.711561256298233899e-03
-8.720209983772467602e-03
-9.876897235265014868e-03
-8.373038941489389236e-03
-6.237066885692058200e-03
-1.236892192419349621e-03
8.534652540409097890e-03
1.747996032934510599e-02
1.325272995019638293e-02
2.999239841461586505e-03
-1.747680035242466000e-03
-3.374962766145691174e-03
-5.974816065596199460e-03
-5.874925429355859485e-03
-1.241651169893499525e-03
1.471753035630037130e-04
-1.542366000867419944e-03
-2.771944470444718915e-03
-1.204561621524191531e-03
-4.325886217812606742e-04
-8.219669113652234519e-04
-4.285150761345082838e-04
2.101303096029190787e-03
4.629367545619211821e-03
5.796878647174588325e-03
5.939278305314307782e-03
3.424708458037115880e-03
-3.089229533433243626e-04
-3.650877311966194052e-03
-7.104537945753925006e-03
-8.404271896506571721e-03
-7.553179854457300196e-03
-8.202220405012360105e-03
-8.809670008440330380e-03
-4.637569548476955933e-03
6.129965834547287419e-03
1.855725312672900154e-02
2.430167035370362286e-02
1.679434241501843658e-02
3.904470161112267353e-03
-4.871150676602034255e-03
-7.092371424817302955e-03
-8.273820078679893636e-03
-9.659173264397186501e-03
-9.882396653273424827e-03
-7.548229227848125833e-03
-7.022203792350792048e-03
-6.221089669837968038e-03
-1.040941866664405477e-03
6.853446446398349726e-03
1.139158058554137244e-02
1.047859891470125614e-02
7.358816692124207567e-03
4.047482735546330257e-03
2.592534990672673632e-04
-2.777017928802667703e-03
-4.451635147517373978e-03
-4.464326607415132313e-03
-3.276970714934428642e-03
-2.872052008742563035e-03
-1.256295634736698036e-03
-1.004036394128949563e-03
-1.322781870075420653e-03
8.770747958566692346e-04
2.739853123694572373e-03
3.090781315953375352e-03
2.127617226410191426e-03
9.601338723255437805e-04
1.150341838245744338e-03
5.914103413709060481e-04
-9.996911233040378045e-04
-3.150416311141336721e-03
-6.005974111374788593e-03
-4.989054956597044344e-03
3.493281391107793603e-04
3.582179149922707501e-03
5.748811340515977766e-03
6.657162072822058602e-03
6.105810702966871922e-03
2.971699113664523929e-03
-1.427759508000211357e-03
-3.022921735706190442e-03
-3.682383067222688797e-03
-3.424681027675893427e-03
-4.228584695255763193e-03
-6.674644538659195783e-03
-1.025240611628965362e-02
-9.551551056809007290e-03
-2.663578340581763525e-03
6.517480998789151186e-03
1.301251003545914574e-02
1.532346942603263380e-02
1.359444136795693973e-02
8.846141722030445922e-03
1.758841735399965236e-03
-2.435378581305007364e-03
-5.688084645525627245e-03
-9.794276715098975891e-03
-1.012060742444199392e-02
-9.020089815791724336e-03
-6.820858330869336225e-03
-5.485254112564747625e-03
-1.746070211758565501e-03
2.967434377652251615e-03
5.722265829346814131e-03
6.035264550771910104e-03
4.791012265774230623e-03
3.618913085022546373e-03
1.678978546242129678e-03
1.911575899774506848e-03
4.321090158013802217e-03
3.383347822030760392e-03
-4.751932934296830601e-05
-4.095214173857327313e-04
-1.155535788318820230e-03
-2.382391308622659742e-03
-3.413605272733122222e-03
-2.484116530740582748e-03
-1.615171478301199526e-03
-2.031719694894745017e-03
-4.466132476225610423e-03
-6.871739161344430843e-03
-7.480788113189601289e-03
-4.661614832462356549e-03
3.222087511338757901e-04
5.891763841598533433e-03
1.059667375810761751e-02
1.340867699836191702e-02
1.340906775372140668e-02
8.566253203321421567e-03
1.843714611609460546e-03
-2.909762519072266271e-03
-7.812313404799329022e-03
-1.162500511630495774e-02
-9.431110106079687930e-03
-5.440758283493770525e-03
-5.048089257043414727e-03
-4.147103570171230616e-03
-1.951352997408443328e-03
8.301583970245112517e-04
2.745480286647589141e-03
3.723551610347713200e-03
4.908932770148415059e-03
6.361663052899250992e-03
5.370248911749467800e-03
4.381528595499912387e-03
4.439119103334768744e-03
3.966945079177474839e-03
2.744818257657482153e-03
2.414043638109528481e-04
-3.304431170616958530e-03
-5.496975001554943972e-03
-9.859186969094326305e-03
-1.377014296521860900e-02
-1.227662384768771729e-02
-7.556317922508187790e-03
-9.918259196282869315e-04
5.747894597127352692e-03
1.252249808531699128e-02
1.810999082108868605e-02
1.973514454239531576e-02
1.321277313868148354e-02
-1.715519232071636849e-03
-1.710765974627616662e-02
-2.810809951327526007e-02
-2.439755846494022148e-02
-5.600475150312559866e-03
1.078191940112930604e-02
2.355101781440792699e-02
2.675374012292144887e-02
1.731480777689233669e-02
2.673724059286199366e-03
-8.663055030164444961e-03
-1.443009393228122592e-02
-1.507627161776569497e-02
-1.207130718178850946e-02
-9.268911888165826812e-03
-6.647109964434533974e-03
-3.668642828332185999e-03
1.929879467470891436e-03
6.951691389235168696e-03
1.019941467782080509e-02
1.077915288811020882e-02
7.779966477327898700e-03
4.382208354077311158e-03
1.442044876806965322e-03
-3.742454014223553093e-04
-1.808646626059285485e-03
-3.937767298275206621e-03
-3.282594379816690042e-03
-2.634178363886434913e-03
-3.569279288906933387e-03
-4.613139891688355573e-03
-2.608534420800819129e-03
-8.008351548816656108e-04
9.276735154558374708e-04
1.631207470411999037e-03
3.265285395021744631e-03
3.512420461011492474e-03
2.493816685174760073e-03
6.320093678610801385e-04
6.347141875274516648e-04
2.918770485140427182e-03
1.950803389876912307e-03
-3.068017023611474461e-03
-4.230751314227607085e-03
-1.705696268566961457e-03
-9.870348468798567382e-04
-2.670067253670709798e-03
-3.214438655221296074e-03
-1.507425988473807318e-03
-5.459613835561440663e-04
1.103572800817619179e-03
3.501716676692085382e-03
4.262682864194780250e-03
3.890688616953219634e-03
2.572865882764297125e-03
9.413097937689370639e-04
-6.888682910089303103e-04
-6.384774280474808487e-04
-1.330143842535461206e-04
-7.045039114987948319e-04
-2.356457225170378172e-03
-3.255506502146022271e-03
-3.544252979869873515e-03
-3.510114787782564385e-03
-2.519068752779459169e-03
-6.978548609800972521e-04
1.452587553121982545e-04
1.244625810731444940e-03
2.293543763032355933e-03
3.728035073633154464e-03
5.197891515944778711e-03
7.550024006953991867e-03
9.321998609144050915e-03
5.680496221665090086e-03
-2.566286300084526326e-03
-6.820558815877425518e-03
-7.162030599062735835e-03
-6.233329437761559767e-03
-6.943270102451055102e-03
-9.869512731724922397e-03
-8.377775827863141386e-03
-6.329531752819761610e-03
-4.208819082258603503e-03
6.660429793640561952e-03
2.075157844863447995e-02
2.137158768935041100e-02
9.336025496857341260e-03
-2.224671619169298845e-03
-6.327721379951301017e-03
-4.267923886386587248e-03
-7.243775373400767378e-04
1.135192004465692935e-03
-7.897240200444961226e-04
-3.704748028034459198e-03
-7.691460409375011978e-03
-8.069760382384697298e-03
-5.464159170271876143e-03
-1.225826780991344902e-03
7.325685285757951772e-04
1.711615576924438442e-03
2.722426022313479636e-03
4.323457343725809268e-03
4.016247349919084726e-03
4.934154491349975087e-03
3.934145822042931992e-03
1.969382779361940426e-03
1.037188444382181529e-03
6.176998619006741865e-05
-1.896547597234291916e-03
-1.057310320594943061e-03
-1.882960763292562765e-03
-3.949678991117084106e-03
-3.315243106369288647e-03
-2.738819101541982697e-03
-1.914000498314772378e-03
-9.794104790099859761e-04
-5.220613872331425660e-04
-6.670737727660690317e-04
-1.236811701535777373e-03
1.293746842890288514e-03
3.719310713298875238e-03
4.338211148264856792e-03
3.864038154902312092e-03
2.982951510177789516e-03
1.897666141584391239e-03
1.247845711257812009e-03
1.341894560137668396e-04
9.577073965043515118e-05
8.492076419959865806e-04
4.535840116567360007e-04
1.120870746255864551e-03
7.147457231084511841e-05
-4.811507193153454626e-03
-8.721100288032150941e-03
-9.386308237488136252e-03
-8.907927252002926718e-03
-8.733680373076275344e-03
-6.469919206542992969e-03
-7.849138994444476713e-04
7.500038871857707228e-03
1.676100865838081252e-02
2.180503268466429598e-02
1.568728951227425436e-02
8.015800213368919763e-03
1.455900876317177883e-03
-5.054226284270798945e-03
-9.572300046909563639e-03
-1.247171677844074490e-02
-1.138492855287371978e-02
-5.609491115860166383e-03
-3.722569011422759231e-03
-3.124337199228878221e-03
-4.092724035070609561e-04
3.598624047268244360e-03
6.894338873283703886e-03
7.354595914266943632e-03
4.867863816630760461e-03
8.704850895646860150e-04
-1.353642081376995156e-03
-3.696995683928957967e-03
-5.756291304481934643e-03
-7.126276868455315439e-03
-5.726970830501589005e-03
-5.567685730640283253e-04
4.028135682924898452e-03
5.784028939084795255e-03
9.152433516966394789e-03
1.488215416778398102e-02
1.118108040271829570e-02
-4.903394362116826697e-04
-6.935164052405386192e-03
-9.453007985456812756e-03
-1.253628977301913389e-02
-1.150038898736484468e-02
-6.057556624145053747e-03
-1.688588712618181243e-03
1.187712543235399645e-03
3.697844396792688160e-03
6.215092800930372557e-03
6.517980275638312129e-03
5.731544839147386869e-03
3.894828498763971015e-03
1.940099805846313757e-03
1.659149819844497257e-04
-5.400542217481299392e-04
1.761504851335455582e-03
1.981007599960116217e-03
-3.957736619985065024e-04
-6.488155011380519581e-03
-1.084244565486966634e-02
-1.165096747036224213e-02
-8.156550336132798937e-03
2.092494411649207641e-03
1.454081353773074674e-02
1.548454768370416054e-02
8.922060546558120697e-03
2.970813843642836679e-03
-5.103850250212676369e-05
-3.012182758974867296e-03
-7.250962336569414385e-03
-1.089394148364662522e-02
-1.358508405055762307e-02
-1.068952265563066599e-02
-1.386529921697485105e-03
6.285931739578684563e-03
1.098399314535055717e-02
1.056982594518361858e-02
5.611989498617028262e-03
9.059848286328984947e-04
7.436441374302717091e-04
4.187812623609521619e-03
6.150440474825841913e-03
5.494177519530261955e-03
1.540817358914091471e-03
-3.619685394551075495e-03
-5.261068876585591261e-03
-4.546427915231465722e-03
-5.003013619282858232e-03
-7.018902409684743202e-03
-1.043389647572385594e-02
-1.179798023371224878e-02
-1.018326836437629702e-02
-9.036903890260608932e-03
-7.054606032531043555e-03
-1.265967176987508854e-03
1.155722100045559163e-02
2.754420553420205975e-02
3.402109134326414264e-02
2.704354964833837263e-02
1.231098708805333265e-02
-9.241344573507634472e-04
-1.188546307516597476e-02
-1.740511060055186313e-02
-1.753188133996376116e-02
-1.595305341093266466e-02
-1.523411961370608851e-02
-1.008391596227354269e-02
-4.739191298308608954e-03
-4.525019995939782926e-04
4.040679948842606194e-03
7.622827345728516550e-03
8.147118140197386754e-03
5.772495781156060726e-03
5.689604952988147613e-03
5.896368563479467001e-03
5.119800194561523882e-03
3.876727569413789942e-03
2.030490362711737194e-03
1.082942305827476340e-03
-1.006158636929462566e-03
-3.552717723383419512e-03
-5.883069268273099367e-03
-7.169602230713410795e-03
-5.199681272050907244e-03
-2.013486606554070520e-03
5.259017813370066557e-04
-3.338632938910530393e-04
-1.482634438433298057e-04
1.887154715651411440e-03
3.084735099534583608e-03
2.599947621089178373e-03
1.120826375418915903e-03
2.527026183711799929e-04
2.252615604140291851e-04
3.471024962454062157e-04
7.156438245142841782e-05
3.685532057028334898e-04
8.246027955732245038e-04
-5.218620086032914719e-05
-1.932872508987828206e-03
-4.345914565185642411e-03
-3.472689222368856125e-03
1.596316120747979942e-03
6.419822761931411569e-03
4.715058317507778152e-03
-1.113522702998827373e-03
-4.398524598908324854e-03
-2.753172744560304381e-03
-3.583821291243160828e-04
8.892543192348084224e-04
2.752743418779660025e-03
4.248124479882309928e-03
1.036501486812092592e-03
-1.908479041712690194e-03
-3.115169171323924329e-03
-2.322418689623200264e-03
-1.850731969515360779e-03
5.706337128837171962e-04
8.176050635253285549e-04
2.724465962134950511e-04
2.391201015856171978e-05
-1.118514001407659069e-03
-1.286570217869268534e-03
6.293204278776248772e-04
8.573837192427433531e-04
8.127154166702265205e-04
2.364968932553345154e-03
2.954210748706403815e-03
9.311100388581571106e-04
8.981311832207770213e-04
4.358904192920283189e-04
-1.502414084845614135e-03
-2.299928239762675554e-03
-1.777747061483177368e-03
-1.583489692177356654e-03
-3.665581351522104615e-03
-3.255843715223096044e-03
-1.690019860986433260e-03
-2.292351409732223608e-03
7.580421712252501283e-04
5.637071947386408481e-03
7.296080224086133256e-03
6.766777372237137676e-03
4.294365203991426690e-03
-1.117756986424314975e-03
-6.514774188182451478e-03
-7.729651075236892814e-03
6.255608077987658607e-04
1.097825691782194565e-02
1.195974280666637669e-02
2.299551268312036590e-03
-8.098498419211881336e-03
-1.279864504730094700e-02
-1.462872914621340427e-02
-1.225448186169969880e-02
-9.342669342478109734e-03
-6.792898050125731162e-03
-6.199936868964063975e-04
1.192125771989889331e-02
2.377039902577767622e-02
2.597895123049754132e-02
1.685576414352527377e-02
3.186848599219823438e-03
-6.317330142084366315e-03
-8.024248098830313175e-03
-7.934923045139373118e-03
-5.943195838379282739e-03
-5.883381958111002022e-03
-8.339127210860426340e-03
-7.425125964455294575e-03
-6.038795828900405359e-03
-6.094904695333398445e-03
-7.464908997540729840e-03
-2.039812078692301162e-03
8.703644966705939220e-03
1.078253815456124177e-02
9.424527052590116541e-03
8.601741113041639838e-03
5.674999033490711955e-03
8.143363321183220245e-05
-3.465380085391317391e-03
-3.671845546534238842e-03
-2.658749998463780153e-03
-7.641088884156957157e-04
1.485111995995939049e-03
2.166365468697287102e-03
2.249789857982129656e-03
6.530923614573649894e-03
1.022110737622719361e-02
5.679773050495608502e-03
-4.597939619696326911e-03
-1.223836526913601834e-02
-1.823727106382810534e-02
-1.678140033441432102e-02
-1.066424609062363409e-02
-1.992000027062340497e-03
1.690132384651999060e-03
-5.777176443638057466e-04
-3.204833774595859924e-03
-1.257800875052336254e-03
5.690419045772941373e-03
1.780392761978905405e-02
2.901277274781071530e-02
3.280308057814756983e-02
2.237564606994308161e-02
5.925488254049071299e-03
-1.071933360811298287e-02
-2.222374101886268397e-02
-2.553031897607010645e-02
-2.347779561731067749e-02
-2.034063519960981059e-02
-1.387130987009129422e-02
-4.751636223507370652e-03
2.181858052865383573e-03
7.534593267437074242e-03
1.107304186321903840e-02
1.108504829037309028e-02
9.995537739625293822e-03
8.540683877888092385e-03
5.897956806928030676e-03
2.721717549691028606e-03
2.507211600854860733e-03
9.066855378340782281e-04
-2.670990590374316530e-03
-3.832289067005756420e-03
-4.938060717952967235e-03
-5.478867683769456098e-03
-1.605519547082273494e-03
6.065432604887806885e-04
-1.851092480521894447e-04
3.329943593260682798e-04
-8.342793764743686603e-04
-1.322267552421901426e-03
-1.644432080951690155e-03
-1.987859306533187528e-03
3.793999401065434383e-04
2.103111337447622752e-03
1.674099973029395628e-03
1.103072319561823481e-03
1.339480895276038081e-03
2.421129813882935602e-03
1.946061807971364308e-03
-1.266739888396209478e-03
-2.447786824275097802e-03
-1.100601416760933803e-03
-5.438310719768349108e-04
3.286153549441201403e-04
-5.818729056344449204e-04
-7.968917927888128803e-04
1.550518432105644747e-03
1.764323440770216049e-03
-1.344408753671315739e-03
-2.864246692660337486e-03
-4.816479072941392647e-04
1.856188024670643068e-03
2.027787455753958523e-03
4.998283181726830915e-04
-1.308176000451009868e-04
1.048431111843459900e-03
1.740597927869200505e-03
2.547554256152280753e-04
-2.051538356158370911e-03
-3.670509859883828389e-03
-2.333341873390134148e-03
-1.983653588055283548e-04
-1.868420000108355575e-03
-1.270018946165178686e-03
1.254639200313004349e-03
3.370535895629486831e-03
4.410269766541032553e-03
2.169083449994958866e-03
7.733063031196296287e-05
-4.264229881790166190e-04
7.190483295471578095e-04
9.823677742577697092e-04
2.813720989490311000e-04
8.374883290177778140e-04
1.842196524602976232e-03
1.294661725010548244e-03
-1.703946817512998072e-03
-4.963093606116383665e-03
-7.321584333174967554e-03
-6.208289144648856776e-03
-6.498197437409678617e-03
-6.636827849993526610e-03
-3.994227251019339363e-03
5.415155458554550289e-04
6.667474722757324099e-03
1.724456212102465358e-02
2.195899505900809207e-02
1.410112691959706198e-02
2.163378462285739292e-03
-5.257588949511157739e-03
-9.212349024347738988e-03
-9.700028886516040560e-03
-8.701973073740135525e-03
-7.571699164192690137e-03
-7.480629759664582032e-03
-4.833596025924299933e-03
-4.227361552447929318e-04
1.942134756079263525e-03
1.224228041583832463e-03
2.659149197511340157e-03
6.910106483788832840e-03
7.768718013254558019e-03
4.658878750668764106e-03
2.478850719154459831e-03
1.833815206774443629e-03
5.633693787258080721e-04
-1.218537331470285470e-03
-2.185109701437017160e-03
-2.688216511061244322e-03
-2.156747288965284517e-03
-2.294305086374458756e-03
-4.480373659897292360e-03
-4.732487445071872217e-03
-2.556639607511700107e-03
-1.255530202281450415e-03
-1.067621371035381390e-03
1.588515245495915893e-03
5.103377028712562796e-03
5.415201735258667881e-03
3.480155207158422762e-03
3.284246066115783201e-03
2.228576672383814766e-03
1.048731353504368585e-03
1.377210037743541171e-03
1.036474614806490559e-04
-2.835865377888686402e-03
-4.298398950471861088e-03
-4.030417207891552611e-03
-2.373081679268779654e-03
-2.852463964681598886e-03
-3.328150030226559308e-03
-1.487644547803247631e-03
7.250632667362558788e-04
1.376706996612427026e-03
2.658381843657065674e-03
5.386035513250268629e-03
5.637928987402660019e-03
2.227263674274994939e-03
-1.163949562159301157e-03
-3.157042785177789201e-03
-2.692043454392735544e-03
-8.566969254227008168e-04
-1.209619809113634159e-04
1.006306566206496616e-03
1.571392032212239618e-03
-7.535427927483041247e-04
-1.123065186810220852e-03
1.192247208291425135e-03
9.766071082607389112e-04
-1.180366226933277042e-03
-2.087294939837059261e-03
-1.749486028583608970e-03
-2.301855151660596194e-03
-2.060031963791056873e-03
-1.474232278465779965e-03
-1.912144464415164264e-03
8.985783039668236369e-04
5.270331413211655491e-03
7.063015935803959242e-03
6.397875249307748841e-03
5.066119104294459358e-03
4.245602568425566395e-03
1.914910320408150885e-03
-1.185913575178944432e-03
-4.596942880906651138e-03
-8.892431230932992467e-03
-1.063963612107669647e-02
-1.079011442082021197e-02
-1.254835460228517600e-02
-1.161732587329089052e-02
-2.624103078246949310e-03
1.017790020279254852e-02
1.654840810487737124e-02
1.320930801222885455e-02
7.033032813370818440e-03
8.015240135988853723e-03
1.310159263308071330e-02
1.687994419468701740e-02
1.175337780032351988e-02
-5.874535294562220709e-04
-1.065694011179566143e-02
-1.899288745239677972e-02
-2.254518068216213381e-02
-1.892512452602604020e-02
-1.387065953292355817e-02
-1.300871006976923872e-02
-1.408935265523191850e-02
-1.113449857698759447e-02
-1.190232626186961276e-03
1.547685284085060196e-02
3.396283278001917261e-02
4.240034289360321978e-02
3.475056889654593029e-02
1.720251817249509804e-02
-2.112917017626523360e-04
-1.259363297669480013e-02
-2.121517326051173755e-02
-2.462309292779864614e-02
-2.088900021921509184e-02
-1.550828493269087137e-02
-8.709466811227884256e-03
-4.748229908644582072e-04
5.190956659532598716e-03
7.274184569399173156e-03
6.976538855679922761e-03
4.798725723233596488e-03
3.572963069333897745e-03
3.255477131259360262e-03
2.586514300933272486e-03
-1.689199807923723535e-03
-4.613427897047137766e-03
-2.792035762582185769e-03
-2.029382953622288163e-04
2.325332737300420637e-03
4.057482965047736444e-03
4.502823110568545187e-03
4.333177711427639578e-03
3.252902784616477482e-03
3.213300969659272244e-03
3.085508225107800716e-03
-8.657035603575158160e-04
-4.741091094338565834e-03
-4.313739233610277418e-03
-3.252972631280949631e-03
-3.956317015502541952e-03
-6.015157016058409953e-03
-6.516622667138286147e-03
-6.149444306240805722e-03
-4.939441966372900249e-03
-3.483236602254763219e-03
-1.897074630259001785e-03
1.995030257111305837e-03
1.233679624340647783e-02
2.179488305583919885e-02
2.146466373285830717e-02
9.103946741915610458e-03
-6.898643049358896620e-03
-1.423005528018424226e-02
-1.403601169437278945e-02
-1.098931082584381040e-02
-5.495202257695501469e-03
1.283337462934626893e-03
6.059281643186682428e-03
5.409247607786752191e-03
8.107591611119457052e-04
-4.417653107502099029e-04
1.487465033462389424e-03
6.531382863168833357e-04
-1.855235282531768381e-03
-3.103353377471046275e-03
-1.976968294454619929e-03
-4.061030093799837667e-04
-9.279000674424383015e-04
-5.879028542156232136e-04
3.574589250821794844e-04
3.166422069538121688e-03
4.199377927754398276e-03
3.919126887001783861e-03
2.617799342926928254e-03
1.486357702574449139e-03
-7.390624293533577371e-04
-2.431839173381342579e-03
-3.341784153166939622e-03
-3.521441682573382085e-03
-2.558231609646045238e-03
4.292667484779193253e-04
2.826263076036190230e-03
1.879402724122703058e-03
-2.404760799542438911e-03
-4.667748225602896817e-03
-3.205010316127128271e-03
-1.496079569061118091e-03
-1.038086082628231427e-03
6.323364279509851400e-04
4.135485338998987244e-03
7.786819134851489729e-03
8.815794508141317279e-03
6.723820776148770398e-03
2.067807260941691063e-03
-2.307952520387291902e-05
-4.028748203701904701e-03
-8.464160868516545227e-03
-9.990079056521028109e-03
-6.915966183095511796e-03
-3.469529548725958177e-03
-1.558322703308590408e-03
-3.174594633652661033e-04
2.660828220772860995e-03
4.297084322139144846e-03
2.726588176158493016e-03
9.500667855203996561e-04
3.314476807344466681e-03
5.587733501703236356e-03
3.805050604132182573e-03
3.729302372240091493e-03
4.527735370977598213e-03
1.372924670125187305e-03
-3.408765558149023760e-03
-5.819345596860871564e-03
-5.976451498122620221e-03
-6.577689978270693898e-03
-5.569137304996331188e-03
-3.770696367650921890e-03
1.598910518022927658e-04
3.773601471988834426e-03
4.487423699430452724e-03
3.087828046964007696e-03
1.588330417678525007e-03
2.155916376103682829e-03
2.529296772177071304e-03
8.992804114418015502e-04
-1.246509677498180741e-04
5.356000213693477060e-04
7.504139945066498965e-04
-2.369435494993175060e-04
-1.501855199040423106e-03
-3.334447123137657121e-03
-3.422578682903219555e-03
-3.106872268575917254e-03
-3.261324240483828938e-03
-1.243660075149133825e-03
2.082103503832807585e-03
4.324880127094280977e-03
4.308474874341545850e-03
2.677861338023625713e-03
9.807372528206853655e-04
-1.385650373069618807e-03
-1.986389875344253975e-03
1.448240276983561682e-03
1.564895288381263055e-03
-1.367035733884652002e-03
-1.282586797408403903e-03
7.129738469819513636e-04
3.214744591690750931e-03
2.080644065229134577e-03
-1.325553934012846380e-03
-2.573264756508482614e-03
-3.014220561966363815e-03
-5.663546817469210584e-03
-6.200409380650316431e-03
-5.486182173300132095e-03
-2.401289802952018704e-03
-2.643083534283504330e-04
7.861491501984432936e-04
3.780762534937964596e-03
9.418017921999805378e-03
1.331343763333968887e-02
1.530896860081154380e-02
1.337776984254890160e-02
4.707606587231114026e-03
-4.512193484124260058e-03
-8.525896856057013293e-03
-8.698981626964818331e-03
-9.832242276487974594e-03
-1.175141484961393125e-02
-1.219675249629123374e-02
-1.338500597490595301e-02
-1.362891956113481545e-02
-1.193752363075965481e-02
-7.895498369635019567e-03
3.944125509454199027e-03
2.059125590350264698e-02
3.286891255957786334e-02
3.057000669080702296e-02
1.830713585745200392e-02
6.810361746803666669e-03
-2.778934550347138353e-03
-8.050580196986128687e-03
-1.048004630298501362e-02
-9.133333297623620617e-03
-8.714081213564761619e-03
-9.608189553143568762e-03
-7.547468831083712151e-03
-5.030761539699040580e-03
-3.375909213070041066e-03
-2.868860062186766573e-03
-3.990636738699127571e-03
-6.059251103705335859e-03
-8.473297423079752949e-03
-1.165637220829884683e-02
-1.373238180747829397e-03
2.224472745699303255e-02
3.215595084335546444e-02
2.412698315340542840e-02
5.577451787296168126e-03
-6.408787269312475957e-03
-7.966283114500415444e-03
-7.060210967952307640e-03
-3.629199290562482114e-03
2.809544130408059542e-03
3.877821121093829020e-03
-3.295548066561800483e-03
-1.086430454439343309e-02
-1.169023958755920599e-02
-7.111787427393444910e-03
-1.138511582283034543e-03
4.650433494142369099e-04
1.160167060417834507e-03
1.263739007877491029e-03
1.901123191073983898e-03
2.700627746803741392e-03
1.165472157965497966e-03
-9.349242205247238705e-04
-2.239989576499043554e-05
5.786613945819661219e-04
2.837680948510068642e-03
1.004378300111906722e-02
1.566461000233403816e-02
9.452564329465838397e-03
-2.711112564847592641e-03
-9.485766566269213454e-03
-1.221518105969033978e-02
-9.959683684903956891e-03
-7.113262481976896298e-03
-6.070672164408496413e-03
-2.035113474788139646e-03
2.486055237327994532e-03
5.917887649459737005e-03
6.849773891289689595e-03
6.776442757714747425e-03
4.905305257539848383e-03
1.357981427080145629e-03
-6.940497318797961019e-04
-3.685134789256984162e-04
-1.205511007956470808e-03
-3.076525345758989675e-03
-2.485810088905136914e-03
-2.943391550705486050e-03
-5.197895568291139960e-03
-3.574706374025564837e-03
1.662224847351255258e-03
2.628021208663556835e-03
1.359410780653290841e-03
1.874597447822853001e-03
1.317846383882152967e-03
-4.319371200028619445e-04
3.037685310765607621e-04
1.846327367432078074e-03
4.789694229960800125e-03
6.509586107421395929e-03
4.524723536380575832e-03
-9.031546449031603672e-04
-6.914770565057822352e-03
-8.656460002607755527e-03
-6.750889737800046253e-03
-3.325883935854120291e-03
-3.349444769721514966e-04
1.051136739035743234e-03
1.202705963427944938e-03
1.414618185889410717e-03
1.762889295908562533e-03
2.928711778487236989e-03
5.429370441541494542e-03
4.578241397234623054e-03
2.078828052060297926e-03
-1.300049131301982694e-03
-4.807527834623442214e-03
-4.503935682386857667e-03
-2.413112040768759271e-03
-8.737858637157169730e-04
-7.060907742246541521e-04
1.079187485217801166e-03
2.889905132298506256e-03
3.742196923442196992e-03
3.720247259419476229e-03
1.079712770842424212e-03
-2.103341556334375594e-03
-3.133269460775128714e-03
-3.269094994348833473e-03
-2.533811340271033535e-03
-9.334877948635083352e-04
7.800371056061183861e-04
9.554733370360444502e-04
-5.187473583988019138e-04
-8.130776713851745009e-05
3.797346181848179581e-05
5.118904711549072777e-04
2.013033955583336861e-03
2.311380725386187780e-03
6.967606968710309771e-04
4.185073151905663378e-04
-3.181178021817996954e-04
-1.180410917001440069e-03
-1.293565242305085541e-05
-4.660966281198141814e-04
-2.076967409227315105e-03
-1.641655763438570935e-03
8.345559612270498414e-04
1.527491348512728620e-03
1.339555372009783090e-03
-5.058391339915295753e-05
3.904299801283322535e-04
2.490386598531417386e-03
1.346859033702096616e-03
-1.227386549554975110e-03
-3.264476016097460267e-03
-3.708770167959241689e-03
-2.569421617928423825e-03
-6.161315489486669187e-04
-1.212114877829691779e-03
-5.511266476329635148e-04
2.116215015221278081e-03
4.632408068751403193e-03
6.814264497877203439e-03
6.790785145281353491e-03
2.225819659967863320e-03
-3.269336147556775683e-03
-5.776336199140853084e-03
-5.336327868203457996e-03
-3.655692687679828762e-03
-1.050219554472493115e-03
8.104601894427557966e-04
1.344345956556776325e-03
-7.758542706424425683e-04
-2.590820418943320328e-03
-2.199969276014999021e-03
4.699336159107970427e-04
2.437941828023981305e-03
2.545704845221838462e-03
1.604739714211200806e-03
2.087262806802335328e-03
2.630834392167914759e-03
3.531419384866161561e-03
2.778157519713624849e-03
2.469715492618636569e-05
-1.879303711479090406e-03
-2.527394103569534107e-03
-2.271237659326302491e-03
-3.588042902772121002e-03
-5.277879541557066630e-03
-2.613982261795120676e-03
7.553599670126222559e-04
5.865035449734319877e-04
5.812166963828550945e-04
7.845600386923245280e-04
6.305942569368417575e-04
1.225201872729578473e-03
1.373467017887268233e-03
2.305759102920633494e-03
3.097587452667917209e-03
2.652680060044950491e-03
6.200353413253528647e-04
-7.714771788641259977e-04
1.461109151494921574e-03
3.126832614788962756e-03
3.964505286349880660e-05
-3.124309503886674166e-03
-3.806666743053546426e-03
-4.003577675561839459e-03
-3.549676087494326761e-03
-5.001861935263389111e-03
-8.150564336639484417e-03
-8.501673765541688590e-03
-3.695887559602051460e-03
3.884900101144293186e-03
9.088808447705406038e-03
1.497002352768444372e-02
2.103376350069808415e-02
2.094820456539255027e-02
1.109775940332459465e-02
-3.755478105839278342e-03
-1.411268620784436947e-02
-1.624353010717343587e-02
-1.613193250936604053e-02
-1.694811153629732781e-02
-1.614246397595550664e-02
-1.567249960245128970e-02
-1.240394568681936656e-02
9.505090776077086603e-04
1.947507332628467189e-02
3.364927219040574069e-02
3.115114464456190252e-02
1.819923475249916184e-02
4.741704065202830345e-03
-6.986498411417753004e-03
-1.573896215135624915e-02
-1.940958794810846225e-02
-1.363953679308768999e-02
-5.073422441617193510e-03
-1.120102022177651849e-03
-4.805615648064336738e-04
4.510096502625957136e-04
3.319172636783308383e-03
7.199299442661503956e-03
1.149842470741712329e-02
9.090851621041815683e-03
2.800786404216197827e-03
-3.901236977421545810e-03
-8.114301202874657157e-03
-9.486774737675845656e-03
-7.315433217581207050e-03
-4.514564073811982992e-03
-4.722852991684513627e-03
-5.599815622337446508e-03
-3.264707560663914973e-03
2.651928035528890171e-03
1.005971192772271011e-02
1.576665089536368261e-02
1.836700157609442302e-02
1.335269903190890867e-02
1.811560831792166431e-03
-1.017624493596852586e-02
-1.579929893360374621e-02
-1.406274621752667993e-02
-4.892514812430555707e-03
3.398304982836151868e-03
9.827034449593891312e-04
-5.319327572773801041e-03
-3.790525897945908052e-03
5.129444460807337531e-04
3.609140720689225576e-03
3.652408506676694307e-03
6.420730063022458273e-03
8.068834711331455967e-03
6.112318813520710263e-03
3.850699110480711130e-05
-2.586881775981065505e-03
-2.746644841066049180e-03
-4.320171898288261737e-03
-7.058387180071213317e-03
-5.663415982008951355e-03
-2.908293673858883353e-03
1.292397526886443905e-04
4.217812145393162390e-03
5.255532678329571591e-03
3.879329123922026657e-03
1.494088791383828664e-03
-3.538989778289846179e-05
-6.751432648069244456e-04
-1.307553717550369960e-03
-1.137748129639443552e-03
-7.454047929332343388e-04
6.618523078842236413e-04
-7.025712694135020659e-04
-2.218243806720234402e-03
-1.724778902906779236e-03
-1.167204566021576751e-04
6.390306636214191684e-04
3.453101400194741582e-03
3.600713616123976234e-03
2.301891629738225895e-03
-4.494905564895906630e-04
-2.069564809609722011e-03
-3.028249034286874340e-03
-1.811735611842308453e-03
-7.189701466690046148e-04
-1.130086314247741525e-03
-7.590962199501242059e-04
1.616078336195435382e-03
4.475003783643022835e-03
2.791598440516162346e-03
8.855103756522547968e-05
-4.125388397441018371e-04
-9.787659500137073885e-04
-2.804414881247910014e-03
-4.332816979913023739e-03
-2.783461705955206714e-03
-1.325984214401923402e-03
2.242330889775649596e-04
6.715548496297735334e-04
1.860561882772031415e-03
2.263137578181740901e-03
2.773624284982893762e-03
4.418466158673128689e-03
4.847238941723632476e-03
2.455371239460038199e-03
-1.016818300111359220e-03
-2.308385837275982524e-03
-2.733495169557806012e-03
-3.290759470344126799e-03
-2.825209962941476957e-03
-2.295432288784261723e-03
-2.634205356880677060e-03
-3.374537913134415239e-03
-1.278147160258865517e-03
2.031222633570097923e-03
3.571778593729430483e-03
3.727458033835911403e-03
5.955951965272863937e-04
2.042565974207505015e-04
1.248381494915227303e-03
1.342033017900914329e-03
-5.427618169819008621e-04
-1.788518237335418254e-03
-1.015310047405011728e-03
8.518750835122747712e-04
1.958011454551704823e-03
2.832949914510967467e-04
-1.165874354306106276e-03
-1.219763623679552675e-03
-3.886743256812551163e-04
1.430234979328396652e-03
3.736800231154446903e-03
4.516985104991272024e-03
3.757039358476614490e-03
8.538290726893939600e-04
-5.839472803003425104e-03
-1.122966975492387803e-02
-1.111393604986999836e-02
-8.593133068221431303e-03
-6.451068338121849002e-03
-2.436575908369878300e-03
4.618274471752201876e-03
1.356243233627101898e-02
2.121817422867432190e-02
2.115224564602634014e-02
1.038824768687050641e-02
-2.347626340315783159e-03
-9.126042832667598942e-03
-1.271531888056104745e-02
-1.084571796612670939e-02
-8.398628505485743537e-03
-8.389806403343840618e-03
-6.772675161921509757e-03
-2.048602496271912949e-03
1.220708018970256608e-03
4.612817995938036861e-03
7.441821237574241903e-03
6.136442243160580845e-03
5.062803783600337663e-03
4.308370162652445066e-03
1.354186207896623589e-03
-5.359218497110491020e-04
3.602104149800193912e-04
2.579480853263217232e-04
-1.738029855248159712e-03
-3.629145422885927952e-03
-3.875292296181316251e-03
-2.611749321197755908e-03
-1.188979881778039855e-03
-9.511694643192793956e-04
-1.406133435036157654e-03
-3.803878275757755834e-04
2.925473590989455339e-03
3.202303417057964213e-03
1.540276899437749685e-03
-3.733535754507995752e-04
-7.151384785119955807e-04
-1.037087289310470234e-03
-1.690116735604019725e-03
-4.507625477941869696e-04
2.444573936821070170e-03
3.539146932678498194e-03
4.704753922576299097e-03
4.602436934428314787e-03
2.809606294535064823e-03
-1.392119293662057817e-03
-3.514609401267779123e-03
-3.467533148360969850e-03
-4.025339351271368070e-03
-5.940018994829840068e-03
-6.872188179583991335e-03
-5.361744191262420717e-03
-5.107961952062490749e-03
-5.062739046265014517e-03
-1.733680727810604782e-03
4.849464605866067764e-03
1.447702529546325383e-02
1.942357138326051072e-02
1.619086736099169949e-02
6.576566174518006652e-03
-1.097125401787626834e-03
-2.650096730394945702e-03
-2.145186422674680293e-03
-4.848366564488866028e-03
-9.274672081028922585e-03
-1.495487818324536290e-02
-1.952777509223545954e-02
-1.767214879026746122e-02
-1.347604251097802956e-02
-6.417398498062006074e-03
6.473910569552715141e-03
2.082105572072193156e-02
3.189079221017300514e-02
3.121367280878007203e-02
1.999858314479586660e-02
5.621961196648388517e-03
-9.347883876574441045e-03
-1.767009417111566408e-02
-1.808655685275671957e-02
-1.544754263872448984e-02
-1.397388959366838504e-02
-1.067768656904606074e-02
-1.760247311240843585e-03
6.862797935640475161e-03
1.054535499158098903e-02
1.170284396624717872e-02
8.207521411608227277e-03
2.230819833675839938e-03
-2.509618179704610919e-03
-4.264158385874900273e-03
-3.712267718367773684e-03
-1.523682998683183404e-03
-6.496350289982332545e-04
8.324103903302663260e-05
6.294218716960340567e-04
1.094653512975693509e-03
3.594762043133264691e-04
-2.617107467588111595e-04
8.403724939158234257e-04
1.447667481769574025e-03
-5.198240716879352127e-04
-3.495936344264742417e-03
-2.269317178619178338e-03
1.487439429362693308e-03
2.422021385712086732e-03
6.581610147601653013e-04
-3.408814968669701391e-05
3.186408203570429993e-03
3.843125134695547437e-03
1.558052618595952765e-03
-6.890427195245328986e-04
-1.131723738921493498e-03
9.423591793224319387e-04
1.230257632255483654e-03
-1.646968929588719759e-03
-5.836451731416831927e-03
-8.542573019166433551e-03
-1.152390563682093548e-02
-1.133528602590577056e-02
-5.900565391993786366e-03
3.947192831243725303e-03
1.338223698272139432e-02
1.921800132244790710e-02
1.974491590510371944e-02
1.396454210811228121e-02
6.630082260788840859e-03
-1.353620219156323337e-03
-7.722741492920320860e-03
-1.127301803774705125e-02
-1.076867377307998315e-02
-1.163665937751977818e-02
-1.328845114627233252e-02
-1.231921699360634566e-02
-1.151446893373511519e-02
-9.486937333536714714e-03
5.238755470771715769e-04
1.704634469283176218e-02
2.638319151345915048e-02
2.105111979587259360e-02
1.044480640518863877e-02
2.517930044217223020e-03
-6.408355276365225537e-04
-3.103371537484214421e-03
-4.099599794293017421e-03
-3.337897464363903059e-03
-3.730232741768146464e-03
-7.862428473772354112e-03
-1.263679628379661517e-02
-1.246487774304322685e-02
-8.112292542113333504e-03
9.291762536878104325e-04
6.210549404869283169e-03
7.403124754430330350e-03
7.095382102989544748e-03
5.894408375519306909e-03
2.106064170237982505e-03
-6.479663275862151354e-04
-1.831913281640153374e-03
-1.408218800156299218e-03
1.379903099424852932e-03
3.430442726997730805e-03
6.841261136375670912e-04
-4.265035595235908226e-04
1.313790388163211436e-03
9.969715707172836869e-04
1.335911424691425863e-03
2.148293202383563371e-03
1.437790835331230607e-03
5.949996608372600491e-04
-4.734091237620585376e-04
-3.334691222911673799e-03
-6.445460075761263660e-03
-1.003173176279634378e-02
-1.151362723487540582e-02
-8.717720191758286316e-03
-2.789794855226090421e-03
1.634289575431659060e-03
4.647117759296956994e-03
1.211604767247218863e-02
1.765818687573011622e-02
1.559538949782039718e-02
6.286465024788729858e-03
-1.737453380261352051e-03
-4.583971752497168796e-03
-4.818388498297678998e-03
-4.581406458974256711e-03
-3.893305950144368682e-03
-4.756923042945014439e-03
-3.971192265448130615e-03
-3.800702928763519204e-03
-3.728308363453184272e-03
-2.893130557512206807e-03
-1.617161653471574584e-03
1.336969782400248023e-03
2.807920500342068332e-03
2.550952638139091042e-03
3.228434725394222198e-03
4.144728434578812473e-03
3.527390209789822272e-03
1.420750342366534349e-03
-1.647475060431536427e-04
-7.629744654843683121e-04
-3.828288282259108559e-04
6.471789278983813842e-04
4.622188484442039708e-04
-3.668985055194339266e-04
-1.880609918588541920e-03
-2.894963793411353941e-03
-2.523672264055936212e-03
-2.311657512144564552e-03
1.749454074485751773e-04
1.583059892645593452e-03
-1.277747873134075975e-03
-1.519328011674486376e-03
1.800502565166190805e-03
3.522403962168475008e-03
2.758787023760791903e-03
1.213285980344931030e-03
1.501129889669016327e-03
-2.269139050101116927e-05
-2.123907864472413323e-03
-2.960336766893580367e-03
-1.606570839241776207e-03
-4.944611452209614171e-04
-1.140240902148185629e-03
-4.825810269190509657e-04
8.770047186421343205e-04
1.267202929787721250e-03
6.925092719689637409e-04
1.137692304804723388e-03
2.600302260791402444e-03
3.091132521577452143e-03
2.907851141861639982e-03
-2.460550038132674794e-04
-5.155752292502995340e-03
-8.314026746175710164e-03
-5.293735955061312087e-03
-1.124343175707944809e-03
9.974849411080466150e-04
2.145954312414138226e-03
3.847596094039881353e-03
5.788984113026504445e-03
6.119711241621941106e-03
5.266810906667986590e-03
2.121993129873035906e-03
-2.139702752446351591e-03
-6.496002532627820174e-03
-8.545874199808076513e-03
-7.861623128287142936e-03
-2.934042291389674529e-03
3.487885749750810078e-03
7.752696065223598984e-03
4.845953274391474885e-03
-1.084610330512083805e-03
-3.904193286776933610e-03
-2.360541988872872764e-03
6.762215147248613282e-04
1.415598450460515793e-03
1.706184356049155566e-03
2.320758755413787101e-03
2.956253298184778784e-03
3.150415195264436290e-03
7.582173123874564463e-04
-2.856947550777488593e-03
-4.498070927190504775e-03
-2.487958199091853864e-03
-9.389691329283981081e-04
-1.054048744773630275e-03
-9.741806689622875288e-04
1.931244546711990929e-03
9.907294617099565975e-04
-1.157606159118169421e-03
-2.794240649986786101e-03
-2.818473565972720671e-03
-2.280009282112239761e-03
-8.750865469774546119e-04
9.122296849267775903e-04
2.721845219918092064e-03
7.825657533146122488e-03
1.244806668228331560e-02
1.156991452992754861e-02
3.210826304249654508e-03
-3.012057615508063630e-03
-4.483249339283928991e-03
-5.113747993031613620e-03
-6.322378203613358838e-03
-8.244194853008696491e-03
-8.655671925848042528e-03
-9.231114929195174262e-03
-9.294615134775691470e-03
-1.026088043020017930e-02
-1.001211001146813141e-02
-3.383435452367445761e-03
9.872507003545819004e-03
2.643010843640399010e-02
3.433194735840247591e-02
2.716525127277043608e-02
1.153651709572767713e-02
-3.141215054152628281e-03
-1.286612210278232499e-02
-1.856006071817177527e-02
-1.779590780560507887e-02
-1.315852583144237926e-02
-1.038771533297478712e-02
-6.458210290061739203e-03
-2.692917560534106945e-03
2.104357838963529567e-03
5.386465046998224759e-03
5.886771446103232323e-03
7.114181284612855656e-03
8.335106796791946770e-03
6.695260891830605646e-03
3.005643296363010638e-03
9.698479072601255604e-04
-2.894029997247634951e-03
-7.662219549982689226e-03
-1.121432342639023388e-02
-1.023821200840938604e-02
-6.797050129745884836e-03
-2.232406481917738068e-03
6.643732171809938088e-03
2.021950809493823151e-02
2.448478712731894102e-02
1.544894432424123720e-02
1.745178685578303987e-03
-8.475352820387900207e-03
-1.103173929946927971e-02
-1.179375722330361538e-02
-1.079114378873369945e-02
-7.231793024615875559e-03
-4.678993243004929761e-03
-5.249871277612601882e-03
-6.568094511885860104e-03
-5.284875114624590711e-03
-2.131564976591099943e-03
4.010254522348551988e-03
1.120350961385348058e-02
1.657070014007946956e-02
1.551379615694103639e-02
9.027540509722896400e-03
4.916804204547221488e-03
1.779195345457546809e-03
-3.202011724182665057e-03
-7.986223451376530530e-03
-1.069332169809436052e-02
-1.172289467280388311e-02
-9.467748651179873701e-03
-4.119263835454096273e-03
-7.153307374642809639e-04
-4.444548648720366151e-04
1.026511646200261836e-03
4.540260861736445178e-03
7.285389834140733670e-03
8.583667786097518362e-03
5.913058425720431679e-03
6.987332828278026205e-04
-4.438053654630324737e-03
-6.292235786622082765e-03
-4.736888981210473845e-03
-1.043177351698298472e-03
1.817058573191291824e-03
4.057621380598086872e-03
5.267908709105708145e-03
5.487155939743687885e-03
7.043311062000776057e-03
7.543392366352056656e-03
1.562348838562293901e-03
-9.733663969618933792e-03
-2.071511276824882300e-02
-2.250520406724187614e-02
-1.625602496979287187e-02
-3.390367439692343766e-03
1.346939584769315038e-02
2.392286932002391300e-02
1.923424332700320386e-02
6.507732925013727521e-03
-1.393372052317581400e-03
-1.414612156094123075e-03
1.370179090544596358e-03
-7.409481132041823102e-04
-2.961353363775389921e-03
-2.041427804669065926e-03
-2.511771079207513694e-03
-6.295215924742458662e-03
-7.966737985192449967e-03
-4.359687019447019626e-03
2.494357902486849031e-04
2.227702662323736028e-03
1.939047649439781199e-03
-5.342787725467984614e-04
-1.432045500186368515e-03
2.250631100250923347e-03
6.499053291153915508e-03
6.222627157777255343e-03
2.725933608376204711e-03
-8.727712068011498226e-04
-3.610842576658458789e-03
-4.240367118860384303e-03
-3.821811502429777081e-03
-2.519050165344906278e-03
-8.195394737542203035e-04
1.608704572213772647e-04
3.561184525999729674e-03
5.942484391086395520e-03
4.614160419073420893e-03
1.146918547976279179e-03
-1.521280821243279398e-03
-6.045701351663124081e-04
2.821693685524474869e-04
4.388537181025503587e-04
-6.591883027231857164e-04
-1.829337834719094950e-03
-5.518152189665549018e-03
-8.491923103775791959e-03
-6.568352298580960695e-03
-1.792868698212798538e-03
1.368408631718826549e-03
2.580117411627995839e-03
6.237252406957016250e-03
9.705705979613373294e-03
1.002792382306269200e-02
5.748811770064901974e-03
-7.970283637271249975e-04
-5.314589952702362952e-03
-6.579642067786677442e-03
-7.043704379843673466e-03
-5.504629095501658263e-03
-2.443181250035985404e-03
-3.259361568277773587e-04
1.735893256034271330e-03
4.628922542374847883e-03
5.727024046684585715e-03
3.163074564329973470e-03
2.695650052152587326e-03
3.672422834508836872e-03
4.060793586625977762e-04
-5.004997788797403008e-03
-7.708920525771829901e-03
-7.727474125008609168e-03
-6.446190127291319058e-03
-3.259275694971087902e-03
2.442713492332977774e-03
5.926807450268611541e-03
5.961953958947975585e-03
7.255770289050375577e-03
8.855586597773291296e-03
6.285641548526578123e-03
5.542493662716132304e-04
-3.211891128225687151e-03
-4.608099204137947914e-03
-2.295627509360546967e-03
-2.842393919650316320e-03
-5.915046950669793080e-03
-7.937838527757513918e-03
-7.434498251745032260e-03
-7.933661616962338695e-03
-6.688455563367387731e-03
-2.168430015255181503e-03
5.770201886286206727e-03
1.449324196922381278e-02
1.628383138439674221e-02
1.038574086202155924e-02
6.966190342386522488e-03
4.078301604537724022e-03
3.083242039948109851e-03
-3.353348032830792799e-04
-4.400493751946551145e-03
-6.253934471650021178e-03
-8.189314031050871565e-03
-1.000336708304696599e-02
-1.172854561030378141e-02
-9.658985063252351413e-03
-5.507074281883500740e-03
-9.195574201283928956e-04
2.353654890123680222e-03
4.574337871616402686e-03
4.177034718039016742e-03
1.101418686649807818e-03
6.230209242636150328e-03
1.634637404346300782e-02
1.824048706710720141e-02
7.626139851717377710e-03
-7.043507053508112070e-03
-1.418033168051502022e-02
-1.018691231160395901e-02
-5.696771722081037104e-03
-2.669733172689394991e-03
7.410225288942398538e-04
4.099981250039061442e-03
7.144110912433979457e-03
7.811855553178357649e-03
4.391531232469969223e-03
-1.110081798812353028e-03
-5.398532075467056372e-03
-6.324560860787684091e-03
-4.557404451521035113e-03
-4.652400979748368484e-03
-5.443073528088070330e-03
-5.545553269674090291e-03
-8.106199705126253957e-03
-1.075379994949172448e-02
-1.081505146684585798e-02
-2.445593766852170118e-03
1.250591554223211624e-02
2.798019984738809793e-02
3.307691231103100649e-02
2.440474007205084908e-02
1.142540781579283633e-02
-6.194660432681990767e-04
-1.312179774697874203e-02
-1.896553221018812754e-02
-1.942630940533613890e-02
-1.727023046714508403e-02
-1.520024888349040017e-02
-8.819233150476170693e-03
-2.186977051565583505e-03
2.857465439997395728e-03
6.073290906351349293e-03
7.884258893092686502e-03
7.526410758466041580e-03
5.925777003001380522e-03
5.831643601389555412e-03
6.155368629396380104e-03
3.638380833060030333e-03
2.917899173568101138e-03
2.794161094306188160e-03
-1.170906671177959551e-03
-6.422179175914363020e-03
-4.774432519235533370e-03
-5.595034739203322716e-04
-1.308363308246279300e-03
-4.009939287336795541e-03
-4.871010577683170667e-03
-5.416990538910842166e-03
-1.963797946813937347e-03
-4.223218303696142932e-04
-7.403489804017984212e-04
2.632234499135466688e-03
8.375995708238700987e-03
8.142393099887674027e-03
6.537806508664114474e-03
2.658203667101889395e-03
-4.495713282309862367e-04
-2.345557329307123087e-03
-3.207698077733512048e-03
-4.436196697317451934e-03
-6.817000040610590554e-03
-5.940268981487408124e-03
-4.253199289855411416e-03
2.305826090420613132e-04
2.483762047061831030e-03
1.294359929211948623e-03
2.770005331957949707e-03
7.363297598797723630e-03
8.037689043462165062e-03
3.694536492594582746e-03
1.006231479453804359e-03
3.828162774213701258e-04
-2.190280211294194992e-03
-4.310878561723261414e-03
-3.256227764293159136e-03
-3.453985829636777374e-03
-5.950392475784552042e-03
-8.257742304555665616e-03
-7.562496011901066219e-03
-4.547356323121469479e-03
1.176041233599899689e-03
8.003380928243292169e-03
1.369912085551254141e-02
1.416616179022331910e-02
9.543802676200306354e-03
5.428146838977030222e-03
-9.269710003773713779e-05
-6.663200856726150291e-03
-1.103735891266064556e-02
-1.057473915482728087e-02
-5.364597661296146777e-03
-3.862518886456010273e-03
-2.591026110317587710e-03
2.812567573412013268e-04
2.953594498271483893e-03
5.481342737564837489e-03
5.649650142740386335e-03
2.781367423897106086e-03
1.698041308893328194e-03
-7.131254138698181911e-04
-2.686110549199862470e-03
-2.767386418990352114e-03
-2.260084923647165574e-03
-2.937668407566647582e-03
-1.705713591615366917e-03
2.529486670012941456e-03
7.791187528114378383e-03
8.116035726145829840e-03
1.489446413304000355e-03
-5.269155172290921306e-03
-8.404369655725028171e-03
-5.389156452626386873e-03
2.485890976243051390e-03
9.964327890220956233e-03
7.980375551945138521e-03
-7.735231943415026620e-04
-7.336657544426563628e-03
-1.021055439633987254e-02
-7.270962906757050259e-03
-2.940888346294929807e-03
-1.073942412044952559e-04
1.550668251970834877e-03
4.487002949114665684e-03
4.887884870948989470e-03
4.109815792131480371e-03
4.860775823994128476e-03
4.332957348014553935e-03
4.123851032002697793e-03
2.918581237724136770e-03
7.721527592748911317e-04
1.897170101866210506e-04
-2.252464628828520533e-03
-4.449951860815525365e-03
-4.099622278529189978e-03
-4.795538392242806175e-03
-8.549254665256069904e-03
-1.106245723729378655e-02
-1.333276915282765283e-02
-1.129303191659842068e-02
-1.019722748964638605e-03
1.483469828146856927e-02
2.564448995126881320e-02
2.118200902372845487e-02
8.692836681818931835e-03
6.824043854840257297e-04
-7.979459225552767380e-04
-1.088563893159520376e-03
-1.613292121757131398e-03
-4.894586597490179977e-03
-8.733886851807787233e-03
