-9.827607923616005214e-03
-9.141110886756710630e-03
-8.489536219353950586e-03
-7.873794403161101657e-03
-7.294313834333657903e-03
-6.751032563655826567e-03
-6.243398061565957023e-03
-5.770375263233138742e-03
-5.330462963970711635e-03
-4.921718523220376153e-03
-4.541790825961091599e-03
-4.187961018211478793e-03
-3.857190466406321908e-03
-3.546175352507803264e-03
-3.251407080977325101e-03
-2.969237337510866916e-03
-2.695946994049236867e-03
-2.427817491155970144e-03
-2.161203434891576305e-03
-1.892604978902392727e-03
-1.618738799650106105e-03
-1.336606143022924182e-03
-1.043556579403832592e-03
-7.373461393569282840e-04
-4.161885500696756342e-04
-7.879841304759374100e-05
2.755746306460481881e-04
6.471218026395927697e-04
1.035461745163447547e-03
1.439638305772755885e-03
1.858129914710440669e-03
2.288870684278838594e-03
2.729283003208196178e-03
3.176321363553338221e-03
3.626526844738502380e-03
4.076091441701993993e-03
4.520931193159614774e-03
4.956766967383523584e-03
5.379211468874584186e-03
5.783860899597163298e-03
6.166389629972216305e-03
6.522646026889272058e-03
6.848747614684001263e-03
7.141173658660310113e-03
7.396853284959904740e-03
7.613247210164873421e-03
7.788421394543416400e-03
7.921110854916006347e-03
8.010772166618907245e-03
8.057623276734298540e-03
8.062669470862472015e-03
8.027714688106511037e-03
7.955357470621132049e-03
7.848971283201560886e-03
7.712669045782407501e-03
7.551252252099065199e-03
7.370145164587699194e-03
7.175315114873103903e-03
6.973179853914242624e-03
6.770503695374879838e-03
6.574283902409603850e-03
6.391629501865091385e-03
6.229634511743092733e-03
6.095248062269593287e-03
5.995143729615105832e-03
5.935590668212317213e-03
5.922329111223772861e-03
5.960452778155207569e-03
6.054300635588894322e-03
6.207360389693109687e-03
6.422185925397057987e-03
6.700330582610273394e-03
7.042298058696564757e-03
7.447512378308640373e-03
7.914307897576695894e-03
8.439940203723904008e-03
9.020618154245190617e-03
9.651556990560115207e-03
1.032705200970285113e-02
1.104057199279764347e-02
1.178487104370278676e-02
1.255211708173523122e-02
1.333403499969048819e-02
1.412206202774659962e-02
1.490751263963150004e-02
1.568174998450517013e-02
1.643636073869562259e-02
1.716333001647329243e-02
1.785521299474351203e-02
1.850529976197852478e-02
1.910777003389173279e-02
1.965783447225014774e-02
2.015185950211454899e-02
2.058747274730147320e-02
2.096364654907821243e-02
2.128075731678734026e-02
2.154061902608841658e-02
2.174648934960500893e-02
2.190304777575730055e-02
2.201634520712477880e-02
2.209372536885458385e-02
2.214371873511581171e-02
2.217591030858664936e-02
2.220078307943196966e-02
2.222953955531748252e-02
2.227390420521288550e-02
2.234591007102174065e-02
2.245767324862818146e-02
2.262115924309224604e-02
2.284794543815788642e-02
2.314898414960055509e-02
2.353437084207166130e-02
2.401312199483990328e-02
2.459296720346451637e-02
2.528015978094404551e-02
2.607931005825329940e-02
2.699324507604089832e-02
2.802289811118874666e-02
2.916723085784202890e-02
3.042319062631189397e-02
3.178570432821618830e-02
3.324771036699263743e-02
3.480022870696045101e-02
3.643246889322557941e-02
3.813197497216855303e-02
3.988480551721730605e-02
4.167574631472137359e-02
4.348855256428989235e-02
4.530621676097901229e-02
4.711125799044275225e-02
4.888602765533257843e-02
5.061302642861633533e-02
5.227522674685430165e-02
5.385639507330827053e-02
5.534140779554012901e-02
5.671655478189391308e-02
5.796982474477612585e-02
5.909116652794781793e-02
6.007272106351117802e-02
6.090901887190335040e-02
6.159713875921610932e-02
6.213682389151210794e-02
6.253055206780774866e-02
6.278355787660307163e-02
6.290380536633985442e-02
6.290191065281108829e-02
6.279101472578652032e-02
6.258660792991412036e-02
6.230630833309985794e-02
6.196959714391868379e-02
6.159751527559167300e-02
6.121232600093152315e-02
6.083714938556995799e-02
6.049557478981826275e-02
6.021125822093966601e-02
6.000751213416836288e-02
5.990689520364367998e-02
5.993080989177296258e-02
6.009911579330259879e-02
6.042976636018644598e-02
6.093847658459509986e-02
6.163842882076331353e-02
6.254002316666061601e-02
6.365067822419159804e-02
6.497468737577778708e-02
6.651313446679205099e-02
6.826387212874168720e-02
7.022156445730473595e-02
7.237779487297375802e-02
7.472123857292180260e-02
7.723789777022462000e-02
7.991139666618450599e-02
8.272333192651981637e-02
8.565367296802610386e-02
8.868120558798303632e-02
9.178401118463325181e-02
9.493997299627458808e-02
9.812730001325392637e-02
1.013250584241714436e-01
1.045137001585149383e-01
1.076755777646466739e-01
1.107954347323850813e-01
1.138608602928003616e-01
1.168626984517083661e-01
1.197954010047684592e-01
1.226573153446950809e-01
1.254508985821520817e-01
1.281828506222418007e-01
1.308641600858900245e-01
1.335100583133007335e-01
1.361398780524572527e-01
1.387768154336541382e-01
1.414475951181503044e-01
1.441820405251694470e-01
1.470125525575726733e-01
1.499735023420284974e-01
1.531005448644699451e-01
1.564298623028012314e-01
1.599973473745704700e-01
1.638377382841767482e-01
1.679837182630792292e-01
1.724649938192313881e-01
1.773073666707898344e-01
1.825318148545705121e-01
1.881535991324938539e-01
1.941814109217979700e-01
2.006165777637255732e-01
2.074523421761872988e-01
2.146732288486924989e-01
2.222545145487832274e-01
2.301618136658199754e-01
2.383507910692486131e-01
2.467670123048699982e-01
2.553459393273808109e-01
2.640130778429028435e-01
2.726842803480759025e-01
2.812662066377577541e-01
2.896569410421974688e-01
2.977467633482014930e-01
3.054190679541531894e-01
3.125514233301319722e-01
3.190167615551953717e-01
3.246846855061787385e-01
3.294228790884281000e-01
3.330986040706612750e-01
3.355802653994967022e-01
3.367390252423593799e-01
3.364504450857826456e-01
3.345961340593061051e-01
3.310653811258380541e-01
3.257567486556467440e-01
3.185796046893549782e-01
3.094555719367486635e-01
2.983198719014684697e-01
2.851225439197285216e-01
2.698295201270317634e-01
2.524235389842811594e-01
2.329048821089386989e-01
2.112919212375008737e-01
1.876214646504553718e-01
1.619488949861419003e-01
1.343480930824932362e-01
1.049111454654569342e-01
7.374783581258242959e-02
4.098492422382907230e-02
6.765220247226170699e-03
-2.875354072888385709e-02
-6.540000583244331978e-02
-1.029906831180856935e-01
-1.413315729547401922e-01
-1.802199331773013669e-01
-2.194461566394236285e-01
-2.587957386251914516e-01
-2.980513096672873785e-01
-3.369947088261002754e-01
-3.754090717028121804e-01
-4.130809070718638454e-01
-4.498021363534325245e-01
-4.853720704482911708e-01
-5.195992994202390802e-01
-5.523034716964436708e-01
-5.833169408433303005e-01
-6.124862600526620460e-01
-6.396735063999113846e-01
-6.647574193444986124e-01
-6.876343405291254207e-01
-7.082189447489762868e-01
-7.264447548029205892e-01
-7.422644358578870394e-01
-7.556498681573111664e-01
-7.665919997291300580e-01
-7.751004837878474607e-01
-7.812031084996672314e-01
-7.849450293515288779e-01
-7.863878172896497931e-01
-7.856083376224516357e-01
-7.826974773794678208e-01
-7.777587402304182440e-01
-7.709067299301294307e-01
-7.622655442937640302e-01
-7.519671026719636497e-01
-7.401494303692202070e-01
-7.269549238093740984e-01
-7.125286199167893963e-01
-6.970164928373254742e-01
-6.805638001058874620e-01
-6.633134994748994817e-01
-6.454047559598256045e-01
-6.269715570675321592e-01
-6.081414520868603235e-01
-5.890344294593052865e-01
-5.697619435717993230e-01
-5.504261000906524037e-01
-5.311190062861634864e-01
-5.119222904148171827e-01
-4.929067913538882628e-01
-4.741324172569897910e-01
-4.556481694827111406e-01
-4.374923256639065561e-01
-4.196927734844303481e-01
-4.022674847594339131e-01
-3.852251174576988846e-01
-3.685657317360703789e-01
-3.522816046640048215e-01
-3.363581271972693743e-01
-3.207747661684260398e-01
-3.055060735385672910e-01
-2.905227248728990963e-01
-2.757925692181482646e-01
-2.612816725972944565e-01
-2.469553382811702780e-01
-2.327790878108840500e-01
-2.187195876473770062e-01
-2.047455078605860679e-01
-1.908283008414292659e-01
-1.769428894856030221e-01
-1.630682562801469837e-01
-1.491879265804146315e-01
-1.352903414113278135e-01
-1.213691169866627645e-01
-1.074231902544931228e-01
-9.345685166508749253e-02
-7.947966828873485878e-02
-6.550630224010303704e-02
-5.155623088615220867e-02
-3.765337701817871724e-02
-2.382565822027762903e-02
-1.010446616988037831e-02
3.475912757708641762e-03
1.687892346627374585e-02
3.006640191579405472e-02
4.299925586456303933e-02
5.563815361898452605e-02
6.794420807516463046e-02
7.987964378332305937e-02
9.140843523265530790e-02
1.024969055783179761e-01
1.131142758589489122e-01
1.232331559167710588e-01
1.328299695819851189e-01
1.418853079318811716e-01
1.503842057780793995e-01
1.583163382222192439e-01
1.656761356004946284e-01
1.724628163977239559e-01
1.786803394908834386e-01
1.843372782392495302e-01
1.894466203913646174e-01
1.940254989613143244e-01
1.980948603227888904e-01
2.016790769202921885e-01
2.048055124328940768e-01
2.075040481749233223e-01
2.098065799583322399e-01
2.117464949645483097e-01
2.133581381156829659e-01
2.146762776024278008e-01
2.157355789103833632e-01
2.165700963190919093e-01
2.172127903634182289e-01
2.176950790519726897e-01
2.180464297775999982e-01
2.182939980601454333e-01
2.184623182620134274e-01
2.185730502430852096e-01
2.186447849077677308e-01
2.186929104773123189e-01
2.187295402197105554e-01
2.187635010958664528e-01
2.188003818127269851e-01
2.188426377657767263e-01
2.188897492724700411e-01
2.189384287147386476e-01
2.189828714223917561e-01
2.190150444420613518e-01
2.190250067822433477e-01
2.190012543380351340e-01
2.189310824909976583e-01
2.188009590751677225e-01
2.185969005968893819e-01
2.183048444682314515e-01
2.179110104934144088e-01
2.174022452278130679e-01
2.167663430926244361e-01
2.159923388882974138e-01
2.150707669624868923e-01
2.139938830214257737e-01
2.127558453575135733e-01
2.113528532074797073e-01
2.097832406740886557e-01
2.080475255462214679e-01
2.061484132359693577e-01
2.040907568931086824e-01
2.018814755100807046e-01
1.995294325743076636e-01
1.970452785961403774e-01
1.944412613674870172e-01
1.917310082265201165e-01
1.889292852015499735e-01
1.860517380520280706e-01
1.831146206826773648e-01
1.801345162906637098e-01
1.771280566740315587e-01
1.741116451519401642e-01
1.711011882124536809e-01
1.681118407887446375e-01
1.651577697008410617e-01
1.622519394306757845e-01
1.594059236563052928e-01
1.566297456152253853e-01
1.539317497937885137e-01
1.513185065496381876e-01
1.487947508888372572e-01
1.463633557908340099e-01
1.440253399010182622e-01
1.417799086793541385e-01
1.396245276045095240e-01
1.375550253525859579e-01
1.355657244099930381e-01
1.336495961957748502e-01
1.317984372137389615e-01
1.300030625108565541e-01
1.282535125213676297e-01
1.265392691742589504e-01
1.248494771265779429e-01
1.231731657774400718e-01
1.214994680467986060e-01
1.198178319189229651e-01
1.181182209958219209e-01
1.163913005892780461e-01
1.146286062311255016e-01
1.128226918515700117e-01
1.109672555233854330e-01
1.090572407056455417e-01
1.070889118467739098e-01
1.050599034864319326e-01
1.029692425403096745e-01
1.008173440591729475e-01
9.860598103410514459e-02
9.633822956810590699e-02
9.401839088265837030e-02
9.165189220377552293e-02
8.924516891998264534e-02
8.680553051102118944e-02
8.434101328127659170e-02
8.186022282821356355e-02
7.937216950083787748e-02
7.688610001188453391e-02
7.441132845001217910e-02
7.195706983575202165e-02
6.953227932161973324e-02
6.714549982650992732e-02
6.480472068659819118e-02
6.251724981618136945e-02
6.028960129916120098e-02
5.812740022788476929e-02
5.603530605682943699e-02
5.401695544766255130e-02
5.207492527670919136e-02
5.021071592203108641e-02
4.842475453532234936e-02
4.671641799749601254e-02
4.508407441787472270e-02
4.352514193571467571e-02
4.203616345630743073e-02
4.061289542198576880e-02
3.925040851606111103e-02
3.794319831642300328e-02
3.668530342071840700e-02
3.547042871018525612e-02
3.429207130422593647e-02
3.314364678082520194e-02
3.201861331719635384e-02
3.091059146787898670e-02
2.981347748154045130e-02
2.872154817070161209e-02
2.762955565286892914e-02
2.653281039357795884e-02
2.542725135659206978e-02
2.430950230546552807e-02
2.317691348148378377e-02
2.202758846807028811e-02
2.086039594436618280e-02
1.967496662911793689e-02
1.847167583751859951e-02
1.725161246091616932e-02
1.601653521762675184e-02
1.476881743588291315e-02
1.351138172146222616e-02
1.224762601264325727e-02
1.098134260955871584e-02
9.716632111623827589e-03
8.457813854542422724e-03
7.209334698667495787e-03
5.975677953138898088e-03
4.761274199378053365e-03
3.570415644179102815e-03
2.407175469169371869e-03
1.275333683767558004e-03
1.783107079759211255e-04
-8.808903343282230422e-04
-1.899731741344111522e-03
-2.876179079878320947e-03
-3.808728350393668013e-03
-4.696422243745100936e-03
-5.538855446855596443e-03
-6.336169392661149258e-03
-7.089036540560436639e-03
-7.798635043061689573e-03
-8.466614446439436545e-03
-9.095053404499160374e-03
-9.686410420246370154e-03
-1.024346872494290295e-02
-1.076927660410805301e-02
-1.126708440133311097e-02
-1.174027957400502857e-02
-1.219232093403912164e-02
-1.262667361779941898e-02
-1.304674592165690032e-02
-1.345582910025227424e-02
-1.385704130349366472e-02
-1.425327662437116290e-02
-1.464716002007510932e-02
-1.504100885253160415e-02
-1.543680165051304967e-02
-1.583615445009022363e-02
-1.624030495582741082e-02
-1.665010456091989971e-02
-1.706601818327575099e-02
-1.748813174133420634e-02
-1.791616685275902038e-02
-1.834950218175375805e-02
-1.878720092258548066e-02
-1.922804361320516048e-02
-1.967056546808912051e-02
-2.011309745842796218e-02
-2.055381008767187198e-02
-2.099075889138104362e-02
-2.142193079691523047e-02
-2.184529030128683907e-02
-2.225882454960364382e-02
-2.266058645589876311e-02
-2.304873509357992234e-02
-2.342157248649072085e-02
-2.377757616817278638e-02
-2.411542704632410952e-02
-2.443403203539071950e-02
-2.473254125782621202e-02
-2.501035939390366253e-02
-2.526715127039320941e-02
-2.550284159705130602e-02
-2.571760908429322062e-02
-2.591187520846896172e-02
-2.608628789016558674e-02
-2.624170058486142987e-02
-2.637914725637560687e-02
-2.649981398885305206e-02
-2.660500782491533392e-02
-2.669612348786659650e-02
-2.677460870891969560e-02
-2.684192892078356499e-02
-2.689953207666997276e-02
-2.694881441635447322e-02
-2.699108766526605446e-02
-2.702754841046272824e-02
-2.705925031409564183e-02
-2.708707961789734442e-02
-2.711173441619491725e-02
-2.713370800191543253e-02
-2.715327664101024538e-02
-2.717049193973020485e-02
-2.718517792023291552e-02
-2.719693281378220140e-02
-2.720513547853508143e-02
-2.720895617895695978e-02
-2.720737158129189759e-02
-2.719918357153206998e-02
-2.718304152230054810e-02
-2.715746749301838070e-02
-2.712088390684828237e-02
-2.707164313530184552e-02
-2.700805837633564119e-02
-2.692843521640138696e-02
-2.683110334722196150e-02
-2.671444778229953645e-02
-2.657693898809682792e-02
-2.641716143340743297e-02
-2.623383998271466150e-02
-2.602586371599846515e-02
-2.579230672866257915e-02
-2.553244558714990939e-02
-2.524577317945112670e-02
-2.493200866678312380e-02
-2.459110347571355840e-02
-2.422324324217886224e-02
-2.382884578163480677e-02
-2.340855504157617756e-02
-2.296323128753778933e-02
-2.249393766233949085e-02
-2.200192349576680917e-02
-2.148860463947678892e-02
-2.095554125872211085e-02
-2.040441338973930305e-02
-1.983699484326516965e-02
-1.925512587231797967e-02
-1.866068508638483656e-02
-1.805556107500089907e-02
-1.744162432136715790e-02
-1.682069979389026748e-02
-1.619454070334499368e-02
-1.556480388596183373e-02
-1.493302703334914439e-02
-1.430060832982987806e-02
-1.366878872818306709e-02
-1.303863708187034953e-02
-1.241103827274009710e-02
-1.178668467320995172e-02
-1.116607074274370871e-02
-1.054949100795196312e-02
-9.937041291785670902e-03
-9.328623161854059098e-03
-8.723951337935166583e-03
-8.122563990522042171e-03
-7.523835687440976090e-03
-6.926992680383809060e-03
-6.331130184282727884e-03
-5.735231446419177155e-03
-5.138188129375471404e-03
-4.538821722074985916e-03
-3.935905568730144535e-03
-3.328187141185351850e-03
-2.714410236608936003e-03
-2.093336733897675599e-03
-1.463767511514167978e-03
-8.245622807215602932e-04
-1.746580332179367093e-04
4.869141550834174830e-04
1.161014175660747159e-03
1.848380030159851341e-03
2.549617073431425986e-03
3.265189574768028683e-03
3.995414603394683260e-03
4.740458288910513046e-03
5.500334348329707045e-03
6.274904963296725792e-03
7.063883768482427834e-03
7.866840953140809278e-03
8.683210191360363553e-03
9.512297317265811999e-03
1.035329046501003158e-02
1.120527150013262557e-02
1.206722854485716388e-02
1.293806923970810402e-02
1.381663461645624667e-02
1.470171327936681954e-02
1.559205569560098877e-02
1.648638835740000308e-02
1.738342755041283674e-02
1.828189257114782099e-02
1.918051834181002183e-02
2.007806695315981355e-02
2.097333834334166869e-02
2.186517978074572349e-02
2.275249419297322231e-02
2.363424720848597213e-02
2.450947292858556351e-02
2.537727844328105387e-02
2.623684704282010921e-02
2.708744020542640935e-02
2.792839842599617248e-02
2.875914095883268240e-02
2.957916452913475838e-02
3.038804122774859881e-02
3.118541556031453887e-02
3.197100089385519761e-02
3.274457537313989891e-02
3.350597741605783331e-02
3.425510091260411394e-02
3.499189030001490647e-02
3.571633557916301105e-02
3.642846738171866966e-02
3.712835209662425362e-02
3.781608730257984136e-02
3.849179737825636494e-02
3.915562945772728398e-02
3.980774973797961830e-02
4.044834006896146084e-02
4.107759491481054182e-02
4.169571865121931425e-02
4.230292309205817974e-02
4.289942533911283301e-02
4.348544575463819672e-02
4.406120610781531083e-02
4.462692771800995384e-02
4.518282964381806210e-02
4.572912675520744014e-02
4.626602764004036916e-02
4.679373228433798826e-02
4.731242948044548507e-02
4.782229383799581346e-02
4.832348246468667202e-02
4.881613117732674229e-02
4.930035032293162561e-02
4.977622010463672586e-02
5.024378551413273553e-02
5.070305087552823275e-02
5.115397402556706719e-02
5.159646017715205368e-02
5.203035560955179828e-02
5.245544126402551521e-02
5.287142634568529898e-02
5.327794199516219104e-02
5.367453525012588766e-02
5.406066333541890978e-02
5.443568856993586530e-02
5.479887391125003171e-02
5.514937928630780917e-02
5.548625889080138068e-02
5.580845958461241180e-02
5.611482048534813943e-02
5.640407394893958565e-02
5.667484789233530329e-02
5.692566957104586156e-02
5.715497098223041444e-02
5.736109583292848396e-02
5.754230804857540793e-02
5.769680185190104865e-02
5.782271338579832859e-02
5.791813376180580952e-02
5.798112347967125657e-02
5.800972800146898811e-02
5.800199447621995352e-02
5.795598931583598873e-02
5.786981656108004107e-02
5.774163657664222599e-02
5.756968513977448604e-02
5.735229249566086568e-02
5.708790213746120501e-02
5.677508914780585864e-02
5.641257772776066270e-02
5.599925778422276679e-02
5.553420017627927474e-02
5.501667045957949614e-02
5.444614091896573388e-02
5.382230072535134496e-02
5.314506385375267900e-02
5.241457476080400163e-02
5.163121170719995462e-02
5.079558751850801745e-02
4.990854778849260209e-02
4.897116651788915864e-02
4.798473916617117946e-02
4.695077316514175564e-02
4.587097594966454278e-02
4.474724072348402332e-02
4.358163008287908868e-02
4.237635763876158868e-02
4.113376786303518662e-02
3.985631451485589088e-02
3.854653777289505923e-02
3.720704050397361656e-02
3.584046401409454741e-02
3.444946341824273867e-02
3.303668309307861845e-02
3.160473259588217343e-02
3.015616328637549595e-02
2.869344604662259213e-02
2.721895034372007541e-02
2.573492501460405285e-02
2.424348097934293789e-02
2.274657613882133736e-02
2.124600273520670102e-02
1.974337723272737155e-02
1.824013294085268314e-02
1.673751546265275780e-02
1.523658105806557049e-02
1.373819786756446878e-02
1.224305001869511154e-02
1.075164449800279295e-02
9.264320701482423731e-03
7.781262514646007829e-03
6.302512703246210095e-03
4.827989310830415638e-03
3.357503940987910385e-03
1.890781494917870157e-03
4.274811470868352878e-04
-1.032781822717504343e-03
-2.490413723492084733e-03
-3.945820006489595376e-03
-5.399383017548057412e-03
-6.851440328229425718e-03
-8.302263973427917096e-03
-9.752041010351496925e-03
-1.120085563772189874e-02
-1.264867325843413090e-02
-1.409532657429289279e-02
-1.554050412016303416e-02
-1.698374128969384542e-02
-1.842441406012841273e-02
-1.986173557289560437e-02
-2.129475553565240986e-02
-2.272236247377248594e-02
-2.414328887888536265e-02
-2.555611909255706138e-02
-2.695929981978590489e-02
-2.835115312196268000e-02
-2.972989168840415447e-02
-3.109363611164723748e-02
-3.244043392275633431e-02
-3.376828003113113014e-02
-3.507513833955382132e-02
-3.635896411291894559e-02
-3.761772674927945509e-02
-3.884943261211974697e-02
-4.005214756882388705e-02
-4.122401878348892768e-02
-4.236329554467994224e-02
-4.346834877898604621e-02
-4.453768887592112619e-02
-4.556998153264038565e-02
-4.656406149471450928e-02
-4.751894385654230335e-02
-4.843383277119175934e-02
-4.930812747106284866e-02
-5.014142552906018097e-02
-5.093352320995215426e-02
-5.168441306465428736e-02
-5.239427867797729482e-02
-5.306348677669838615e-02
-5.369257681172145275e-02
-5.428224807272784280e-02
-5.483334477103322252e-02
-5.534683913017365148e-02
-5.582381292056089878e-02
-5.626543762609365756e-02
-5.667295369211851341e-02
-5.704764907956844100e-02
-5.739083757247319395e-02
-5.770383713273244397e-02
-5.798794864906738761e-02
-5.824443549996217301e-02
-5.847450419978175717e-02
-5.867928644868392052e-02
-5.885982289063099171e-02
-5.901704873808323593e-02
-5.915178171045569477e-02
-5.926471225360797901e-02
-5.935639631566882318e-02
-5.942725073548120462e-02
-5.947755132493600522e-02
-5.950743365968515219e-02
-5.951689652582322493e-02
-5.950580807139852629e-02
-5.947391433763901669e-02
-5.942085021800869865e-02
-5.934615262178916800e-02
-5.924927551164828332e-02
-5.912960663951460916e-02
-5.898648564905629305e-02
-5.881922335763459936e-02
-5.862712181449182547e-02
-5.840949470650032282e-02
-5.816568797980529310e-02
-5.789510016266150028e-02
-5.759720211978078958e-02
-5.727155596201809890e-02
-5.691783272642562952e-02
-5.653582857320720023e-02
-5.612547922479336343e-02
-5.568687244520796609e-02
-5.522025829663933238e-02
-5.472605695087464500e-02
-5.420486414769241229e-02
-5.365745391618966659e-02
-5.308477876535180190e-02
-5.248796711785282815e-02
-5.186831818665610383e-02
-5.122729424125788134e-02
-5.056651050939914294e-02
-4.988772270519499508e-02
-4.919281237890239800e-02
-4.848377045965408805e-02
-4.776267910357299973e-02
-4.703169210379127413e-02
-4.629301420810121720e-02
-4.554887956851309122e-02
-4.480152970824555214e-02
-4.405319125858866286e-02
-4.330605379347735734e-02
-4.256224806898909613e-02
-4.182382501006334102e-02
-4.109273565984194326e-02
-4.037081239071081684e-02
-3.965975168249207677e-02
-3.896109861337992281e-02
-3.827623326792637531e-02
-3.760635920545545019e-02
-3.695249425480030825e-02
-3.631546357431099381e-02
-3.569589512197050146e-02
-3.509421756193016606e-02
-3.451066057858282604e-02
-3.394525757888155332e-02
-3.339785067816340020e-02
-3.286809792797396740e-02
-3.235548261047219848e-02
-3.185932448297885272e-02
-3.137879272523559637e-02
-3.091292046664941007e-02
-3.046062058123816946e-02
-3.002070262566940498e-02
-2.959189063961108201e-02
-2.917284150639281801e-02
-2.876216367002040059e-02
-2.835843599768704190e-02
-2.796022646181168386e-02
-2.756611049142253939e-02
-2.717468871694159183e-02
-2.678460394545359793e-02
-2.639455709963507007e-02
-2.600332199688884516e-02
-2.560975881009769362e-02
-2.521282609619226664e-02
-2.481159125969207777e-02
-2.440523937099645449e-02
-2.399308026478261593e-02
-2.357455389224079323e-02
-2.314923396564617236e-02
-2.271682982770834372e-02
-2.227718661246029866e-02
-2.183028378969748690e-02
-2.137623212247989971e-02
-2.091526908044420013e-02
-2.044775289731281046e-02
-1.997415535554428884e-02
-1.949505345249944593e-02
-1.901112005025870980e-02
-1.852311366078049359e-02
-1.803186753300714887e-02
-1.753827812203323858e-02
-1.704329322402101804e-02
-1.654789984713182088e-02
-1.605311193971055428e-02
-1.555995809831125544e-02
-1.506946952974321831e-02
-1.458266822591355871e-02
-1.410055560513257845e-02
-1.362410165491541834e-02
-1.315423461613139319e-02
-1.269183145309548538e-02
-1.223770901325059619e-02
-1.179261613857048377e-02
-1.135722659417140804e-02
-1.093213290694024058e-02
-1.051784120966565636e-02
-1.011476713005676938e-02
-9.723232640490143616e-03
-9.343463938335688432e-03
-8.975590313051957925e-03
-8.619643967707519769e-03
-8.275560881064231503e-03
-7.943182620401320615e-03
-7.622259042596132503e-03
-7.312451888217693166e-03
-7.013339239451031430e-03
-6.724420720709407134e-03
-6.445123467928492479e-03
-6.174808716132803611e-03
-5.912779070964349799e-03
-5.658286306394128169e-03
-5.410539657803016718e-03
-5.168714514196959785e-03
-4.931961428900692203e-03
-4.699415429278498355e-03
-4.470205483080345356e-03
-4.243464075164331099e-03
-4.018336808934145320e-03
-3.793991860839682120e-03
-3.569629308765303634e-03
-3.344490231513040819e-03
-3.117865454274646592e-03
-2.889103828375227858e-03
-2.657619931813734633e-03
-2.422901253486154684e-03
-2.184514626005673327e-03
-1.942111891785937901e-03
-1.695434711735363358e-03
-1.444318375883841621e-03
-1.188694677512992228e-03
-9.285937063394867014e-04
-6.641445500529749319e-04
-3.955748827829634194e-04
-1.232093551691494540e-04
1.525332213360828420e-04
4.311437882940015692e-04
7.120282125634469538e-04
9.945135253969382329e-04
1.277855232002510352e-03
1.561245700813741625e-03
1.843823456497405058e-03
2.124683393787135752e-03
2.402887704232514569e-03
2.677477446212082196e-03
2.947484611023721418e-03
3.211944575579161153e-03
3.469908749970009119e-03
3.720457315726463567e-03
3.962711769098444491e-03
4.195847187982493232e-03
4.419104081934839209e-03
4.631799590557711920e-03
4.833337833547682316e-03
5.023219347006248163e-03
5.201049347153094589e-03
5.366544806102754861e-03
5.519540056039254697e-03
5.659990919151963902e-03
5.787977212507271034e-03
5.903703655777882246e-03
6.007498996286777908e-03
6.099813390522247289e-03
6.181214003873596735e-03
6.252378923806972168e-03
6.314089432447382751e-03
6.367220650029175276e-03
6.412730639335402494e-03
6.451648213604685086e-03
6.485059480040670024e-03
6.514093369340397122e-03
6.539906296680621754e-03
6.563666201165512318e-03
6.586536224422235609e-03
6.609658177570810512e-03
6.634136028217466237e-03
6.661019764939169960e-03
6.691289811130872109e-03
6.725842270362556233e-03
6.765475178657119441e-03
6.810876083286432001e-03
6.862611073774047867e-03
6.921115485886454588e-03
6.986686475544306822e-03
7.059477609755636374e-03
7.139495474682366373e-03
7.226598553143163094e-03
7.320498253086346954e-03
7.420762242589624622e-03
7.526819972474045432e-03
7.637970418324888620e-03
7.753391890734952045e-03
7.872153788796078591e-03
7.993230143654101241e-03
8.115514756684942890e-03
8.237837777585407112e-03
8.358983384287869273e-03
8.477708338617172962e-03
8.592761076663587780e-03
8.702901201996014399e-03
8.806918914840622045e-03
8.903654096805999410e-03
8.992014706751878805e-03
9.070994372423295954e-03
9.139688570735309686e-03
9.197309377340366285e-03
9.243198514759796633e-03
9.276838287484897791e-03
9.297860315321286248e-03
9.306051954213433175e-03
9.301360144132981428e-03
9.283892691513247891e-03
9.253916896590908339e-03
9.211855518282786176e-03
9.158280112933375738e-03
9.093901878156791796e-03
9.019560044619887029e-03
8.936207999284776285e-03
8.844897391791747485e-03
8.746760390898521142e-03
8.642990495324916200e-03
8.534822053231487862e-03
8.423508887631700470e-03
8.310302396113199846e-03
8.196429433152496377e-03
8.083070395880955980e-03
7.971337873813787167e-03
7.862256204865018805e-03
7.756742292102776493e-03
7.655588097864457486e-03
7.559445035488263943e-03
7.468810576914146002e-03
7.384017447820957931e-03
7.305225469816478516e-03
7.232416305105984072e-03
7.165391197656491122e-03
7.103771869530976779e-03
7.047004553355051826e-03
6.994367173126361803e-03
6.944979533205194837e-03
6.897816541059014622e-03
6.851724174386194730e-03
6.805437980883376377e-03
6.757603879267176476e-03
6.706800975372491716e-03
6.651566011189528720e-03
6.590419070080085970e-03
6.521890211690846949e-03
6.444546490358312764e-03
6.357019104103707637e-03
6.258030029682649931e-03
6.146417849000039048e-03
6.021162269760753707e-03
5.881406968532517689e-03
5.726480330834976540e-03
5.555913704254777756e-03
5.369456887875097111e-03
5.167090511299691873e-03
4.949035092790396093e-03
4.715756523398114547e-03
4.467967904092726671e-03
4.206627626482585536e-03
3.932933608097427015e-03
3.648313826293063736e-03
3.354413132320113733e-03
3.053076522927888545e-03
2.746329125233913562e-03
2.436353081595183778e-03
2.125461685982452630e-03
1.816071132610388864e-03
1.510670246252145609e-03
1.211788568705259419e-03
9.219634327017284334e-04
6.437063317104730741e-04
3.794691803275145937e-04
1.316108900520712385e-04
-9.763514846925281146e-05
-3.061923132441824358e-04
-4.921700949801194715e-04
-6.538911891599216448e-04
-7.899159577957114240e-04
-8.990637617856271678e-04
-9.804309462095406411e-04
-1.033405099365396164e-03
-1.057675404206070632e-03
-1.053238895083610273e-03
-1.020402507769633312e-03
-9.597808799960958794e-04
-8.722899362492528719e-04
-7.591363071125225778e-04
-6.218026800031915260e-04
-4.620293825499763741e-04
-2.817923948925184804e-04
-8.327815649061115749e-05
1.311445670765846951e-04
3.589552526269709862e-04
5.975142674483332811e-04
8.440969978827790295e-04
1.095929020812828718e-03
1.350221887830059878e-03
1.604209002403407438e-03
1.855180894671032681e-03
2.100519497062696469e-03
2.337730903287297927e-03
2.564476142612937947e-03
2.778599606067051232e-03
2.978154579193296406e-03
3.161425617758206394e-03
3.326947444620553286e-03
3.473520082682962380e-03
3.600220052926766598e-03
3.706407462050521646e-03
3.791728954238278524e-03
3.856116462095212499e-03
3.899781837029167066e-03
3.923207505081337601e-03
3.927133264528617079e-03
3.912539455069466952e-03
3.880626826484000896e-03
3.832793354527463080e-03
3.770608535887648004e-03
3.695785383850372537e-03
3.610150696187022865e-03
3.515614012583904643e-03
3.414135790854712447e-03
3.307695226199771840e-03
3.198258227731553497e-03
3.087746060414869008e-03
2.978005129427432462e-03
2.870778312196366460e-03
2.767678295827303171e-03
2.670163318680835764e-03
2.579515585604035422e-03
2.496822768185172261e-03
2.422962807754760507e-03
2.358592139386773891e-03
2.304137598005576420e-03
2.259792038807485488e-03
2.225513725347391669e-03
2.201029403199344751e-03
2.185841062279249465e-03
2.179236120796108987e-03
2.180300975123573501e-03
2.187937598394826353e-03
2.200882946499259536e-03
2.217730758456264595e-03
2.236955502504055400e-03
2.256937999587425945e-03
2.275992396433666395e-03
2.292393894092950059e-03
2.304407037442408619e-03
2.310313997424533628e-03
2.308442375521615932e-03
2.297192198704795657e-03
2.275061609314922833e-03
2.240670962183794607e-03
2.192784987805865022e-03
2.130332621309378484e-03
2.052424275895685379e-03
1.958366362973397879e-03
1.847672749519373939e-03
1.720073159997133295e-03
1.575518334097096920e-03
1.414181930024524221e-03
1.236459159363587513e-03
1.042962246002529037e-03
8.345128160152702566e-04
6.121313442245543759e-04
3.770237851323108213e-04
1.305657157714133797e-04
-1.257157240216745487e-04
-3.901619130694201280e-04
-6.610044629740753934e-04
-9.363882690552396970e-04
-1.214395471064857969e-03
-1.493070069912035567e-03
-1.770442762032861835e-03
-2.044555664111429027e-03
-2.313486553579114421e-03
-2.575372317462210417e-03
-2.828431245988671013e-03
-3.070984023611993564e-03
-3.301472887512920101e-03
-3.518478926621160241e-03
-3.720737227425127344e-03
-3.907149721250814667e-03
-4.076795551549727142e-03
-4.228938957927216510e-03
-4.363034548260892424e-03
-4.478729964307663104e-03
-4.575865958818537728e-03
-4.654473950970960082e-03
-4.714771137717278099e-03
-4.757153298323770277e-03
-4.782185468615177473e-03
-4.790590637035338495e-03
-4.783236695945864043e-03
-4.761121877143133403e-03
-4.725358875792124401e-03
-4.677158037297467902e-03
-4.617809676136582983e-03
-4.548665978311328996e-03
-4.471122699990557822e-03
-4.386600839842742273e-03
-4.296528625978890230e-03
-4.202324095412700647e-03
-4.105378373881410012e-03
-4.007039976277733569e-03
-3.908600286569139000e-03
-3.811280326590670529e-03
-3.716219008783482394e-03
-3.624462954926216396e-03
-3.536958008317480587e-03
-3.454542464460764236e-03
-3.377942006253064136e-03
-3.307766500819183612e-03
-3.244508419348640562e-03
-3.188543052714602928e-03
-3.140130295220399433e-03
-3.099417959663658580e-03
-3.066446498976806070e-03
-3.041155041300183572e-03
-3.023388557892657535e-03
-3.012906025086421313e-03
-3.009389362436598863e-03
-3.012453124863782080e-03
-3.021654580903543937e-03
-3.036504135965793945e-03
-3.056475940123650273e-03
-3.081018373564623717e-03
-3.109564364192591440e-03
-3.141541424827754003e-03
-3.176381133285229898e-03
-3.213528087644180759e-03
-3.252448070386342819e-03
-3.292635474867558823e-03
-3.333619747107617430e-03
-3.374970956055856584e-03
-3.416304346580671496e-03
-3.457283832700437480e-03
-3.497624491365864188e-03
-3.537094018299022195e-03
-3.575513132251701993e-03
-3.612755074630783370e-03
-3.648744141329350339e-03
-3.683453394805552995e-03
-3.716901538901357452e-03
-3.749149119746327235e-03
-3.780294129946004059e-03
-3.810467095664140345e-03
-3.839825712311911981e-03
-3.868549182890218801e-03
-3.896832379574922088e-03
-3.924879899817657058e-03
-3.952900075419154939e-03
-3.981099121463826072e-03
-4.009675415366006218e-03
-4.038814148972818402e-03
-4.068682256148226442e-03
-4.099423783982201683e-03
-4.131155721584922093e-03
-4.163964415424420591e-03
-4.197902532207199201e-03
-4.232986668497601239e-03
-4.269195564314781470e-03
-4.306468955050473529e-03
-4.344707112961800240e-03
-4.383771018855693764e-03
-4.423483156241751930e-03
-4.463628921612321047e-03
-4.503958602119829437e-03
-4.544189896532119070e-03
-4.584010933227775780e-03
-4.623083694558475024e-03
-4.661047869289932331e-03
-4.697525011787883308e-03
-4.732123020942767024e-03
-4.764440715841186669e-03
-4.794072676721913666e-03
-4.820614057012952494e-03
-4.843665468356402742e-03
-4.862837791549526507e-03
-4.877756924867750546e-03
-4.888068347258159481e-03
-4.893441431471818454e-03
-4.893573551956283650e-03
-4.888193818598226409e-03
-4.877066553519120509e-03
-4.859994259108680985e-03
-4.836820254407877065e-03
-4.807430838401356710e-03
-4.771756989963881097e-03
-4.729775596286120605e-03
-4.681510193042822017e-03
-4.627031214294466052e-03
-4.566455772932123333e-03
-4.499946894510141633e-03
-4.427712384067376307e-03
-4.350003142469967971e-03
-4.267111118786936531e-03
-4.179366793574739239e-03
-4.087136344970503446e-03
-3.990818427243257409e-03
-3.890840625206413560e-03
-3.787655718659214184e-03
-3.681737660827396307e-03
-3.573577294634994444e-03
-3.463678027605124332e-03
-3.352551338366082604e-03
-3.240712279803228089e-03
-3.128674916099225250e-03
-3.016947829913203556e-03
-2.906029681169458156e-03
-2.796404908057808364e-03
-2.688539608176415685e-03
-2.582877576756655805e-03
-2.479836609428904496e-03
-2.379805065761681718e-03
-2.283138784243145779e-03
-2.190158303359198214e-03
-2.101146451770868027e-03
-2.016346351874906840e-03
-1.935959787895035573e-03
-1.860146034314494410e-03
-1.789021091759257975e-03
-1.722657328234785757e-03
-1.661083618868666864e-03
-1.604285838979527560e-03
-1.552207815681330748e-03
-1.504752742401006382e-03
-1.461784887147515866e-03
-1.423131715402271283e-03
-1.388586385519339573e-03
-1.357910537958224991e-03
-1.330837360449187937e-03
-1.307074897960832510e-03
-1.286309578973000856e-03
-1.268209888690230523e-03
-1.252430193915078128e-03
-1.238614633668298467e-03
-1.226401063908467504e-03
-1.215425017708834411e-03
-1.205323565090267446e-03
-1.195739127446889980e-03
-1.186323186693246561e-03
-1.176739750837777149e-03
-1.166668675199469081e-03
-1.155808730599965865e-03
-1.143880376526845407e-03
-1.130628253114038684e-03
-1.115823357449174588e-03
-1.099264871597835543e-03
-1.080781662565071010e-03
-1.060233365368836150e-03
-1.037511114325902336e-03
-1.012537887828627008e-03
-9.852685262973961532e-04
-9.556893283668938064e-04
-9.238173840002115739e-04
-8.896994869171770230e-04
-8.534107773572996002e-04
-8.150530733164831378e-04
-7.747529606725501615e-04
-7.326596065314348654e-04
-6.889423708009679518e-04
-6.437882976056787717e-04
-5.973994498834836334e-04
-5.499901175615890285e-04
-5.017840133082055766e-04
-4.530113729886421051e-04
-4.039061099537915602e-04
-3.547030030665303691e-04
-3.056349004533318470e-04
-2.569301298261229371e-04
-2.088099439378606685e-04
-1.614861440413072210e-04
-1.151589080433630062e-04
-7.001481501937900957e-05
-2.622505611363723242e-05
1.605608602528830282e-05
5.669256942130273115e-05
9.556766672629137893e-05
1.325847372008024543e-04
1.676678429528110476e-04
2.007620484330331103e-04
2.318335402875449291e-04
2.608695021446018857e-04
2.878777559151264142e-04
3.128861831026867797e-04
3.359420347868792588e-04
3.571110183436918169e-04
3.764762362924324980e-04
3.941370225343406833e-04
4.102076462762658995e-04
4.248158801109535080e-04
4.381015688337617630e-04
4.502150778492661621e-04
4.613156933768918291e-04
4.715701032019262119e-04
4.811507808927421382e-04
4.902343735089018497e-04
4.990001141945372759e-04
5.076283287234370197e-04
5.162989811878853849e-04
5.251901590367564522e-04
5.344767323733536774e-04
5.443290061022111560e-04
5.549114438485447777e-04
5.663815040005340399e-04
5.788885187426340848e-04
5.925726208519289809e-04
6.075637879147374526e-04
6.239809325373643851e-04
6.419311104278115250e-04
6.615086901786515310e-04
6.827947524981894337e-04
7.058563900592375534e-04
7.307462074632887356e-04
7.575018277596658753e-04
7.861454909472935905e-04
8.166837287442402053e-04
8.491071418599644089e-04
8.833902491561273270e-04
9.194913262112648514e-04
9.573524695814994087e-04
9.968997183961274006e-04
1.038043225243360851e-03
1.080677594274692113e-03
1.124682329717542010e-03
1.169922371254774208e-03
1.216248757985542240e-03
1.263499437220092338e-03
1.311500200812158951e-03
1.360065735427850491e-03
1.409000852760583164e-03
1.458101795882421007e-03
1.507157716270497196e-03
1.555952222705172866e-03
1.604265114723591205e-03
1.651874132328421231e-03
1.698556887552278355e-03
1.744092841694556105e-03
1.788265342674208707e-03
1.830863675952658712e-03
1.871685163476584368e-03
1.910537251497782365e-03
1.947239554658035561e-03
1.981625847581593765e-03
2.013545970375517618e-03
2.042867644100259967e-03
2.069478099692920181e-03
2.093285564733690651e-03
2.114220558421312651e-03
2.132236940157555133e-03
2.147312695678331527e-03
2.159450489073463410e-03
2.168677893101140283e-03
2.175047305616423059e-03
2.178635562194916869e-03
2.179543229772844346e-03
2.177893538313086137e-03
2.173831007708025391e-03
2.167519754011900789e-03
2.159141457084145978e-03
2.148893030614172899e-03
2.136984056052183053e-03
2.123633939197653881e-03
2.109068885021792798e-03
2.093518649397664490e-03
2.077213176706266869e-03
2.060379165079151940e-03
2.043236573978189554e-03
2.025995138316601281e-03
2.008850934679383762e-03
1.991983133918880447e-03
1.975550845693946258e-03
1.959690228495169443e-03
1.944511870882978475e-03
1.930098488276919431e-03
1.916503004262196238e-03
1.903747063401237290e-03
1.891819993100346195e-03
1.880678228104156868e-03
1.870245290576757948e-03
1.860412291491457580e-03
1.851038956269888741e-03
1.841955174258461114e-03
1.832963169651561199e-03
1.823840135223725629e-03
1.814341390986279291e-03
1.804204024326717080e-03
1.793150893575479101e-03
1.780895116492853562e-03
1.767144791149144901e-03
1.751608055920689938e-03
1.733998294037357229e-03
1.714039449295818316e-03
1.691471419343636151e-03
1.666055389534433842e-03
1.637579045105136541e-03
1.605861582279855936e-03
1.570758370082523444e-03
1.532165271172062065e-03
1.490022510807781841e-03
1.444317999500593051e-03
1.395090084124264067e-03
1.342429596880029795e-03
1.286481206200829541e-03
1.227444003834105837e-03
1.165571286673035148e-03
1.101169540103992929e-03
1.034596588832977209e-03
9.662589311246918937e-04
8.966082635979771235e-04
8.261372072162589172e-04
7.553743130161669770e-04
6.848783527881893794e-04
6.152320132458976047e-04
5.470350401886724546e-04
4.808969025306413392e-04
4.174290928156077700e-04
3.572371480773788043e-04
3.009125879561113910e-04
2.490247162726685979e-04
2.021125971231002929e-04
1.606771307076965312e-04
1.251735161165528861e-04
9.600413908766591571e-05
7.351201220416092358e-05
5.797487734463196654e-05
4.960004791935935728e-05
4.852017590635755771e-05
5.478985964210551942e-05
6.838329578480243883e-05
8.919303273100831779e-05
1.170297382351100535e-04
1.516231132524407184e-04
1.926240115371082007e-04
2.396075883911849211e-04
2.920775787642052512e-04
3.494716814624915951e-04
4.111678754191244950e-04
4.764917111115029094e-04
5.447244150621425446e-04
6.151117337882984612e-04
6.868733487329076312e-04
7.592128921408469776e-04
8.313281902735650177e-04
9.024217709576633087e-04
9.717113980018298380e-04
1.038440586559076549e-03
1.101888837635374560e-03
1.161381451698037873e-03
1.216298811062079682e-03
1.266085002494349255e-03
1.310255572071210035e-03
1.348404397506634692e-03
1.380209422883946690e-03
1.405437350722197644e-03
1.423947018204471844e-03
1.435691542192481240e-03
1.440719074559454775e-03
1.439172249530746390e-03
1.431286211745663684e-03
1.417385384368666842e-03
1.397878893386446169e-03
1.373254673929536276e-03
1.344072442071178467e-03
1.310955593569650178e-03
1.274582087675063622e-03
1.235674505063151431e-03
1.194989399021535248e-03
1.153306083566641013e-03
1.111414977635263781e-03
1.070105741679694671e-03
1.030155364594668738e-03
9.923163804899319106e-04
9.573053560073780744e-04
9.257918375295416235e-04
8.983879328308936414e-04
8.756386549344571252e-04
8.580131857439709034e-04
8.458972621596178758e-04
8.395866763098087417e-04
8.392820822014800033e-04
8.450851355967964633e-04
8.569960964143194049e-04
8.749128622771302740e-04
8.986315142935699662e-04
9.278483225701847532e-04
9.621632417557337419e-04
1.001084774212705406e-03
1.044036207459106890e-03
1.090363107085475262e-03
1.139341963550261159e-03
1.190189876068550087e-03
1.242075103647523543e-03
1.294128349461791828e-03
1.345454684249175600e-03
1.395145890824230333e-03
1.442292959677491737e-03
1.485998694827514411e-03
1.525390127965209992e-03
1.559630762314766217e-03
1.587932180193566680e-03
1.609565144546406612e-03
1.623869797267345249e-03
1.630264955030087323e-03
1.628256337699844668e-03
1.617443596052361640e-03
1.597526061988158034e-03
1.568307140713881857e-03
1.529697297518710407e-03
1.481715550722357676e-03
1.424489553167938459e-03
1.358254195919904577e-03
1.283348724339691436e-03
1.200212534575573892e-03
1.109379620398166615e-03
1.011471814029304582e-03
9.071909066093660238e-04
7.973096616911789060e-04
6.826620477620733802e-04
5.641326978079009387e-04
4.426458009778182798e-04
3.191535490671702281e-04
1.946243165538368393e-04
7.003073636373823333e-05
-5.366214426731209488e-05
-1.755084906281552913e-04
-2.945929519550594187e-04
-4.100413893260999908e-04
-5.210309569600890967e-04
-6.267994204021805566e-04
-7.266535271901580209e-04
-8.199764011948809574e-04
-9.062338366091193245e-04
-9.849794854839034886e-04
-1.055858781247144898e-03
-1.118611721647764590e-03
-1.173074318592333583e-03
-1.219178875206371800e-03
-1.256953026748678249e-03
-1.286517625328323670e-03
-1.308083429421798716e-03
-1.321946792027165699e-03
-1.328484345283128913e-03
-1.328146798926756449e-03
-1.321451969974147839e-03
-1.308977075838498256e-03
-1.291350507353626912e-03
-1.269243156933308773e-03
-1.243359409104526818e-03
-1.214427933285680853e-03
-1.183192408303204842e-03
-1.150402292263193269e-03
-1.116803721088891052e-03
-1.083130697005807311e-03
-1.050096659914329274e-03
-1.018386469617927259e-03
-9.886489878275586413e-04
-9.614902449051836554e-04
-9.374672879400113403e-04
-9.170827817782190375e-04
-9.007804184604690807e-04
-8.889410631642709858e-04
-8.818797501848060034e-04
-8.798435544246934912e-04
-8.830102187900712831e-04
-8.914876320418620419e-04
-9.053140984672428766e-04
-9.244593973764371822e-04
-9.488264477351943506e-04
-9.782537835268229585e-04
-1.012518562595971774e-03
-1.051340169733878645e-03
-1.094384318800119228e-03
-1.141267607648658450e-03
-1.191562413184604329e-03
-1.244802166645672236e-03
-1.300486821490766907e-03
-1.358088507844793695e-03
-1.417057335826572709e-03
-1.476827220143149587e-03
-1.536821739386513234e-03
-1.596459964378612066e-03
-1.655162109536236804e-03
-1.712355086964112818e-03
-1.767477884833801652e-03
-1.819986684585795387e-03
-1.869359694492394924e-03
-1.915101728058932152e-03
-1.956748442206503961e-03
-1.993870203516324470e-03
-2.026075603681819822e-03
-2.053014597816246734e-03
-2.074381186507516170e-03
-2.089915802323655779e-03
-2.099407164346261175e-03
-2.102693733377061433e-03
-2.099664738218011244e-03
-2.090260862123571352e-03
-2.074474392068053133e-03
-2.052348968012083531e-03
-2.023978901762921341e-03
-1.989508091750602850e-03
-1.949128525892190097e-03
-1.903078398855370494e-03
-1.851639831334658207e-03
-1.795136248551224868e-03
-1.733929405858019657e-03
-1.668416088415686487e-03
-1.599024475381786775e-03
-1.526210295538740465e-03
-1.450452693162371329e-03
-1.372249908678489306e-03
-1.292114795634742358e-03
-1.210570171420239987e-03
-1.128144096312803414e-03
-1.045365140853186676e-03
-9.627575834716112614e-04
-8.808367369582340966e-04
-8.001043075609832415e-04
-7.210439321516761476e-04
-6.441168805864670504e-04
-5.697580790763402724e-04
-4.983723713122748368e-04
-4.303311135281203325e-04
-3.659691958842174893e-04
-3.055824658956409032e-04
-2.494256279529091856e-04
-1.977105983373981309e-04
-1.506054048239174967e-04
-1.082336064879661091e-04
-7.067424386918287171e-05
-3.796237042242685608e-05
-1.009005075527182171e-05
1.299203549679538372e-05
3.137253236831184577e-05
4.517684157369904354e-05
5.456412390399619536e-05
5.972391376683146470e-05
6.087243016605880917e-05
5.824852165437138725e-05
5.210943466170816167e-05
4.272642243037353560e-05
3.038027928649860503e-05
1.535684538512790184e-05
-2.057363212058761586e-06
-2.157944424787685582e-05
-4.293410474592012092e-05
-6.585743223666895899e-05
-9.010026429379070466e-05
-1.154311601435406673e-04
-1.416388651280053412e-04
-1.685342779445318611e-04
-1.959517835368970208e-04
-2.237500931062237034e-04
-2.518123970046232617e-04
-2.800459212304990363e-04
-3.083808896118119219e-04
-3.367688598311560210e-04
-3.651805231294824377e-04
-3.936029741799502535e-04
-4.220365085371038483e-04
-4.504910021239094675e-04
-4.789819878775594458e-04
-5.075264936208639163e-04
-5.361386943343525143e-04
-5.648255340141951960e-04
-5.935823066916480397e-04
-6.223885080117050545e-04
-6.512038436877570736e-04
-6.799645909752730826e-04
-7.085803884280253082e-04
-7.369315958733544791e-04
-7.648671982773935481e-04
-7.922034152303304841e-04
-8.187230364137024988e-04
-8.441755899554179198e-04
-8.682782918567528464e-04
-8.907178677130172867e-04
-9.111531370573780833e-04
-9.292185505539963739e-04
-9.445284266436256276e-04
-9.566819880654582522e-04
-9.652690694469648249e-04
-9.698764705613533875e-04
-9.700947729813863768e-04
-9.655255662381971278e-04
-9.557890185087059270e-04
-9.405315403519276833e-04
-9.194335062725779960e-04
-8.922168368619171498e-04
-8.586523472258917071e-04
-8.185666338595590881e-04
-7.718484013150370832e-04
-7.184541397509321701e-04
-6.584128935704616943e-04
-5.918301439343260500e-04
-5.188905682230119786e-04
-4.398597015358353553e-04
-3.550842904920887481e-04
-2.649914188133125465e-04
-1.700862263563030158e-04
-7.094839591156375887e-05
3.177281175442392663e-05
1.373647180091477243e-04
2.450587118875614703e-04
3.540389069484495971e-04
4.634517873910642743e-04
5.724168479815125530e-04
6.800379821651715475e-04
7.854155445392133365e-04
8.876588490569634537e-04
9.858988629053945171e-04
1.079301045372983107e-03
1.167077952007449524e-03
1.248501552992502001e-03
1.322914947582149586e-03
1.389743261197373550e-03
1.448503581567478059e-03
1.498813755206824909e-03
1.540399800655932634e-03
1.573101812501634476e-03
1.596878247385794067e-03
1.611808483105762590e-03
1.618093512983109251e-03
1.616054782948178961e-03
1.606131119497510203e-03
1.588873727279837894e-03
1.564939320420979463e-03
1.535081540267395264e-03
1.500140585733221107e-03
1.461031362321024967e-03
1.418730158482693323e-03
1.374260175551628334e-03
1.328676031363179837e-03
1.283047529243364245e-03
1.238442903388708863e-03
1.195911811433064860e-03
1.156468343097378105e-03
1.121074410447385396e-03
1.090623613360117237e-03
1.065926055051303169e-03
1.047694261177518687e-03
1.036530489245652588e-03
1.032915648452620077e-03
1.037200044921896122e-03
1.049596187531074516e-03
1.070173720508219061e-03
1.098856688032051089e-03
1.135423157224485806e-03
1.179507306625510350e-03
1.230603952607843121e-03
1.288075468124450949e-03
1.351161058413050250e-03
1.418988250977392231e-03
1.490586537407570175e-03
1.564902841568186409e-03
1.640818681144379232e-03
1.717168731756198857e-03
1.792760558832083920e-03
1.866395177810279381e-03
1.936888087933291182e-03
2.003090519407319144e-03
2.063910484821073876e-03
2.118333290759627768e-03
2.165441161271351028e-03
2.204431663441824667e-03
2.234634603279619068e-03
2.255527034920834679e-03
2.266746154162632785e-03
2.268099800215856669e-03
2.259574356338397462e-03
2.241339899889510743e-03
2.213752410948719319e-03
2.177352975979591869e-03
2.132863925002633984e-03
2.081181972429920098e-03
2.023368308406135914e-03
1.960635858542124615e-03
1.894333746262757533e-03
1.825929321118731873e-03
1.756987798002541219e-03
1.689149895709902765e-03
1.624107876468863267e-03
1.563580132361976592e-03
1.509284933813141022e-03
1.462913533042259785e-03
1.426103189938872536e-03
1.400410452706086313e-03
1.387285175337364240e-03
1.388045683278698889e-03
1.403855479756503915e-03
1.435701855309018220e-03
1.484376921738249453e-03
1.550461155583602365e-03
1.634310035807347468e-03
1.736043751598744661e-03
1.855540396034502208e-03
1.992432718502927871e-03
2.146108592140499698e-03
2.315715187054761745e-03
2.500166836918941982e-03
2.698156625254711886e-03
2.908171505574838698e-03
3.128510683058670534e-03
3.357307195698064871e-03
3.592552227790632869e-03
3.832122008550075017e-03
4.073806743824594061e-03
4.315341240459557963e-03
4.554436754600948815e-03
4.788813651105405973e-03
5.016234270616204416e-03
5.234535590706652225e-03
5.441661148571059516e-03
5.635691682123714248e-03
5.814874080969179536e-03
5.977648141290135310e-03
6.122670652539128830e-03
6.248836484036551092e-03
6.355296299105825907e-03
6.441470545818675335e-03
6.507059451419400058e-03
6.552048944558058925e-03
6.576712295401994715e-03
6.581607272682221156e-03
6.567569078089132047e-03
6.535698954589450396e-03
6.487348572294799644e-03
6.424100548368424750e-03
6.347745216563566682e-03
6.260253999192555430e-03
6.163749812420227063e-03
6.060474878514487442e-03
5.952756459659223030e-03
5.842970996210330656e-03
5.733507172851706572e-03
5.626728510113450724e-03
5.524935999880084894e-03
5.430331438473104226e-03
5.344981951409928655e-03
5.270786340763092617e-03
5.209443765511053218e-03
5.162425212123523607e-03
5.130948249403760424e-03
5.115955527394337558e-03
5.118097301568478794e-03
5.137718376657608201e-03
5.174849634266323953e-03
5.229204333561133893e-03
5.300179305414425002e-03
5.386861018190663986e-03
5.488036469549520749e-03
5.602208769725575827e-03
5.727617280114553032e-03
5.862261895832924889e-03
6.003931248354885813e-03
6.150234331019325748e-03
6.298635142152402173e-03
6.446489778248417658e-03
6.591085453970415078e-03
6.729680861833523854e-03
6.859547182673798524e-03
6.978009212435221618e-03
7.082485930063780674e-03
7.170529851931109998e-03
7.239864579234700503e-03
7.288419890382232327e-03
7.314363906006181477e-03
7.316131736166419514e-03
7.292450159877375028e-03
7.242357986961437538e-03
7.165221687422923535e-03
7.060746008049039422e-03
6.928979508511115201e-03
6.770314780802136854e-03
6.585483386625249659e-03
6.375545535124993619e-03
6.141874639937120947e-03
5.886137012021341874e-03
5.610266953536333263e-03
5.316437614949933235e-03
5.007028092001971319e-03
4.684587165074643664e-03
4.351794372280491131e-03
4.011418882489474827e-03
3.666276930149072778e-03
3.319188334047588462e-03
2.972932886531447390e-03
2.630207204811203878e-03
2.293582759467911476e-03
1.965465697065246677e-03
1.648059177245248322e-03
1.343328689118561447e-03
1.052970957228633892e-03
7.783868928280457053e-04
5.206589347214375272e-04
2.805333130059300593e-04
5.840734107962561458e-05
-1.456780366636911228e-04
-3.320403130270184488e-04
-5.013521196126016636e-04
-6.546325549825642888e-04
-7.932334423565510877e-04
-9.188205647006453909e-04
-1.033350320920877483e-03
-1.139042156962858775e-03
-1.238347245000404832e-03
-1.333913809186778937e-03
-1.428549817806001399e-03
-1.525183507125065733e-03
-1.626822480456566015e-03
-1.736511879188037304e-03
-1.857292429971866025e-03
-1.992158878362713676e-03
-2.144019566685507160e-03
-2.315657658123735241e-03
-2.509694662266724781e-03
-2.728556751118558447e-03
-2.974444311276947060e-03
-3.249305199921661332e-03
-3.554811909648031547e-03
-3.892343107171664270e-03
-4.262969614824176946e-03
-4.667444890982200105e-03
-5.106200153662169769e-03
-5.579344066037164422e-03
-6.086666763130289988e-03
-6.627648067093852915e-03
-7.201469624468266433e-03
-7.807030601524422679e-03
-8.442966527307834215e-03
-9.107670897573886745e-03
-9.799318945989246576e-03
-1.051589309921605389e-02
-1.125520961373472836e-02
-1.201494591660842888e-02
-1.279266796134684303e-02
-1.358585713806194188e-02
-1.439193629937113479e-02
-1.520829439219612694e-02
-1.603230925492606790e-02
-1.686136828012426911e-02
-1.769288661800160617e-02
-1.852432266388655963e-02
-1.935319064278641712e-02
-2.017707031933355447e-02
-2.099361373055578725e-02
-2.180054897726846005e-02
-2.259568125272623171e-02
-2.337689138920413801e-02
-2.414213205686172384e-02
-2.488942196409414664e-02
-2.561683853615685791e-02
-2.632250945201389247e-02
-2.700460341513841178e-02
-2.766132073345345735e-02
-2.829088413009111722e-02
-2.889153028469879439e-02
-2.946150256418809260e-02
-2.999904539874793941e-02
-3.050240068796919446e-02
-3.096980650403406699e-02
-3.139949856797745464e-02
-3.178971460053063580e-02
-3.213870170544388255e-02
-3.244472688658662368e-02
-3.270609066374512847e-02
-3.292114368837634891e-02
-3.308830619167630466e-02
-3.320608999172219161e-02
-3.327312263649020302e-02
-3.328817340129236468e-02
-3.325018049713785590e-02
-3.315827901936421740e-02
-3.301182897998644616e-02
-3.281044276131813570e-02
-3.255401131379097313e-02
-3.224272852509361964e-02
-3.187711298330632437e-02
-3.145802650480864632e-02
-3.098668877648505862e-02
-3.046468761545510079e-02
-2.989398420328571310e-02
-2.927691300037390393e-02
-2.861617598893845607e-02
-2.791483093765411566e-02
-2.717627359249135885e-02
-2.640421377371810624e-02
-2.560264551734756436e-02
-2.477581150404466540e-02
-2.392816204313914438e-02
-2.306430924243459135e-02
-2.218897681509196529e-02
-2.130694633909683763e-02
-2.042300072700000205e-02
-1.954186576142449491e-02
-1.866815071634437065e-02
-1.780628902690728488e-02
-1.696048005336724812e-02
-1.613463309152290276e-02
-1.533231455407110463e-02
-1.455669941829127942e-02
-1.381052797332540591e-02
-1.309606870932263425e-02
-1.241508819590376837e-02
-1.176882868780168741e-02
-1.115799398618657137e-02
-1.058274420178493061e-02
-1.004269949572920290e-02
-9.536953078346897469e-03
-9.064093353466281047e-03
-8.622235073802032856e-03
-8.209059127206560710e-03
-7.821860280273231630e-03
-7.457602329554089554e-03
-7.112979654936874008e-03
-6.784484142355973711e-03
-6.468476416452705567e-03
-6.161260060766610494e-03
-5.859157465683480746e-03
-5.558585823110319922e-03
-5.256131969116210716e-03
-4.948624477385400733e-03
-4.633201534145264464e-03
-4.307373332289375460e-03
-3.969077507039434419e-03
-3.616726480927501177e-03
-3.249245585531683467e-03
-2.866101038896668677e-03
-2.467316967280920939e-03
-2.053480949927633404e-03
-1.625737762116367122e-03
-1.185771050275310134e-03
-7.357732128730803869e-04
-2.784037730719372871e-04
1.832632358759019779e-04
6.458020150421552464e-04
1.105506815198141219e-03
1.558471652754068754e-03
2.000676424576729520e-03
2.428077897069471931e-03
2.836703824168382727e-03
3.222748399544117081e-03
3.582666988122603681e-03
3.913268437119317433e-03
4.211802840830437995e-03
4.476042918662226540e-03
4.704357173146089637e-03
4.895773081525671595e-03
5.050028868652195121e-03
5.167612397795610067e-03
5.249786046158660437e-03
5.298596712649210512e-03
5.316870249516884167e-03
5.308190038111542525e-03
5.276859568362860312e-03
5.227849480728563418e-03
5.166729472262406378e-03
5.099586074898593106e-03
5.032927492931119073e-03
4.973577016601091021e-03
4.928556714979764365e-03
4.904963443589318954e-03
4.909839432657589486e-03
4.950039738225118884e-03
5.032099102425321643e-03
5.162100794797826707e-03
5.345550033702847065e-03
5.587254584445673980e-03
5.891215060898135486e-03
6.260527397469788091e-03
6.697299571355474525e-03
7.202584740985189596e-03
7.776332430897726737e-03
8.417359296248991610e-03
9.123340523795550952e-03
9.890822604335509222e-03
1.071525792568646905e-02
1.159106093417557222e-02
1.251168544883435145e-02
1.346972226703349769e-02
1.445701568317276503e-02
1.546479722674311968e-02
1.648383448396690751e-02
1.750459257603096536e-02
1.851740555839919908e-02
1.951265469007965048e-02
2.048095031899042212e-02
2.141331411721035180e-02
2.230135806554323433e-02
2.313745680904201463e-02
2.391490977007110913e-02
2.462808984350244035e-02
2.527257540580413533e-02
2.584526274773123883e-02
2.634445615393787854e-02
2.676993352154128161e-02
2.712298559026566844e-02
2.740642734036367184e-02
2.762458075266146715e-02
2.778322837612296273e-02
2.788953807489603226e-02
2.795195948536936814e-02
2.798009360792821920e-02
2.798453722188737683e-02
2.797670456785851176e-02
2.796862910787215745e-02
2.797274863825470817e-02
2.800167745373844524e-02
2.806796951746153013e-02
2.818387704996330040e-02
2.836110888446548642e-02
2.861059328091484708e-02
2.894224977916705355e-02
2.936477466269089842e-02
2.988544444760028035e-02
3.050994150198442154e-02
3.124220573744206433e-02
3.208431583705066009e-02
3.303640288142576514e-02
3.409659895003236407e-02
3.526102236884921109e-02
3.652380088764010935e-02
3.787713322131705529e-02
3.931138875037116370e-02
4.081524433743956293e-02
4.237585669742131855e-02
4.397906778367879216e-02
4.560964024081876067e-02
4.725151916165365451e-02
4.888811572978280645e-02
5.050260804760618727e-02
5.207825385015053127e-02
5.359870949567594606e-02
5.504834939584696968e-02
5.641257984183649377e-02
5.767814131298739516e-02
5.883339315938200531e-02
5.986857504365814681e-02
6.077603965876609421e-02
6.155045169339967703e-02
6.218894851534472606e-02
6.269125880506104531e-02
6.305977589356552560e-02
6.329958349588697686e-02
6.341843226090387864e-02
6.342666652215157852e-02
6.333710161963478080e-02
6.316485302837597515e-02
6.292711948033030689e-02
6.264292324988038341e-02
6.233281159527543497e-02
6.201852425914502337e-02
6.172263256811993254e-02
6.146815655081337010e-02
6.127816686430301307e-02
6.117537876224960619e-02
6.118174597587359986e-02
6.131806211919053895e-02
6.160357754053074480e-02
6.205563950111411126e-02
6.268936309523781558e-02
6.351733999069536507e-02
6.454939155945864371e-02
6.579237235824623997e-02
6.725002882929392856e-02
6.892291749136056356e-02
7.080838554497802251e-02
7.290061593919888727e-02
7.519073748864127382e-02
7.766699971889946819e-02
8.031501054580232613e-02
8.311803373778947623e-02
8.605734196780651102e-02
8.911261984592927510e-02
9.226241038104371350e-02
9.548459715953493132e-02
9.875691358906384110e-02
1.020574698655720841e-01
1.053652875812902540e-01
1.086608313711913965e-01
1.119265268442993927e-01
1.151472537783847228e-01
1.183108036631028148e-01
1.214082910547619326e-01
1.244345086859185157e-01
1.273882168724970176e-01
1.302723586556169821e-01
1.330941933067316951e-01
1.358653418626240839e-01
1.386017398814711754e-01
1.413234940879798951e-01
1.440546412157830414e-01
1.468228089489589105e-01
1.496587807981101803e-01
1.525959683256323252e-01
1.556697960914186496e-01
1.589170063208348860e-01
1.623748920690026576e-01
1.660804690850226084e-01
1.700695981140706026e-01
1.743760707304053692e-01
1.790306728397553226e-01
1.840602408747078200e-01
1.894867264544655150e-01
1.953262856442992135e-01
2.015884092786786042e-01
2.082751105600493813e-01
2.153801858833078176e-01
2.228885641732586687e-01
2.307757592916232503e-01
2.390074386527760997e-01
2.475391200783028378e-01
2.563160070017323489e-01
2.652729705339096911e-01
2.743346847921063203e-01
2.834159197998159518e-01
2.924219937820392579e-01
3.012493845171522744e-01
3.097864967984587659e-01
3.179145807499424992e-01
3.255087931978148941e-01
3.324393920785209122e-01
3.385730513297204314e-01
3.437742818882509876e-01
3.479069423884987300e-01
3.508358212358821393e-01
3.524282704662349275e-01
3.525558703676692218e-01
3.510961031589139303e-01
3.479340130565517497e-01
3.429638300212667357e-01
3.360905343468683637e-01
3.272313396897641447e-01
3.163170728964397882e-01
3.032934298212361379e-01
2.881220879219599795e-01
2.707816579410377011e-01
2.512684588629672811e-01
2.295971027232358574e-01
2.058008782425158056e-01
1.799319246420640339e-01
1.520611900096895397e-01
1.222781714366086986e-01
9.069043696756448614e-02
5.742293252991224201e-02
2.261707990174302921e-02
-1.357032528604395182e-02
-5.096840370715734897e-02
-8.939365635658350073e-02
-1.286515853188108516e-01
-1.685384523736281059e-01
-2.088431541693515359e-01
-2.493491913992811337e-01
-2.898367076249104834e-01
-3.300845727190104273e-01
-3.698724850781445195e-01
-4.089830664491069245e-01
-4.472039233357261168e-01
-4.843296494201466129e-01
-5.201637440941796475e-01
-5.545204235264801218e-01
-5.872263021548875805e-01
-6.181219241566302536e-01
-6.470631267239326245e-01
-6.739222192898208785e-01
-6.985889652315663279e-01
-7.209713556719110628e-01
-7.409961675114701274e-01
-7.586093011019343635e-01
-7.737758958246563346e-01
-7.864802249269546852e-01
-7.967253739274954283e-01
-8.045327099072225874e-01
-8.099411517200555410e-01
-8.130062536996724987e-01
-8.137991178649655044e-01
-8.124051519292965207e-01
-8.089226921194881958e-01
-8.034615114921940249e-01
-7.961412356194526030e-01
-7.870896886692322347e-01
-7.764411931380850174e-01
-7.643348470757551638e-01
-7.509128022029247784e-01
-7.363185662195180781e-01
-7.206953514780914949e-01
-7.041844911816196317e-01
-6.869239430033328153e-01
-6.690468981235643264e-01
-6.506805118734407811e-01
-6.319447699565999832e-01
-6.129515021259936969e-01
-5.938035524830593825e-01
-5.745941130613001491e-01
-5.554062250725511074e-01
-5.363124491585010700e-01
-5.173747036671291211e-01
-4.986442675160864813e-01
-4.801619416331511792e-01
-4.619583607965720984e-01
-4.440544456976744936e-01
-4.264619828920355182e-01
-4.091843190316816203e-01
-3.922171540803464085e-01
-3.755494173486016996e-01
-3.591642090653219266e-01
-3.430397899041219834e-01
-3.271506005473852063e-01
-3.114682933618788674e-01
-2.959627586809527866e-01
-2.806031287195014379e-01
-2.653587430079560328e-01
-2.502000604770071579e-01
-2.350995044607340489e-01
-2.200322285882919393e-01
-2.049767930437277341e-01
-1.899157425012077127e-01
-1.748360791434883099e-01
-1.597296259125060569e-01
-1.445932772064452976e-01
-1.294291363422822305e-01
-1.142445409654029298e-01
-9.905197940983735683e-02
-8.386890303028729510e-02
-6.871744097313320365e-02
-5.362402542040808212e-02
-3.861893677526173629e-02
-2.373577931028176061e-02
-9.010898770851160505e-03
5.517245984320683604e-03
1.980874451591457461e-02
3.382291668813967866e-02
4.751900187156115479e-02
6.085684273309724390e-02
7.379755126980130919e-02
8.630414546931303166e-02
9.834214563044757496e-02
1.098801204863540520e-01
1.208901742185256589e-01
1.313483670536204628e-01
1.412350631371649679e-01
1.505352009925760848e-01
1.592384834216603873e-01
1.673394850420902302e-01
1.748376772858501738e-01
1.817373720464640630e-01
1.880475868331476508e-01
1.937818352522099052e-01
1.989578481580590030e-01
2.035972318113258017e-01
2.077250703544819554e-01
2.113694808115872403e-01
2.145611293520344742e-01
2.173327181990830359e-01
2.197184526402605198e-01
2.217534979769260339e-01
2.234734361306690564e-01
2.249137312339853645e-01
2.261092133653600789e-01
2.270935889542904096e-01
2.278989857552759235e-01
2.285555393449861805e-01
2.290910274031285054e-01
2.295305568742693481e-01
2.298963080918270674e-01
2.302073388247709296e-01
2.304794500436083138e-01
2.307251141403837691e-01
2.309534650118381105e-01
2.311703485900004906e-01
2.313784310494334251e-01
2.315773610804893190e-01
2.317639819395920509e-01
2.319325878299624000e-01
2.320752187514310283e-01
2.321819872821992981e-01
2.322414303733038587e-01
2.322408790513882937e-01
2.321668386782141935e-01
2.320053723124228251e-01
2.317424801318172800e-01
2.313644679056031661e-01
2.308582977820230198e-01
2.302119155458910715e-01
2.294145486626476549e-01
2.284569703702825083e-01
2.273317257138445791e-01
2.260333162585942413e-01
2.245583410015755677e-01
2.229055919661058482e-01
2.210761038025943759e-01
2.190731576410741011e-01
2.169022400554574959e-01
2.145709591987197684e-01
2.120889205431210900e-01
2.094675656753898219e-01
2.067199779161415507e-01
2.038606592144281138e-01
2.009052832192811666e-01
1.978704297201444862e-01
1.947733058761333957e-01
1.916314596996983588e-01
1.884624914434622767e-01
1.852837683175473926e-01
1.821121477926976873e-01
1.789637146005805257e-01
1.758535359062872450e-01
1.727954389427845683e-01
1.698018148151871354e-01
1.668834514708908978e-01
1.640493983736010242e-01
1.613068648147135964e-01
1.586611529345770821e-01
1.561156259209972308e-01
1.536717114292657227e-01
1.513289392202579742e-01
1.490850116931986269e-01
1.469359052508735775e-01
1.448760000539082993e-01
1.428982350415902158e-01
1.409942849493976413e-01
1.391547555465252606e-01
1.373693930384534967e-01
1.356273036096715401e-01
1.339171788481681447e-01
1.322275226314669760e-01
1.305468755170829664e-01
1.288640325372998607e-01
1.271682503977335232e-01
1.254494408508909642e-01
1.236983468214815501e-01
1.219066985281031662e-01
1.200673473233981742e-01
1.181743752462635355e-01
1.162231789775000496e-01
1.142105272679703881e-01
1.121345914769079494e-01
1.099949493479518564e-01
1.077925626246474949e-01
1.055297296308254085e-01
1.032100142976234564e-01
1.008381535918279753e-01
9.841994561894580607e-02
9.596212104595530645e-02
9.347220054900526320e-02
9.095834139003722285e-02
8.842917620330492667e-02
8.589364720663777986e-02
8.336083907852026575e-02
8.083981358404382367e-02
7.833944901228991065e-02
7.586828732087233518e-02
7.343439155365141802e-02
7.104521595760494856e-02
6.870749084205002299e-02
6.642712397363068066e-02
6.420911985814849177e-02
6.205751798778967598e-02
5.997535061708039045e-02
5.796462037563784864e-02
5.602629748676538762e-02
5.416033629287901607e-02
5.236571008102059582e-02
5.064046306735411201e-02
4.898177816228654197e-02
4.738605875959301522e-02
4.584902259107701689e-02
4.436580552983582226e-02
4.293107322652996161e-02
4.153913812551686402e-02
4.018407958689508563e-02
3.885986467570426428e-02
3.756046743381896702e-02
3.627998428166555323e-02
3.501274362491508391e-02
3.375340762216556129e-02
3.249706453676666496e-02
3.123931011646310582e-02
2.997631673658297802e-02
2.870488948610504937e-02
2.742250833146451378e-02
2.612735609613244664e-02
2.481833211546612475e-02
2.349505158528999993e-02
2.215783123642383820e-02
2.080766185218517472e-02
1.944616853265655060e-02
1.807555991325196162e-02
1.669856760018620032e-02
1.531837715397810044e-02
1.393855237235124347e-02
1.256295433288786428e-02
1.119565697936931135e-02
9.840860920842742221e-03
8.502807258183650921e-03
7.185692991404347106e-03
5.893589531774808508e-03
4.630365894265669330e-03
3.399617870054088848e-03
2.204604314033373723e-03
1.048191619219417895e-03
-6.719281774845609783e-05
-1.139597454313298142e-03
-2.167573503112486463e-03
-3.150191520900445276e-03
-4.087047702480502490e-03
-4.978260020439811279e-03
-5.824454701793587395e-03
-6.626743439384270330e-03
-7.386692090085204311e-03
-8.106281715291152601e-03
-8.787862955123064423e-03
-9.434104755089276276e-03
-1.004793859808253594e-02
-1.063249942313231056e-02
-1.119106448238204460e-02
-1.172699133118640553e-02
-1.224365613751370388e-02
-1.274439349765158110e-02
-1.323243879929355063e-02
-1.371087426262044238e-02
-1.418257937575100221e-02
-1.465018667605177786e-02
-1.511604347595302440e-02
-1.558218008728174363e-02
-1.605028489831891725e-02
-1.652168655567549937e-02
-1.699734340153486248e-02
-1.747784010835603044e-02
-1.796339126735101849e-02
-1.845385167688892020e-02
-1.894873291163265763e-02
-1.944722563323064354e-02
-1.994822705888982250e-02
-2.045037280654814216e-02
-2.095207237665033459e-02
-2.145154750349112516e-02
-2.194687258334341098e-02
-2.243601628473974527e-02
-2.291688346864614867e-02
-2.338735668887963193e-02
-2.384533645524961401e-02
-2.428877955814134210e-02
-2.471573487571474340e-02
-2.512437597697448829e-02
-2.551303002134051173e-02
-2.588020262230981278e-02
-2.622459835064403291e-02
-2.654513671164329333e-02
-2.684096333238534388e-02
-2.711145648235780206e-02
-2.735622903596296104e-02
-2.757512590143944980e-02
-2.776821725266886629e-02
-2.793578786509374676e-02
-2.807832297500580110e-02
-2.819649108330345155e-02
-2.829112416465602575e-02
-2.836319577576206646e-02
-2.841379766215341995e-02
-2.844411531247312622e-02
-2.845540319327077503e-02
-2.844895989545312073e-02
-2.842610387896395488e-02
-2.838815027009442341e-02
-2.833638902917505822e-02
-2.827206497017582809e-02
-2.819635991965151189e-02
-2.811037721823568536e-02
-2.801512876544421521e-02
-2.791152481084339249e-02
-2.780036644809631002e-02
-2.768234087726157561e-02
-2.755801935658676663e-02
-2.742785771059584946e-02
-2.729219928954340624e-02
-2.715128014133482218e-02
-2.700523609246371221e-02
-2.685411144776253187e-02
-2.669786906565829732e-02
-2.653640149558152833e-02
-2.636954272522910869e-02
-2.619708037613609555e-02
-2.601876786296144009e-02
-2.583433630721193239e-02
-2.564350585288296611e-02
-2.544599617600003250e-02
-2.524153594527176261e-02
-2.502987098871769372e-02
-2.481077106045816855e-02
-2.458403517550920847e-02
-2.434949525088019387e-02
-2.410701822280959458e-02
-2.385650649143371965e-02
-2.359789690451133751e-02
-2.333115828497693903e-02
-2.305628765175469705e-02
-2.277330533870287194e-02
-2.248224914273013950e-02
-2.218316772428380670e-02
-2.187611354088073168e-02
-2.156113547340365172e-02
-2.123827143986776675e-02
-2.090754117117683136e-02
-2.056893940690830355e-02
-2.022242972981209280e-02
-1.986793926876278746e-02
-1.950535427931228763e-02
-1.913451696127442883e-02
-1.875522345957462630e-02
-1.836722326253196341e-02
-1.797021989782656912e-02
-1.756387304998024632e-02
-1.714780203659340557e-02
-1.672159057297282689e-02
-1.628479277006985096e-02
-1.583694021911869268e-02
-1.537755005594584889e-02
-1.490613371988372578e-02
-1.442220637257591101e-02
-1.392529669201677915e-02
-1.341495683465258708e-02
-1.289077229933678799e-02
-1.235237161565217422e-02
-1.179943545031754588e-02
-1.123170509694144253e-02
-1.064899001781989887e-02
-1.005117434690745888e-02
-9.438222205018857378e-03
-8.810181622711150268e-03
-8.167187071652419472e-03
-7.509460437716749918e-03
-6.837310501188210814e-03
-6.151130811210086397e-03
-5.451396034891316245e-03
-4.738656859759371280e-03
-4.013533494795096072e-03
-3.276707894071294661e-03
-2.528914880018917274e-03
-1.770932267833861444e-03
-1.003570242555018024e-03
-2.276601724337951331e-04
5.559569125162876040e-04
1.346442035208344264e-03
2.142969828139833829e-03
2.944739823328862589e-03
3.750987183262516605e-03
4.560992686454060085e-03
5.374091864468506438e-03
6.189682926600680035e-03
7.007233488574030056e-03
7.826285907172119208e-03
8.646461091934410856e-03
9.467460759198262008e-03
1.028906809440365173e-02
1.111114680132947556e-02
1.193363850514329687e-02
1.275655865260620463e-02
1.357999091468647425e-02
1.440408016531499399e-02
1.522902425595180909e-02
1.605506469083328377e-02
1.688247639179960014e-02
1.771155669875148705e-02
1.854261387698863742e-02
1.937595524888822973e-02
2.021187528224635543e-02
2.105064379484091613e-02
2.189249444388399746e-02
2.273761378798530575e-02
2.358613102787963933e-02
2.443810871697119774e-02
2.529353451812092063e-02
2.615231424040219063e-02
2.701426616454302015e-02
2.787911686201784145e-02
2.874649852050439880e-02
2.961594780160917498e-02
3.048690629558238954e-02
3.135872260584558063e-02
3.223065595952412377e-02
3.310188125748687177e-02
3.397149552635134184e-02
3.483852564296157500e-02
3.570193721593363512e-02
3.656064444645049788e-02
3.741352079315450607e-02
3.825941036332258099e-02
3.909713969785325038e-02
3.992552984964496676e-02
4.074340849794528402e-02
4.154962204335706233e-02
4.234304729029055719e-02
4.312260268277726821e-02
4.388725880458545225e-02
4.463604814262755321e-02
4.536807380386810584e-02
4.608251713817782674e-02
4.677864417311023565e-02
4.745581071656559957e-02
4.811346610939410545e-02
4.875115555843110432e-02
4.936852103445217577e-02
4.996530075331417214e-02
5.054132722450031812e-02
5.109652398290497055e-02
5.163090097200150747e-02
5.214454871212876458e-02
5.263763134978660663e-02
5.311037876317131062e-02
5.356307777391975528e-02
5.399606261461072088e-02
5.440970481350185239e-02
5.480440267155550077e-02
5.518057040144402209e-02
5.553862717851906772e-02
5.587898628419828151e-02
5.620204437731637220e-02
5.650817108557334989e-02
5.679769911824566336e-02
5.707091484320470087e-02
5.732804971519141202e-02
5.756927238375763450e-02
5.779468183170204804e-02
5.800430133112943754e-02
5.819807353078874229e-02
5.837585653833213956e-02
5.853742116691013769e-02
5.868244921466508890e-02
5.881053283025063777e-02
5.892117500752450110e-02
5.901379112530633075e-02
5.908771145310302841e-02
5.914218461434488094e-02
5.917638197831296548e-02
5.918940281406624704e-02
5.918028016960675403e-02
5.914798744734670738e-02
5.909144550408933910e-02
5.900953019166716579e-02
5.890108031487856916e-02
5.876490586006839767e-02
5.859979640032145221e-02
5.840452961227454720e-02
5.817787978187641262e-02
5.791862627105320155e-02
5.762556187242758726e-02
5.729750094672940441e-02
5.693328730769825485e-02
5.653180179663940680e-02
5.609196948895497220e-02
5.561276651976607838e-02
5.509322647686794305e-02
5.453244640578950447e-02
5.392959225289986613e-02
5.328390388781969328e-02
5.259469974725986680e-02
5.186138084376366170e-02
5.108343442036298448e-02
5.026043717892817592e-02
4.939205803082399177e-02
4.847806039442439929e-02
4.751830416487992648e-02
4.651274734108602760e-02
4.546144724690639322e-02
4.436456147566723851e-02
4.322234842138962529e-02
4.203516765644098319e-02
4.080348003300034165e-02
3.952784751215641934e-02
3.820893278309459018e-02
3.684749863449112567e-02
3.544440719498859887e-02
3.400061892253349038e-02
3.251719143377396898e-02
3.099527813146127353e-02
2.943612669172842450e-02
2.784107733924340300e-02
2.621156093512195737e-02
2.454909683380557262e-02
2.285529060696573495e-02
2.113183144941177885e-02
1.938048943409364372e-02
1.760311250622741824e-02
1.580162327363479613e-02
1.397801548509778821e-02
1.213435025939028911e-02
1.027275199940204213e-02
8.395404056855418351e-03
6.504544102536234836e-03
4.602459206719911738e-03
2.691480622584031639e-03
7.739782104195739448e-04
-1.147645359620473029e-03
-3.070960710229427102e-03
-4.993518128725823145e-03
-6.912854229326618853e-03
-8.826498829648749336e-03
-1.073198206401390284e-02
-1.262684169706793785e-02
-1.450863056295682678e-02
-1.637492416006116128e-02
-1.822332834910529373e-02
-2.005148713337423158e-02
-2.185709041627456606e-02
-2.363788177538130378e-02
-2.539166617157348829e-02
-2.711631752058927744e-02
-2.880978609517434452e-02
-3.047010570099711185e-02
-3.209540061129484423e-02
-3.368389215747845389e-02
-3.523390501660025875e-02
-3.674387302518650200e-02
-3.821234454634581806e-02
-3.963798731047799700e-02
-4.101959272310941318e-02
-4.235607957651616601e-02
-4.364649714314911000e-02
-4.489002756513022635e-02
-4.608598757983706912e-02
-4.723382947885452349e-02
-4.833314145853051524e-02
-4.938364707051564467e-02
-5.038520398105560127e-02
-5.133780199788769150e-02
-5.224156031862429300e-02
-5.309672398150637462e-02
-5.390365962470047845e-02
-5.466285060455503692e-02
-5.537489132158659316e-02
-5.604048103076495618e-02
-5.666041696680834683e-02
-5.723558696807019147e-02
-5.776696162742284146e-02
-5.825558599472796528e-02
-5.870257091057162063e-02
-5.910908407874352483e-02
-5.947634086287730687e-02
-5.980559494114146002e-02
-6.009812895951590489e-02
-6.035524513756775067e-02
-6.057825597417381552e-02
-6.076847514742052953e-02
-6.092720863136328463e-02
-6.105574617019501882e-02
-6.115535312263075535e-02
-6.122726277559919356e-02
-6.127266925525174518e-02
-6.129272092218467777e-02
-6.128851453854707032e-02
-6.126109005526592099e-02
-6.121142624098097756e-02
-6.114043702064200780e-02
-6.104896863525628020e-02
-6.093779764141904476e-02
-6.080762974676467286e-02
-6.065909951336236755e-02
-6.049277088041500605e-02
-6.030913845531504086e-02
-6.010862966479229436e-02
-5.989160768636869747e-02
-5.965837501815534488e-02
-5.940917779657630543e-02
-5.914421068633697598e-02
-5.886362232107397036e-02
-5.856752129084905056e-02
-5.825598251790597287e-02
-5.792905394356642756e-02
-5.758676345449029177e-02
-5.722912599184612481e-02
-5.685615074942977631e-02
-5.646784834993416602e-02
-5.606423797347317300e-02
-5.564535423154019084e-02
-5.521125377875456958e-02
-5.476202163579299564e-02
-5.429777702942153311e-02
-5.381867875490103231e-02
-5.332492998986080451e-02
-5.281678249052083191e-02
-5.229454007057550424e-02
-5.175856140865556232e-02
-5.120926206139311126e-02
-5.064711575423817141e-02
-5.007265482040972743e-02
-4.948646985522444502e-02
-4.888920857511543094e-02
-4.828157389215462225e-02
-4.766432118136831875e-02
-4.703825482148795561e-02
-4.640422408371468882e-02
-4.576311829148196203e-02
-4.511586136509827816e-02
-4.446340589535686949e-02
-4.380672665522152703e-02
-4.314681374665396002e-02
-4.248466546913406278e-02
-4.182128086532185124e-02
-4.115765217518527891e-02
-4.049475716646124684e-02
-3.983355146298912103e-02
-3.917496104491158260e-02
-3.851987491035940847e-02
-3.786913805089985735e-02
-3.722354473431729871e-02
-3.658383231728247476e-02
-3.595067556362978312e-02
-3.532468152806157724e-02
-3.470638511658976494e-02
-3.409624532782690176e-02
-3.349464231161340677e-02
-3.290187525542062619e-02
-3.231816107113862774e-02
-3.174363400493366433e-02
-3.117834607642162165e-02
-3.062226840543983211e-02
-3.007529349296280199e-02
-2.953723826637922809e-02
-2.900784804040893589e-02
-2.848680126744800728e-02
-2.797371498814462884e-02
-2.746815103262273405e-02
-2.696962286460547961e-02
-2.647760297163626042e-02
-2.599153074670379829e-02
-2.551082080344104289e-02
-2.503487154578495563e-02
-2.456307393395392238e-02
-2.409482037801998280e-02
-2.362951365120100414e-02
-2.316657568854850469e-02
-2.270545618863500578e-02
-2.224564088994405997e-02
-2.178665944473629282e-02
-2.132809268605845299e-02
-2.086957936046059808e-02
-2.041082217355919340e-02
-1.995159302378662208e-02
-1.949173735908016694e-02
-1.903117761177574446e-02
-1.856991565416149514e-02
-1.810803419984033727e-02
-1.764569721946182557e-02
-1.718314921972639506e-02
-1.672071346315100182e-02
-1.625878904483027063e-02
-1.579784700308934156e-02
-1.533842536728587287e-02
-1.488112321306839236e-02
-1.442659385693432703e-02
-1.397553713297822013e-02
-1.352869097373390200e-02
-1.308682227488082439e-02
-1.265071729447158309e-02
-1.222117155184690267e-02
-1.179897940668034675e-02
-1.138492353365591798e-02
-1.097976428212604424e-02
-1.058422912623258570e-02
-1.019900237459686436e-02
-9.824715253953557326e-03
-9.461936475179589037e-03
-9.111163473490906453e-03
-8.772814382744343470e-03
-8.447220872816891754e-03
-8.134622027597912877e-03
-7.835159254046437927e-03
-7.548872441760412846e-03
-7.275697271107648724e-03
-7.015463898304643772e-03
-6.767896938447464511e-03
-6.532616711523393793e-03
-6.309141971450778208e-03
-6.096893905216434727e-03
-5.895201475164412244e-03
-5.703307968526530151e-03
-5.520378691238890176e-03
-5.345509811699169708e-03
-5.177738178379208411e-03
-5.016051983225469461e-03
-4.859402162560567083e-03
-4.706714430866846405e-03
-4.556901642515146476e-03
-4.408876469152458143e-03
-4.261564255603810490e-03
-4.113915715311653766e-03
-3.964919427114670797e-03
-3.813613952403494597e-03
-3.659099315271568259e-03
-3.500547727375044431e-03
-3.337213497858087120e-03
-3.168441905579557662e-03
-2.993676915496019074e-03
-2.812467616737261440e-03
-2.624473351359895602e-03
-2.429467405335985087e-03
-2.227339201842403957e-03
-2.018094959340833560e-03
-1.801856891899257474e-03
-1.578860867079955651e-03
-1.349452579427337390e-03
-1.114082317330904572e-03
-8.732983910680552171e-04
-6.277392663972009446e-04
-3.781245727235949222e-04
-1.252451295305984167e-04
1.300479249608385503e-04
3.868546837501493879e-04
6.442385311957916656e-04
9.012386283941776826e-04
1.156882540310671774e-03
1.410198815291938655e-03
1.660229399924791896e-03
1.906041755387738934e-03
2.146740337669885822e-03
2.381477395167265563e-03
2.609462864122088881e-03
2.829973371828503701e-03
3.042360022886271900e-03
3.246054997884370141e-03
3.440576852014945453e-03
3.625534439312451569e-03
3.800629438167939678e-03
3.965657431019924649e-03
4.120507566556370210e-03
4.265160931713212270e-03
4.399687469343796682e-03
4.524241679646406888e-03
4.639057224260002311e-03
4.744440348192949242e-03
4.840762521726067052e-03
4.928452259012669652e-03
5.007986291230530872e-03
5.079880347384587401e-03
5.144679588099115505e-03
5.202948985860294216e-03
5.255263719290074152e-03
5.302199843050539596e-03
5.344325345501553179e-03
5.382191752843812176e-03
5.416326444821265712e-03
5.447225821323089384e-03
5.475349380106212145e-03
5.501114807387095205e-03
5.524894181298758804e-03
5.547011345283123403e-03
5.567740417026096657e-03
5.587305546239747754e-03
5.605881772705659065e-03
5.623597066971106756e-03
5.640535361085060630e-03
5.656740554767174418e-03
5.672221429904585749e-03
5.686957217966985036e-03
5.700903890359739282e-03
5.714000835419470042e-03
5.726177846271910885e-03
5.737362198631446551e-03
5.747485734510027547e-03
5.756491692522900869e-03
5.764341261759947134e-03
5.771019503795763415e-03
5.776540647043986246e-03
5.780952562675609023e-03
5.784340313489517993e-03
5.786828632121619742e-03
5.788583342731651142e-03
5.789811659766730574e-03
5.790761212002538093e-03
5.791717890737475144e-03
5.793002476913320688e-03
5.794966197282946409e-03
5.797985139649187471e-03
5.802453755794832919e-03
5.808777408514920887e-03
5.817364269900067789e-03
5.828616615245552426e-03
5.842921693398130632e-03
5.860642420164331387e-03
5.882107952114773441e-03
5.907604502229908162e-03
5.937366488241885634e-03
5.971568218719713363e-03
6.010316393376499700e-03
6.053643461048733958e-03
6.101502099576204020e-03
6.153761028189040291e-03
6.210202111495473180e-03
6.270518945702258790e-03
6.334317115693001952e-03
6.401115983718557757e-03
6.470352141195360486e-03
6.541384535169144157e-03
6.613501272195590648e-03
6.685927861955633968e-03
6.757836944077418376e-03
6.828359313923833100e-03
6.896596163018325898e-03
6.961632255974800100e-03
7.022549915950759142e-03
7.078443536907524751e-03
7.128434403587137133e-03
7.171685572514180720e-03
7.207416588456104500e-03
7.234917747472710894e-03
7.253563597166250675e-03
7.262825489195625511e-03
7.262282906751460487e-03
7.251633360894996563e-03
7.230700588749466341e-03
7.199440974161661587e-03
7.157947925664515966e-03
7.106454158863569764e-03
7.045331786791885278e-03
6.975090078596215236e-03
6.896370984581610443e-03
6.809942437982567133e-03
6.716689373548781830e-03
6.617602694662445828e-03
6.513766237252422396e-03
6.406341981305553601e-03
6.296553616572906319e-03
6.185668812830624058e-03
6.074980407934874038e-03
5.965786787013749141e-03
5.859371771991478926e-03
5.756984333761979572e-03
5.659818473303086447e-03
5.568993640640813349e-03
5.485535907656940643e-03
5.410360334325988244e-03
5.344254785226546650e-03
5.287865453874163180e-03
5.241684444825260754e-03
5.206039579401113872e-03
5.181086616150289322e-03
5.166804090821426436e-03
5.162990880134577312e-03
5.169266607064238774e-03
5.185074832284890765e-03
5.209689103952347584e-03
5.242221737956688846e-03
5.281635319210924856e-03
5.326756726010532274e-03
5.376293438398953295e-03
5.428851897265719352e-03
5.482957752183756361e-03
5.537077554780004546e-03
5.589641716409160521e-03
5.639068202098285708e-03
5.683786711169126760e-03
5.722262976659430074e-03
5.753022683660952499e-03
5.774674725274225699e-03
5.785933321466199195e-03
5.785638779531036141e-03
5.772776423496338988e-03
5.746493459087181552e-03
5.706113377803175533e-03
5.651147778614141505e-03
5.581305298111950003e-03
5.496497624518546614e-03
5.396842296325941868e-03
5.282662360204922782e-03
5.154482845361198738e-03
5.013024045555593625e-03
4.859191755875326424e-03
4.694064592192534989e-03
4.518878566302673636e-03
4.335009156219182466e-03
4.143951167550198426e-03
3.947296681604725230e-03
3.746711422285792931e-03
3.543909973405988661e-03
3.340630170193815886e-03
3.138607112194077668e-03
2.939547247100167838e-03
2.745102894997351103e-03
2.556847545926053174e-03
2.376252492810168680e-03
2.204665092842204160e-03
2.043288981843336110e-03
1.893166631387815241e-03
1.755164421343997048e-03
1.629960606862506604e-03
1.518036259128891039e-03
1.419669371296933659e-03
1.334932222513295162e-03
1.263692013718124580e-03
1.205614754975920791e-03
1.160172431713662545e-03
1.126653156253998702e-03
1.104174279447901318e-03
1.091698131835209520e-03
1.088050216877083044e-03
1.091939491655993365e-03
1.101980386613702441e-03
1.116716261286123182e-03
1.134643842234843132e-03
1.154238245446925076e-03
1.173978185499524379e-03
1.192370903560031588e-03
1.207976509694842033e-03
1.219431218751680385e-03
1.225469122162451893e-03
1.224942157977970247e-03
1.216837989204115015e-03
1.200295398194379691e-03
1.174617064500903078e-03
1.139279419364322334e-03
1.093939543521433742e-03
1.038438852398671213e-03
9.728036856069179755e-04
8.972426696544967030e-04
8.121410193726473145e-04
7.180518242781165064e-04
6.156844828731606418e-04
5.058906209876192330e-04
3.896475135481309595e-04
2.680395380805259634e-04
1.422378646552155098e-04
1.347878648153851221e-05
-1.169589366959543223e-04
-2.477773334037476128e-04
-3.776826567476811473e-04
-5.054085642794792048e-04
-6.297387193722002842e-04
-7.495283237767685902e-04
-8.637242415034748376e-04
-9.713834180791915259e-04
-1.071689195889843861e-03
-1.163965317916163976e-03
-1.247687315242511710e-03
-1.322491133252883845e-03
-1.388178861254685302e-03
-1.444721375020063337e-03
-1.492257978718357749e-03
-1.531093003348869873e-03
-1.561689414655264554e-03
-1.584659544376303348e-03
-1.600753166763096936e-03
-1.610843079828452483e-03
-1.615908443601459053e-03
-1.617016237499909479e-03
-1.615301086694074855e-03
-1.611943902904522212e-03
-1.608149614521805094e-03
-1.605124464649790306e-03
-1.604053288248674094e-03
-1.606077061365871177e-03
-1.612271237835191835e-03
-1.623625226200624055e-03
-1.641023314204401347e-03
-1.665227432822738397e-03
-1.696862099649869672e-03
-1.736401733924195553e-03
-1.784160626713910498e-03
-1.840285764706574420e-03
-1.904752585791259041e-03
-1.977363720825458995e-03
-2.057750882566951496e-03
-2.145379794004496909e-03
-2.239558079099859475e-03
-2.339446020130768380e-03
-2.444069989243827581e-03
-2.552338293409843646e-03
-2.663059278820290379e-03
-2.774961297967343341e-03
-2.886714211561166449e-03
-2.996952084941900511e-03
-3.104296674400497131e-03
-3.207381331626015311e-03
-3.304874921940341957e-03
-3.395505355928982519e-03
-3.478082256282816979e-03
-3.551518483311841105e-03
-3.614850042944648886e-03
-3.667254118807857215e-03
-3.708064832545118414e-03
-3.736786562378047964e-03
-3.753104537626642152e-03
-3.756892425779650643e-03
-3.748216929495373426e-03
-3.727339183554167611e-03
-3.694712985522247747e-03
-3.650979817852956742e-03
-3.596960743599395775e-03
-3.533645372872471803e-03
-3.462177949139606629e-03
-3.383840814431251977e-03
-3.300035504143697049e-03
-3.212261833004297160e-03
-3.122095198227497429e-03
-3.031162563356001177e-03
-2.941117415219107398e-03
-2.853614143985571706e-03
-2.770282216325465566e-03
-2.692700598494158874e-03
-2.622372841096717432e-03
-2.560703127033121980e-03
-2.508973768339485197e-03
-2.468324490414476428e-03
-2.439733794550564584e-03
-2.424002754901493067e-03
-2.421741411090077602e-03
-2.433358117790485747e-03
-2.459051872147915378e-03
-2.498807819875519063e-03
-2.552395982342911714e-03
-2.619373285480255248e-03
-2.699088817128658668e-03
-2.790692189154030979e-03
-2.893144932937624994e-03
-3.005234761463388728e-03
-3.125592424529837019e-03
-3.252710944074275155e-03
-3.384966927304585219e-03
-3.520643595589454441e-03
-3.657955204225107806e-03
-3.795072512471945984e-03
-3.930148821650572728e-03
-4.061346323692411817e-03
-4.186862198954904163e-03
-4.304954311365528571e-03
-4.413965816233792090e-03
-4.512348564197765990e-03
-4.598684864533806108e-03
-4.671707281422494452e-03
-4.730316225158831718e-03
-4.773595035469868630e-03
-4.800822388010902650e-03
-4.811481873207818817e-03
-4.805268577634538851e-03
-4.782092598145868713e-03
-4.742079516691990147e-03
-4.685567776794570365e-03
-4.613103075504580361e-03
-4.525429913306281381e-03
-4.423480343998400545e-03
-4.308360187400610448e-03
-4.181332912501964892e-03
-4.043801447085518426e-03
-3.897288198067047193e-03
-3.743413616176726084e-03
-3.583873548240197170e-03
-3.420415782699190183e-03
-3.254816159488147734e-03
-3.088854540416543365e-03
-2.924291004049943410e-03
-2.762842608192098842e-03
-2.606161020094060598e-03
-2.455811339751326917e-03
-2.313252408603186459e-03
-2.179818886114499952e-03
-2.056705201929743577e-03
-1.944951709719678744e-03
-1.845433221106231904e-03
-1.758849905540136845e-03
-1.685720767176455536e-03
-1.626379687248522042e-03
-1.580974115677226009e-03
-1.549466247368229844e-03
-1.531636734469241133e-03
-1.527090848375688972e-03
-1.535266884854740018e-03
-1.555446688857019862e-03
-1.586767998537086128e-03
-1.628238623437646944e-03
-1.678752108865112606e-03
-1.737104518711382823e-03
-1.802012276751911073e-03
-1.872130628982488550e-03
-1.946072591088647292e-03
-2.022428015970871486e-03
-2.099782521104381124e-03
-2.176736037116363230e-03
-2.251920743112661386e-03
-2.324018122990496871e-03
-2.391774942057989933e-03
-2.454017912019094104e-03
-2.509666988750464123e-03
-2.557746953226973114e-03
-2.597397388039409619e-03
-2.627880771414667794e-03
-2.648588772677334339e-03
-2.659046581989782301e-03
-2.658915381608492178e-03
-2.647992851587300731e-03
-2.626211931171816994e-03
-2.593637736352377710e-03
-2.550462852243356483e-03
-2.497001029305229245e-03
-2.433679455132500488e-03
-2.361029808023972984e-03
-2.279678178594692680e-03
-2.190334063198864055e-03
-2.093778564600006203e-03
-1.990852123466684345e-03
-1.882441830891007795e-03
-1.769468593198556417e-03
-1.652874278786766599e-03
-1.533609091591747004e-03
-1.412619269039440406e-03
-1.290835311242868226e-03
-1.169160908951007377e-03
-1.048462590213007162e-03
-9.295603635061596998e-04
-8.132193313597796836e-04
-7.001424241500765581e-04
-5.909642852287618625e-04
-4.862463639448186378e-04
-3.864732223358707678e-04
-2.920500995607511066e-04
-2.033016252000334782e-04
-1.204718245121099465e-04
-4.372519153237198596e-05
2.685108135455753170e-05
9.124390446542263579e-05
1.495101653037632687e-04
2.017717387836431516e-04
2.482097960300594093e-04
2.890584437697762661e-04
3.245979914678089853e-04
3.551477229699577108e-04
3.810584372710341971e-04
4.027048582580953833e-04
4.204780714461572129e-04
4.347779573502538286e-04
4.460059024699431461e-04
4.545577967558190550e-04
4.608174024067389287e-04
4.651502775012545635e-04
4.678982186128629586e-04
4.693743446261633770e-04
4.698588821033767519e-04
4.695956748122108362e-04
4.687894452721004415e-04
4.676038279472818351e-04
4.661602176864380171e-04
4.645373727806286867e-04
4.627718381421397353e-04
4.608590585623540087e-04
4.587552516824181057e-04
4.563798937389487633e-04
4.536188702063541117e-04
4.503281720569623755e-04
4.463380761516336725e-04
4.414577098793966104e-04
4.354800169311491076e-04
4.281868936929695592e-04
4.193546034564206676e-04
4.087592085441205786e-04
3.961820602368797432e-04
3.814152366467771183e-04
3.642667837474768285e-04
3.445657520890703482e-04
3.221669342433763775e-04
2.969552664005532068e-04
2.688497398878914469e-04
2.378068644060548113e-04
2.038235800492187025e-04
1.669396632276597852e-04
1.272394190148712953e-04
8.485283012516232882e-05
3.995599400462880319e-05
-7.229080764824415530e-06
-5.643536637178147534e-05
-1.073522853756310425e-04
-1.596278643186017920e-04
-2.128715455585077955e-04
-2.666575166880238057e-04
-3.205286000965193428e-04
-3.740006939882141554e-04
-4.265675439192991784e-04
-4.777059507692121474e-04
-5.268813523252050207e-04
-5.735535824409366016e-04
-6.171828692665661453e-04
-6.572359021308064094e-04
-6.931919354209951228e-04
-7.245489051116502230e-04
-7.508293702211182516e-04
-7.715862884061195108e-04
-7.864085336530176598e-04
-7.949260794458604248e-04
-7.968147629144640975e-04
-7.918006274593230535e-04
-7.796637643407240605e-04
-7.602415137037696682e-04
-7.334311469400185213e-04
-6.991918885984647154e-04
-6.575462275652563075e-04
-6.085805619342018113e-04
-5.524451834242397052e-04
-4.893535184702107630e-04
-4.195806991362002855e-04
-3.434614412239296631e-04
-2.613872794775013320e-04
-1.738031443042734080e-04
-8.120338311269197648e-05
1.587275466516803362e-05
1.168461033374314792e-04
2.211030508352665252e-04
3.280013156711466854e-04
4.368760320147243095e-04
5.470460369442928196e-04
6.578203352107296576e-04
7.685046561262355233e-04
8.784079383699175706e-04
9.868487340888609013e-04
1.093161440557510007e-03
1.196702316296254171e-03
1.296855216675109031e-03
1.393036875236885628e-03
1.484701827044371952e-03
1.571346800657400563e-03
1.652514589915496769e-03
1.727797376561949474e-03
1.796839381984149551e-03
1.859338927360127802e-03
1.915049859695585385e-03
1.963782277139496102e-03
2.005402690895542912e-03
2.039833444693820840e-03
2.067051628869207448e-03
2.087087336258856320e-03
2.100021412818160391e-03
2.105982640114089938e-03
2.105144489583590014e-03
2.097721500438254078e-03
2.083965255934466018e-03
2.064160135781818728e-03
2.038618833379796883e-03
2.007677705358157112e-03
1.971692117695647648e-03
1.931031685772903678e-03
1.886075613450985617e-03
1.837208208731278903e-03
1.784814532738596311e-03
1.729276292520899941e-03
1.670968041298030423e-03
1.610253683980322975e-03
1.547483415462658522e-03
1.482991064409959481e-03
1.417091837091399549e-03
1.350080557408992257e-03
1.282230334683468094e-03
1.213791715029154247e-03
1.144992306411452042e-03
1.076036830679940898e-03
1.007107635391898308e-03
9.383655598732374304e-04
8.699511837567914596e-04
8.019864122411708620e-04
7.345763469164856866e-04
6.678113732622397271e-04
6.017694452573877544e-04
5.365185090552254243e-04
4.721190289047757734e-04
4.086264628328338403e-04
3.460937828529333658e-04
2.845738957277990492e-04
2.241219301386833103e-04
1.647973578863611455e-04
1.066659368945838284e-04
4.980134111966903759e-05
-5.713446393628592735e-06
-5.978507852108690801e-05
-1.123090431513828829e-04
-1.631692507891859770e-04
-2.122379951669565664e-04
-2.593761762439838353e-04
-3.044339423602233333e-04
-3.472515750007629048e-04
-3.876607382780633700e-04
-4.254859766834406896e-04
-4.605465013771376610e-04
-4.926581624502632956e-04
-5.216356159723251236e-04
-5.472946474097696015e-04
-5.694545542412081038e-04
-5.879406503601888921e-04
-6.025867472044374364e-04
-6.132376375541255791e-04
-6.197515609152357908e-04
-6.220024231982043163e-04
-6.198819893511410203e-04
-6.133018808005929589e-04
-6.021953292463064645e-04
-5.865187239480441558e-04
-5.662529844962800162e-04
-5.414045648945544145e-04
-5.120062147168299993e-04
-4.781174212637506792e-04
-4.398245847134849961e-04
-3.972408810786302868e-04
-3.505058750132930296e-04
-2.997848639694424716e-04
-2.452679708152154031e-04
-1.871689486018916792e-04
-1.257238287136372933e-04
-6.118938446704348785e-05
6.158613426854059081e-06
7.602721823516040735e-05
1.481082482353769279e-04
2.220802967654425032e-04
2.976108076742870075e-04
3.743581582225113014e-04
4.519737423333791107e-04
5.301040253223046833e-04
6.083925526011375092e-04
6.864818704075428780e-04
7.640154241297213026e-04
8.406392981705813373e-04
9.160038874043937608e-04
9.897654313813608433e-04
1.061587522353792286e-03
1.131142478868506825e-03
1.198112611032930942e-03
1.262191398791445143e-03
1.323084575276498509e-03
1.380511176807531571e-03
1.434204534021782211e-03
1.483913200301092018e-03
1.529401901004290385e-03
1.570452457089029129e-03
1.606864645379926316e-03
1.638457200984181185e-03
1.665068716303157864e-03
1.686558635754199830e-03
1.702808300966727551e-03
1.713721942216518430e-03
1.719227764849532054e-03
1.719279063930688857e-03
1.713855310149298844e-03
1.702963283702928600e-03
1.686638128060272742e-03
1.664944425655550970e-03
1.637977164353541506e-03
1.605862615994756290e-03
1.568759099639767873e-03
1.526857598518368067e-03
1.480382173062600847e-03
1.429590163429162895e-03
1.374772132442117836e-03
1.316251563490619452e-03
1.254384213939539793e-03
1.189557140362589548e-03
1.122187377437149428e-03
1.052720241477992161e-03
9.816271929645695605e-04
9.094033982771580326e-04
8.365648282437260263e-04
7.636449623075281055e-04
6.911911734295419574e-04
6.197606674384580332e-04
5.499161439448185329e-04
4.822211165804360768e-04
4.172350151325445356e-04
3.555080425641209954e-04
2.975758979179242143e-04
2.439543668987352728e-04
1.951339001691881892e-04
1.515742118158890973e-04
1.136989953264151812e-04
8.189077631476567606e-05
5.648606431207241923e-05
3.777082759830327556e-05
2.597633248962424234e-05
2.127544296306726007e-05
2.377950119471303468e-05
3.353577931574120173e-05
5.052557245082584545e-05
7.466300874290337380e-05
1.057945672486757086e-04
1.436994233089114231e-04
1.880905192871616075e-04
2.386164376605724225e-04
2.948641046141053435e-04
3.563622393587519903e-04
4.225855942447492809e-04
4.929598944761671335e-04
5.668674424125986133e-04
6.436533378709982135e-04
7.226322278892258980e-04
8.030955533954412147e-04
8.843191502184892874e-04
9.655710755765098147e-04
1.046119695490041945e-03
1.125241812210820000e-03
1.202230695636553881e-03
1.276404022523539320e-03
1.347111595528310054e-03
1.413742631324994619e-03
1.475732557721971903e-03
1.532569259116090465e-03
1.583798648409158807e-03
1.629029519668863434e-03
1.667937500700883728e-03
1.700268180731793685e-03
1.725839240978625788e-03
1.744541647646566645e-03
1.756339820721624550e-03
1.761270796984794676e-03
1.759442408337749848e-03
1.751030417833994391e-03
1.736274785880555617e-03
1.715474987850920240e-03
1.688984566390758875e-03
1.657204906327391621e-03
1.620578368361800170e-03
1.579580879505418280e-03
1.534714113274924987e-03
1.486497364524792331e-03
1.435459201339400271e-03
1.382129139705405184e-03
1.327029378158554786e-03
1.270666727644047386e-03
1.213524950052883265e-03
1.156057537364151488e-03
1.098681127373550732e-03
1.041769630309563339e-03
9.856491500611574107e-04
9.305938507375777820e-04
8.768227508889766229e-04
8.244975881745039920e-04
7.737217760051858916e-04
7.245404472158827871e-04
6.769416489928216374e-04
6.308586002086372232e-04
5.861730316130271375e-04
5.427195201545252385e-04
5.002908347939143564e-04
4.586441426061440923e-04
4.175079343011083889e-04
3.765895973066550736e-04
3.355835642824459941e-04
2.941798065001926827e-04
2.520725930817837115e-04
2.089692923588823946e-04
1.645991409748718594e-04
1.187217464463248665e-04
7.113522190182898616e-05
2.168370348869244897e-05
-2.973575281571248051e-05
-8.316716821963106721e-05
-1.385905008284064291e-04
-1.959177313477023299e-04
-2.549900143771684788e-04
-3.155761487473566921e-04
-3.773722842674286657e-04
-4.400030341013972247e-04
-5.030239320425843996e-04
-5.659252657051002831e-04
-6.281372075932485470e-04
-6.890362404289498283e-04
-7.479527997867345315e-04
-8.041799865877904399e-04
-8.569833337290982478e-04
-9.056113486775981469e-04
-9.493067929909518960e-04
-9.873185055781605497e-04
-1.018913561048484994e-03
-1.043389565522420161e-03
-1.060086952209341338e-03
-1.068401056515947377e-03
-1.067793738094626257e-03
-1.057804351956931994e-03
-1.038059926180367673e-03
-1.008284304538591093e-03
-9.683061591559244917e-04
-9.180656441804838303e-04
-8.576195817880783280e-04
-7.871450468281322461e-04
-7.069413364530014116e-04
-6.174301633774940175e-04
-5.191540481078261776e-04
-4.127729723528635888e-04
-2.990592284931057406e-04
-1.788904328015496073e-04
-5.324098027811784649e-05
7.682810869093688333e-05
2.101807835537482759e-04
3.456188321019724595e-04
4.818959579315370244e-04
6.177327377900461393e-04
7.518323249633062852e-04
8.828966717009400795e-04
1.009642989716344301e-03
1.130820280473957256e-03
1.245225629929828763e-03
1.351720058067626927e-03
1.449243663362695302e-03
1.536829835638017089e-03
1.613618309933303888e-03
1.678866882372057143e-03
1.731961528695505521e-03
1.772424846144617355e-03
1.799922619475866244e-03
1.814268391285008041e-03
1.815426033528711467e-03
1.803510164689980325e-03
1.778784454673774593e-03
1.741657751615570534e-03
1.692678192153832103e-03
1.632525277225462543e-03
1.562000066355881314e-03
1.482013571814429264e-03
1.393573587306668957e-03
1.297770105431388186e-03
1.195759566038445514e-03
1.088748077892797957e-03
9.779740133044503674e-04
8.646900819931966188e-04
7.501452749011110113e-04
6.355668867529982394e-04
5.221429393662700615e-04
4.110052517071108150e-04
3.032133690980925696e-04
1.997397420241443788e-04
1.014562006894403255e-04
9.122103053434584059e-06
-7.662574867785233116e-05
-1.552812847393669922e-04
-2.264751926688283090e-04
-2.899788265017322689e-04
-3.457058760139285225e-04
-3.937117140004559664e-04
-4.341905584546608670e-04
-4.674703906140359033e-04
-4.940057317641677586e-04
-5.143683935667914264e-04
-5.292363622663969879e-04
-5.393809958122845229e-04
-5.456527133773086003e-04
-5.489653741830317814e-04
-5.502797178142319716e-04
-5.505859499412883110e-04
-5.508859144862678341e-04
-5.521750099105192551e-04
-5.554242556623200907e-04
-5.615626948678001688e-04
-5.714604270714458960e-04
-5.859126254457404023e-04
-6.056246922886470091e-04
-6.311988360486628325e-04
-6.631222871617876600e-04
-7.017573569823230524e-04
-7.473334583547642813e-04
-7.999412297490993877e-04
-8.595288743639963817e-04
-9.259007686930584334e-04
-9.987183467374692505e-04
-1.077503282956089820e-03
-1.161642916180584580e-03
-1.250397779052167058e-03
-1.342911184634906991e-03
-1.438220676513589109e-03
-1.535271179609975925e-03
-1.632929677206503959e-03
-1.730001165046165862e-03
-1.825245571618458809e-03
-1.917395483888611378e-03
-2.005174354569680233e-03
-2.087314886439112054e-03
-2.162577375416585568e-03
-2.229767706461683544e-03
-2.287754697789883516e-03
-2.335486548134747126e-03
-2.372006136818144342e-03
-2.396465019194453285e-03
-2.408135839806691252e-03
-2.406422964593507140e-03
-2.390871232094815731e-03
-2.361172661112847116e-03
-2.317171116507584644e-03
-2.258864719647905254e-03
-2.186406169160273142e-03
-2.100100862217731817e-03
-2.000402882398891451e-03
-1.887908950855317868e-03
-1.763350422478412614e-03
-1.627583551506373060e-03
-1.481578041784223755e-03
-1.326404177813868008e-03
-1.163218716550091765e-03
-9.932497934137156717e-04
-8.177810084753796413e-04
-6.381348976899116083e-04
-4.556562008141092405e-04
-2.716950482753764467e-04
-8.759033742816142796e-05
9.534643925591796657e-05
2.758467511577479287e-04
4.526997055529311670e-04
6.247656731339097224e-04
7.909886949680883499e-04
9.504074652752797937e-04
1.102164870672269186e-03
1.245515941163117266e-03
1.379834045074918763e-03
1.504615391256008657e-03
1.619481824785862310e-03
1.724181880945452848e-03
1.818590133861792664e-03
1.902704894575989094e-03
1.976644401790400487e-03
2.040641570351867454e-03
2.095037371056308190e-03
2.140273011831636627e-03
2.176881153335112271e-03
2.205476229317711138e-03
2.226744044190918405e-03
2.241430841685821285e-03
2.250332041027426969e-03
2.254280795753725499e-03
2.254136510213664187e-03
2.250773488669300087e-03
2.245069901511821502e-03
2.237897195762051077e-03
2.230110047841416150e-03
2.222536995657456004e-03
2.215971803719325207e-03
2.211165669346090885e-03
2.208820375178062023e-03
2.209582290667966558e-03
2.214037377291144370e-03
2.222707173133069494e-03
2.236045702472158007e-03
2.254437382987354698e-03
2.278195754466249678e-03
2.307563098141519539e-03
2.342710864793766997e-03
2.383740826740487345e-03
2.430686888048577427e-03
2.483517463130188903e-03
2.542138404802073582e-03
2.606396343487235156e-03
2.676082471710264799e-03
2.750936533511779726e-03
2.830651087119157375e-03
2.914875934449494277e-03
3.003222646760791460e-03
3.095269156376305886e-03
3.190564444492487422e-03
3.288633157154253594e-03
3.388980210949203188e-03
3.491095385479708966e-03
3.594457808356694203e-03
3.698540429634892060e-03
3.802814431949682467e-03
3.906753550697556789e-03
4.009838323864135974e-03
4.111560327674072986e-03
4.211426380211293757e-03
4.308962600989827731e-03
4.403718462076912366e-03
4.495270803287062730e-03
4.583227747721366208e-03
4.667232526577584813e-03
4.746967180794290503e-03
4.822156122468767951e-03
4.892569495138123468e-03
4.958026283738145752e-03
5.018397146468405942e-03
5.073606883278048395e-03
5.123636525180629009e-03
5.168524864931622713e-03
5.208369493818751535e-03
5.243327271433738217e-03
5.273613989803789190e-03
5.299503394719236142e-03
5.321325383526904693e-03
5.339463366421716775e-03
5.354350766122292250e-03
5.366466573243740094e-03
5.376330006346791493e-03
5.384494280444048278e-03
5.391539479991176026e-03
5.398064623843948015e-03
5.404678926507289725e-03
5.411992408491569581e-03
5.420605827429977180e-03
5.431100241551663557e-03
5.444026145997159054e-03
5.459892504502033075e-03
5.479155690485219658e-03
5.502208634017559559e-03
5.529370294744569495e-03
5.560875724405389686e-03
5.596866809821014754e-03
5.637384009443762237e-03
5.682359158479423702e-03
5.731609631481867154e-03
5.784833998833039358e-03
5.841609323108815088e-03
5.901390234588712452e-03
5.963509853119861731e-03
6.027182777087445459e-03
6.091510016463229718e-03
6.155486028228250410e-03
6.218007758502732199e-03
6.277885717907487340e-03
6.333856919411379183e-03
6.384599637284193649e-03
6.428749778301157992e-03
6.464918650408850095e-03
6.491712030064492739e-03
6.507750103368773256e-03
6.511688105462990622e-03
6.502237315883152222e-03
6.478186108865387552e-03
6.438420656123418004e-03
6.381945038915332741e-03
6.307900292221099714e-03
6.215582176588718352e-03
6.104457190225746378e-03
5.974176660863295824e-03
5.824588479267284180e-03
5.655746313611324967e-03
5.467915978798891172e-03
5.261578808036519034e-03
5.037431928006662167e-03
4.796385170949113604e-03
4.539554732163756171e-03
4.268253532919786923e-03
3.983978298966088863e-03
3.688393416687331654e-03
3.383311842115692240e-03
3.070673221548398443e-03
2.752519524763295897e-03
2.430968424589074334e-03
2.108184861286693801e-03
1.786351103905340753e-03
1.467635824569696931e-03
1.154162549012913500e-03
8.479780537106575491e-04
5.510211004400445822e-04
2.650920842835927755e-04
-8.176031195940678287e-06
-2.673449503074293537e-04
-5.111960709054602170e-04
-7.387527501280158728e-04
-9.492996002101346514e-04
-1.142398314588219605e-03
-1.317899896575385529e-03
-1.475952980800194743e-03
-1.617008079234464116e-03
-1.741817590448146644e-03
-1.851431631323939260e-03
-1.947189622253413721e-03
-2.030707824224417535e-03
-2.103862837509235754e-03
-2.168771407113767938e-03
-2.227766803451841030e-03
-2.283372007623750682e-03
-2.338270209205306656e-03
-2.395272971997766068e-03
-2.457286581632338578e-03
-2.527276953215675838e-03
-2.608233774922881238e-03
-2.703134290870070049e-03
-2.814907319172174540e-03
-2.946397935547407244e-03
-3.100333458749378150e-03
-3.279291054539646821e-03
-3.485667501416595763e-03
-3.721651434907125803e-03
-3.989198568101532186e-03
-4.290010063007877045e-03
-4.625514291653415669e-03
-4.996852236218980552e-03
-5.404866568844808421e-03
-5.850094487374938278e-03
-6.332764370929590270e-03
-6.852796055906145573e-03
-7.409804636645310992e-03
-8.003107592216505625e-03
-8.631734984434471722e-03
-9.294442470162356945e-03
-9.989726778894465406e-03
-1.071584315029603003e-02
-1.147082455801129094e-02
-1.225250221909909322e-02
-1.305852693849769361e-02
-1.388639092910042352e-02
-1.473344974020338732e-02
-1.559694384222039786e-02
-1.647401956638077508e-02
-1.736174918205667453e-02
-1.825714967200526770e-02
-1.915720011661959862e-02
-2.005885749122437653e-02
-2.095907076528792656e-02
-2.185479321823484769e-02
-2.274299305892304307e-02
-2.362066232479998959e-02
-2.448482420901729531e-02
-2.533253896195634264e-02
-2.616090865596597953e-02
-2.696708091747343841e-02
-2.774825199848245105e-02
-2.850166945696566353e-02
-2.922463481074382557e-02
-2.991450632930299849e-02
-3.056870243230647849e-02
-3.118470592470764038e-02
-3.176006936171894141e-02
-3.229242176019291033e-02
-3.277947682600123452e-02
-3.321904281981776647e-02
-3.360903427916124564e-02
-3.394748551622578381e-02
-3.423256590304830232e-02
-3.446259675099032360e-02
-3.463606972534639256e-02
-3.475166647416458310e-02
-3.480827923145998065e-02
-3.480503197902645729e-02
-3.474130173290006229e-02
-3.461673952888121020e-02
-3.443129063052923627e-02
-3.418521336444539649e-02
-3.387909611156188910e-02
-3.351387176407415874e-02
-3.309082933706428836e-02
-3.261162197208072877e-02
-3.207827104146720315e-02
-3.149316578727071742e-02
-3.085905825901265678e-02
-3.017905319160312655e-02
-2.945659248543563632e-02
-2.869543443142855838e-02
-2.789962746131387575e-02
-2.707347856008746403e-02
-2.622151663432043325e-02
-2.534845101375777024e-02
-2.445912557083621680e-02
-2.355846900979931616e-02
-2.265144193996192212e-02
-2.174298141001059989e-02
-2.083794379260029903e-02
-1.994104677623112845e-02
-1.905681160456161941e-02
-1.818950633338889747e-02
-1.734309119265297142e-02
-1.652116703978253123e-02
-1.572692788717003701e-02
-1.496311844366370047e-02
-1.423199758687837720e-02
-1.353530855872484527e-02
-1.287425659712522659e-02
-1.224949464618807146e-02
-1.166111754555683271e-02
-1.110866518548568431e-02
-1.059113464597991917e-02
-1.010700144564944877e-02
-9.654249766862740140e-03
-9.230411264680006209e-03
-8.832612093159690134e-03
-8.457627316847139351e-03
-8.101942102912474547e-03
-7.761818631690081509e-03
-7.433367603642799561e-03
-7.112623216626729784e-03
-6.795620333417770435e-03
-6.478472317904852493e-03
-6.157448191256250682e-03
-5.829047691081121543e-03
-5.490072791177709639e-03
-5.137694178544410968e-03
-4.769511318343318436e-03
-4.383604992999344356e-03
-3.978581006219125173e-03
-3.553604125194934852e-03
-3.108421324561345782e-03
-2.643373743401816311e-03
-2.159396820966548274e-03
-1.658008446076140096e-03
-1.141285035601950770e-03
-6.118257524261336375e-04
-7.270537318468802909e-05
4.725836262251856376e-04
1.020198734803320559e-03
1.566023765482011483e-03
2.105752664801180916e-03
2.634979133185195478e-03
3.149290482197901735e-03
3.644364009760095707e-03
4.116063957360207269e-03
4.560537188577245757e-03
4.974305670401259725e-03
5.354353822199399773e-03
5.698208795641777902e-03
6.004012014731943507e-03
6.270580248779847841e-03
6.497454830999197135e-03
6.684937682603718512e-03
6.834113123274140195e-03
6.946854629003743758e-03
7.025816061250605114e-03
7.074407137900745081e-03
7.096753191001546092e-03
7.097639602012599698e-03
7.082441710201806302e-03
7.057041089350796735e-03
7.027729561439345456e-03
7.001102449073910369e-03
6.983942946352341904e-03
6.983099688210965203e-03
7.005359652992000814e-03
7.057318832018797533e-03
7.145253217118328372e-03
7.274992478595388237e-03
7.451799096414674257e-03
7.680255254306084418e-03
7.964160073183828431e-03
8.306439314616892097e-03
8.709069764922082110e-03
9.173020067288952667e-03
9.698209675982056091e-03
1.028348718493268116e-02
1.092662879073019906e-02
1.162435763439147868e-02
1.237238407569058070e-02
1.316546661136562546e-02
1.399749287337147090e-02
1.486157956586482178e-02
1.575018983367182032e-02
1.665526634864280403e-02
1.756837776858191993e-02
1.848087613503877555e-02
1.938406241389870749e-02
2.026935713832833663e-02
2.112847291668372082e-02
2.195358558949307010e-02
2.273750058556855622e-02
2.347381118515996790e-02
2.415704537293366858e-02
2.478279815340876310e-02
2.534784635668336367e-02
2.585024330673245385e-02
2.628939097165903724e-02
2.666608763838497834e-02
2.698254961736166330e-02
2.724240585156002120e-02
2.745066484753859101e-02
2.761365387699572446e-02
2.773893098978589405e-02
2.783517075309779182e-02
2.791202533853917589e-02
2.797996304675708437e-02
2.805008675626363343e-02
2.813393531173968495e-02
2.824327129578664206e-02
2.838985889585422459e-02
2.858523592476481384e-02
2.884048421479347424e-02
2.916600285374225041e-02
2.957128853593972082e-02
3.006472757919741515e-02
3.065340383435284297e-02
3.134292656244486858e-02
3.213728210537911134e-02
3.303871276910336219e-02
3.404762593505370610e-02
3.516253592747321105e-02
3.638004048547249791e-02
3.769483313909886835e-02
3.909975224529936566e-02
4.058586659027182270e-02
4.214259681229443749e-02
4.375787126146066242e-02
4.541831410909913380e-02
4.710946296610313277e-02
4.881601256894713137e-02
5.052208056256766305e-02
5.221149085508187959e-02
5.386806960210901302e-02
5.547594850626962754e-02
5.701986989811546475e-02
5.848548782678725244e-02
5.985965945228578083e-02
6.113072090176979723e-02
6.228874218644195326e-02
6.332575574707491328e-02
6.423595379142869877e-02
6.501584999124636333e-02
6.566440179957659662e-02
6.618308999855936070e-02
6.657595331802501626e-02
6.684957635300156631e-02
6.701303005845689331e-02
6.707776492879438668e-02
6.705745800277175539e-02
6.696781554484583510e-02
6.682633437291871092e-02
6.665202547084955742e-02
6.646510441399827718e-02
6.628665396504418439e-02
6.613826466039587904e-02
6.604166002604461294e-02
6.601831325756950253e-02
6.608906270498618452e-02
6.627373362868756168e-02
6.659077369540336577e-02
6.705690985183729302e-02
6.768683360848669339e-02
6.849292166227871625e-02
6.948499818724830634e-02
7.067014444826100195e-02
7.205256070700152837e-02
7.363348430617468188e-02
7.541116706372594236e-02
7.738091384108022885e-02
7.953518309090978899e-02
8.186374896010517599e-02
8.435392333186678138e-02
8.699083496929735371e-02
8.975776169717628039e-02
9.263651034601376455e-02
9.560783816813850367e-02
9.865190838624524061e-02
1.017487716622645644e-01
1.048788643440966006e-01
1.080235139281765649e-01
1.111654415733861478e-01
1.142892512346132816e-01
1.173818948691436742e-01
1.204331031895463644e-01
1.234357718308525947e-01
1.263862932219352031e-01
1.292848249832578844e-01
1.321354866503373082e-01
1.349464776319213022e-01
1.377301103038902352e-01
1.405027536503756225e-01
1.432846841439933683e-01
1.460998422881622238e-01
1.489754948186879924e-01
1.519418043478368840e-01
1.550313097667951612e-01
1.582783227415149041e-01
1.617182470741318767e-01
1.653868294407773165e-01
1.693193514570654201e-01
1.735497746775990779e-01
1.781098509596562574e-01
1.830282123220818291e-01
1.883294546596891716e-01
1.940332307517984578e-01
2.001533683092219240e-01
2.066970289908635072e-01
2.136639242533267258e-01
2.210456036031108185e-01
2.288248299937503949e-01
2.369750566174010087e-01
2.454600177868173361e-01
2.542334456312571600e-01
2.632389225299379687e-01
2.724098773984151567e-01
2.816697320742697630e-01
2.909322019187589592e-01
3.001017523698896183e-01
3.090742110222396422e-01
3.177375324268912893e-01
3.259727102609383809e-01
3.336548292395126736e-01
3.406542468231445464e-01
3.468378926307471577e-01
3.520706712230440849e-01
3.562169522462795834e-01
3.591421299662471700e-01
3.607142329511429102e-01
3.608055633565946385e-01
3.592943445043603745e-01
3.560663545695379462e-01
3.510165241326651531e-01
3.440504751574239295e-01
3.350859796191598683e-01
3.240543162776866604e-01
3.109015055580862108e-01
2.955894035347049753e-01
2.780966377181655069e-01
2.584193692695472833e-01
2.365718683443493175e-01
2.125868917501713140e-01
1.865158546307625065e-01
1.584287905612886960e-01
1.284140973206653602e-01
9.657806838343693800e-02
6.304421331871316869e-02
2.795237290363607879e-02
-8.542362146564275865e-03
-4.627091737892327639e-02
-8.505167151407623527e-02
-1.246920476323584714e-01
-1.649902397863712844e-01
-2.057370544545442936e-01
-2.467178446000987957e-01
-2.877145125639469780e-01
-3.285075572802965693e-01
-3.688781404161474153e-01
-4.086101459453636564e-01
-4.474922075463227955e-01
-4.853196788223008151e-01
-5.218965220316789111e-01
-5.570370921326786018e-01
-5.905677944410134828e-01
-6.223285960379519866e-01
-6.521743729868730854e-01
-6.799760778097985181e-01
-7.056217140711588121e-01
-7.290171078127134496e-01
-7.500864681504554321e-01
-7.687727324418333064e-01
-7.850376943538044383e-01
-7.988619160427941068e-01
-8.102444286956482777e-01
-8.192022284279214528e-01
-8.257695773408222362e-01
-8.299971219450619220e-01
-8.319508437565746872e-01
-8.317108586310051344e-01
-8.293700835661284021e-01
-8.250327910624494221e-01
-8.188130724254032433e-01
-8.108332322808482484e-01
-8.012221372611175729e-01
-7.901135418381058928e-01
-7.776444143375184082e-01
-7.639532856405326644e-01
-7.491786423149996432e-01
-7.334573848559092779e-01
-7.169233702159343302e-01
-6.997060564007081540e-01
-6.819292647688449671e-01
-6.637100737366048442e-01
-6.451578553613290801e-01
-6.263734636969996439e-01
-6.074485816727216436e-01
-5.884652304146543722e-01
-5.694954425404460396e-01
-5.506010984928045859e-01
-5.318339223779304792e-01
-5.132356316136731378e-01
-4.948382324327850190e-01
-4.766644511290606956e-01
-4.587282893272739415e-01
-4.410356898827479943e-01
-4.235852986151067423e-01
-4.063693060708824523e-01
-3.893743526304777047e-01
-3.725824798120399017e-01
-3.559721103535656295e-01
-3.395190396917707187e-01
-3.231974218768886575e-01
-3.069807334773538288e-01
-2.908426998283705212e-01
-2.747581692357501937e-01
-2.587039218206073632e-01
-2.426594013493912627e-01
-2.266073599664536753e-01
-2.105344074419795430e-01
-1.944314585228052727e-01
-1.782940738451075369e-01
-1.621226917399463119e-01
-1.459227502997891834e-01
-1.297047009941957041e-01
-1.134839168882604693e-01
-9.728050026904909442e-02
-8.111899603736526243e-02
-6.502801886475498283e-02
-4.903980330728865272e-02
-3.318968702084876266e-02
-1.751553844446258543e-02
-2.057140636294192085e-03
1.314445623336539699e-02
2.804760134689191636e-02
4.261071598453590459e-02
5.679296017223674220e-02
7.055488131884642133e-02
8.385903345924475283e-02
9.667055662592770326e-02
1.089577067158341017e-01
1.206923273558880849e-01
1.318502566308672463e-01
1.424116626514297379e-01
1.523613035310157626e-01
1.616887085621020181e-01
1.703882791753245918e-01
1.784593094132216895e-01
1.859059272131675378e-01
1.927369592699091361e-01
1.989657232435903811e-01
2.046097526086860519e-01
2.096904602896720315e-01
2.142327481855413607e-01
2.182645706509346584e-01
2.218164603973167281e-01
2.249210258621756886e-01
2.276124293980989755e-01
2.299258557055915420e-01
2.318969798505536584e-01
2.335614440561261385e-01
2.349543521205659236e-01
2.361097896043050370e-01
2.370603774241419048e-01
2.378368656144274618e-01
2.384677733529720345e-01
2.389790800505110224e-01
2.393939713835205318e-01
2.397326432433399546e-01
2.400121652613312617e-01
2.402464045206083587e-01
2.404460090111255333e-01
2.406184492385531892e-01
2.407681155107894988e-01
2.408964673589714667e-01
2.410022307484396276e-01
2.410816380565472816e-01
2.411287050339734062e-01
2.411355385262185236e-01
2.410926683771719148e-01
2.409893965468446753e-01
2.408141563959518561e-01
2.405548751907011507e-01
2.401993328836142527e-01
2.397355105221078420e-01
2.391519220402117119e-01
2.384379235722506041e-01
2.375839951908422787e-01
2.365819904321030953e-01
2.354253496815357227e-01
2.341092745073452275e-01
2.326308605606691171e-01
2.309891877224972134e-01
2.291853668008644318e-01
2.272225431377511984e-01
2.251058580971757039e-01
2.228423703804379152e-01
2.204409395912668435e-01
2.179120752644179981e-01
2.152677552289899432e-01
2.125212174638564377e-01
2.096867301046750620e-01
2.067793445902126048e-01
2.038146371165780180e-01
2.008084436239918891e-01
1.977765936919789747e-01
1.947346482993171646e-01
1.916976465635959470e-01
1.886798661555898482e-01
1.856946016227417895e-01
1.827539645097581156e-01
