-1.246251993132840331e-02
-1.292030015047612029e-02
-1.333715901666790264e-02
-1.370826100995798172e-02
-1.402920964586445995e-02
-1.429610525161927222e-02
-1.450559385865933526e-02
-1.465490648855034828e-02
-1.474188832941299501e-02
-1.476501741496227642e-02
-1.472341271082749925e-02
-1.461683155976448850e-02
-1.444565684897273009e-02
-1.421087418497335962e-02
-1.391403966397798675e-02
-1.355723903719655878e-02
-1.314303908482731577e-02
-1.267443221425003548e-02
-1.215477553374570696e-02
-1.158772537466004962e-02
-1.097716863837904303e-02
-1.032715231858111898e-02
-9.641812404403886719e-03
-8.925303539114548892e-03
-8.181730616287945929e-03
-7.415083504098463757e-03
-6.629176216276927436e-03
-5.827591353385946395e-03
-5.013630740353728667e-03
-4.190273113406350718e-03
-3.360139515663695606e-03
-2.525466759317325244e-03
-1.688089295615299206e-03
-8.494297394733028644e-04
-1.049794863405598372e-05
8.281014619285897039e-04
1.666153496510908855e-03
2.503809667457448321e-03
3.341557831421596274e-03
4.180185837332690488e-03
5.020739719141686062e-03
5.864477432712401385e-03
6.712819163271636740e-03
7.567295243856909416e-03
8.429492802058867473e-03
9.301002168821541002e-03
1.018336412093875411e-02
1.107801910928686920e-02
1.198625942170792984e-02
1.290918516869047836e-02
1.384766491770826093e-02
1.480230182365016058e-02
1.577340583501585930e-02
1.676097236960454040e-02
1.776466795554427699e-02
1.878382296284329678e-02
1.981743155296101372e-02
2.086415882481396436e-02
2.192235481237820097e-02
2.299007513872700081e-02
2.406510785882486764e-02
2.514500583191263058e-02
2.622712399086492285e-02
2.730866072082846832e-02
2.838670248455552395e-02
2.945827090868236714e-02
3.052037124026759154e-02
3.157004124889014468e-02
3.260439967760494356e-02
3.362069323601682425e-02
3.461634124868129964e-02
3.558897705570140263e-02
3.653648539986006222e-02
3.745703513689240677e-02
3.834910654040193240e-02
3.921151270497413854e-02
4.004341470615372517e-02
4.084433021809619896e-02
4.161413539702047554e-02
4.235306001474739568e-02
4.306167595844875851e-02
4.374087937618007654e-02
4.439186666274446552e-02
4.501610486372991521e-02
4.561529700518063973e-02
4.619134300196009457e-02
4.674629689091708978e-02
4.728232117431552944e-02
4.780163910894921764e-02
4.830648584654420596e-02
4.879905929101430173e-02
4.928147162959059524e-02
4.975570230262630483e-02
5.022355341270388907e-02
5.068660826659695390e-02
5.114619384368580823e-02
5.160334786395200796e-02
5.205879108982261472e-02
5.251290522706596187e-02
5.296571692029003464e-02
5.341688810551816630e-02
5.386571283767235124e-02
5.431112073138123081e-02
5.475168682599044351e-02
5.518564780869782138e-02
5.561092422335985053e-02
5.602514832071306405e-02
5.642569704981192230e-02
5.680972952934154607e-02
5.717422846822554916e-02
5.751604471139091374e-02
5.783194426032463309e-02
5.811865679946366658e-02
5.837292508087752602e-02
5.859155416963478941e-02
5.877145982321154566e-02
5.890971514946787002e-02
5.900359480552435504e-02
5.905061594871818115e-02
5.904857538135752093e-02
5.899558216943111277e-02
5.889008536887191392e-02
5.873089632168251167e-02
5.851720521357588883e-02
5.824859175976789677e-02
5.792502980097011950e-02
5.754688577939953698e-02
5.711491124817702492e-02
5.663022961781875864e-02
5.609431726863067097e-02
5.550897957016261153e-02
5.487632219166344028e-02
5.419871822587679633e-02
5.347877173127209283e-02
5.271927836061413020e-02
5.192318369748501888e-02
5.109354004736750554e-02
5.023346241390633932e-02
4.934608439743874003e-02
4.843451482454078777e-02
4.750179560884339874e-02
4.655086168878008052e-02
4.558450358944032138e-02
4.460533324757510326e-02
4.361575354604794313e-02
4.261793199100366580e-02
4.161377888949270576e-02
4.060493038077939848e-02
3.959273643130918618e-02
3.857825392850215002e-02
3.756224488981806109e-02
3.654517970952304851e-02
3.552724530134816761e-02
3.450835780301671207e-02
3.348817973684146271e-02
3.246614106631601215e-02
3.144146373759496016e-02
3.041318925517156116e-02
2.938020875509040480e-02
2.834129496097251635e-02
2.729513555204252789e-02
2.624036719857992389e-02
2.517560969054790168e-02
2.409949962496806333e-02
2.301072303362787161e-02
2.190804648094536039e-02
2.079034604693882904e-02
1.965663373730835647e-02
1.850608097287393880e-02
1.733803875512919535e-02
1.615205429777669122e-02
1.494788383154468762e-02
1.372550152975427623e-02
1.248510442439692766e-02
1.122711333789351389e-02
9.952169895137452302e-03
8.661129789049256539e-03
7.355052480537928837e-03
6.035187676183216207e-03
4.702958749856166881e-03
3.359943633470417398e-03
2.007853504124238429e-03
6.485097290337064717e-04
-7.161804504817606901e-04
-2.084249036088025621e-03
-3.453692733268886976e-03
-4.822498152455448155e-03
-6.188666462334849010e-03
-7.550236954816767418e-03
-8.905309102132564700e-03
-1.025206270073721580e-02
-1.158877584137890313e-02
-1.291384033422759287e-02
-1.422577437836799498e-02
-1.552323228455890214e-02
-1.680501113446052769e-02
-1.807005430467290008e-02
-1.931745189646595987e-02
-2.054643808656740969e-02
-2.175638543187693660e-02
-2.294679646816995613e-02
-2.411729277867130303e-02
-2.526760171144855349e-02
-2.639754118841374647e-02
-2.750700288551055986e-02
-2.859593416452591366e-02
-2.966431916784672759e-02
-3.071215952523513593e-02
-3.173945510427814143e-02
-3.274618513353858007e-02
-3.373229022616164308e-02
-3.469765565974831240e-02
-3.564209632431940972e-02
-3.656534355584840218e-02
-3.746703430222821790e-02
-3.834670285017557911e-02
-3.920377530754734496e-02
-4.003756698552696919e-02
-4.084728283667104359e-02
-4.163202099344386065e-02
-4.239077939279613239e-02
-4.312246538624794207e-02
-4.382590831769603290e-02
-4.449987476568042361e-02
-4.514308628721077493e-02
-4.575423943415925926e-02
-4.633202763018332698e-02
-4.687516459112025385e-02
-4.738240887056263673e-02
-4.785258917262744105e-02
-4.828462987159026082e-02
-4.867757642869954826e-02
-4.903062013795009971e-02
-4.934312180246541724e-02
-4.961463383397745480e-02
-4.984492049072729303e-02
-5.003397567338505048e-02
-5.018203803385866413e-02
-5.028960302232425572e-02
-5.035743153422977264e-02
-5.038655509474152666e-02
-5.037827720670125242e-02
-5.033417078759287039e-02
-5.025607171018491720e-02
-5.014606835419811032e-02
-5.000648726439201053e-02
-4.983987503422030590e-02
-4.964897651223157404e-02
-4.943670973372549932e-02
-4.920613773522222734e-02
-4.896043759614252672e-02
-4.870286719511145168e-02
-4.843672993087834444e-02
-4.816533805848311617e-02
-4.789197505096669943e-02
-4.761985748016590858e-02
-4.735209692150901123e-02
-4.709166246785659315e-02
-4.684134433616053694e-02
-4.660371914595506232e-02
-4.638111724345236886e-02
-4.617559261462157727e-02
-4.598889586109500965e-02
-4.582245060346119142e-02
-4.567733363378780054e-02
-4.555425910128178824e-02
-4.545356709182080124e-02
-4.537521677467186432e-02
-4.531878408596127367e-02
-4.528346416491840776e-02
-4.526807849708428672e-02
-4.527108677472902604e-02
-4.529060317776968658e-02
-4.532441698951068104e-02
-4.537001736496418247e-02
-4.542462186870202534e-02
-4.548520835853043370e-02
-4.554854993347583203e-02
-4.561125240179769724e-02
-4.566979386547878605e-02
-4.572056584361234438e-02
-4.575991557113447128e-02
-4.578418864467286714e-02
-4.578977169862576829e-02
-4.577313449201962647e-02
-4.573087085902254045e-02
-4.565973805119193096e-02
-4.555669391484381409e-02
-4.541893152318679516e-02
-4.524391071359218364e-02
-4.502938626192572874e-02
-4.477343231799329332e-02
-4.447446283244058107e-02
-4.413124776131172738e-02
-4.374292484424956162e-02
-4.330900689428506672e-02
-4.282938451087454218e-02
-4.230432428290011732e-02
-4.173446258580071344e-02
-4.112079502744671322e-02
-4.046466186063649162e-02
-3.976772950680181745e-02
-3.903196855218551281e-02
-3.825962860688367217e-02
-3.745321032086913748e-02
-3.661543499922952777e-02
-3.574921235098551392e-02
-3.485760675853838420e-02
-3.394380258549170581e-02
-3.301106906246850659e-02
-3.206272509609562477e-02
-3.110210459116581269e-02
-3.013252277324780445e-02
-2.915724385112071493e-02
-2.817945053370289263e-02
-2.720221575956848631e-02
-2.622847695645943653e-02
-2.526101309451232388e-02
-2.430242490039891470e-02
-2.335511828635609965e-02
-2.242129118554101255e-02
-2.150292399901056542e-02
-2.060177358920638885e-02
-1.971937069231994438e-02
-1.885702086056779969e-02
-1.801580874358521892e-02
-1.719660544882078285e-02
-1.640007883943464181e-02
-1.562670643360715081e-02
-1.487679065784964887e-02
-1.415047614304543351e-02
-1.344776854407248208e-02
-1.276855461139627876e-02
-1.211262307901309933e-02
-1.147968597701577546e-02
-1.086939992876143589e-02
-1.028138704077206401e-02
-9.715255024913112269e-03
-9.170616038158387398e-03
-8.647104054371178641e-03
-8.144390365864756509e-03
-7.662196971504516181e-03
-7.200307565094425655e-03
-6.758575932325956194e-03
-6.336931599967406126e-03
-5.935382739137133774e-03
-5.554016073779334366e-03
-5.192993948272491694e-03
-4.852548539385602086e-03
-4.532973448606951103e-03
-4.234612691732280408e-03
-3.957847340426300445e-03
-3.703080076731212616e-03
-3.470717960370684786e-03
-3.261153678673401907e-03
-3.074745680492150298e-03
-2.911797625604084852e-03
-2.772537457575113048e-03
-2.657096558840014913e-03
-2.565489437078694208e-03
-2.497594316441029746e-03
-2.453135066025657982e-03
-2.431664812391981859e-03
-2.432551648172413556e-03
-2.454966839973168977e-03
-2.497875718367143210e-03
-2.560031577583910326e-03
-2.639972855494838143e-03
-2.736023635475852683e-03
-2.846297797658103867e-03
-2.968706668270148195e-03
-3.100970331705763753e-03
-3.240632526071456597e-03
-3.385078983340747503e-03
-3.531559052879717185e-03
-3.677210403450079969e-03
-3.819086552300885763e-03
-3.954186918823927692e-03
-4.079488967505632939e-03
-4.191982095947324218e-03
-4.288702780844155966e-03
-4.366770576078748793e-03
-4.423424392949729632e-03
-4.456058640661502736e-03
-4.462258647359982656e-03
-4.439834856426773391e-03
-4.386855308749005797e-03
-4.301675899247422649e-03
-4.182967944088191413e-03
-4.029742624569570761e-03
-3.841371893510126239e-03
-3.617605480360926249e-03
-3.358583570104548260e-03
-3.064845114902435726e-03
-2.737331383644482467e-03
-2.377384717594112351e-03
-1.986742349418827314e-03
-1.567525233426055997e-03
-1.122222014696417454e-03
-6.536682228522141570e-04
-1.650209163639708855e-04
3.402710917194712195e-04
8.585010267883727477e-04
1.385741564000053704e-03
1.917885491592997245e-03
2.450689230810211474e-03
2.979818576008307421e-03
3.500896207142741631e-03
4.009550266245108172e-03
4.501463579984752751e-03
4.972422849624564926e-03
5.418367122363561446e-03
5.835435076169501190e-03
6.220010312926501327e-03
6.568764345753251056e-03
6.878696563881857122e-03
7.147170668947678066e-03
7.371947124174046267e-03
7.551211227178749284e-03
7.683596338260515954e-03
7.768202146873679978e-03
7.804607385597952737e-03
7.792877203660716033e-03
7.733564828431172683e-03
7.627707479370586692e-03
7.476816687348780167e-03
7.282862981420088616e-03
7.048255223446875384e-03
6.775814792213421395e-03
6.468744830129227741e-03
6.130595054515011397e-03
5.765222412948308763e-03
5.376748222924791244e-03
4.969512181029070788e-03
4.548023770570871864e-03
4.116911772079475881e-03
3.680872407070852250e-03
3.244616693302222570e-03
2.812817808625454798e-03
2.390058901111235569e-03
1.980782160879185350e-03
1.589239592672180967e-03
1.219446188157283706e-03
8.751360019604562026e-04
5.597216250748458365e-04
2.762576233354431250e-04
2.740827051022720704e-05
-1.845800535069055557e-04
-3.579014199645130768e-04
-4.912076339524417724e-04
-5.836200818688586697e-04
-6.347360521219829474e-04
-6.446294028929001104e-04
-6.138456545151998664e-04
-5.433916355814037528e-04
-4.347197492884408328e-04
-2.897070836774295107e-04
-1.106297052106117228e-04
9.986754861612263500e-05
3.388053953586114830e-04
6.029081134213451054e-04
8.886447566203200654e-04
1.192273121714336947e-03
1.509885801577420849e-03
1.837457865559314132e-03
2.170895568950978287e-03
2.506085461286807273e-03
2.838943376174227207e-03
3.165462630028193641e-03
3.481760976856436863e-03
3.784125701091451115e-03
4.069056322606868017e-03
4.333304454171555894e-03
4.573910357750482492e-03
4.788235762240290912e-03
4.973992612205130337e-03
5.129267435551008308e-03
5.252541101273976512e-03
5.342703744130342276e-03
5.399064665846278581e-03
5.421357186800662524e-03
5.409738450635409070e-03
5.364784180941483197e-03
5.287478457631148224e-03
5.179198764380217417e-03
5.041696419380924110e-03
4.877072699107910109e-03
4.687750970562927846e-03
4.476445115891487282e-03
4.246124740501759295e-03
3.999977464847273567e-03
3.741368910794521524e-03
3.473800713324675781e-03
3.200867114021882683e-03
2.926210699290074033e-03
2.653477699047879050e-03
2.386273401607081311e-03
2.128118282161448310e-03
1.882405143123718145e-03
1.652357964875419711e-03
1.440992838477427561e-03
1.251081362061183359e-03
1.085116984508497631e-03
9.452846575858167566e-04
8.334340863201449099e-04
7.510569423702830993e-04
6.992681966707282740e-04
6.787918157271449976e-04
6.899508864982431327e-04
7.326624703282120588e-04
8.064369924105891469e-04
9.103823081325161919e-04
1.043212297709434321e-03
1.203260058322843783e-03
1.388495337449628360e-03
1.596546074912805896e-03
1.824723797634120312e-03
2.070052620312536756e-03
2.329301575676692281e-03
2.599019746522645939e-03
2.875573926570600819e-03
3.155188408758705879e-03
3.433986413681218604e-03
3.708032784369614393e-03
3.973377337804470319e-03
4.226098543745925203e-03
4.462346924983635540e-03
4.678387873170119539e-03
4.870643286726803779e-03
5.035731589384113450e-03
5.170505718980468630e-03
5.272088696192709679e-03
5.337906432137826292e-03
5.365717263803879665e-03
5.353638037240938605e-03
5.300166410161916836e-03
5.204199096479007573e-03
5.065045926626867909e-03
4.882439546906622123e-03
4.656540581117808199e-03
4.387938275754646629e-03
4.077646638344110952e-03
3.727095994658366669e-03
3.338120133510623540e-03
2.912939176398994610e-03
2.454138264061495132e-03
1.964642449625096654e-03
1.447687946885090537e-03
9.067900384160410563e-04
3.457079685883385515e-04
-2.315926555628189832e-04
-8.209797457862653188e-04
-1.418196313905345333e-03
-2.018903403102859095e-03
-2.618723898417657861e-03
-3.213286666807231920e-03
-3.798270583998500892e-03
-4.369448025531815112e-03
-4.922727272307219314e-03
-5.454193382038481988e-03
-5.960147107160040231e-03
-6.437141435957042558e-03
-6.882015363657526842e-03
-7.291924443031688567e-03
-7.664367851555222225e-03
-7.997211661076338365e-03
-8.288708047000390225e-03
-8.537510205930558954e-03
-8.742682872146481654e-03
-8.903708267671993706e-03
-9.020487442454911894e-03
-9.093336983676784599e-03
-9.122981136284088674e-03
-9.110539463727380244e-03
-9.057510099090891262e-03
-8.965748920550641737e-03
-8.837444769311104259e-03
-8.675091058991991205e-03
-8.481454105361850571e-03
-8.259538502174900917e-03
-8.012550023346561023e-03
-7.743856418983609442e-03
-7.456946646190693723e-03
-7.155388945229182625e-03
-6.842788221035019103e-03
-6.522743275863800670e-03
-6.198804510710117024e-03
-5.874432441254386940e-03
-5.552957616652719197e-03
-5.237542380793320032e-03
-4.931144903272300858e-03
-4.636485989845806101e-03
-4.356018996243022669e-03
-4.091903292014255691e-03
-3.845981553146889890e-03
-3.619761177328548966e-03
-3.414399924444051944e-03
-3.230696146453517197e-03
-3.069083584170120491e-03
-2.929630932089953305e-03
-2.812046034129095720e-03
-2.715684659792012585e-03
-2.639563867194417990e-03
-2.582379712294862947e-03
-2.542529053044207017e-03
-2.518135217360751264e-03
-2.507077158777790745e-03
-2.507021797282141685e-03
-2.515459079987369430e-03
-2.529739297167175448e-03
-2.547112190357463547e-03
-2.564767404844677228e-03
-2.579875648485613435e-03
-2.589630086316592212e-03
-2.591287430316236481e-03
-2.582208158507597138e-03
-2.559895329267677759e-03
-2.522031530295893234e-03
-2.466513398489453279e-03
-2.391483257659005480e-03
-2.295357480326033327e-03
-2.176851169415777894e-03
-2.034998771001928202e-03
-1.869170443263914582e-03
-1.679083816894460547e-03
-1.464811035760913002e-03
-1.226781043012562617e-03
-9.657768573759717640e-04
-6.829280254852949364e-04
-3.796983547038590943e-04
-5.786894785127307840e-05
2.804831579210482454e-04
6.330106057147210415e-04
9.971250322590395881e-04
1.370029873822498122e-03
1.748756175534975192e-03
2.130200955569384966e-03
2.511167650366603801e-03
2.888407938851228918e-03
3.258664545394149206e-03
3.618714286313041290e-03
3.965410953439042936e-03
4.295727381280348492e-03
4.606796038540149178e-03
4.895947580047267482e-03
5.160746887985242538e-03
5.399026088668364663e-03
5.608914035778389366e-03
5.788861906392471675e-03
5.937664455284231806e-03
6.054476653159240711e-03
6.138825436059209238e-03
6.190616437704181407e-03
6.210135499412967018e-03
6.198045078425856204e-03
6.155375358547453268e-03
6.083510364228417698e-03
5.984169178911859406e-03
5.859382483343443179e-03
5.711464817902730216e-03
5.542982880387723778e-03
5.356720258443766099e-03
5.155639128980209381e-03
4.942839512100528736e-03
4.721516581089305400e-03
4.494916644687307720e-03
4.266292388653882169e-03
4.038858080806759926e-03
3.815745373143920004e-03
3.599960254394671266e-03
3.394341849631969318e-03
3.201523579216314190e-03
3.023897341103833330e-03
2.863581161512046818e-03
2.722390756857661059e-03
2.601815498056889945e-03
2.502999137244302404e-03
2.426725448951633050e-03
2.373409100962255852e-03
2.343091868707298207e-03
2.335444291408934631e-03
2.349772648690061274e-03
2.385031171512633653e-03
2.439839365564478064e-03
2.512504142917764034e-03
2.601046410114929083e-03
2.703231818645840303e-03
2.816605075812323670e-03
2.938527391985538886e-03
3.066216479945279346e-03
3.196788507410351903e-03
3.327301362394361004e-03
3.454798545252726460e-03
3.576353151652126184e-03
3.689111131704977346e-03
3.790333274252649567e-03
3.877435241500092316e-03
3.948025094641590543e-03
3.999937635219206512e-03
4.031265227299979208e-03
4.040384451222187381e-03
4.025978344538144044e-03
3.987053815201746336e-03
3.922953950937058121e-03
3.833365167482851842e-03
3.718318942141954266e-03
3.578188252217852448e-03
3.413678707967186896e-03
3.225814534640574459e-03
3.015919675864911064e-03
2.785594279788306850e-03
2.536686970297767716e-03
2.271263303795130473e-03
1.991570978962927015e-03
1.700002184517501042e-03
1.399053871471653450e-03
1.091286410287382316e-03
7.792813693513980398e-04
4.655990262796058502e-04
1.527362770853852312e-04
-1.569144407831257336e-04
-4.611045658544245100e-04
-7.577665709386020550e-04
-1.045048287336286736e-03
-1.321343932358212334e-03
-1.585321335743711257e-03
-1.835945020065998627e-03
-2.072494646240901749e-03
-2.294578734797872964e-03
-2.502143444420965382e-03
-2.695476220131619131e-03
-2.875204330489559024e-03
-3.042288291267439618e-03
-3.198010364806714179e-03
-3.343958272102710329e-03
-3.482004409408192159e-03
-3.614280865890152211e-03
-3.743150649058901019e-03
-3.871175493896300730e-03
-4.001080777214839970e-03
-4.135718112126464396e-03
-4.278026066334391850e-03
-4.430989630907687833e-03
-4.597598883724988636e-03
-4.780807653143361209e-03
-4.983492510219872385e-03
-5.208412773032024615e-03
-5.458171880295820122e-03
-5.735180791120867913e-03
-6.041623812658958662e-03
-6.379427238354034441e-03
-6.750231095317189671e-03
-7.155364414472230837e-03
-7.595824134202099238e-03
-8.072257900309841652e-03
-8.584950935899275659e-03
-9.133816923433837540e-03
-9.718392970447476895e-03
-1.033783864049641482e-02
-1.099093894563723042e-02
-1.167611104662832910e-02
-1.239141467660261064e-02
-1.313456593628694637e-02
-1.390295416124329858e-02
-1.469366165984550658e-02
-1.550348605031984239e-02
-1.632896483087985240e-02
-1.716640186723418504e-02
-1.801189546197600605e-02
-1.886136779664393179e-02
-1.971059527679815820e-02
-2.055523962501957028e-02
-2.139087937536460204e-02
-2.221304156500989932e-02
-2.301723336406973769e-02
-2.379897338523714878e-02
-2.455382263946434898e-02
-2.527741487366371234e-02
-2.596548614964416107e-02
-2.661390363716589422e-02
-2.721869342949927856e-02
-2.777606740257717449e-02
-2.828244900287896560e-02
-2.873449792423524163e-02
-2.912913367649199239e-02
-2.946355793617473975e-02
-2.973527562141136879e-02
-2.994211478015082126e-02
-3.008224505419119718e-02
-3.015419475848712602e-02
-3.015686642599359202e-02
-3.008955079537062316e-02
-2.995193898644645664e-02
-2.974413284292678691e-02
-2.946665325172407451e-02
-2.912044624127996251e-02
-2.870688671198954114e-02
-2.822777959681591411e-02
-2.768535814392698163e-02
-2.708227926976873590e-02
-2.642161578378169132e-02
-2.570684517649027626e-02
-2.494183485009770704e-02
-2.413082367277283660e-02
-2.327839977345790706e-02
-2.238947443575992763e-02
-2.146925210166251291e-02
-2.052319654342502075e-02
-1.955699319945298706e-02
-1.857650783620476420e-02
-1.758774182635814212e-02
-1.659678421230172118e-02
-1.560976097785482866e-02
-1.463278183905206316e-02
-1.367188515162083215e-02
-1.273298140278399625e-02
-1.182179592722788601e-02
-1.094381143375819029e-02
-1.010421115164212257e-02
-9.307823275804460658e-03
-8.559067410763131906e-03
-7.861903905342613325e-03
-7.219786764645086570e-03
-6.635621034210624318e-03
-6.111725246576639459e-03
-5.649799727880365843e-03
-5.250901394221684469e-03
-4.915425598439660849e-03
-4.643095568009716380e-03
-4.432959819131046184e-03
-4.283397854886803260e-03
-4.192134337863065788e-03
-4.156261827101179716e-03
-4.172271976155627650e-03
-4.236094970804931380e-03
-4.343146976115458413e-03
-4.488384986093172171e-03
-4.666368603895808959e-03
-4.871327913723504793e-03
-5.097236630817749380e-03
-5.337889631550773659e-03
-5.586983635991219985e-03
-5.838200108054065682e-03
-6.085289036899297656e-03
-6.322152342468423565e-03
-6.542925674655386027e-03
-6.742057256938050781e-03
-6.914382575167298504e-03
-7.055193702340928005e-03
-7.160301930864412454e-03
-7.226092796784809938e-03
-7.249572442244807749e-03
-7.228404439508764358e-03
-7.160936439964083085e-03
-7.046216010594776903e-03
-6.883995307761515449e-03
-6.674724421655652169e-03
-6.419533348518377189e-03
-6.120202813616308808e-03
-5.779124283684183849e-03
-5.399249767749181132e-03
-4.984032246320848486e-03
-4.537357644742188133e-03
-4.063469390985087297e-03
-3.566886922803688513e-03
-3.052319476137830938e-03
-2.524576732497032811e-03
-1.988477818229728977e-03
-1.448760270887380778e-03
-9.099908330650951583e-04
-3.764795052921979875e-04
1.478014027561096351e-04
6.592917532220085282e-04
1.154909990080311977e-03
1.632110280298822765e-03
2.088929202103789653e-03
2.524020971526476104e-03
2.936680264710621151e-03
3.326852257159450352e-03
3.695129383693534098e-03
4.042734820185423135e-03
4.371492823503527782e-03
4.683786300937946984e-03
4.982502260094908049e-03
5.270966080590929956e-03
5.552865773036370738e-03
5.832167455784898619e-03
6.113023752482634778e-03
6.399676734267114968e-03
6.696357321874684028e-03
7.007183024388190414e-03
7.336056088671650405e-03
7.686564146790819847e-03
8.061885441204652211e-03
8.464700647418764781e-03
8.897113135428161637e-03
9.360579551325643941e-03
9.855852363141549832e-03
1.038293581096030871e-02
1.094105653605454039e-02
1.152864975366164543e-02
1.214336171759065365e-02
1.278206881986364112e-02
1.344091340769712657e-02
1.411535605909087707e-02
1.480024364898005484e-02
1.548989237172687140e-02
1.617818447951893321e-02
1.685867717337673558e-02
1.752472185418028558e-02
1.816959166012502985e-02
1.878661498156688689e-02
1.936931264453350607e-02
1.991153596897197661e-02
2.040760322285510575e-02
2.085243162515186197e-02
2.124166230574870556e-02
2.157177551901474921e-02
2.184019354197192300e-02
2.204536907375024765e-02
2.218685678666978967e-02
2.226536626302581118e-02
2.228279483321727109e-02
2.224223897111987994e-02
2.214798335884543903e-02
2.200546730395629147e-02
2.182122843682387028e-02
2.160282400942347206e-02
2.135873072712496726e-02
2.109822439459506024e-02
2.083124100232250711e-02
2.056822148072752834e-02
2.031994243888786758e-02
2.009733576051013146e-02
1.991130021415607465e-02
1.977250832208170273e-02
1.969121213673188930e-02
1.967705151761833457e-02
1.973886865501678703e-02
1.988453250978725398e-02
2.012077698255502686e-02
2.045305614677003780e-02
2.088542003203156666e-02
2.142041384464690029e-02
2.205900338515735803e-02
2.280052896188434347e-02
2.364268969709177118e-02
2.458155943254772963e-02
2.561163523085700777e-02
2.672591858279655536e-02
2.791602912993610894e-02
2.917234987731571333e-02
3.048420234840809942e-02
3.184004968195641022e-02
3.322772494450080411e-02
3.463468139944619190e-02
3.604826104790535835e-02
3.745597732663574070e-02
3.884580736447020011e-02
4.020648897814710354e-02
4.152781733018044708e-02
4.280093591372439304e-02
4.401861661093040001e-02
4.517552340518606047e-02
4.626845457519142280e-02
4.729655841994818283e-02
4.826151757433509021e-02
4.916769765193496067e-02
5.002225625253423069e-02
5.083520890787733559e-02
5.161944927873139688e-02
5.239072118858829202e-02
5.316754134417864958e-02
5.397107183614539144e-02
5.482494258143678911e-02
5.575502454239188166e-02
5.678915542571397190e-02
5.795682030375159249e-02
5.928879041440431041e-02
6.081672405120796404e-02
6.257273417759101619e-02
6.458892807010024883e-02
6.689692482494212500e-02
6.952735696970115120e-02
7.250936290055740030e-02
7.587007718318876381e-02
7.963412567314517854e-02
8.382313295341381476e-02
8.845524919510147632e-02
9.354470345266485687e-02
9.910139037366458292e-02
1.051304966329639906e-01
1.116321733053793896e-01
1.186012594377657686e-01
1.260270618277203325e-01
1.338931950625423806e-01
1.421774851901486114e-01
1.508519393644730533e-01
1.598827832274350436e-01
1.692305666299580291e-01
1.788503374659829726e-01
1.886918824491925772e-01
1.987000326414980200e-01
2.088150307895010882e-01
2.189729566640939151e-01
2.291062056657149903e-01
2.391440152909064532e-01
2.490130334580313298e-01
2.586379220789279398e-01
2.679419887759330599e-01
2.768478393001896909e-01
2.852780429746408219e-01
2.931558032452400986e-01
3.004056254769363887e-01
3.069539743478386651e-01
3.127299130122873638e-01
3.176657169109518564e-01
3.216974553441427354e-01
3.247655344382678333e-01
3.268151956611939912e-01
3.277969649495914850e-01
3.276670478991554059e-01
3.263876677069042498e-01
3.239273429314257213e-01
3.202611032632010080e-01
3.153706424158618793e-01
3.092444078965814747e-01
3.018776284499071760e-01
2.932722806985890163e-01
2.834369973862874148e-01
2.723869202630532227e-01
2.601435013848216182e-01
2.467342570903401089e-01
2.321924794781123069e-01
2.165569106770521834e-01
1.998713854970930737e-01
1.821844481708314034e-01
1.635489490561481130e-01
1.440216273086590837e-01
1.236626851554049056e-01
1.025353595770403525e-01
8.070549662665463253e-02
5.824113349202236778e-02
3.521209280421073312e-02
1.168959317601207457e-02
-1.225412030248982168e-02
-3.654612285839767966e-02
-6.111313184881730920e-02
-8.588180185462318539e-02
-1.107789921542881584e-01
-1.357320063185991910e-01
-1.606688041134407829e-01
-1.855181866916478517e-01
-2.102099565661508795e-01
-2.346750542616368451e-01
-2.588456741294022923e-01
-2.826553621226939317e-01
-3.060390986529467061e-01
-3.289333697532460521e-01
-3.512762300729209142e-01
-3.730073611596003147e-01
-3.940681284891897618e-01
-4.144016405525999258e-01
-4.339528132349107503e-01
-4.526684421693221716e-01
-4.704972855983756141e-01
-4.873901598613519792e-01
-5.033000490099215352e-01
-5.181822297005995726e-01
-5.319944118753012763e-01
-5.446968951198000175e-01
-5.562527401709255193e-01
-5.666279543183744272e-01
-5.757916889806794503e-01
-5.837164471293306844e-01
-5.903782977295198853e-01
-5.957570939993278580e-01
-5.998366918733620823e-01
-6.026051646307932774e-01
-6.040550096000959490e-01
-6.041833424265317110e-01
-6.029920744823789036e-01
-6.004880690381757535e-01
-5.966832717335888159e-01
-5.915948111826083711e-01
-5.852450658346632917e-01
-5.776616934649432267e-01
-5.688776202624684641e-01
-5.589309868412416504e-01
-5.478650490785678118e-01
-5.357280324413569161e-01
-5.225729389027369276e-01
-5.084573065258218838e-01
-4.934429222417426875e-01
-4.775954892540080210e-01
-4.609842511661031428e-01
-4.436815756175183645e-01
-4.257625009070225008e-01
-4.073042498283364621e-01
-3.883857151928046259e-01
-3.690869224677896243e-01
-3.494884751519287680e-01
-3.296709888253839815e-01
-3.097145202622893501e-01
-2.896979981168382734e-01
-2.696986616764989741e-01
-2.497915143530865245e-01
-2.300487982971258227e-01
-2.105394964081124254e-01
-1.913288675650439696e-01
-1.724780208273267446e-01
-1.540435334226372688e-01
-1.360771171665295376e-01
-1.186253370816570257e-01
-1.017293854307781825e-01
-8.542491347018554837e-02
-6.974192265131065604e-02
-5.470471604652688696e-02
-4.033191006262832473e-02
-2.663650561221768756e-02
-1.362601707305322735e-02
-1.302656738072396729e-03
1.033642835598024175e-02
2.129887112053872877e-02
3.159675495495758296e-02
4.124624522828600898e-02
5.026718708990974421e-02
5.868267550822985762e-02
6.651860372521173348e-02
7.380319646695845948e-02
8.056653444089871552e-02
8.684007656056996760e-02
9.265618638384855166e-02
9.804766895017333339e-02
1.030473239878109959e-01
1.076875211390179582e-01
1.119998023572700424e-01
1.160145161254577811e-01
1.197604875963444726e-01
1.232647280703264014e-01
1.265521867713468307e-01
1.296455468609298833e-01
1.325650671611703357e-01
1.353284702714267485e-01
1.379508770267688089e-01
1.404447865030506171e-01
1.428201001861316155e-01
1.450841881954940682e-01
1.472419949481199586e-01
1.492961810100091324e-01
1.512472975129585395e-01
1.530939889595282211e-01
1.548332201350497705e-01
1.564605223202827633e-01
1.579702540685861412e-01
1.593558716220191684e-01
1.606102039140945847e-01
1.617257273410542262e-01
1.626948356880132673e-01
1.635101005971255628e-01
1.641645184123825263e-01
1.646517395805439099e-01
1.649662771429223351e-01
1.651036914220717355e-01
1.650607482149674399e-01
1.648355487255318552e-01
1.644276297382085972e-01
1.638380330912083960e-01
1.630693441749332673e-01
1.621256997147591528e-01
1.610127655212667264e-01
1.597376854186983719e-01
1.583090030678389326e-01
1.567365587827765361e-01
1.550313638995416965e-01
1.532054554134889834e-01
1.512717340159608348e-01
1.492437888180034311e-01
1.471357121425496683e-01
1.449619078866631328e-01
1.427368970142882665e-01
1.404751236013535576e-01
1.381907648005889777e-01
1.358975480243569955e-01
1.336085782675364431e-01
1.313361783001280869e-01
1.290917441586348080e-01
1.268856181874792322e-01
1.247269812319528465e-01
1.226237654536055377e-01
1.205825886211409070e-01
1.186087105972569583e-01
1.167060121464056771e-01
1.148769958183752660e-01
1.131228083384770156e-01
1.114432836064702809e-01
1.098370049834994783e-01
1.083013852359874657e-01
1.068327623871096060e-01
1.054265094089331944e-01
1.040771555084320926e-01
1.027785166342325002e-01
1.015238326728429424e-01
1.003059089350323563e-01
9.911725938274061620e-02
9.795024911710449589e-02
9.679723380513895192e-02
9.565069374720683304e-02
9.450336056525943107e-02
9.334833456264227114e-02
9.217919112404472648e-02
9.099007470182603197e-02
8.977577931055777394e-02
8.853181453583490457e-02
8.725445654128287376e-02
8.594078371925766013e-02
8.458869695967255464e-02
8.319692474194101406e-02
8.176501358770774108e-02
8.029330456650111969e-02
7.878289684487171929e-02
7.723559935488638617e-02
7.565387196208425702e-02
7.404075761184839011e-02
7.239980700622762610e-02
7.073499739860938940e-02
6.905064722109376107e-02
6.735132825553652447e-02
6.564177701504721185e-02
6.392680698045045962e-02
6.221122328744492502e-02
6.049974119707886289e-02
5.879690981991820414e-02
5.710704206782193926e-02
5.543415209847190467e-02
5.378190095414856625e-02
5.215355109774947456e-02
5.055193025898636200e-02
4.897940490497863786e-02
4.743786345804120591e-02
4.592870915875837956e-02
4.445286232991613878e-02
4.301077145890933734e-02
4.160243266651127841e-02
4.022741682309127764e-02
3.888490350121860673e-02
3.757372079826241940e-02
3.629239005684718744e-02
3.503917441264864374e-02
3.381213005310002018e-02
3.260915914458201170e-02
3.142806342407536424e-02
3.026659733905859295e-02
2.912251970161236492e-02
2.799364298978874316e-02
2.687787941952434617e-02
2.577328311923070964e-02
2.467808768578978740e-02
2.359073860343089205e-02
2.250992017663464712e-02
2.143457656994158383e-02
2.036392692715861819e-02
1.929747450867153741e-02
1.823500989009970222e-02
1.717660836823453260e-02
1.612262195239349757e-02
1.507366629726801695e-02
1.403060299182564037e-02
1.299451781975330920e-02
1.196669548948562679e-02
1.094859157844620991e-02
9.941802258443106777e-03
8.948032555812788016e-03
7.969063715157972960e-03
7.006720444916400732e-03
6.062838600384245005e-03
5.139233894492933712e-03
4.237672207229065124e-03
3.359842051047038161e-03
2.507329522540074560e-03
1.681596158607099939e-03
8.839599649975536785e-04
1.155797914767994907e-04
-6.225567139114446301e-04
-1.329641595016813494e-03
-2.005051503874475446e-03
-2.648349099949988752e-03
-3.259281176233767320e-03
-3.837773580779340471e-03
-4.383923286024154521e-03
-4.897987889605206688e-03
-5.380372864964174523e-03
-5.831616942714616843e-03
-6.252375937641241679e-03
-6.643405557484859288e-03
-7.005543418733267171e-03
-7.339690732878154274e-03
-7.646794039509285761e-03
-7.927827309680822790e-03
-8.183774694673882216e-03
-8.415614305843222356e-03
-8.624303146061246261e-03
-8.810763518686459336e-03
-8.975870989999426564e-03
-9.120444029827602314e-03
-9.245235485109729381e-03
-9.350925804836887623e-03
-9.438118088176551679e-03
-9.507334884705129566e-03
-9.559016664413656078e-03
-9.593521859394327223e-03
-9.611128300579042591e-03
-9.612035932899587118e-03
-9.596370648573653017e-03
-9.564189018268819467e-03
-9.515483703767518148e-03
-9.450189419853233241e-03
-9.368189242779144735e-03
-9.269321105805599162e-03
-9.153384284339616608e-03
-9.020145789674716488e-03
-8.869346446593241728e-03
-8.700706638919319252e-03
-8.513931610674652095e-03
-8.308716270604433671e-03
-8.084749405672815234e-03
-7.841717426049365711e-03
-7.579307491615161312e-03
-7.297210249308801189e-03
-6.995122045718516098e-03
-6.672746756593671627e-03
-6.329797321429454955e-03
-5.965997034754920957e-03
-5.581080719467207581e-03
-5.174795876731195718e-03
-4.746903848409123571e-03
-4.297181128930192655e-03
-3.825420849518634640e-03
-3.331434581178509702e-03
-2.815054471191983862e-03
-2.276135733680283504e-03
-1.714559522926998409e-03
-1.130236170621252544e-03
-5.231087913056126082e-04
1.068426979432382561e-04
7.595973886144488738e-04
1.435088946033324540e-03
2.133201077931269011e-03
2.853762877304305296e-03
3.596544294592918765e-03
4.361251834488353435e-03
5.147524555100340370e-03
5.954930415374386568e-03
6.782963272418696468e-03
7.631040432878723710e-03
8.498501035626512476e-03
9.384605260043010419e-03
1.028853446700961176e-02
1.120939228049597225e-02
1.214620671700305382e-02
1.309793336187671693e-02
1.406345952214539327e-02
1.504160944335255351e-02
1.603115050322097626e-02
1.703080021760580709e-02
1.803923404531369151e-02
1.905509393982445995e-02
2.007699742155482150e-02
2.110354703228416867e-02
2.213334004403683802e-02
2.316497833762524994e-02
2.419707807890961876e-02
2.522827921395091530e-02
2.625725455031769143e-02
2.728271819164169304e-02
2.830343330404390054e-02
2.931821888603037760e-02
3.032595566263239853e-02
3.132559083622368790e-02
3.231614159780909351e-02
3.329669744135690945e-02
3.426642112882540003e-02
3.522454841748470789e-02
3.617038649237924730e-02
3.710331121378349084e-02
3.802276320862293252e-02
3.892824289304003260e-02
3.981930453985282198e-02
4.069554962732162967e-02
4.155661953806954328e-02
4.240218783679153280e-02
4.323195222967361057e-02
4.404562652405964729e-02
4.484293262442360511e-02
4.562359291427449393e-02
4.638732311863216079e-02
4.713382583757674826e-02
4.786278494770990211e-02
4.857386097098666256e-02
4.926668749360966354e-02
4.994086887437194922e-02
5.059597921186615582e-02
5.123156258381814099e-02
5.184713460767145093e-02
5.244218528665187118e-02
5.301618313861462817e-02
5.356858048467224437e-02
5.409881974381822861e-02
5.460634070508232907e-02
5.509058847940355441e-02
5.555102203622532681e-02
5.598712309040034668e-02
5.639840513000934918e-02
5.678442233444488951e-02
5.714477817668192627e-02
5.747913342781309221e-02
5.778721341023099201e-02
5.806881428961759711e-02
5.832380809268776500e-02
5.855214640636931950e-02
5.875386251999543258e-02
5.892907186800230845e-02
5.907797073199291121e-02
5.920083306916274629e-02
5.929800564274905622e-02
5.936990118690976120e-02
5.941698981531363249e-02
5.943978882841786937e-02
5.943885085120751560e-02
5.941475065716683712e-02
5.936807081000175512e-02
5.929938634852440632e-02
5.920924876690344257e-02
5.909816967278967020e-02
5.896660431464235269e-02
5.881493530488472038e-02
5.864345696674636704e-02
5.845236052120426906e-02
5.824172050867808259e-02
5.801148273647276782e-02
5.776145401908592408e-02
5.749129405032756684e-02
5.720050955971969081e-02
5.688845111110365366e-02
5.655431253594777469e-02
5.619713328048899642e-02
5.581580369107753264e-02
5.540907324165619818e-02
5.497556175994169209e-02
5.451377358404878304e-02
5.402211445591905553e-02
5.349891106963798604e-02
5.294243303172913029e-02
5.235091694278189850e-02
5.172259233369749798e-02
5.105570911417129515e-02
5.034856612933110570e-02
4.959954047235550639e-02
4.880711703918855227e-02
4.796991799183140948e-02
4.708673156995819148e-02
4.615653985773669754e-02
4.517854510043498723e-02
4.415219410274517226e-02
4.307720022781095365e-02
4.195356271587033503e-02
4.078158292441420862e-02
3.956187718669128273e-02
3.829538599892930856e-02
3.698337935633970452e-02
3.562745813623691138e-02
3.422955126874002024e-02
3.279190876867581900e-02
3.131709060402067257e-02
2.980795152629173161e-02
2.826762192361862228e-02
2.669948490798464136e-02
2.510714990526133339e-02
2.349442315988018240e-02
2.186527531692733506e-02
2.022380660546901215e-02
1.857421002647580144e-02
1.692073297689030906e-02
1.526763787669903512e-02
1.361916221508415771e-02
1.197947861748169252e-02
1.035265537192042902e-02
8.742618057449989821e-03
7.153112607098497874e-03
5.587670390364553492e-03
4.049575750221514822e-03
2.541836443411821158e-03
1.067157281094361547e-03
-3.720825968274972875e-04
-1.773848626096390406e-03
-3.136465644689996005e-03
-4.458628414306426042e-03
-5.739407720031296928e-03
-6.978252127191957380e-03
-8.174985303372055839e-03
-9.329799013969635943e-03
-1.044324185289508163e-02
-1.151620400085066713e-02
-1.254989812624018007e-02
-1.354583684855956323e-02
-1.450580700852572430e-02
-1.543184105413899533e-02
-1.632618612865733079e-02
-1.719127116990741555e-02
-1.802967247512951565e-02
-1.884407828203507260e-02
-1.963725266678318163e-02
-2.041199934172787181e-02
-2.117112592093755782e-02
-2.191740886051729217e-02
-2.265355969910505529e-02
-2.338219291808677283e-02
-2.410579580672243469e-02
-2.482670072409283446e-02
-2.554705987891979155e-02
-2.626882314074595673e-02
-2.699371888811850917e-02
-2.772323806128795809e-02
-2.845862167515232286e-02
-2.920085172498481513e-02
-2.995064550501979131e-02
-3.070845336933108669e-02
-3.147445979420637058e-02
-3.224858757355369976e-02
-3.303050509996566936e-02
-3.381963645009922192e-02
-3.461517402456509157e-02
-3.541609353184797110e-02
-3.622117098717522049e-02
-3.702900143670848770e-02
-3.783801906814491384e-02
-3.864651838141603540e-02
-3.945267619061135905e-02
-4.025457396471131266e-02
-4.105022033207232635e-02
-4.183757337679755439e-02
-4.261456249862108359e-02
-4.337910946339081780e-02
-4.412914857061845525e-02
-4.486264553039327058e-02
-4.557761501219286665e-02
-4.627213669903589705e-02
-4.694436967175273645e-02
-4.759256500768333648e-02
-4.821507666626361627e-02
-4.881037050083741891e-02
-4.937703150403249114e-02
-4.991376929381242250e-02
-5.041942181898563524e-02
-5.089295755481443306e-02
-5.133347615126172131e-02
-5.174020773326115652e-02
-5.211251090543710107e-02
-5.244986975106857852e-02
-5.275188986936808072e-02
-5.301829371177863709e-02
-5.324891530445521187e-02
-5.344369458156827263e-02
-5.360267146788670611e-02
-5.372597983180690123e-02
-5.381384149739720790e-02
-5.386656043032547747e-02
-5.388451714798014880e-02
-5.386816350647957719e-02
-5.381801789881983378e-02
-5.373466090288340352e-02
-5.361873148458874000e-02
-5.347092365466037112e-02
-5.329198371841536302e-02
-5.308270788356690001e-02
-5.284394036216934210e-02
-5.257657181744978397e-02
-5.228153809476619035e-02
-5.195981921172272699e-02
-5.161243842668620380e-02
-5.124046133691439325e-02
-5.084499483799448383e-02
-5.042718597277758702e-02
-4.998822047957821035e-02
-4.952932094215218434e-02
-4.905174447161591428e-02
-4.855677988653524929e-02
-4.804574422055592903e-02
-4.751997867352656529e-02
-4.698084388063443473e-02
-4.642971442299800161e-02
-4.586797271352379551e-02
-4.529700217414159985e-02
-4.471817985963710135e-02
-4.413286846392912993e-02
-4.354240789151232055e-02
-4.294810642079543300e-02
-4.235123165366030257e-02
-4.175300118848468411e-02
-4.115457342396909579e-02
-4.055703845224806203e-02
-3.996140924431217795e-02
-3.936861327451874476e-02
-3.877948475452090704e-02
-3.819475757901445029e-02
-3.761505921054936197e-02
-3.704090560121455628e-02
-3.647269726320451211e-02
-3.591071659789795562e-02
-3.535512664714141051e-02
-3.480597124174897306e-02
-3.426317668241891934e-02
-3.372655499783112215e-02
-3.319580871201732036e-02
-3.267053713115397606e-02
-3.215024418276749701e-02
-3.163434766458161213e-02
-3.112218981157872932e-02
-3.061304915945419272e-02
-3.010615345823713582e-02
-2.960069349216414361e-02
-2.909583773920013799e-02
-2.859074753470939451e-02
-2.808459264536027414e-02
-2.757656697318391567e-02
-2.706590416872807492e-02
-2.655189298194331193e-02
-2.603389205711941629e-02
-2.551134398112378174e-02
-2.498378833385928380e-02
-2.445087360985352676e-02
-2.391236771657551455e-02
-2.336816698049626675e-02
-2.281830340897846379e-02
-2.226295008005820669e-02
-2.170242460992097971e-02
-2.113719061515895170e-02
-2.056785709377395924e-02
-1.999517565904780289e-02
-1.942003573502875183e-02
-1.884345759765454834e-02
-1.826658349187778099e-02
-1.769066685577178055e-02
-1.711705979456311366e-02
-1.654719892538110415e-02
-1.598258975152678715e-02
-1.542478987747970647e-02
-1.487539124493440258e-02
-1.433600152788401354e-02
-1.380822509445438218e-02
-1.329364368517213166e-02
-1.279379708859846795e-02
-1.231016412060847130e-02
-1.184414416376314456e-02
-1.139703944073074994e-02
-1.097003844059895108e-02
-1.056420054953448318e-02
-1.018044221868607928e-02
-9.819524789081605226e-03
-9.482044185810608455e-03
-9.168422647975876805e-03
-8.878902561107472266e-03
-8.613542498033066250e-03
-8.372215540788582877e-03
-8.154609808726410655e-03
-7.960231287054531091e-03
-7.788408912360164985e-03
-7.638301739039289953e-03
-7.508908196772197396e-03
-7.399077231698000627e-03
-7.307521098958658090e-03
-7.232829835865931672e-03
-7.173487011274935071e-03
-7.127886583985562977e-03
-7.094350620222798602e-03
-7.071147652916521045e-03
-7.056511426165939030e-03
-7.048659722170697896e-03
-7.045812995784291217e-03
-7.046212673868831877e-03
-7.048138725234594400e-03
-7.049926347068710339e-03
-7.049981588180786497e-03
-7.046795659201464043e-03
-7.038957687985647818e-03
-7.025165938745860442e-03
-7.004237265514865265e-03
-6.975114701363755408e-03
-6.936873131464687744e-03
-6.888723046005540765e-03
-6.830012342284082910e-03
-6.760226223705372191e-03
-6.678985236746293706e-03
-6.586041549214830676e-03
-6.481273544022086129e-03
-6.364678918081455826e-03
-6.236366463575422972e-03
-6.096546593890426850e-03
-5.945520946153506382e-03
-5.783671156422336666e-03
-5.611447123612701114e-03
-5.429354920563118740e-03
-5.237944558104543069e-03
-5.037797866053826852e-03
-4.829516677499161650e-03
-4.613711569364250566e-03
-4.390991262909453227e-03
-4.161952922656049665e-03
-3.927173488554262099e-03
-3.687202125782670405e-03
-3.442554067465411743e-03
-3.193705719293708604e-03
-2.941091252239980917e-03
-2.685100555727293770e-03
-2.426078697223529260e-03
-2.164326789745555681e-03
-1.900104269933429024e-03
-1.633632429192198804e-03
-1.365099092405486301e-03
-1.094664418995353571e-03
-8.224675999627223096e-04
-5.486343289259897364e-04
-2.732848374711946545e-04
3.457717924730732950e-06
2.814585882835279038e-04
5.605628092383359729e-04
8.405867827786763424e-04
1.121310233961551016e-03
1.402468780828948188e-03
1.683747228697973081e-03
1.964773801613997790e-03
2.245115436189850083e-03
2.524274316520894960e-03
2.801685688007533696e-03
3.076717031600625409e-03
3.348668751383519597e-03
3.616776289625632437e-03
3.880213717169744142e-03
4.138098829581102374e-03
4.389499629012995167e-03
4.633442212409024166e-03
4.868919793511590835e-03
5.094902902696357011e-03
5.310350544472901800e-03
5.514222138841238033e-03
5.705490062128185103e-03
5.883152690992597342e-03
6.046247612996529658e-03
6.193864860023427787e-03
6.325159908816590029e-03
6.439366320144314024e-03
6.535807735258878336e-03
6.613909076583736162e-03
6.673206717941236946e-03
6.713357452082365125e-03
6.734146141515040887e-03
6.735491838146900542e-03
6.717452335253929277e-03
6.680227047799488713e-03
6.624158080080067360e-03
6.549729553214795816e-03
6.457565079056121204e-03
6.348423431451007473e-03
6.223192490439059810e-03
6.082881487593461318e-03
5.928611677809439082e-03
5.761605535556704391e-03
5.583174631146756162e-03
5.394706364298043101e-03
5.197649734955843079e-03
4.993500277526762531e-03
4.783784425616505707e-03
4.570043520463877053e-03
4.353817690035249703e-03
4.136629816752401996e-03
3.919969769835059993e-03
3.705279183403716817e-03
3.493936932946963610e-03
3.287245514469766105e-03
3.086418512309601486e-03
2.892569336440693663e-03
2.706701322278371249e-03
2.529699375465101121e-03
2.362323194768604397e-03
2.205202179992470004e-03
2.058832064966927694e-03
1.923573251324089831e-03
1.799650957703750800e-03
1.687156973516259345e-03
1.586053119031883337e-03
1.496176240746890408e-03
1.417244757151782039e-03
1.348866424672386013e-03
1.290547350734095157e-03
1.241702049537067500e-03
1.201664408705492701e-03
1.169699305814768213e-03
1.145014755217583753e-03
1.126774434326328032e-03
1.114110307553511274e-03
1.106135226196936459e-03
1.101955289849557065e-03
1.100681822378339961e-03
1.101442841059378612e-03
1.103393758389037806e-03
