-4.217984907900271599e-03
-4.396386589874197622e-03
-4.574957690353652871e-03
-4.751667696207876289e-03
-4.924431722448758750e-03
-5.091129976986560023e-03
-5.249627584759382175e-03
-5.397794711116470426e-03
-5.533526709341817472e-03
-5.654764115409793325e-03
-5.759512380603613348e-03
-5.845861105961474777e-03
-5.912002673194630652e-03
-5.956250063203496863e-03
-5.977053803373467977e-03
-5.973017852765990371e-03
-5.942914377026778383e-03
-5.885697161461544286e-03
-5.800513718209616108e-03
-5.686716011387501699e-03
-5.543869557378983126e-03
-5.371760988097305962e-03
-5.170403932639225895e-03
-4.940043226998838861e-03
-4.681157321028297721e-03
-4.394458908681700589e-03
-4.080893837424205001e-03
-3.741638035372634764e-03
-3.378092725770281187e-03
-2.991877773803127468e-03
-2.584823232340241212e-03
-2.158959035279342607e-03
-1.716502959456656660e-03
-1.259846901834205633e-03
-7.915414672257908152e-04
-3.142790253022005381e-04
1.691248052104743764e-04
6.557508917894045580e-04
1.142597806187935607e-03
1.626604019077721851e-03
2.104671110278423778e-03
2.573687730513432581e-03
3.030554200537370537e-03
3.472207503462921684e-03
3.895646502841887491e-03
4.297957089854331260e-03
4.676337114139563281e-03
5.028120695892581912e-03
5.350801796837594687e-03
5.642056768527506719e-03
5.899765602834582991e-03
6.122031589618318580e-03
6.307199210705743096e-03
6.453869861922415484e-03
6.560915455630024658e-03
6.627489474213925369e-03
6.653035331431551326e-03
6.637291871650588537e-03
6.580295953383144027e-03
6.482381922134894219e-03
6.344177991486048968e-03
6.166599404412426329e-03
5.950838460102322522e-03
5.698351400389276358e-03
5.410842360802775586e-03
5.090244338669365834e-03
4.738697558431114766e-03
4.358525245992477502e-03
3.952207382326372066e-03
3.522352282448079110e-03
3.071666742279008464e-03
2.602924895349478969e-03
2.118936254513090808e-03
1.622513271112194450e-03
1.116438852471672658e-03
6.034343514021836335e-04
8.612836725395825509e-05
-4.329732716876296046e-04
-9.515158183871906972e-04
-1.467321758354208586e-03
-1.978414593221043856e-03
-2.483039792821813228e-03
-2.979682599728083157e-03
-3.467082450597762031e-03
-3.944243863593126752e-03
-4.410443494374578603e-03
-4.865233239506222204e-03
-5.308439385386811739e-03
-5.740157755909357749e-03
-6.160745038410769814e-03
-6.570806138135315902e-03
-6.971177944946518011e-03
-7.362909646094041929e-03
-7.747239888989503054e-03
-8.125571145759135500e-03
-8.499441564751740105e-03
-8.870494796564215231e-03
-9.240448184553736941e-03
-9.611059793883167460e-03
-9.984094849878407882e-03
-1.036129195181302066e-02
-1.074432959204808802e-02
-1.113479356206216811e-02
-1.153414560988732032e-02
-1.194369388240805463e-02
-1.236456558173917863e-02
-1.279768218818888754e-02
-1.324373764976624103e-02
-1.370317983226636283e-02
-1.417619548191547361e-02
-1.466269891172980976e-02
-1.516232459208883936e-02
-1.567442364682129774e-02
-1.619806439560169536e-02
-1.673203681095851436e-02
-1.727486084449203485e-02
-1.782479842746289428e-02
-1.837986903796808708e-02
-1.893786845012794193e-02
-1.949639043297650767e-02
-2.005285109457882742e-02
-2.060451548724609103e-02
-2.114852606102213955e-02
-2.168193247383594716e-02
-2.220172250417503865e-02
-2.270485345553422893e-02
-2.318828380964385941e-02
-2.364900463811559286e-02
-2.408407026767794140e-02
-2.449062795150070207e-02
-2.486594621462294430e-02
-2.520744151372222505e-02
-2.551270289319646292e-02
-2.577951451517870862e-02
-2.600587584933231403e-02
-2.619001929082250685e-02
-2.633042523328356366e-02
-2.642583445921607710e-02
-2.647525785576286539e-02
-2.647798356523951846e-02
-2.643358155321174838e-02
-2.634190564315721725e-02
-2.620309327093203050e-02
-2.601756304043540552e-02
-2.578601038591143632e-02
-2.550940122775666175e-02
-2.518896413759202577e-02
-2.482618099981247564e-02
-2.442277647764087151e-02
-2.398070634561640102e-02
-2.350214494631794673e-02
-2.298947185994096656e-02
-2.244525793709863104e-02
-2.187225088601453538e-02
-2.127336024793116676e-02
-2.065164204573302978e-02
-2.001028308765212538e-02
-1.935258487119260670e-02
-1.868194701426309848e-02
-1.800185032235700547e-02
-1.731583940841946098e-02
-1.662750458171875431e-02
-1.594046330559288627e-02
-1.525834079863260667e-02
-1.458474993675438341e-02
-1.392327030747641040e-02
-1.327742647230691249e-02
-1.265066521762535194e-02
-1.204633200168099549e-02
-1.146764662621720283e-02
-1.091767809903068480e-02
-1.039931888052302196e-02
-9.915258715441306603e-03
-9.467958167015072188e-03
-9.059622157015339780e-03
-8.692173749757730813e-03
-8.367228678552615997e-03
-8.086070761253989422e-03
-7.849628768857284250e-03
-7.658455003616124537e-03
-7.512706197449135238e-03
-7.412127096556097444e-03
-7.356037244153549107e-03
-7.343321272563003294e-03
-7.372423276288089973e-03
-7.441345522457882763e-03
-7.547651981419998928e-03
-7.688476905991328478e-03
-7.860538585474075718e-03
-8.060158677533098628e-03
-8.283286976935757065e-03
-8.525531829312907664e-03
-8.782195830660838309e-03
-9.048316907474925758e-03
-9.318714319483398581e-03
-9.588039253899336908e-03
-9.850829437989601367e-03
-1.010156736106629198e-02
-1.033474125740149567e-02
-1.054490826466760595e-02
-1.072675870207735922e-02
-1.087518078955948889e-02
-1.098532486185594195e-02
-1.105266596205562932e-02
-1.107306397304838944e-02
-1.104282024167521116e-02
-1.095872969558561380e-02
-1.081812756274245536e-02
-1.061892979183006076e-02
-1.035966639958720188e-02
-1.003950692386483719e-02
-9.658277506027740378e-03
-9.216468958995981814e-03
-8.715235594624370571e-03
-8.156384445369195546e-03
-7.542354985420076513e-03
-6.876189266203680192e-03
-6.161492884250860218e-03
-5.402387047553150468e-03
-4.603452464323806032e-03
-3.769665777462731081e-03
-2.906329242228555387e-03
-2.018994971591038610e-03
-1.113384738204730665e-03
-1.953064790994448125e-04
7.294309225687637755e-04
1.655103332063455508e-03
2.576156061717280177e-03
3.487286147021429784e-03
4.383520620903543982e-03
5.260289680385994530e-03
6.113493013043778956e-03
6.939558284925239837e-03
7.735490686657948631e-03
8.498912437500050904e-03
9.228091370359682924e-03
9.921958042580300216e-03
1.058011099291279386e-02
1.120280973810207359e-02
1.179095560258111748e-02
1.234606043663344192e-02
1.287020392689853208e-02
1.336597992221280444e-02
1.383643272094216281e-02
1.428498433584296685e-02
1.471535414702948227e-02
1.513147228200021135e-02
1.553738825925213632e-02
1.593717670300235506e-02
1.633484190553315465e-02
1.673422302911892548e-02
1.713890186599609580e-02
1.755211502387997446e-02
1.797667229494326335e-02
1.841488313428344195e-02
1.886849261957819837e-02
1.933862853919688513e-02
1.982576080881166825e-02
2.032967433310811992e-02
2.084945610352080189e-02
2.138349715789272451e-02
2.192950967682462740e-02
2.248455929848234072e-02
2.304511221927360923e-02
2.360709663033572908e-02
2.416597753682406258e-02
2.471684384516629682e-02
2.525450634110786713e-02
2.577360470436540138e-02
2.626872181192414085e-02
2.673450324918531448e-02
2.716577967897790616e-02
2.755768982004463616e-02
2.790580148325925297e-02
2.820622835531059677e-02
2.845573988237501059e-02
2.865186210448297799e-02
2.879296695752610324e-02
2.887834802558096950e-02
2.890828098246045474e-02
2.888406675877183694e-02
2.880805635581657614e-02
2.868365605965977894e-02
2.851531251841287265e-02
2.830847708844703645e-02
2.806954976317225375e-02
2.780580304968703273e-02
2.752528657160401709e-02
2.723671369786192370e-02
2.694933185839504600e-02
2.667277845332549288e-02
2.641692474244317079e-02
2.619171031233410649e-02
2.600697102075418682e-02
2.587226355744590839e-02
2.579668978097731866e-02
2.578872437913536445e-02
2.585604903967339552e-02
2.600539678466998531e-02
2.624240958784190142e-02
2.657151262752074916e-02
2.699580796527210197e-02
2.751699059094534980e-02
2.813528903539925033e-02
2.884943260744714938e-02
2.965664696987298926e-02
3.055267893412497160e-02
3.153185135639417769e-02
3.258714803812416683e-02
3.371032824024997737e-02
3.489206984712250881e-02
3.612213955097134249e-02
3.738958802507778845e-02
3.868296742942373828e-02
3.999056812366780927e-02
4.130067109383754598e-02
4.260181208884991633e-02
4.388305319405715055e-02
4.513425722595171274e-02
4.634636021225557040e-02
4.751163704278760225e-02
4.862395521360050182e-02
4.967901186388208601e-02
5.067454922995082850e-02
5.161054383440144555e-02
5.248936513799078163e-02
5.331589971438575881e-02
5.409763729492614304e-02
5.484471572675649748e-02
5.556992242292040085e-02
5.628865040192797958e-02
5.701880780875137611e-02
5.778068050779202464e-02
5.859674793940409382e-02
5.949145338680814771e-02
6.049093040729688897e-02
6.162268791961441478e-02
6.291525720932641952e-02
6.439780481981920157e-02
6.609971582374166155e-02
6.805015261411889727e-02
7.027759487942036865e-02
7.280936675763062527e-02
7.567115767130556947e-02
7.888654338284452339e-02
8.247651424114307850e-02
8.645901737074242199e-02
9.084851959673907740e-02
9.565559785415550520e-02
1.008865633644721316e-01
1.065431258228570210e-01
1.126221029451164868e-01
1.191151805799906677e-01
1.260087277733001054e-01
1.332836705424542412e-01
1.409154271783643886e-01
1.488739074403621354e-01
1.571235766929056921e-01
1.656235856544300833e-01
1.743279651813364473e-01
1.831858846071202085e-01
1.921419716048923809e-01
2.011366903314216747e-01
2.101067740498030745e-01
2.189857075505299011e-01
2.277042539804513266e-01
2.361910202422194405e-01
2.443730543721649162e-01
2.521764680735222308e-01
2.595270770805430671e-01
2.663510520065943687e-01
2.725755719848343972e-01
2.781294734644444988e-01
2.829438867401354862e-01
2.869528529014738760e-01
2.900939141136055777e-01
2.923086708304925563e-01
2.935432996481193157e-01
2.937490264908733106e-01
2.928825501003698428e-01
2.909064117753099032e-01
2.877893080320597652e-01
2.835063435821567612e-01
2.780392228783397091e-01
2.713763793792437484e-01
2.635130424222886791e-01
2.544512424129434791e-01
2.441997561069801370e-01
2.327739939638324707e-01
2.201958329278561055e-01
2.064933979967282229e-01
1.917007969355248032e-01
1.758578128006198504e-01
1.590095593070275926e-01
1.412061045238902357e-01
1.225020684696760814e-01
1.029562003397713199e-01
8.263094104826128328e-02
6.159197688001259718e-02
3.990778967071739042e-02
1.764920882475892044e-02
-5.111029911289555541e-03
-2.829871441192959025e-02
-5.183857075015754073e-02
-7.565465889143253853e-02
-9.967074648684180749e-02
-1.238106583083709578e-01
-1.479985996224771616e-01
-1.721594522024604001e-01
-1.962190426369474772e-01
-2.201043825874471338e-01
-2.437438818492811410e-01
-2.670675352755705889e-01
-2.900070850813935008e-01
-3.124961605523448038e-01
-3.344703974900593568e-01
-3.558675402135785260e-01
-3.766275287534802119e-01
-3.966925743702099938e-01
-4.160072263893655475e-01
-4.345184334477791843e-01
-4.521756020941298249e-01
-4.689306554010282957e-01
-4.847380943674854947e-01
-4.995550641027953764e-01
-5.133414267559359700e-01
-5.260598425628218999e-01
-5.376758601093035717e-01
-5.481580163377985926e-01
-5.574779462631306304e-01
-5.656105020390805871e-01
-5.725338802755693957e-01
-5.782297562951750347e-01
-5.826834232857301954e-01
-5.858839341254462596e-01
-5.878242431546297775e-01
-5.885013448341993580e-01
-5.879164060323524010e-01
-5.860748884146581572e-01
-5.829866573802058305e-01
-5.786660737668846144e-01
-5.731320648053472855e-01
-5.664081707949535360e-01
-5.585225640822429893e-01
-5.495080373904787097e-01
-5.394019587565693774e-01
-5.282461907030105985e-01
-5.160869718158547226e-01
-5.029747594661881926e-01
-4.889640327981167878e-01
-4.741130559063791994e-01
-4.584836016443056272e-01
-4.421406370927344898e-01
-4.251519725461641031e-01
-4.075878762374726683e-01
-3.895206577689063754e-01
-3.710242239609629067e-01
-3.521736109736512410e-01
-3.330444973176169832e-01
-3.137127028056961309e-01
-2.942536785557991474e-01
-2.747419938177430576e-01
-2.552508252451424209e-01
-2.358514545116442707e-01
-2.166127800896169853e-01
-1.976008489900094311e-01
-1.788784141521007620e-01
-1.605045226884825316e-01
-1.425341400026517991e-01
-1.250178144376964118e-01
-1.080013865006195645e-01
-9.152574606024571624e-02
-7.562664052951131866e-02
-6.033453612464174248e-02
-4.567453382668903300e-02
-3.166634071837444442e-02
-1.832429679702764908e-02
-5.657456460525735545e-03
6.330276801898974438e-03
1.763996457691938829e-02
2.827739954073603401e-02
3.825282683533147432e-02
4.758062479453060295e-02
5.627894966575015812e-02
6.436934948424259673e-02
7.187635246780781084e-02
7.882703570797960912e-02
8.525058008109216712e-02
9.117781734686171424e-02
9.664077565694945138e-02
1.016722294160042894e-01
1.063052592846825545e-01
1.105728280314969419e-01
1.145073773210767559e-01
1.181404504829141888e-01
1.215023455983980372e-01
1.246218027970066450e-01
1.275257289101572045e-01
1.302389624293760761e-01
1.327840803862221919e-01
1.351812487596139589e-01
1.374481170358017312e-01
1.395997567692279229e-01
1.416486436028962792e-01
1.436046813050193827e-01
1.454752654726352012e-01
1.472653858909142854e-01
1.489777628981337199e-01
1.506130146437425210e-01
1.521698516858172034e-01
1.536452946500350136e-01
1.550349104306990300e-01
1.563330624269015645e-01
1.575331701862931200e-01
1.586279734760073779e-01
1.596097964929064639e-01
1.604708074937808981e-01
1.612032696853940572e-01
1.617997792855284944e-01
1.622534871000550216e-01
1.625583004399248355e-01
1.627090624513682915e-01
1.627017064558782811e-01
1.625333834530469646e-01
1.622025614155228890e-01
1.617090956515493394e-01
1.610542698040586806e-01
1.602408076742586340e-01
1.592728566513709199e-01
1.581559439026797576e-01
1.568969069985387543e-01
1.555038009170242319e-01
1.539857838501548781e-01
1.523529845066959876e-01
1.506163538145582070e-01
1.487875041557520928e-01
1.468785394659000987e-01
1.449018793721859322e-01
1.428700808669255140e-01
1.407956607002286975e-01
1.386909217451861853e-01
1.365677862745989790e-01
1.344376389945345085e-01
1.323111824337960540e-01
1.301983069292584616e-01
1.281079771129107758e-01
1.260481365348065375e-01
1.240256316121490093e-01
1.220461557567787125e-01
1.201142141657782075e-01
1.182331092560374441e-01
1.164049465649850262e-01
1.146306602429611188e-01
1.129100573262564744e-01
1.112418794661934607e-01
1.096238803567608361e-01
1.080529172756783673e-01
1.065250544676272504e-01
1.050356762731855659e-01
1.035796077823425837e-01
1.021512405678505209e-01
1.007446610665330006e-01
9.935377930112521128e-02
9.797245560857587021e-02
9.659462308969708755e-02
9.521440392349435344e-02
9.382621749481326323e-02
9.242487872988888742e-02
9.100568513646313529e-02
8.956449149748153815e-02
8.809777107028138321e-02
8.660266289662824080e-02
8.507700467501508323e-02
8.351935124849195480e-02
8.192897871554034872e-02
8.030587480868479899e-02
7.865071613085479474e-02
7.696483319397354195e-02
7.525016437803556946e-02
7.350920014907767752e-02
7.174491883419695237e-02
6.996071566833761413e-02
6.816032669925105314e-02
6.634774922618412452e-02
6.452716032849764582e-02
6.270283543541606275e-02
6.087906825911069963e-02
5.906009380131134467e-02
5.725001582865836547e-02
5.545274000756364452e-02
5.367191398826576254e-02
5.191087527416209102e-02
5.017260770555773824e-02
4.845970709758220391e-02
4.677435640026275654e-02
4.511831062089770999e-02
4.349289142362415539e-02
4.189899114339013658e-02
4.033708581505106305e-02
3.880725667644928378e-02
3.730921941807913145e-02
3.584236012939216037e-02
3.440577717357836546e-02
3.299832772465589176e-02
3.161867788507259636e-02
3.026535526401474482e-02
2.893680266309335558e-02
2.763143165847966459e-02
2.634767507360197616e-02
2.508403703235029605e-02
2.383913968903111913e-02
2.261176558385042182e-02
2.140089487815459088e-02
2.020573672696202028e-02
1.902575421609353085e-02
1.786068249345821105e-02
1.671053974617927804e-02
1.557563107385971993e-02
1.445654502862808548e-02
1.335414332969513465e-02
1.226954394907514394e-02
1.120409803243913732e-02
1.015936128396933286e-02
9.137060511617708936e-03
8.139056136287885906e-03
7.167301514995024977e-03
6.223799996280506355e-03
5.310560690496229398e-03
4.429553854283166912e-03
3.582666962907017985e-03
2.771662304699779554e-03
1.998137059211617036e-03
1.263486597401301034e-03
5.688718723331437441e-04
-8.480853605277716405e-05
-6.969411360458556458e-04
-1.267214486119303462e-03
-1.795630236551732295e-03
-2.282507817741486530e-03
-2.728483028497712300e-03
-3.134500295080111954e-03
-3.501798936980574269e-03
-3.831893631416769409e-03
-4.126549582359957322e-03
-4.387752908805006916e-03
-4.617676845547699811e-03
-4.818644389571043359e-03
-4.993088230031731203e-03
-5.143508629444062605e-03
-5.272430218264990108e-03
-5.382358444007304295e-03
-5.475736611995878599e-03
-5.554904183294176977e-03
-5.622057325203403885e-03
-5.679212183840579367e-03
-5.728171818926450741e-03
-5.770497281794258367e-03
-5.807483344195411325e-03
-5.840139282089326124e-03
-5.869175120274865501e-03
-5.894993442956374119e-03
-5.917686984872928997e-03
-5.937041904955630070e-03
-5.952546683658866897e-03
-5.963406400839120665e-03
-5.968562085066886000e-03
-5.966714740920220708e-03
-5.956353544611028318e-03
-5.935787592549736369e-03
-5.903180755210822757e-03
-5.856588745570637591e-03
-5.793997854755933950e-03
-5.713364494311824401e-03
-5.612654936164787958e-03
-5.489884442229447069e-03
-5.343155109612967614e-03
-5.170691713698459535e-03
-4.970875024033104966e-03
-4.742271796899700902e-03
-4.483661165150602292e-03
-4.194056912212645524e-03
-3.872725253319626165e-03
-3.519197885467488778e-03
-3.133280135078190826e-03
-2.715054157536014347e-03
-2.264877066720551169e-03
-1.783374236493399413e-03
-1.271427975177785849e-03
-7.301617696592030199e-04
-1.609205310966086377e-04
4.347529300745807206e-04
1.055144371530566559e-03
1.698397315748490215e-03
2.362544183491683061e-03
3.045538883442339660e-03
3.745290274678739467e-03
4.459695723432010109e-03
5.186674235531683191e-03
5.924198510632259877e-03
6.670325384070511891e-03
7.423224178422067020e-03
8.181202320494738653e-03
8.942727871292105446e-03
9.706448638212385183e-03
1.047120745213263836e-02
1.123605353067360681e-02
1.200024967615661957e-02
1.276327521249874877e-02
1.352482471296658460e-02
1.428480259732328901e-02
1.504331372115400890e-02
1.580065016396004288e-02
1.655727461432644071e-02
1.731380057076392989e-02
1.807096980747520051e-02
1.882962755176032649e-02
1.959069586165552990e-02
2.035514571056147581e-02
2.112396823236849241e-02
2.189814573974544973e-02
2.267862296478112896e-02
2.346627917319493717e-02
2.426190152635928840e-02
2.506616016611545872e-02
2.587958542834941505e-02
2.670254769691227104e-02
2.753524003770910222e-02
2.837766410436596068e-02
2.922961944105656462e-02
3.009069623421101181e-02
3.096027173004687119e-02
3.183751035057491574e-02
3.272136741004877392e-02
3.361059633804907437e-02
3.450375933557150998e-02
3.539924119529466034e-02
3.629526593986830141e-02
3.718991610317570751e-02
3.808115419872232926e-02
3.896684605463588552e-02
3.984478558820563066e-02
4.071272064436039229e-02
4.156837929853588604e-02
4.240949632340007547e-02
4.323383930740205827e-02
4.403923414141640985e-02
4.482358923121882582e-02
4.558491829484033475e-02
4.632136123161206820e-02
4.703120283029200988e-02
4.771288899960385993e-02
4.836504035109768368e-02
4.898646291041745815e-02
4.957615587350210767e-02
5.013331634017547528e-02
5.065734095219659450e-02
5.114782447978106356e-02
5.160455558585210628e-02
5.202750969296601052e-02
5.241683922565607695e-02
5.277286141842644357e-02
5.309604407833104500e-02
5.338698933562407989e-02
5.364641595728624618e-02
5.387514031379219553e-02
5.407405655046586962e-02
5.424411622048468107e-02
5.438630778065864368e-02
5.450163620614535687e-02
5.459110317506651877e-02
5.465568815852109297e-02
5.469633059913264761e-02
5.471391352843905237e-02
5.470924897281806421e-02
5.468306524326747853e-02
5.463599626170333179e-02
5.456857310944178419e-02
5.448121803566349786e-02
5.437424072140851355e-02
5.424783702280609049e-02
5.410209007797209257e-02
5.393697369148792858e-02
5.375235795723532634e-02
5.354801696364411973e-02
5.332363829674716810e-02
5.307883432430112597e-02
5.281315488186182072e-02
5.252610117019431563e-02
5.221714057666466263e-02
5.188572208420295928e-02
5.153129211179439256e-02
5.115331033653284371e-02
5.075126539065989706e-02
5.032468989595084013e-02
4.987317486688257889e-02
4.939638302808358611e-02
4.889406083710118311e-02
4.836604900809133439e-02
4.781229150406848816e-02
4.723284257391464208e-02
4.662787198923957349e-02
4.599766822742881733e-02
4.534263948398572358e-02
4.466331279983761643e-02
4.396033099406264355e-02
4.323444769764627632e-02
4.248652044164317326e-02
4.171750188348682942e-02
4.092842950348181408e-02
4.012041379498857557e-02
3.929462513857398531e-02
3.845227964182677816e-02
3.759462423520063684e-02
3.672292110391635334e-02
3.583843186085419047e-02
3.494240162991012894e-02
3.403604338020797815e-02
3.312052264283129460e-02
3.219694293709127880e-02
3.126633220419555020e-02
3.032963029448621298e-02
2.938767789944081790e-02
2.844120688000558936e-02
2.749083238624422734e-02
2.653704678089434041e-02
2.558021538356981470e-02
2.462057419238090558e-02
2.365822969421801925e-02
2.269316060923138104e-02
2.172522161353170056e-02
2.075414906390639358e-02
1.977956842021535641e-02
1.880100357423421589e-02
1.781788773339221255e-02
1.682957567804119550e-02
1.583535730372889402e-02
1.483447227007347706e-02
1.382612553130211502e-02
1.280950338499301996e-02
1.178378997774859327e-02
1.074818400629736631e-02
9.701915399081630781e-03
8.644261564198023676e-03
7.574563212250511740e-03
6.492239364552705207e-03
5.396801550197542589e-03
4.287866777926236869e-03
3.165169202090324738e-03
2.028570391116740930e-03
8.780679484053459643e-04
-2.861975382792145747e-04
-1.463937234013530132e-03
-2.654710701642357291e-03
-3.857924356096559346e-03
-5.072831792361360420e-03
-6.298535932593618721e-03
-7.533992988991281003e-03
-8.778018160025047312e-03
-1.002929291719418733e-02
-1.128637384025633905e-02
-1.254770287535417715e-02
-1.381161877508260173e-02
-1.507636966973982182e-02
-1.634012665406607903e-02
-1.760099798316741224e-02
-1.885704390475961140e-02
-2.010629185703836572e-02
-2.134675187869424298e-02
-2.257643207739641264e-02
-2.379335386202487135e-02
-2.499556690299044662e-02
-2.618116349647888960e-02
-2.734829237382939426e-02
-2.849517167508719417e-02
-2.962010104081578069e-02
-3.072147268346606119e-02
-3.179778128215459548e-02
-3.284763270744005259e-02
-3.386975150803781670e-02
-3.486298701212073303e-02
-3.582631830131874362e-02
-3.675885761399105139e-02
-3.765985251536670131e-02
-3.852868675106177476e-02
-3.936487989507794771e-02
-4.016808561971656893e-02
-4.093808886832782379e-02
-4.167480196627652844e-02
-4.237825963085678493e-02
-4.304861307926979852e-02
-4.368612332526718850e-02
-4.429115363036222747e-02
-4.486416140071218528e-02
-4.540568944303245008e-02
-4.591635680428715616e-02
-4.639684927748359555e-02
-4.684790959646550901e-02
-4.727032755482198090e-02
-4.766492992523515410e-02
-4.803257048850415045e-02
-4.837412008947672426e-02
-4.869045700336501609e-02
-4.898245736281132967e-02
-4.925098606589468908e-02
-4.949688798354671959e-02
-4.972097956755745785e-02
-4.992404109164936404e-02
-5.010680925925307255e-02
-5.026997052097504498e-02
-5.041415497227272335e-02
-5.053993088707609688e-02
-5.064779999405586569e-02
-5.073819344375123108e-02
-5.081146856277612284e-02
-5.086790639149142701e-02
-5.090770998192043623e-02
-5.093100351110103202e-02
-5.093783225699943101e-02
-5.092816342476061409e-02
-5.090188776195803122e-02
-5.085882211264879105e-02
-5.079871280238596604e-02
-5.072123982183911195e-02
-5.062602191309374666e-02
-5.051262246680309626e-02
-5.038055617120858892e-02
-5.022929640214417180e-02
-5.005828343908106520e-02
-4.986693326503176260e-02
-4.965464697507054187e-02
-4.942082075978780631e-02
-4.916485628658374962e-02
-4.888617154296764217e-02
-4.858421191917068616e-02
-4.825846144611876248e-02
-4.790845407851949955e-02
-4.753378495508746998e-02
-4.713412143276969613e-02
-4.670921378582788830e-02
-4.625890549001642621e-02
-4.578314281481789261e-02
-4.528198377163675237e-02
-4.475560613280159944e-02
-4.420431439226538139e-02
-4.362854561032052103e-02
-4.302887396785173152e-02
-4.240601392753957227e-02
-4.176082196002977448e-02
-4.109429660884498375e-02
-4.040757694449118032e-02
-3.970193930243757358e-02
-3.897879233925383852e-02
-3.823967028922021366e-02
-3.748622450462413269e-02
-3.672021331496710256e-02
-3.594349026213594644e-02
-3.515799074703272048e-02
-3.436571724284520624e-02
-3.356872319995973103e-02
-3.276909580551954498e-02
-3.196893777111375901e-02
-3.117034827685310344e-02
-3.037540340121310314e-02
-2.958613617719633992e-02
-2.880451657943459629e-02
-2.803243169494267634e-02
-2.727166625380034182e-02
-2.652388387041290305e-02
-2.579060924708452898e-02
-2.507321147004346051e-02
-2.437288882486500843e-02
-2.369065529872748516e-02
-2.302732896750586677e-02
-2.238352242109219181e-02
-2.175963551412526606e-02
-2.115585054120429354e-02
-2.057212983291005839e-02
-2.000821612612160502e-02
-1.946363546437101730e-02
-1.893770287943652431e-02
-1.842953072451982213e-02
-1.793803957738389354e-02
-1.746197165948356125e-02
-1.699990665774486071e-02
-1.655027976615321833e-02
-1.611140175252472051e-02
-1.568148082112019726e-02
-1.525864592767563720e-02
-1.484097146704876566e-02
-1.442650273788301588e-02
-1.401328217614714045e-02
-1.359937574996376332e-02
-1.318289934489541224e-02
-1.276204468933905302e-02
-1.233510455065447292e-02
-1.190049681082997260e-02
-1.145678711630701042e-02
-1.100270981273603239e-02
-1.053718681996290360e-02
-1.005934420475559053e-02
-9.568526280346344171e-03
-9.064306919418627442e-03
-8.546497996601020580e-03
-8.015154855087028990e-03
-7.470578687510999807e-03
-6.913315746808954693e-03
-6.344153464416712497e-03
-5.764113508453498451e-03
-5.174441805095488650e-03
-4.576595810482780857e-03
-3.972228931413303646e-03
-3.363172588060691932e-03
-2.751416055663734057e-03
-2.139084322838106806e-03
-1.528414296795042177e-03
-9.217296826768721016e-04
-3.214148923162076410e-04
2.701117550276712601e-04
8.504250581512921891e-04
1.417119909854608643e-03
1.967837816873650812e-03
2.500292673216449914e-03
3.012295375488557251e-03
3.501777045176546720e-03
3.966810607748796902e-03
4.405630378846764512e-03
4.816649445209375546e-03
5.198474662639733686e-03
5.549919118964444578e-03
5.870011998993116160e-03
6.158005642579447367e-03
6.413379959826772184e-03
6.635843991200060174e-03
6.825334831531036477e-03
6.982013904047297548e-03
7.106260748587449501e-03
7.198664470231545993e-03
7.260013048173894618e-03
7.291280723131131174e-03
7.293613699871397821e-03
7.268314397393687946e-03
7.216824527223818578e-03
7.140707303199282131e-03
7.041629104099290590e-03
6.921340684041078772e-03
6.781658447232458836e-03
6.624445996355031105e-03
6.451596082583804792e-03
6.265013271572406756e-03
6.066597626974988382e-03
5.858229440037499014e-03
5.641755244464132131e-03
5.418975276878753786e-03
5.191632451893251829e-03
4.961402957666417694e-03
4.729888355813034219e-03
4.498609365338191758e-03
4.269001287149076784e-03
4.042410893079330728e-03
3.820094796178257878e-03
3.603219154573934768e-03
3.392860549263868476e-03
3.190007922517812920e-03
2.995565391788608447e-03
2.810355808247408729e-03
2.635124760370745941e-03
2.470544924624902983e-03
2.317220609219350792e-03
2.175692234963976564e-03
2.046440568023818584e-03
1.929890616558586815e-03
1.826415072926200305e-03
1.736337022080543897e-03
1.659932044253836954e-03
1.597429412826030775e-03
1.549012496338405924e-03
1.514818290838386818e-03
1.494936099412325688e-03
1.489405384581403684e-03
1.498212818078513203e-03
1.521288685747747629e-03
1.558502728380614741e-03
1.609659575946629628e-03
1.674493861212782500e-03
1.752665260177912456e-03
1.843753531599087942e-03
1.947253868625138315e-03
2.062572626344701295e-03
2.189023680480056862e-03
2.325825598154494366e-03
2.472099766785672021e-03
2.626869631553385535e-03
2.789061268775941838e-03
2.957505239155026975e-03
3.130940006872256695e-03
3.308016949345743939e-03
3.487306930525656875e-03
3.667308456478183144e-03
3.846457501142428945e-03
4.023138747149521827e-03
4.195698410890592693e-03
4.362458366812598139e-03
4.521731432237488177e-03
4.671837742319659599e-03
4.811121889398209395e-03
4.937970638218475324e-03
5.050831297356206916e-03
5.148229597324953215e-03
5.228787671661773440e-03
5.291241684951895029e-03
5.334458690359141636e-03
5.357452424722073010e-03
5.359397882905765111e-03
5.339644368091148001e-03
5.297726665485879942e-03
5.233374391159808375e-03
5.146519077684952662e-03
5.037298908497649455e-03
4.906061010648968441e-03
4.753361233270980875e-03
4.579961311288497164e-03
4.386823329860363614e-03
4.175101625823742293e-03
3.946132184406820308e-03
3.701419600397277097e-03
3.442621771677455752e-03
3.171532427900628035e-03
2.890061818518797638e-03
2.600215759950431048e-03
2.304073341811892824e-03
2.003763481493295740e-03
1.701440782468130247e-03
1.399260934461270776e-03
1.099356114906452960e-03
8.038105505760499920e-04
5.146367579656033241e-04
2.337527110046355597e-04
-3.703977931244410124e-05
-2.960750652960772206e-04
-5.418418194497154859e-04
-7.729991442680670191e-04
-9.883903264168649068e-04
-1.187054102625152837e-03
-1.368233209465275803e-03
-1.531380234471212132e-03
-1.676160565366762410e-03
-1.802452497338845414e-03
-1.910344522012407276e-03
-2.000129816229869514e-03
-2.072298039849578260e-03
-2.127524628794466143e-03
-2.166657712925450664e-03
-2.190702932242651231e-03
-2.200806279506552481e-03
-2.198235412358107502e-03
-2.184359646540429568e-03
-2.160628859832164610e-03
-2.128551834557166657e-03
-2.089674157010880991e-03
-2.045556130699164189e-03
-1.997751034798875454e-03
-1.947784007431346484e-03
-1.897131902557094634e-03
-1.847204339612193045e-03
-1.799326314863880808e-03
-1.754722451265358424e-03
-1.714503308760626909e-03
-1.679653752522032887e-03
-1.651023581871146912e-03
-1.629320473082152086e-03
-1.615105405508571092e-03
-1.608790385702344979e-03
-1.610638665697880891e-03
-1.620767243243325609e-03
-1.639151644009628110e-03
-1.665632689774363935e-03
-1.699925315208204724e-03
-1.741629045397476540e-03
-1.790240001341321168e-03
-1.845164164394270598e-03
-1.905731669185671421e-03
-1.971211765853387275e-03
-2.040828287923444374e-03
-2.113775274320010313e-03
-2.189232562123979899e-03
-2.266380866455254030e-03
-2.344416360510497965e-03
-2.422564306461888733e-03
-2.500091624069282654e-03
-2.576318182258387386e-03
-2.650626572044260162e-03
-2.722470406974162108e-03
-2.791380830437045508e-03
-2.856971307123268907e-03
-2.918940588546416973e-03
-2.977073823828757602e-03
-3.031241976591905491e-03
-3.081399496147366971e-03
-3.127580375859096914e-03
-3.169892669641370241e-03
-3.208511744811886474e-03
-3.243672385247876096e-03
-3.275659791045423819e-03
-3.304799942085675287e-03
-3.331449412211820449e-03
-3.355984730752755406e-03
-3.378791833228889444e-03
-3.400255561329890586e-03
-3.420749550639293982e-03
-3.440626749337020833e-03
-3.460210590340374263e-03
-3.479787212438441649e-03
-3.499598758008006655e-03
-3.519837934189543049e-03
-3.540643911028977953e-03
-3.562099683906037265e-03
-3.584230859854031608e-03
-3.607005920744797180e-03
-3.630338050871456234e-03
-3.654088243798242226e-03
-3.678069904159369727e-03
-3.702054621324834226e-03
-3.725779092866196747e-03
-3.748952949118786009e-03
-3.771267420948683051e-03
-3.792404597481359614e-03
-3.812047110967450771e-03
-3.829887974444487041e-03
-3.845640337690376092e-03
-3.859047044961633807e-03
-3.869889723341822258e-03
-3.877997203215777754e-03
-3.883253041699544564e-03
-3.885602022162567941e-03
-3.885055524831206378e-03
-3.881695412951018977e-03
-3.875676540579002342e-03
-3.867227811463243379e-03
-3.856651543661106154e-03
-3.844321356405770718e-03
-3.830678387923257440e-03
-3.816226013105289243e-03
-3.801523053336761018e-03
-3.787175683675445513e-03
-3.773828114318576645e-03
-3.762152150870996629e-03
-3.752835871479914213e-03
-3.746571660474944023e-03
-3.744043759136655731e-03
-3.745915566713564800e-03
-3.752816939094892525e-03
-3.765331787280824533e-03
-3.783986068457393867e-03
-3.809236573891206824e-03
-3.841460601369112160e-03
-3.880946839670695522e-03
-3.927887566149465548e-03
-3.982372351692561874e-03
-4.044383448506647973e-03
-4.113792948609162371e-03
-4.190361747452849700e-03
-4.273740491801480447e-03
-4.363472378133306101e-03
-4.458997903354874545e-03
-4.559661461108230167e-03
-4.664719637695541668e-03
-4.773351198724069648e-03
-4.884668546168825440e-03
-4.997730459043773187e-03
-5.111555970016896065e-03
-5.225139044481951281e-03
-5.337463869183128005e-03
-5.447520527292191647e-03
-5.554320751762180895e-03
-5.656913429440490505e-03
-5.754399655555981347e-03
-5.845947013451362195e-03
-5.930802919932955108e-03
-6.008306621825139707e-03
-6.077899814508150485e-03
-6.139135544541912855e-03
-6.191685292681525440e-03
-6.235344047266629282e-03
-6.270033325382342974e-03
-6.295802074594783124e-03
-6.312825321892777397e-03
-6.321400756001700934e-03
-6.321943169982013715e-03
-6.314976883569117967e-03
-6.301126269143412194e-03
-6.281104559995948078e-03
-6.255701220652056319e-03
-6.225767853309066742e-03
-6.192203225644015915e-03
-6.155937410531842242e-03
-6.117915545994199317e-03
-6.079081434931626372e-03
-6.040361241629640075e-03
-6.002647652235040127e-03
-5.966784775240412814e-03
-5.933554131356221645e-03
-5.903661996966878996e-03
-5.877728289977049783e-03
-5.856277278555686340e-03
-5.839730342845457327e-03
-5.828400855953721170e-03
-5.822491427550388274e-03
-5.822093546051001697e-03
-5.827189614125635742e-03
-5.837657382773376799e-03
-5.853276785343902895e-03
-5.873739046476327344e-03
-5.898657906303876423e-03
-5.927582841880435841e-03
-5.960013991904671363e-03
-5.995418549621375943e-03
-6.033248365083284520e-03
-6.072958415657442321e-03
-6.114025856905020394e-03
-6.155969185199294119e-03
-6.198367259098712737e-03
-6.240877766607589618e-03
-6.283254849189916572e-03
-6.325365452563101905e-03
-6.367204058179041018e-03
-6.408905510620558320e-03
-6.450755708943802826e-03
-6.493199765205369400e-03
-6.536847541449244091e-03
-6.582476424946443784e-03
-6.631031000604110416e-03
-6.683619746957207911e-03
-6.741508620438996409e-03
-6.806111578139355939e-03
-6.878978092215187745e-03
-6.961777793825036677e-03
-7.056282465518746473e-03
-7.164345461163575124e-03
-7.287878915086328131e-03
-7.428828985609073690e-03
-7.589149534252743502e-03
-7.770774539974252201e-03
-7.975589680576666146e-03
-8.205403428459002654e-03
-8.461918067925872089e-03
-8.746701071730776655e-03
-9.061157322511103132e-03
-9.406502515572331968e-03
-9.783738118865164396e-03
-1.019362826312956993e-02
-1.063667893740219070e-02
-1.111311980198841955e-02
-1.162288880842329841e-02
-1.216561997718007028e-02
-1.274063442167848448e-02
-1.334693477073667540e-02
-1.398320313266377367e-02
-1.464780256540577918e-02
-1.533878215881928631e-02
-1.605388554176811686e-02
-1.679056275779998095e-02
-1.754598533739026509e-02
-1.831706454001696613e-02
-1.910047227132196171e-02
-1.989266461149935550e-02
-2.068990753947813968e-02
-2.148830468939707389e-02
-2.228382674111690706e-02
-2.307234202091727054e-02
-2.384964807991167904e-02
-2.461150391346070623e-02
-2.535366239675430552e-02
-2.607190264481893879e-02
-2.676206190718043512e-02
-2.742006696044470976e-02
-2.804196444327011067e-02
-2.862394993743973964e-02
-2.916239563830361550e-02
-2.965387648714832777e-02
-3.009519438775671435e-02
-3.048340056222283850e-02
-3.081581593301941507e-02
-3.109004936307304887e-02
-3.130401376104782057e-02
-3.145594000324627298e-02
-3.154438869094634140e-02
-3.156825983970279470e-02
-3.152680038650135241e-02
-3.141960966405094036e-02
-3.124664290150092755e-02
-3.100821272350247348e-02
-3.070498877718736211e-02
-3.033799554790523462e-02
-2.990860840241435156e-02
-2.941854786949852155e-02
-2.886987228147872009e-02
-2.826496877824869955e-02
-2.760654257785167404e-02
-2.689760464393272169e-02
-2.614145779935712552e-02
-2.534168099893644235e-02
-2.450211202814515238e-02
-2.362682853151455015e-02
-2.272012714643733763e-02
-2.178650103460662291e-02
-2.083061548215471917e-02
-1.985728182538828643e-02
-1.887142951837772822e-02
-1.787807639520223174e-02
-1.688229729117616054e-02
-1.588919099269777910e-02
-1.490384559853275524e-02
-1.393130251609013548e-02
-1.297651929731820884e-02
-1.204433144912801963e-02
-1.113941350283319080e-02
-1.026623969956314344e-02
-9.429044620532697416e-03
-8.631784096414263710e-03
-7.878096790222990572e-03
-7.171267102053208164e-03
-6.514189628774608859e-03
-5.909335830717327327e-03
-5.358723316409900149e-03
-4.863888360732163997e-03
-4.425862148932801880e-03
-4.045151123880054087e-03
-3.721721992792908964e-03
-3.454991940148022505e-03
-3.243824209397220670e-03
-3.086529559307639881e-03
-2.980873851916531012e-03
-2.924091907278245778e-03
-2.912907797643981417e-03
-2.943561655987901506e-03
-3.011842792014325469e-03
-3.113129126447259851e-03
-3.242432518375092804e-03
-3.394449813377064824e-03
-3.563618911338338295e-03
-3.744179482151297009e-03
-3.930237553459585940e-03
-4.115833323580102114e-03
-4.295011196667974061e-03
-4.461891327063720672e-03
-4.610741522936314708e-03
-4.736048727942082127e-03
-4.832588836639927117e-03
-4.895493886804238443e-03
-4.920315550740262181e-03
-4.903083938397799491e-03
-4.840360680335198049e-03
-4.729285490282383007e-03
-4.567615123188100042e-03
-4.353754190687551297e-03
-4.086776999381495391e-03
-3.766440122738397810e-03
-3.393185023863537833e-03
-2.968130686464242468e-03
-2.493056099414823167e-03
-1.970372706228884583e-03
-1.403086969225735914e-03
-7.947536260373051515e-04
-1.494200472491114592e-04
5.284375229673546250e-04
1.233984881743390143e-03
1.962106975948597030e-03
2.707490035691690385e-03
3.464707449883616501e-03
4.228308075827453758e-03
4.992905489641289926e-03
5.753266717951683283e-03
6.504398884406631907e-03
7.241632495342117601e-03
7.960699625756849016e-03
8.657805780211247360e-03
9.329694009934825019e-03
9.973700085493126741e-03
1.058779761527134204e-02
1.117063225112904443e-02
1.172154410377489707e-02
1.224057798895356215e-02
1.272848089045633055e-02
1.318668665389455610e-02
1.361728795309406596e-02
1.402299592645749222e-02
1.440708788235504911e-02
1.477334386393492141e-02
1.512597314301013934e-02
1.546953175172117480e-02
1.580883239691611639e-02
1.614884837406985185e-02
1.649461298126083525e-02
1.685111645779048539e-02
1.722320207714718790e-02
1.761546344762959793e-02
1.803214488081979899e-02
1.847704677083481656e-02
1.895343788400190993e-02
1.946397620409650100e-02
2.001064007864310906e-02
2.059467111914912302e-02
2.121653024879681035e-02
2.187586779064642009e-02
2.257150859310082941e-02
2.330145273993929067e-02
2.406289208507821076e-02
2.485224282869738510e-02
2.566519361807318225e-02
2.649676876810964574e-02
2.734140559315938884e-02
2.819304483534415540e-02
2.904523270868267226e-02
2.989123292553796940e-02
3.072414676777792883e-02
3.153703925407085745e-02
3.232306899297832103e-02
3.307561942703444308e-02
3.378842911065716575e-02
3.445571848711067448e-02
3.507231071771214903e-02
3.563374418261341242e-02
3.613637431835325237e-02
3.657746270403577221e-02
3.695525132481574521e-02
3.726902041608420868e-02
3.751912834271527164e-02
3.770703235434393064e-02
3.783528947418005051e-02
3.790753696733703548e-02
3.792845233351234413e-02
3.790369309542981902e-02
3.783981701743039522e-02
3.774418393688139944e-02
3.762484048696425332e-02
3.749038962354886428e-02
3.734984697596648029e-02
3.721248656707767943e-02
3.708767841369287055e-02
3.698472111502762449e-02
3.691267242030160656e-02
3.688018092735959041e-02
3.689532231147175934e-02
3.696544328976401894e-02
3.709701651883809403e-02
3.729550964343148617e-02
3.756527141085029553e-02
3.790943744355323303e-02
3.832985833146369120e-02
3.882705189163730003e-02
3.940018148580768514e-02
4.004706160182142788e-02
4.076419152112478045e-02
4.154681739840779264e-02
4.238902255935889790e-02
4.328384540003606118e-02
4.422342355224500449e-02
4.519916267801546428e-02
4.620192753624277615e-02
4.722225279197626163e-02
4.825057021021674636e-02
4.927744881689441470e-02
5.029384404120169905e-02
5.129135171532600568e-02
5.226246248138510797e-02
5.320081199307732933e-02
5.410142236240546298e-02
5.496092995812582732e-02
5.577779514758236801e-02
5.655248944998506749e-02
5.728765574872013433e-02
5.798823785820418630e-02
5.866157570752224965e-02
5.931746308889033342e-02
5.996816527760899518e-02
6.062839467536156740e-02
6.131524287594204703e-02
6.204806825472183179e-02
6.284833925503428842e-02
6.373943366032193414e-02
6.474639531254822167e-02
6.589565025182377023e-02
6.721468476465199127e-02
6.873168873012121260e-02
7.047516834266784325e-02
7.247353252386824762e-02
7.475465815673222603e-02
7.734543959630649224e-02
8.027132820763892285e-02
8.355586828897991480e-02
8.722023546506578462e-02
9.128278427768862779e-02
9.575861120321364772e-02
1.006591397886651695e-01
1.059917338956509469e-01
1.117593452562390677e-01
1.179602008435362837e-01
1.245875352927046376e-01
1.316293730735981771e-01
1.390683644533520225e-01
1.468816786525016516e-01
1.550409569719617964e-01
1.635123277504967054e-01
1.722564843636753829e-01
1.812288266011680971e-01
1.903796649210486580e-01
1.996544861972938123e-01
2.089942789320747285e-01
2.183359149424178025e-01
2.276125838820733105e-01
2.367542763061620537e-01
2.456883101323353857e-01
2.543398950676069581e-01
2.626327289275942611e-01
2.704896193811925365e-01
2.778331242681484903e-01
2.845862035361503284e-01
2.906728756421549931e-01
2.960188713417001294e-01
3.005522776456969747e-01
3.042041650522091523e-01
3.069091914185178571e-01
3.086061760159269918e-01
3.092386381336343915e-01
3.087552944955845868e-01
3.071105108377378823e-01
3.042647034228124769e-01
3.001846869130898598e-01
2.948439657352316390e-01
2.882229669020631158e-01
2.803092127825200230e-01
2.710974334044576883e-01
2.605896181983413662e-01
2.487950081241464828e-01
2.357300296389966132e-01
2.214181726704294584e-01
2.058898154032240690e-01
1.891819990188789991e-01
1.713381562954844062e-01
1.524077981137681170e-01
1.324461623403499488e-01
1.115138299149638218e-01
8.967631296614970993e-02
6.700361994691557410e-02
4.356980278844862359e-02
1.945249118474631431e-02
-5.267581453178527169e-03
-3.050705558628671529e-02
-5.618042225862120154e-02
-8.220049500625560557e-02
-1.084788732258324256e-01
-1.349263937182787476e-01
-1.614535674377812480e-01
-1.879709991167576033e-01
-2.143897878372242882e-01
-2.406219069161261437e-01
-2.665805619368987189e-01
-2.921805266065351514e-01
-3.173384559122757742e-01
-3.419731767917703613e-01
-3.660059568571475963e-01
-3.893607518568892867e-01
-4.119644329805491889e-01
-4.337469950857719136e-01
-4.546417473817914723e-01
-4.745854879338911037e-01
-4.935186633882378548e-01
-5.113855155531550345e-01
-5.281342161424822379e-01
-5.437169909535602974e-01
-5.580902346302633044e-01
-5.712146169324806566e-01
-5.830551813069749789e-01
-5.935814360298699022e-01
-6.027674383537705571e-01
-6.105918713605366088e-01
-6.170381133045441668e-01
-6.220942987369030286e-01
-6.257533705837097227e-01
-6.280131220327211938e-01
-6.288762268394647581e-01
-6.283502566119032462e-01
-6.264476834175146669e-01
-6.231858660534962402e-01
-6.185870180065965451e-01
-6.126781554544665775e-01
-6.054910235509410876e-01
-5.970619994496887406e-01
-5.874319704588389923e-01
-5.766461862149923068e-01
-5.647540837766640287e-01
-5.518090850676702352e-01
-5.378683662013583611e-01
-5.229925987908242702e-01
-5.072456635421586091e-01
-4.906943370405326688e-01
-4.734079530509114897e-01
-4.554580398547978803e-01
-4.369179357970263133e-01
-4.178623856077518517e-01
-3.983671202996071359e-01
-3.785084240022226210e-01
-3.583626912990748870e-01
-3.380059788840324431e-01
-3.175135557605833769e-01
-2.969594561351472928e-01
-2.764160394250624320e-01
-2.559535619294104336e-01
-2.356397644880622311e-01
-2.155394804511474860e-01
-1.957142682318616933e-01
-1.762220724353368295e-01
-1.571169172107549639e-01
-1.384486352395072062e-01
-1.202626354275704995e-01
-1.025997116593763275e-01
-8.549589484002236006e-02
-6.898234965864016854e-02
-5.308531705526357836e-02
-3.782610285435089592e-02
-2.322111237114291710e-02
-9.281930198589194436e-03
3.984556187892927988e-03
1.657599078514113145e-02
2.849434389730635259e-02
3.974567039972469462e-02
5.033983471909465879e-02
6.029020647652285486e-02
6.961333080467443923e-02
7.832857789982888841e-02
8.645777642724664092e-02
9.402483571080212654e-02
1.010553615259407595e-01
1.075762705353803250e-01
1.136154080879614586e-01
1.192011743678842717e-01
1.243621632708421659e-01
1.291268183512808698e-01
1.335231098645156822e-01
1.375782364620665166e-01
1.413183545798435692e-01
1.447683384437414289e-01
1.479515727016892379e-01
1.508897794205745213e-01
1.536028805234735950e-01
1.561088962704541561e-01
1.584238796587998099e-01
1.605618863959080989e-01
1.625349792840827257e-01
1.643532654695822603e-01
1.660249645235768179e-01
1.675565049161925057e-01
1.689526461161410531e-01
1.702166231159339682e-01
1.713503100335899143e-01
1.723543991768842765e-01
1.732285918630960819e-01
1.739717970334540009e-01
1.745823340668941348e-01
1.750581357894374079e-01
1.753969482163597882e-01
1.755965233976323481e-01
1.756548021366581558e-01
1.755700836596722769e-01
1.753411794700534265e-01
1.749675491526398174e-01
1.744494161150222100e-01
1.737878619024473548e-01
1.729848978304069362e-01
1.720435133833166930e-01
1.709677010893669857e-01
1.697624581679506306e-01
1.684337654873518386e-01
1.669885449029455959e-01
1.654345963418596965e-01
1.637805163455598456e-01
1.620356000559162735e-01
1.602097289733353802e-01
1.583132468429292727e-01
1.563568263945711301e-01
1.543513295919202166e-01
1.523076641886935423e-01
1.502366393399501565e-01
1.481488230995987032e-01
1.460544043288704574e-01
1.439630616136579055e-01
1.418838414031285411e-01
1.398250475501328638e-01
1.377941440640531312e-01
1.357976726024278935e-01
1.338411859879688193e-01
1.319291986782790693e-01
1.300651549067944057e-01
1.282514145553820539e-01
1.264892568883577428e-01
1.247789016607559198e-01
1.231195469422635136e-01
1.215094227516647085e-01
1.199458591936548163e-01
1.184253676333697491e-01
1.169437331935659352e-01
1.154961168172255886e-01
1.140771648640568486e-01
1.126811240996035968e-01
1.113019600937001363e-01
1.099334768668268347e-01
1.085694354080920243e-01
1.072036694146851488e-01
1.058301960564035499e-01
1.044433200754397717e-01
1.030377295141880617e-01
1.016085815375340901e-01
1.001515772555925388e-01
9.866302448721724072e-02
9.713988766577678902e-02
9.557982440345245967e-02
9.398120848440459640e-02
9.234313912930759705e-02
9.066543695830070471e-02
8.894862712724224685e-02
8.719391020504302370e-02
8.540312188383114567e-02
8.357868246120425670e-02
8.172353749336017104e-02
7.984109082242811517e-02
7.793513166981523577e-02
7.600975724514030807e-02
7.406929253560470827e-02
7.211820883057380727e-02
7.016104251546892434e-02
6.820231582003578874e-02
6.624646091053310037e-02
6.429774865290288632e-02
6.236022329764234068e-02
6.043764416704319742e-02
5.853343535213715448e-02
5.665064392869566950e-02
5.479190741079761895e-02
5.295943087023273488e-02
5.115497363844363765e-02
4.937984577349772281e-02
4.763491394962637848e-02
4.592061643092747864e-02
4.423698642042171725e-02
4.258368322697930058e-02
4.096003031797645910e-02
3.936505920356569294e-02
3.779755814725985902e-02
3.625612460238968049e-02
3.473922012152865640e-02
3.324522647135008668e-02
3.177250182400613576e-02
3.031943588952690574e-02
2.888450265934215319e-02
2.746630985737257349e-02
2.606364408327852683e-02
2.467551072214536206e-02
2.330116792165346645e-02
2.194015399755222182e-02
2.059230783151380639e-02
1.925778188649179476e-02
1.793704764910708169e-02
1.663089359186701102e-02
1.534041567461893497e-02
1.406700078673404214e-02
1.281230349381791249e-02
1.157821655338576311e-02
1.036683601481544828e-02
9.180421633925605826e-03
8.021353391818086820e-03
6.892085103479987651e-03
5.795096036961546251e-03
4.732841517648952133e-03
3.707703611295731175e-03
2.721942779565213362e-03
1.777651462869082140e-03
8.767105245170907311e-04
2.074942014523735095e-05
-7.888891115665517617e-04
-1.551179282755607743e-03
-2.265436779104003547e-03
-2.931337108232509332e-03
-3.548927454149496119e-03
-4.118631932605120068e-03
-4.641250032595224673e-03
-5.117948349057972399e-03
-5.550245864687899933e-03
-5.939992958676954503e-03
-6.289344641803112056e-03
-6.600728466838268714e-03
-6.876807787839819830e-03
-7.120441009778901570e-03
-7.334637561707798084e-03
-7.522511497125634883e-03
-7.687233409348046692e-03
-7.831981693927628912e-03
-7.959893772450822927e-03
-8.074018358326851344e-03
-8.177269492603641068e-03
-8.272383127538805378e-03
-8.361876991155219388e-03
-8.448014340400785901e-03
-8.532772232546656510e-03
-8.617814762929250708e-03
-8.704471717323754298e-03
-8.793722830051623265e-03
-8.886187933886909029e-03
-8.982123027660078932e-03
-9.081422193988211364e-03
-9.183625335510170809e-03
-9.287931469762622169e-03
-9.393217258219420385e-03
-9.498060326994454960e-03
-9.600766974178758656e-03
-9.699403639940302677e-03
-9.791831616699334800e-03
-9.875744293907936719e-03
-9.948706274204478436e-03
-1.000819369986606470e-02
-1.005163506422600099e-02
-1.007645183799054517e-02
-1.008009821947259028e-02
-1.006009937000964388e-02
-1.001408751917452593e-02
-9.939835441203857466e-03
-9.835286779480666153e-03
-9.698582799889806164e-03
-9.528085231784336889e-03
-9.322394927962374817e-03
-9.080366213022562569e-03
-8.801116601713100673e-03
-8.484032129241803749e-03
-8.128768196447949679e-03
-7.735246110580948353e-03
-7.303645466242790138e-03
-6.834392739750280894e-03
-6.328146323951602294e-03
-5.785778362342178932e-03
-5.208353942470577910e-03
-4.597108065643286737e-03
-3.953420852534573343e-03
-3.278791483680809030e-03
-2.574811373544321977e-03
-1.843137164624433560e-03
-1.085463971248101962e-03
-3.034994401542684904e-04
5.010610246520886581e-04
1.326557441091976222e-03
2.171386425895642514e-03
3.034020012137021109e-03
3.913021858019334435e-03
4.807060692238714419e-03
5.714920813363831217e-03
6.635509429088847291e-03
7.567860983353857582e-03
8.511138365993937971e-03
9.464631091524100190e-03
1.042775059454741603e-02
1.140002288242286492e-02
1.238107869048896310e-02
1.337064143647404696e-02
1.436851320503170458e-02
1.537455920600692624e-02
1.638869106523973412e-02
1.741084914689789223e-02
1.844098441471102301e-02
1.947904011950713984e-02
2.052493380072670237e-02
2.157853984038237555e-02
2.263967289323494045e-02
2.370807251679222724e-02
2.478338939929185594e-02
2.586517324513689514e-02
2.695286263902463286e-02
2.804577692716144627e-02
2.914311052354207413e-02
3.024392943198330949e-02
3.134717011167569012e-02
3.245164075878827215e-02
3.355602493197820668e-02
3.465888736640371920e-02
3.575868192248234101e-02
3.685376155822691485e-02
3.794239008891611697e-02
3.902275548683963036e-02
4.009298450868079705e-02
4.115115852181928241e-02
4.219533016421830179e-02
4.322354051331695618e-02
4.423383660345855950e-02
4.522428902350774521e-02
4.619300925163100785e-02
4.713816649138784232e-02
4.805800382234038520e-02
4.895085338554237830e-02
4.981515042980371594e-02
5.064944600750638515e-02
5.145241821930816167e-02
5.222288180539436109e-02
5.295979605384534827e-02
5.366227094476203052e-02
5.432957132546326062e-02
5.496111932732560684e-02
5.555649494248319359e-02
5.611543472945517558e-02
5.663782882409731934e-02
5.712371621784438636e-02
5.757327850146861520e-02
5.798683216725053491e-02
5.836481952634289122e-02
5.870779851354390733e-02
5.901643144410995134e-02
5.929147292034863542e-02
5.953375709641686719e-02
5.974418441331400681e-02
5.992370803356571185e-02
6.007332004680557974e-02
6.019403771268915654e-02
6.028688986270600708e-02
6.035290366038214421e-02
6.039309171407891697e-02
6.040843983482208773e-02
6.039989552147730090e-02
6.036835720532181260e-02
6.031466440887325864e-02
6.023958891130181542e-02
6.014382698676076777e-02
6.002799264631157594e-02
5.989261211484230712e-02
5.973811951714715074e-02
5.956485362486685364e-02
5.937305591693794321e-02
5.916286977055314200e-02
5.893434086914667303e-02
5.868741869521974797e-02
5.842195923841992516e-02
5.813772869990414122e-02
5.783440829855911874e-02
5.751159994777033102e-02
5.716883294588542136e-02
5.680557141089431772e-02
5.642122257317835204e-02
5.601514569007613048e-02
5.558666162242693887e-02
5.513506287310782072e-02
5.465962412816174204e-02
5.415961305367858469e-02
5.363430143273956174e-02
5.308297637275102149e-02
5.250495155556911958e-02
5.189957845154649640e-02
5.126625733570955301e-02
5.060444801798101577e-02
4.991368025009330217e-02
4.919356358700317788e-02
4.844379670016969036e-02
4.766417588422981050e-02
4.685460295346326881e-02
4.601509207837407162e-02
4.514577569848286787e-02
4.424690931656349857e-02
4.331887524810289908e-02
4.236218505150039088e-02
4.137748072406350480e-02
4.036553453574248662e-02
3.932724758159716200e-02
3.826364684846145919e-02
3.717588096430777395e-02
3.606521449583266481e-02
3.493302093604513936e-02
3.378077438473207211e-02
3.261003985402675248e-02
3.142246251999092355e-02
3.021975578004209434e-02
2.900368828039887742e-02
2.777607015463269199e-02
2.653873846213020832e-02
2.529354205197368796e-02
2.404232600862352826e-02
2.278691587586848324e-02
2.152910174446856506e-02
2.027062250913711297e-02
1.901315041950649154e-02
1.775827614759845421e-02
1.650749456552953048e-02
1.526219144079293127e-02
1.402363119904961875e-02
1.279294594453164909e-02
1.157112594470286263e-02
1.035901169190364506e-02
9.157287637212940465e-03
7.966477834168572345e-03
6.786943462749522871e-03
5.618882405553042060e-03
4.462330799583040866e-03
3.317166755256390712e-03
2.183116037359390024e-03
1.059759831066884542e-03
-5.345549854183423487e-05
-1.157206796405945782e-03
-2.252280772229992793e-03
-3.339558988363917902e-03
-4.420001471768858145e-03
-5.494629060145049537e-03
-6.564504702428420636e-03
-7.630713893405260267e-03
-8.694344620752534128e-03
-9.756466948395213154e-03
-1.081811266474323394e-02
-1.188025513424153037e-02
-1.294378969168571980e-02
-1.400951471177792895e-02
-1.507811382529895827e-02
-1.615013940374648849e-02
-1.722599767956754097e-02
-1.830593554683485058e-02
-1.939002945112522358e-02
-2.047817633174827193e-02
-2.157008689354427203e-02
-2.266528133417432256e-02
-2.376308757744322042e-02
-2.486264211883556369e-02
-2.596289340928535638e-02
-2.706260786086884390e-02
-2.816037844650657457e-02
-2.925463559904995306e-02
-3.034366054625365142e-02
-3.142560079612979895e-02
-3.249848762721056078e-02
-3.356025535144189359e-02
-3.460876208316056302e-02
-3.564181184785139567e-02
-3.665717766545642520e-02
-3.765262525794624976e-02
-3.862593720445878231e-02
-3.957493711052201268e-02
-4.049751355327552149e-02
-4.139164344715821897e-02
-4.225541457703684695e-02
-4.308704675699889797e-02
-4.388491164298271435e-02
-4.464755076290864710e-02
-4.537369155785737213e-02
-4.606226112445404447e-02
-4.671239760624684711e-02
-4.732345894686805499e-02
-4.789502897321266939e-02
-4.842692073723424417e-02
-4.891917691770473336e-02
-4.937206747548592706e-02
-4.978608434521115955e-02
-5.016193350114361155e-02
-5.050052430598008651e-02
-5.080295637841051454e-02
-5.107050408227772204e-02
-5.130459887727748663e-02
-5.150680984516237820e-02
-5.167882253337067328e-02
-5.182241649833511238e-02
-5.193944172178883989e-02
-5.203179446266253949e-02
-5.210139252450505382e-02
-5.215015063751772539e-02
-5.217995599018666192e-02
-5.219264439918677723e-02
-5.218997742662394995e-02
-5.217362067143018617e-02
-5.214512365419737838e-02
-5.210590141057761665e-02
-5.205721816484724235e-02
-5.200017324110670774e-02
-5.193568935427258365e-02
-5.186450351862117308e-02
-5.178716064000901675e-02
-5.170400984886703438e-02
-5.161520358208696035e-02
-5.152069957691250007e-02
-5.142026559405876718e-02
-5.131348674137486271e-02
-5.119977544488873294e-02
-5.107838375024843780e-02
-5.094841795769863152e-02
-5.080885530424414376e-02
-5.065856236088424336e-02
-5.049631488866737627e-02
-5.032081910431300542e-02
-5.013073380356235925e-02
-4.992469313877549719e-02
-4.970132974666689046e-02
-4.945929782168697469e-02
-4.919729598683873772e-02
-4.891408950277088830e-02
-4.860853153849623715e-02
-4.827958321865096630e-02
-4.792633228149147800e-02
-4.754800996006898484e-02
-4.714400593494384728e-02
-4.671388121354317496e-02
-4.625737867839721518e-02
-4.577443120425531836e-02
-4.526516728054075234e-02
-4.472991404197425303e-02
-4.416919764839144502e-02
-4.358374115142598509e-02
-4.297445975179008115e-02
-4.234245360235561195e-02
-4.168899821653285209e-02
-4.101553266095570027e-02
-4.032364571257690544e-02
-3.961506011830046720e-02
-3.889161523877417842e-02
-3.815524830337302387e-02
-3.740797447889680077e-02
-3.665186608941032459e-02
-3.588903127053539449e-02
-3.512159229172275715e-02
-3.435166385137429501e-02
-3.358133159387380329e-02
-3.281263120011462808e-02
-3.204752833823554942e-02
-3.128789961673405368e-02
-3.053551485171155516e-02
-2.979202089485216004e-02
-2.905892705119782204e-02
-2.833759253211251550e-02
-2.762921585530266413e-02
-2.693482642661812476e-02
-2.625527837089145639e-02
-2.559124662281388185e-02
-2.494322532726810787e-02
-2.431152862187060948e-02
-2.369629359729302776e-02
-2.309748553410089639e-02
-2.251490525516785038e-02
-2.194819840573150951e-02
-2.139686658250733453e-02
-2.086028017604522541e-02
-2.033769269706155181e-02
-1.982825633655138989e-02
-1.933103861009714472e-02
-1.884503981067605152e-02
-1.836921095909615359e-02
-1.790247215750647922e-02
-1.744373095797478040e-02
-1.699190057656516789e-02
-1.654591762244905437e-02
-1.610475924561082309e-02
-1.566745932096159227e-02
-1.523312354475940024e-02
-1.480094325359893742e-02
-1.437020773348668748e-02
-1.394031490661855333e-02
-1.351078026189402037e-02
-1.308124390381168282e-02
-1.265147571892487506e-02
-1.222137837503514853e-02
-1.179098839042039618e-02
-1.136047520477073344e-02
-1.093013808603869076e-02
-1.050040119679931938e-02
-1.007180674601903560e-02
-9.645006341572030448e-03
-9.220750731404532205e-03
-8.799878006331002256e-03
-8.383300540474354287e-03
-7.971990675964889944e-03
-7.566965549424550276e-03
-7.169271193774861238e-03
-6.779966056325904995e-03
-6.400104277824314111e-03
-6.030718947205207514e-03
-5.672805480658216735e-03
-5.327305465740699540e-03
-4.995091082712857511e-03
-4.676950398903340946e-03
-4.373573722914499487e-03
-4.085541170811403042e-03
-3.813311654242555748e-03
-3.557213456044847327e-03
-3.317436506058171058e-03
-3.094026448043468800e-03
-2.886880643954820979e-03
-2.695746097061330060e-03
-2.520219410961650752e-03
-2.359748693018127747e-03
-2.213637501956407933e-03
-2.081050761776790606e-03
-1.961022504917286566e-03
-1.852465401558174053e-03
-1.754182036257392885e-03
-1.664877647925865674e-03
-1.583174295462950239e-03
-1.507626181456412154e-03
-1.436736020211156623e-03
-1.368972165221057739e-03
-1.302786359612724803e-03
-1.236631894312167912e-03
-1.168981771750254124e-03
-1.098346831049351775e-03
-1.023293591328263688e-03
-9.424614457439958737e-04
-8.545791457320161405e-04
-7.584802696110700846e-04
-6.531174695684931805e-04
-5.375754035380263338e-04
-4.110820843965597876e-04
-2.730185469894724141e-04
-1.229267292774495002e-04
3.948455283355859115e-05
2.143356837396554837e-04
4.015742877469910847e-04
6.009753283565496445e-04
8.121432945093854999e-04
1.034516360135334396e-03
1.267372559386479094e-03
1.509837845768330356e-03
1.760895900855429484e-03
2.019399639825587324e-03
2.284084161594377230e-03
2.553581147178674710e-03
2.826434346778116703e-03
3.101116021527600998e-03
3.376044098533270005e-03
3.649599864991549640e-03
3.920145990686910858e-03
4.186044593719657515e-03
4.445675077519322185e-03
4.697451685274273148e-03
4.939840370413679793e-03
5.171374966755140634e-03
5.390672263293643830e-03
5.596445934595564373e-03
5.787519109948186490e-03
5.962835462220881892e-03
6.121468671090708746e-03
6.262630247796233986e-03
6.385675511302760926e-03
6.490107768808488393e-03
6.575580689270915657e-03
6.641898789515205195e-03
6.689016102108751027e-03
6.717033209441800566e-03
6.726192499224654432e-03
6.716871883888405302e-03
6.689577092441838409e-03
6.644932618574872843e-03
6.583671587899069845e-03
6.506624610123778671e-03
6.414707848093981722e-03
6.308910504569296106e-03
6.190281891704289136e-03
6.059918273707990376e-03
5.918949737313003792e-03
5.768527204423275906e-03
5.609809827706303993e-03
5.443952912357556857e-03
5.272096559311180257e-03
5.095355054398140703e-03
4.914807333343087711e-03
4.731488470255594721e-03
4.546382304775819887e-03
4.360415285266541589e-03
4.174451617609438447e-03
3.989289684680051400e-03
3.805659740998683285e-03
3.624222828856759563e-03
3.445570952011727493e-03
3.270228354534597884e-03
3.098653779996763183e-03
2.931243716859667590e-03
2.768336480157648598e-03
2.610216958090223315e-03
2.457121848934119227e-03
2.309245347466592092e-03
2.166745011187621878e-03
2.029747761275608672e-03
1.898355746025361720e-03
1.772652016298223183e-03
1.652705812534641973e-03
1.538577422474308098e-03
1.430322350971065509e-03
1.327994846582979810e-03
1.231650587464499938e-03
1.141348594794922662e-03
1.057152187274153655e-03
9.791290684432762438e-04
9.073504741594874082e-04
8.418894301728563909e-04
7.828182129348645229e-04
7.302050039504964438e-04
6.841098904392847171e-04
6.445802651513923365e-04
6.116457653656327039e-04
5.853128576676056060e-04
5.655592704616386373e-04
5.523283944357963498e-04
5.455237968403006807e-04
5.450040317510650763e-04
5.505778906260384246e-04
5.620002022717014495e-04
5.789684172530453919e-04
6.011200433810219915e-04
6.280310852194393931e-04
6.592155394366763137e-04
6.941260725528536867e-04
7.321559197116285370e-04
7.726419865010418974e-04
8.148693567578658373e-04
8.580769697177148070e-04
9.014645068988018373e-04
9.442004320177513994e-04
9.854310476005102761e-04
1.024290535786031610e-03
1.059911787299239877e-03
1.091437823894490832e-03
1.118033711682036701e-03
1.138898689260496068e-03
1.153278348303605778e-03
1.160476736433709065e-03
1.159868025123433595e-03
1.150907520351078257e-03
1.133141945401168861e-03
1.106218637901773679e-03
1.069893604165597254e-03
1.024038089715389099e-03
9.686436812521446917e-04
9.038256901674710528e-04
8.298247089697097104e-04
7.470062853853770427e-04
6.558586969197252115e-04
5.569887643617662783e-04
4.511157407199774673e-04
3.390632635543009039e-04
2.217495917072583663e-04
1.001760937061793019e-04
-2.458573094889962603e-05
-1.514086502951560869e-04
-2.791251940141914532e-04
-4.065440103515819532e-04
-5.324669747299622113e-04
-6.557065888152971249e-04
-7.751035269118408417e-04
-8.895439653796058084e-04
-9.979764603709913567e-04
-1.099427967507667341e-03
-1.193018875498938871e-03
-1.277976690930209642e-03
-1.353648102976725285e-03
-1.419509255115702874e-03
-1.475173994578774569e-03
-1.520399946712024499e-03
-1.555092232417341121e-03
-1.579304768553019310e-03
-1.593239153010670740e-03
-1.597240967920330462e-03
-1.591793643361652348e-03
-1.577509951306762257e-03
-1.555121177366643095e-03
-1.525464211100362698e-03
-1.489466657589031892e-03
-1.448130296431745200e-03
-1.402513108466388412e-03
-1.353710142213343254e-03
-1.302833583348393231e-03
-1.250992352389494354e-03
-1.199271625125653950e-03
-1.148712525101068180e-03
-1.100292444584530325e-03
-1.054906315130516069e-03
-1.013349242008107541e-03
-9.763007164284765891e-04
-9.443107916765622681e-04
-9.177885017662005315e-04
-8.969926536142588469e-04
-8.820253437371905524e-04
-8.728282717197821715e-04
-8.691819781515302710e-04
-8.707079915388932787e-04
-8.768740541976539947e-04
-8.870022204145424282e-04
-9.002798481215582580e-04
-9.157732253360685321e-04
-9.324437398210564439e-04
-9.491663228471415841e-04
-9.647497728283417834e-04
-9.779587117699085463e-04
-9.875368644461505249e-04
-9.922311741293646757e-04
-9.908163954741693036e-04
-9.821196996355680605e-04
-9.650449148410180158e-04
-9.385959426193341178e-04
-9.018989111206713585e-04
-8.542226601951149068e-04
-7.949971990092575104e-04
-7.238297550785336050e-04
-6.405181047145988311e-04
-5.450609286154610997e-04
-4.376649304886117147e-04
-3.187485602644795496e-04
-1.889422233055913249e-04
-4.908492057207699573e-05
9.978266327523004227e-05
2.564286242368177325e-04
4.194436394357447802e-04
5.872580263606839339e-04
7.581616969757795340e-04
9.303268039570803619e-04
1.101832688813936300e-03
1.270692707650508853e-03
1.434882649213648940e-03
1.592370116679359387e-03
1.741144529375338512e-03
1.879247135078555668e-03
2.004800631480763672e-03
2.116037858743194475e-03
2.211329048535672168e-03
2.289207226244841572e-03
2.348391247970180867e-03
2.387806135069481337e-03
2.406600356419812126e-03
2.404159694214788416e-03
2.380117469319791967e-03
2.334360932870994595e-03
2.267033636592994793e-03
2.178533842885672141e-03
2.069508872862898998e-03
1.940845504590954377e-03
1.793656575444737894e-03
1.629263971624135467e-03
1.449178359749516169e-03
1.255075803117938933e-03
1.048771822680384528e-03
8.321932936605856007e-04
6.073485961707168106e-04
3.762965294349747869e-04
1.411146088836958952e-04
-9.613292076898537024e-05
-3.334266778937321988e-04
-5.688227956057748070e-04
-8.004821556983531200e-04
-1.026697706995865090e-03
-1.245919417691171644e-03
-1.456776466739283845e-03
-1.658096250309117146e-03
-1.848919916872639960e-03
-2.028514117780710890e-03
-2.196378946934333595e-03
-2.352251815899852102e-03
-2.496107210671259097e-03
-2.628152405921896709e-03
-2.748819197163644354e-03
-2.858751868543498928e-03
-2.958791613495274225e-03
-3.049957667334757174e-03
-3.133425550079731777e-03
-3.210502801445607422e-03
-3.282602687270457474e-03
-3.351216304829699854e-03
-3.417883700798636168e-03
-3.484164439522408150e-03
-3.551608215017428710e-03
-3.621725952667730411e-03
-3.695962051523356447e-03
-3.775668239442181613e-03
-3.862079456930824373e-03
-3.956292256520633002e-03
-4.059246082725206754e-03
-4.171707775801078953e-03
-4.294259560065307423e-03
-4.427290744539723669e-03
-4.570993201448853883e-03
-4.725360824815115143e-03
-4.890192805117552291e-03
-5.065100824596174660e-03
-5.249519814643840467e-03
-5.442722223492586081e-03
-5.643835433119899145e-03
-5.851861966595366983e-03
-6.065702167328033446e-03
-6.284178831437116711e-03
-6.506063434963895928e-03
-6.730103312234421778e-03
-6.955049317693091926e-03
-7.179683517358846807e-03
-7.402846276967507341e-03
-7.623462238193736557e-03
-7.840564810767485654e-03
-8.053318582755174260e-03
-8.261039228837011375e-03
-8.463210623981401795e-03
-8.659498790057125472e-03
-8.849762388110977984e-03
-9.034059579578566229e-03
-9.212651154903649456e-03
-9.385999813122462496e-03
-9.554765586025864774e-03
-9.719797537727616413e-03
-9.882121853252804136e-03
-1.004292652610099500e-02
-1.020354298610175355e-02
-1.036542491085207587e-02
-1.053012459946183789e-02
-1.069926739617244049e-02
-1.087452459308220487e-02
-1.105758525103556211e-02
-1.125012747077114988e-02
-1.145378960422103673e-02
-1.167014189455115904e-02
-1.190065908873056029e-02
-1.214669432734933469e-02
-1.240945485294858187e-02
-1.268997996654991876e-02
-1.298912151881534936e-02
-1.330752724834095499e-02
-1.364562717237443115e-02
-1.400362324571649032e-02
-1.438148232852540231e-02
-1.477893261798015820e-02
-1.519546345725718284e-02
-1.563032851685168881e-02
-1.608255206012680280e-02
-1.655093826632354076e-02
-1.703408334521391149e-02
-1.753039004619983895e-02
-1.803808432400841322e-02
-1.855523381591792434e-02
-1.907976766193984069e-02
-1.960949732202046589e-02
-2.014213809746119577e-02
-2.067533086060153666e-02
-2.120666352347999953e-02
-2.173369211081137981e-02
-2.225396090562178214e-02
-2.276502145785741504e-02
-2.326445023278314247e-02
-2.374986463737000994e-02
-2.421893730747712303e-02
-2.466940851325161860e-02
-2.509909661446287424e-02
-2.550590665487044439e-02
-2.588783705045271527e-02
-2.624298456038080471e-02
-2.656954763216628351e-02
-2.686582833837037124e-02
-2.713023313668812622e-02
-2.736127269431355355e-02
-2.755756105571085385e-02
-2.771781450125730684e-02
-2.784085030541018010e-02
-2.792558568845453573e-02
-2.797103734057315369e-02
-2.797632158382633294e-02
-2.794065557622496879e-02
-2.786335965696916384e-02
-2.774386100299310043e-02
-2.758169867088889129e-02
-2.737653000977106205e-02
-2.712813862455340508e-02
-2.683644347715280834e-02
-2.650150928329750646e-02
-2.612355785034824532e-02
-2.570298025220557961e-02
-2.524034934542441003e-02
-2.473643239519958750e-02
-2.419220342078053781e-02
-2.360885492819378081e-02
-2.298780835146121623e-02
-2.233072303662781907e-02
-2.163950312959627559e-02
-2.091630200820769961e-02
-2.016352395340464607e-02
-1.938382240562214545e-02
-1.858009484274404655e-02
-1.775547366403200378e-02
-1.691331307130892331e-02
-1.605717181777964464e-02
-1.519079165953503806e-02
-1.431807158568614013e-02
-1.344303797851372634e-02
-1.256981094196259890e-02
-1.170256697617458840e-02
-1.084549855949819806e-02
-1.000277100885685160e-02
-9.178477212382806644e-03
-8.376590874118766683e-03
-7.600918969895308075e-03
-6.855054217838545995e-03
-6.142328261714643731e-03
-5.465766423144621279e-03
-4.828044917566149015e-03
-4.231451195790165119e-03
-3.677848373289655318e-03
-3.168644492585150595e-03
-2.704767162668931559e-03
-2.286644358855438423e-03
-1.914191953722303805e-03
-1.586808232666986687e-03
-1.303375925435300070e-03
-1.062271897240864120e-03
-8.613846097447117305e-04
-6.981391695265842497e-04
-5.695299657886747705e-04
-4.721603707307701447e-04
-4.022891104325978097e-04
-3.558827456434129725e-04
-3.286734919710126231e-04
-3.162214826248085464e-04
-3.139805647471939415e-04
-3.173665327783441984e-04
-3.218267320867984008e-04
-3.229097800815348171e-04
-3.163344021859979221e-04
-2.980559531856751703e-04
-2.643295405146523468e-04
-2.117684354049444758e-04
-1.373968951636125304e-04
-3.869619528170161339e-05
8.635695176121066714e-05
2.392604584868479167e-04
4.209660729667452704e-04
6.318682018095711722e-04
8.718027079662961278e-04
1.140055866788145878e-03
1.435383405952104976e-03
1.756039483974018451e-03
2.099815113309702001e-03
2.464085533963847503e-03
2.845865720346731423e-03
3.241873090896488837e-03
3.648596372232578138e-03
4.062369296151429471e-03
4.479447949393056475e-03
4.896090232915027186e-03
5.308635883125869225e-03
5.713585632815629950e-03
6.107677956167313453e-03
6.487961746482934916e-03
6.851863618414189352e-03
7.197248387004132573e-03
7.522471255878731590e-03
7.826420791691249615e-03
8.108551563312783872e-03
8.368905699413686089e-03
8.608122579316852471e-03
8.827436443549736139e-03
9.028661656253754789e-03
9.214165659689235385e-03
9.386830054274646062e-03
9.550000248978642720e-03
9.707424435573744695e-03
9.863182882495456771e-03
1.002160890921832172e-02
1.018720279149520035e-02
1.036454023681606003e-02
1.055817709565669629e-02
1.077255213990585547e-02
1.101188983960948303e-02
1.128010505498406972e-02
1.158071154420621356e-02
1.191673619803506473e-02
1.229064097573110553e-02
1.270425399273108179e-02
1.315871168785329517e-02
1.365441318346474579e-02
1.419098817902400035e-02
1.476727932635736422e-02
1.538133975434292748e-02
1.603044618493270831e-02
1.671112779216955835e-02
1.741921057621347718e-02
1.814987683698369991e-02
1.889773890725620839e-02
1.965692603868047020e-02
2.042118317410088202e-02
2.118397988643010849e-02
2.193862764770233495e-02
2.267840341393346018e-02
2.339667724746774188e-02
2.408704157462632223e-02
2.474343968507460023e-02
2.536029088361688166e-02
2.593260996506281668e-02
2.645611844253923511e-02
2.692734514873952253e-02
2.734371403426885325e-02
2.770361723525778183e-02
2.800647161701686969e-02
2.825275719045282699e-02
2.844403638262320635e-02
2.858295315917423404e-02
2.867321164601638328e-02
2.871953411492528252e-02
2.872759851121578500e-02
2.870395640354700753e-02
2.865593236964690538e-02
2.859150633576915818e-02
2.851918061863565820e-02
2.844783396595700065e-02
2.838656503503013753e-02
2.834452805564716127e-02
2.833076372429236753e-02
2.835402850484870091e-02
2.842262546719355118e-02
2.854424026935447126e-02
2.872578543750873778e-02
2.897325631878012661e-02
2.929160175677125028e-02
2.968461262221095201e-02
3.015483092437752990e-02
3.070348177797294423e-02
3.133043046252390745e-02
3.203416622538617781e-02
3.281181398396304516e-02
3.365917475105632134e-02
3.457079503777467366e-02
3.554006489532008511e-02
3.655934383103862789e-02
3.762011320130820291e-02
3.871315328325525967e-02
3.982874263783733881e-02
4.095687684003555817e-02
4.208750334949242639e-02
4.321076879322693215e-02
4.431727461218578495e-02
4.539833674757930843e-02
4.644624485336655562e-02
4.745451635436996607e-02
4.841814056685428413e-02
4.933380815784533385e-02
5.020012127553951514e-02
5.101777994643721253e-02
5.178974043365088681e-02
5.252134163405330902e-02
5.322039615055763201e-02
5.389724280871193568e-02
5.456475823660898727e-02
5.523832566162467650e-02
5.593575946910103042e-02
5.667718504875408209e-02
5.748487382936492973e-02
5.838303438247260252e-02
5.939756099181704718e-02
6.055574195838533957e-02
6.188593031420148299e-02
6.341718063282617002e-02
6.517885590198634060e-02
6.720020916045443826e-02
6.950994510617056199e-02
7.213576710294243577e-02
7.510391560778442721e-02
7.843870421681065075e-02
8.216205962926025064e-02
8.629307204899933081e-02
9.084756227081117186e-02
9.583767204425999719e-02
1.012714834371442746e-01
1.071526733939796999e-01
1.134802086710986618e-01
1.202480861766419967e-01
1.274451231526960993e-01
1.350548009349874234e-01
1.430551653702828441e-01
1.514187864741739220e-01
1.601127787451684936e-01
1.690988830838698054e-01
1.783336102964284131e-01
1.877684454804535996e-01
1.973501116679604317e-01
2.070208903411338563e-01
2.167189958195274435e-01
2.263789996747984923e-01
2.359323006203853379e-01
2.453076350303292075e-01
2.544316224302491380e-01
2.632293399396427036e-01
2.716249195256896787e-01
2.795421613032065822e-01
2.869051563048595765e-01
2.936389117877124533e-01
2.996699724378750762e-01
3.049270307245909861e-01
3.093415200088702188e-01
3.128481842252565648e-01
3.153856184913474414e-01
3.168967751899553487e-01
3.173294308551657950e-01
3.166366095987466767e-01
3.147769594649620362e-01
3.117150787833043446e-01
3.074217903556460962e-01
3.018743617373670363e-01
2.950566708591751408e-01
2.869593167729674876e-01
2.775796760005169728e-01
2.669219055828395137e-01
2.549968946724543439e-01
2.418221668834289462e-01
2.274217359953854267e-01
2.118259184453712141e-01
1.950711062097666149e-01
1.771995037157992892e-01
1.582588331462751186e-01
1.383020121631470811e-01
1.173868085007933187e-01
9.557547575263654338e-02
7.293437461710032543e-02
4.953358361413649769e-02
2.544650337435114609e-02
7.494581009753448859e-04
-2.447870245324992866e-02
-5.015699738148066827e-02
-7.620270267688261656e-02
-1.025317307879402562e-01
-1.290589996309514098e-01
-1.556987897606732230e-01
-1.823650885084785733e-01
-2.089719204606811376e-01
-2.354336639886380755e-01
-2.616653538268873258e-01
-2.875829702021049927e-01
-3.131037149396561636e-01
-3.381462754831067175e-01
-3.626310777450847400e-01
-3.864805291052677005e-01
-4.096192525600658718e-01
-4.319743133031403448e-01
-4.534754388007555814e-01
-4.740552335567617126e-01
-4.936493893695470536e-01
-5.121968919142154686e-01
-5.296402239659906419e-01
-5.459255656782266986e-01
-5.610029917548207123e-01
-5.748266652535669596e-01
-5.873550272799517025e-01
-5.985509816765193225e-01
-6.083820733548727100e-01
-6.168206587497468973e-01
-6.238440665670470509e-01
-6.294347467232109805e-01
-6.335804052086874139e-01
-6.362741224856918176e-01
-6.375144528020256773e-01
-6.373055019060631654e-01
-6.356569805651490768e-01
-6.325842312950226143e-01
-6.281082260001417117e-01
-6.222555321284692909e-01
-6.150582455206827781e-01
-6.065538882246581665e-01
-5.967852698912201603e-01
-5.858003117808004978e-01
-5.736518329321610432e-01
-5.603972984156238013e-01
-5.460985301104225309e-01
-5.308213810278155087e-01
-5.146353746214116232e-01
-4.976133110690965644e-01
-4.798308431689602971e-01
-4.613660248363502525e-01
-4.422988355746840794e-01
-4.227106850347602807e-01
-4.026839019266508779e-01
-3.823012119294608713e-01
-3.616452095524175792e-01
-3.407978290397252752e-01
-3.198398197003329835e-01
-2.988502309861241213e-01
-2.779059125526626151e-01
-2.570810347188968170e-01
-2.364466344675013043e-01
-2.160701916313065019e-01
-1.960152398874900892e-01
-1.763410168728957172e-01
-1.571021569061993861e-01
-1.383484296744812436e-01
-1.201245274008708036e-01
-1.024699027200605267e-01
-8.541865845529975076e-02
-6.899949031234482721e-02
-5.323568233125514776e-02
-3.814515472570515625e-02
-2.374056263155018345e-02
-1.002944411517503465e-02
2.985585231696806507e-03
1.530659415470937527e-02
2.694005777629781065e-02
3.789654388131995927e-02
4.819036793750958170e-02
5.783922187185591701e-02
6.686378165056156009e-02
7.528729925657652589e-02
8.313518436942507472e-02
9.043458139010615571e-02
9.721394734101250490e-02
1.035026359853497974e-01
1.093304934168367465e-01
1.147274700065153974e-01
1.197232532807955552e-01
1.243469259780995151e-01
1.286266529213691279e-01
1.325893999537325896e-01
1.362606875405709961e-01
1.396643812645369520e-01
1.428225205338914949e-01
1.457551864425411514e-01
1.484804090124373366e-01
1.510141135201541196e-01
1.533701048779795573e-01
1.555600886964247087e-01
1.575937269037100408e-01
1.594787255320450070e-01
1.612209516506542539e-01
1.628245761590203511e-01
1.642922389053622367e-01
1.656252322024744927e-01
1.668236987962519180e-01
1.678868400667105909e-01
1.688131303143435014e-01
1.696005330714544790e-01
1.702467154069781108e-01
1.707492562588238394e-01
1.711058453126708956e-01
1.713144689127985842e-01
1.713735801825900518e-01
1.712822505897331204e-01
1.710403007188744939e-01
1.706484086468341155e-01
1.701081943648735384e-01
1.694222795015795091e-01
1.685943220296723111e-01
1.676290259261549731e-01
1.665321264522964528e-01
1.653103519019330503e-01
1.639713633162657169e-01
1.625236738159973882e-01
1.609765497227282349e-01
1.593398957896885737e-01
1.576241271435663005e-01
1.558400307590906975e-01
1.539986193472233089e-01
1.521109807048816043e-01
1.501881254372925689e-01
1.482408361054856905e-01
1.462795206326081010e-01
1.443140727483757102e-01
1.423537419637295742e-01
1.404070154541651738e-01
1.384815138438727777e-01
1.365839026246273014e-01
1.347198207543690296e-01
1.328938273999213937e-01
1.311093676083017190e-01
1.293687572798813690e-01
1.276731873684884555e-01
1.260227470080730328e-01
1.244164649096974190e-01
1.228523678879676478e-01
1.213275553481848179e-01
1.198382880256548128e-01
1.183800892481567946e-01
1.169478567190584684e-01
1.155359825929312412e-01
1.141384796081132968e-01
1.127491109688280313e-01
1.113615215502835321e-01
1.099693680150693326e-01
1.085664457418141354e-01
1.071468102247710996e-01
1.057048909957655353e-01
1.042355961080782129e-01
1.027344055762442476e-01
1.011974523794571118e-01
9.962158966899974100e-02
9.800444345141495761e-02
9.634445005000372153e-02
9.464087802055877463e-02
9.289383439166346013e-02
9.110425557558447796e-02
8.927388324937488018e-02
8.740522618835828983e-02
8.550150887780878783e-02
8.356660821567776787e-02
8.160497967786760343e-02
7.962157448070951438e-02
7.762174937573063094e-02
7.561117099922090579e-02
7.359571654053952139e-02
7.158137265707247010e-02
6.957413440027154783e-02
6.757990608112583730e-02
6.560440580292684065e-02
6.365307531845339206e-02
6.173099662703688401e-02
5.984281681695236693e-02
5.799268223298389285e-02
5.618418308982318227e-02
5.442030906925627437e-02
5.270341665879736681e-02
5.103520852723845980e-02
4.941672500477679864e-02
4.784834761869317249e-02
4.632981429614195512e-02
4.486024566136097985e-02
4.343818178936903474e-02
4.206162847844989450e-02
4.072811200015499788e-02
3.943474113404730336e-02
3.817827521290893117e-02
3.695519680182922373e-02
3.576178748899630500e-02
3.459420553878670562e-02
3.344856379176525119e-02
3.232100648007342480e-02
3.120778354463306023e-02
3.010532116255531035e-02
2.901028730267716377e-02
2.791965118154856457e-02
2.683073579420213253e-02
2.574126259328824579e-02
2.464938774845002942e-02
2.355372952811158466e-02
2.245338642966196452e-02
2.134794599690989156e-02
2.023748446617399180e-02
1.912255727478887404e-02
1.800418092364943976e-02
1.688380671941907413e-02
1.576328704466013059e-02
1.464483487372133207e-02
1.353097751808319399e-02
1.242450555933493316e-02
1.132841798296622959e-02
1.024586455337069164e-02
9.180086647869373229e-03
8.134357561760792443e-03
7.111923384627271034e-03
6.115945619876315444e-03
5.149446406573513803e-03
4.215257343301498372e-03
3.315972756006169923e-03
2.453908155323131831e-03
1.631064503044109618e-03
8.490988134471104051e-04
1.093015040748505749e-04
-5.874193019987192666e-04
-1.240546378460474037e-03
-1.849954827097062288e-03
-2.415906598149068253e-03
-2.939038266849609837e-03
-3.420342476934146083e-03
-3.861143507797662900e-03
-4.263067516560379265e-03
-4.628008134699551288e-03
-4.958088084330656425e-03
-5.255617668008622130e-03
-5.523050845757907119e-03
-5.762939775747070656e-03
-5.977888646084200674e-03
-6.170507625518835935e-03
-6.343367708369057785e-03
-6.498957276612149503e-03
-6.639641067612567400e-03
-6.767622193100061162e-03
-6.884907781461702646e-03
-6.993278789789419969e-03
-7.094264346512663480e-03
-7.189120991515067331e-03
-7.278817085991057083e-03
-7.364022446065179167e-03
-7.445103312040449693e-03
-7.522122541884464393e-03
-7.594844915145147930e-03
-7.662747393917382355e-03
-7.725033780225047837e-03
-7.780653703384476753e-03
-7.828325334726949844e-03
-7.866561370674598000e-03
-7.893697752182021396e-03
-7.907924538768843978e-03
-7.907318425259228858e-03
-7.889876155610519790e-03
-7.853548396403581960e-03
-7.796273526546669379e-03
-7.716010574061094376e-03
-7.610770954733740191e-03
-7.478648513190883085e-03
-7.317847365495540671e-03
-7.126707200242163483e-03
-6.903725749036115564e-03
-6.647578076685067491e-03
-6.357132571971153313e-03
-6.031463469098893339e-03
-5.669859839006899729e-03
-5.271831025233724224e-03
-4.837108627729703840e-03
-4.365645164014749294e-03
-3.857609518928754259e-03
-3.313379466469555234e-03
-2.733531512461528923e-03
-2.118828259776158168e-03
-1.470203811966399503e-03
-7.887473974289271319e-04
-7.568572425300138071e-05
6.676357203994977329e-04
1.439771911196904234e-03
2.239197753122889201e-03
3.064327415475770477e-03
3.913533247222092046e-03
4.785163941372610336e-03
5.677561598021497145e-03
6.589077451223761088e-03
7.518086250259651757e-03
8.462998900685364187e-03
9.422273314323464932e-03
1.039442343244117994e-02
1.137802633619258534e-02
1.237172737802935164e-02
1.337424352553838111e-02
1.438436490691179237e-02
1.540095463888842275e-02
1.642294705049909820e-02
1.744934461771281003e-02
1.847921366920457845e-02
1.951167906867043444e-02
2.054591810776309341e-02
2.158115390047531112e-02
2.261664826268644513e-02
2.365169456604254011e-02
2.468561064980631312e-02
2.571773203818920883e-02
2.674740549842642701e-02
2.777398331331062953e-02
2.879681824840550283e-02
2.981525936823449519e-02
3.082864884524196339e-02
3.183631972878622762e-02
3.283759482527964790e-02
3.383178655625547482e-02
3.481819787000326599e-02
3.579612416293979915e-02
3.676485608004710637e-02
3.772368313363905212e-02
3.867189800045554154e-02
3.960880141918442232e-02
4.053370752253036835e-02
4.144594936736113733e-02
4.234488463941226549e-02
4.322990130828382321e-02
4.410042307588683819e-02
4.495591440841962411e-02
4.579588508365722843e-02
4.661989403561996037e-02
4.742755246004089903e-02
4.821852598993171812e-02
4.899253592314980338e-02
4.974935937172864781e-02
5.048882833901048584e-02
5.121082772071772204e-02
5.191529207170597626e-02
5.260220134361697636e-02
5.327157558037562413e-02
5.392346861222611226e-02
5.455796086108820331e-02
5.517515138675915115e-02
5.577514922523861551e-02
5.635806428544865021e-02
5.692399783161827820e-02
5.747303281809826303e-02
5.800522419248026196e-02
5.852058930498596490e-02
5.901909869907084188e-02
5.950066734992775358e-02
5.996514665965206603e-02
6.041231718152457325e-02
6.084188236263581712e-02
6.125346339583775945e-02
6.164659531014619887e-02
6.202072428960588024e-02
6.237520645213691373e-02
6.270930808917092592e-02
6.302220736854895200e-02
6.331299758086582352e-02
6.358069179881814526e-02
6.382422904556515897e-02
6.404248183810522244e-02
6.423426502164446272e-02
6.439834590270986092e-02
6.453345534618556978e-02
6.463829990537907355e-02
6.471157480551935348e-02
6.475197743765950809e-02
6.475822137097754505e-02
6.472905075187418422e-02
6.466325461755703663e-02
6.455968123440773698e-02
6.441725210770031518e-02
6.423497549216009017e-02
6.401195931036547659e-02
6.374742314293152523e-02
6.344070936703832819e-02
6.309129297683860327e-02
6.269879028179552172e-02
6.226296613301932764e-02
6.178373962049879542e-02
6.126118829359408074e-02
6.069555069141869402e-02
6.008722725080848509e-02
5.943677948179496018e-02
5.874492752973965726e-02
5.801254607052572232e-02
5.724065852291567585e-02
5.643042990024348116e-02
5.558315809842827998e-02
5.470026393350857497e-02
5.378327986786947401e-02
5.283383777705157047e-02
5.185365573628441388e-02
5.084452407062335644e-02
4.980829081270859299e-02
4.874684669909130214e-02
4.766210996506484859e-02
4.655601110584289826e-02
4.543047767010571780e-02
4.428741943364569028e-02
4.312871400217512668e-02
4.195619298929433028e-02
4.077162903008177408e-02
3.957672366252133755e-02
3.837309629846548387e-02
3.716227426621249164e-02
3.594568420095704819e-02
3.472464465270826139e-02
3.350036016945893286e-02
3.227391679412466852e-02
3.104627905322845591e-02
2.981828832900835363e-02
2.859066281177927160e-02
2.736399885379900768e-02
2.613877364113224161e-02
2.491534929195328082e-02
2.369397812402198114e-02
2.247480915835422047e-02
2.125789560751991172e-02
2.004320337966478474e-02
1.883062039470914661e-02
1.761996653651042022e-02
1.641100424132055716e-02
1.520344947537453396e-02
1.399698286830998277e-02
1.279126112840585534e-02
1.158592841574317654e-02
1.038062747843139684e-02
9.175010575727483852e-03
7.968749902155019757e-03
6.761547507059573713e-03
5.553144582087688255e-03
4.343329960486981556e-03
3.131947783828044948e-03
1.918904236186439469e-03
7.041733126347384051e-04
-5.121985017284892173e-04
-1.730088546128502949e-03
-2.949295476090764683e-03
-4.169537807751042338e-03
-5.390453563916215718e-03
-6.611601022258621965e-03
-7.832460485207698095e-03
-9.052437019458707199e-03
-1.027086418383428394e-02
-1.148700858545901454e-02
-1.270007526020416541e-02
-1.390921376563412394e-02
-1.511352481762022991e-02
-1.631206750137462885e-02
-1.750386687779069764e-02
-1.868792182269344432e-02
-1.986321313582972356e-02
-2.102871172675927283e-02
-2.218338666378109544e-02
-2.332621320712609941e-02
-2.445618051319271846e-02
-2.557229909797529774e-02
-2.667360787256542812e-02
-2.775918059507660740e-02
-2.882813178905531751e-02
-2.987962199220883797e-02
-3.091286235889292508e-02
-3.192711846676053733e-02
-3.292171343504349951e-02
-3.389603016052052803e-02
-3.484951279768438992e-02
-3.578166743215491219e-02
-3.669206192498982583e-02
-3.758032498317470660e-02
-3.844614456917932327e-02
-3.928926561310447374e-02
-4.010948706603778557e-02
-4.090665834475446655e-02
-4.168067527512527015e-02
-4.243147566612831545e-02
-4.315903448449937702e-02
-4.386335880737793347e-02
-4.454448250605103771e-02
-4.520246090043893855e-02
-4.583736538809879413e-02
-4.644927824230830199e-02
-4.703828742380101319e-02
-4.760448171934066053e-02
-4.814794628043493618e-02
-4.866875842814841896e-02
-4.916698397626727973e-02
-4.964267411884958070e-02
-5.009586284681043916e-02
-5.052656495904923883e-02
-5.093477473146362788e-02
-5.132046529231312770e-02
-5.168358858185585075e-02
-5.202407604209927788e-02
-5.234183989436611006e-02
-5.263677513836022281e-02
-5.290876206642262936e-02
-5.315766939563965759e-02
-5.338335785784671661e-02
-5.358568427010033941e-02
-5.376450598819067922e-02
-5.391968559930421234e-02
-5.405109590675277742e-02
-5.415862498758062388e-02
-5.424218133705928369e-02
-5.430169896348634867e-02
-5.433714228550765718e-02
-5.434851093773469116e-02
-5.433584412293308852e-02
-5.429922468250725220e-02
-5.423878259279243247e-02
-5.415469792256243781e-02
-5.404720323763483047e-02
-5.391658523196685149e-02
-5.376318577045192948e-02
-5.358740207255682786e-02
-5.338968606943042539e-02
-5.317054304952798655e-02
-5.293052949556385778e-02
-5.267025004080141959e-02
-5.239035368381866203e-02
-5.209152933933078322e-02
-5.177450064191140011e-02
-5.144002017356048839e-02
-5.108886305636865799e-02
-5.072182010781296768e-02
-5.033969062247070636e-02
-4.994327489366687939e-02
-4.953336656901009827e-02
-4.911074489729880949e-02
-4.867616712331376827e-02
-4.823036093713167771e-02
-4.777401730920882023e-02
-4.730778369364085217e-02
-4.683225780160268220e-02
-4.634798202378127840e-02
-4.585543857955252239e-02
-4.535504542949351375e-02
-4.484715328717131522e-02
-4.433204353675901377e-02
-4.380992721609742319e-02
-4.328094512842767250e-02
-4.274516905955493690e-02
-4.220260418629907806e-02
-4.165319261129682427e-02
-4.109681809227506283e-02
-4.053331180787080046e-02
-3.996245915251840641e-02
-3.938400754940846182e-02
-3.879767515911421161e-02
-3.820316028917851436e-02
-3.760015153932962095e-02
-3.698833844100719859e-02
-3.636742251149076288e-02
-3.573712850518991069e-02
-3.509721577318805630e-02
-3.444748951626355055e-02
-3.378781177797877261e-02
-3.311811199965265795e-02
-3.243839699871464005e-02
-3.174876017940247985e-02
-3.104938982123362640e-02
-3.034057629153902660e-02
-2.962271810669327154e-02
-2.889632658938674423e-02
-2.816202919996147955e-02
-2.742057127271187861e-02
-2.667281621196776822e-02
-2.591974402171521794e-02
-2.516244816026624170e-02
-2.440213075072377932e-02
-2.364009622034297584e-02
-2.287774332250962911e-02
-2.211655551507806308e-02
-2.135809000448532849e-02
-2.060396549960407525e-02
-1.985584868272644368e-02
-1.911543978894394633e-02
-1.838445714775147413e-02
-1.766462117513742727e-02
-1.695763785248059069e-02
-1.626518197037614064e-02
-1.558888026050998452e-02
-1.493029477099857595e-02
-1.429090662805376950e-02
-1.367210041859823373e-02
-1.307514936367805067e-02
-1.250120164566643002e-02
-1.195126789582646315e-02
-1.142621013742981667e-02
-1.092673234190466233e-02
-1.045337267247446224e-02
-1.000649759357055690e-02
-9.586297980478783801e-03
-9.192787240018566661e-03
-8.825801476353683367e-03
-8.485001778960729948e-03
-8.169878561066731479e-03
-7.879758017127777223e-03
-7.613810433962889430e-03
-7.371060435465585925e-03
-7.150398967455055821e-03
-6.950596913721992023e-03
-6.770320115545718637e-03
-6.608145569991980862e-03
-6.462578673056920166e-03
-6.332071313868343522e-03
-6.215040404888069053e-03
-6.109886830368394840e-03
-6.015014319643084521e-03
-5.928848182354552049e-03
-5.849853575605665906e-03
-5.776553023821675778e-03
-5.707543001747166465e-03
-5.641509330310210020e-03
-5.577241209317382147e-03
-5.513643638147026037e-03
-5.449748086756808253e-03
-5.384721286494943519e-03
-5.317872013613972326e-03
-5.248655774567372555e-03
-5.176677271077390757e-03
-5.101690770698914280e-03
-5.023598278539744000e-03
-4.942445570395462805e-03
-4.858416107506292013e-03
-4.771823021511817191e-03
-4.683099244834614851e-03
-4.592785953500220023e-03
-4.501519464400565579e-03
-4.410016883730514224e-03
-4.319060609628660487e-03
-4.229482018352001896e-03
-4.142144533982951120e-03
-4.057926348547079114e-03
-3.977703004291464721e-03
-3.902330269085462107e-03
-3.832627362847786014e-03
-3.769360920343915039e-03
-3.713229830228137723e-03
-3.664851254449670755e-03
-3.624748059193772833e-03
-3.593337775235684942e-03
-3.570923228815863545e-03
-3.557685157521575312e-03
-3.553676738490361281e-03
-3.558820108662536300e-03
-3.572905059512534575e-03
-3.595589874631810717e-03
-3.626404222343833621e-03
-3.664754124532534560e-03
-3.709928938705385915e-03
-3.761110204535074008e-03
-3.817382193975437515e-03
-3.877744132005399476e-03
-3.941123721331925116e-03
-4.006391901136939146e-03
-4.072378545185823331e-03
-4.137888929467572509e-03
-4.201720661883806378e-03
-4.262680785056338108e-03
-4.319602864078506306e-03
-4.371363821521237827e-03
-4.416900182943598284e-03
-4.455223544104796284e-03
-4.485435023059046282e-03
-4.506738378917434472e-03
-4.518451827960392672e-03
-4.520018118047280931e-03
-4.511012873624435822e-03
-4.491151061597411717e-03
-4.460291427669089287e-03
-4.418438879817948757e-03
-4.365744750257253420e-03
-4.302504975320802817e-03
-4.229156149203498055e-03
-4.146269629158422579e-03
-4.054543600977131637e-03
-3.954793359868199326e-03
-3.847939974359528264e-03
-3.734997340970997847e-03
-3.617057980292298202e-03
-3.495277613728916839e-03
-3.370858948717650027e-03
-3.245034703100303612e-03
-3.119050298728913515e-03
-2.994146338356880755e-03
-2.871541126217192104e-03
-2.752413610562969969e-03
-2.637886818711600127e-03
-2.529012139453235171e-03
-2.426754668225981643e-03
-2.331979781720884288e-03
-2.245441095572028086e-03
-2.167770072347101253e-03
-2.099467417962991734e-03
-2.040896277707744764e-03
-1.992277438085086633e-03
-1.953686564934361495e-03
-1.925053431303249763e-03
-1.906163257460415615e-03
-1.896660097131914807e-03
-1.896052162828844442e-03
-1.903719149014348284e-03
-1.918921227024513636e-03
-1.940809750288367830e-03
-1.968439480634440013e-03
-2.000782144324718837e-03
-2.036741096195979032e-03
-2.075166911012887340e-03
-2.114873668592106345e-03
-2.154655689580947577e-03
-2.193304454084716529e-03
-2.229625517891797859e-03
-2.262455226325481381e-03
-2.290676820989227293e-03
-2.313235869957613617e-03
-2.329154782826215690e-03
-2.337546131366938403e-03
-2.337624648099374033e-03
-2.328717743981008424e-03
-2.310274363293835734e-03
-2.281872070099209317e-03
-2.243222315631306259e-03
-2.194173717106973412e-03
-2.134713371680041667e-03
-2.064966237380402338e-03
-1.985192498693057542e-03
-1.895783051915915203e-03
-1.797253137443801090e-03
-1.690234175831904903e-03
-1.575463974132280953e-03
-1.453775506657941979e-03
-1.326084279045740234e-03
-1.193374590284730034e-03
-1.056684857813872678e-03
-9.170921973374256912e-04
-7.756965498661053202e-04
-6.336044747149646716e-04
-4.919129367843093608e-04
-3.516933385738563785e-04
-2.139758870281833645e-04
-7.973463115121712480e-05
5.012656990672512494e-05
1.747869989195576564e-04
2.935207908153048104e-04
4.057072103926007449e-04
5.108393276199026892e-04
6.085308650105960594e-04
6.985213696039737448e-04
7.806794152605824825e-04
8.550038324364682939e-04
9.216229201524035785e-04
9.807916892363990283e-04
1.032887170621876348e-03
1.078401841145028729e-03
1.117935219046946619e-03
1.152183764932432483e-03
1.181929262152690580e-03
1.208025782437066901e-03
1.231385452782538231e-03
1.252963239357341623e-03
1.273740972653765458e-03
1.294710834885273243e-03
1.316858457734875571e-03
1.341146040454646452e-03
1.368495604829935005e-03
1.399772769060367338e-03
1.435771119379918677e-03
1.477197609386380305e-03
1.524659018283011647e-03
1.578649881402035670e-03
1.639541841113335884e-03
1.707574868530781697e-03
1.782850372986859383e-03
1.865326279965780210e-03
1.954814228788806507e-03
2.050978947744281234e-03
2.153339846330294249e-03
2.261274879913224931e-03
2.374026577290226474e-03
2.490710198260703140e-03
2.610323964299369852e-03
2.731761186214735990e-03
2.853824182703589701e-03
2.975239810889829858e-03
3.094676412420022810e-03
3.210761838834293169e-03
3.322102477834980739e-03
3.427302870825944033e-03
3.524985764298767081e-03
3.613812158294408931e-03
3.692501258636117674e-03
3.759849916055370452e-03
3.814751226113239583e-03
3.856212134548214071e-03
3.883369651957816089e-03
3.895505492481149239e-03
3.892058935024745453e-03
3.872637685579849789e-03
3.837026433246272083e-03
3.785193096248177461e-03
3.717292617106130164e-03
3.633668131912770691e-03
3.534849531860546987e-03
3.421549432859845481e-03
3.294656516600933879e-03
3.155226336666235813e-03
3.004469683106771732e-03
2.843738670746732630e-03
2.674510694666900560e-03
2.498370490765230295e-03
2.316990510201426788e-03
2.132109855976215777e-03
1.945512156232109217e-03
1.759002562031258083e-03
1.574384304176311162e-03
1.393435058315247322e-03
1.217883504664049816e-03
1.049386409637877680e-03
8.895065524681777368e-04
7.396918413900327362e-04
6.012558835073969921e-04
4.753603547595851818e-04
3.629994357470589040e-04
2.649864552391089289e-04
1.819430796995929838e-04
1.142911572923760850e-04
6.224729900242721703e-05
2.582038660136883133e-05
4.811968752144545313e-06
-1.180375315516165028e-06
7.243167306177434075e-06
2.929371259394302279e-05
6.400541253989297465e-05
1.102496952075423663e-04
1.667518178950270721e-04
2.321095392542315834e-04
3.048135698025575919e-04
3.832695503048007984e-04
4.658211732735667164e-04
5.507741693462174645e-04
6.364207844308145297e-04
7.210643781365765146e-04
8.030437907372907792e-04
8.807570911254138796e-04
9.526844205480687828e-04
1.017409483892726388e-03
1.073639456524861247e-03
1.120223025522219373e-03
1.156166177490459968e-03
1.180645709190596354e-03
1.193020031274560130e-03
1.192837323393773109e-03
1.179840780100300038e-03
1.153970949014480971e-03
1.115365158150511023e-03
1.064353994573453846e-03
1.001454944788491945e-03
9.273634061867750290e-04
8.429410091675814537e-04
7.492016044969374358e-04
6.472951047020132154e-04
5.384894546784053460e-04
4.241510069263598206e-04
3.057236457287159270e-04
1.847069606391980477e-04
6.263383788812019581e-05
-5.895226206777790006e-05
-1.785198146607500764e-04
-2.945713556510013071e-04
-4.056647820495024926e-04
-5.104336072411509414e-04
-6.076057088045867414e-04
-6.960204456768161923e-04
-7.746438537409922791e-04
-8.425817594799616837e-04
-8.990904896043820605e-04
-9.435852417183156508e-04
-9.756458553953677388e-04
-9.950200748985555625e-04
-1.001624226468742634e-03
-9.955413641958058522e-04
-9.770169193565345165e-04
-9.464520505295675882e-04
-9.043948415670326289e-04
-8.515294775424307955e-04
-7.886636303532305447e-04
-7.167143809503309822e-04
-6.366928473367918862e-04
-5.496878206698526965e-04
-4.568487794311357230e-04
-3.593684960506040140e-04
-2.584654925734729898e-04
-1.553667972563914823e-04
-5.129122226402635094e-05
5.256666463460619906e-05
1.550515692016368231e-04
2.550612105694085923e-04
3.515586381772254992e-04
4.435829459008517142e-04
5.302582763571202706e-04
6.108008723328153507e-04
6.845244474613266118e-04
7.508434565337724362e-04
8.092745395800313895e-04
8.594360606884770193e-04
9.010459018349956280e-04
9.339175492799976080e-04
9.579546743286733142e-04
9.731443266060160009e-04
9.795490035723365685e-04
9.772977464983774541e-04
9.665764279472422284e-04
9.476176103974194489e-04
9.206900550176276565e-04
8.860881773828464120e-04
8.441217007191296161e-04
7.951056739776804667e-04
7.393511159419837320e-04
6.771563795954378120e-04
6.087994520438400059e-04
5.345314174467882731e-04
4.545710104742105512e-04
3.691004753555292175e-04
2.782626976891473813e-04
1.821597430863000275e-04
8.085271962117659029e-05
-2.563711377145577638e-05
-1.373259752043490137e-04
-2.542640485531559927e-04
-3.765309614497414103e-04
-5.042303837796282369e-04
-6.374839103718460452e-04
-7.764243883941873139e-04
-9.211888764309982816e-04
-1.071911396583153948e-03
-1.228715735436424665e-03
-1.391708355944596244e-03
-1.560971767640421254e-03
-1.736558433851840329e-03
-1.918485286775420406e-03
-2.106729153253382968e-03
-2.301223147208843016e-03
-2.501854089777103690e-03
-2.708461087231728466e-03
-2.920835260814535431e-03
-3.138720644281739296e-03
-3.361816303021205026e-03
-3.589779634443650801e-03
-3.822230699304976585e-03
-4.058757599347092432e-03
-4.298922719000727172e-03
-4.542269779436878575e-03
-4.788331458156987880e-03
-5.036637508862411468e-03
-5.286723191541354075e-03
-5.538137810454540552e-03
-5.790453213745690511e-03
-6.043271981512619677e-03
-6.296235276189558923e-03
-6.549030151144638427e-03
-6.801396017733831248e-03
-7.053130362299017513e-03
-7.304093335741578853e-03
-7.554211367206830827e-03
-7.803479610165881680e-03
-8.051963104081023836e-03
-8.299796682717085899e-03
-8.547183653245185239e-03
-8.794393211501020866e-03
-9.041756684389492746e-03
-9.289662582730154675e-03
-9.538550648114877545e-03
-9.788904969377615686e-03
-1.004124619384890761e-02
-1.029612316070990623e-02
-1.055410385420703888e-02
-1.081576603263596087e-02
-1.108168761802897327e-02
-1.135243695326523458e-02
-1.162856317576620863e-02
-1.191058673842084956e-02
-1.219899031951689021e-02
-1.249421016347414953e-02
-1.279662802433319778e-02
-1.310656376122742127e-02
-1.342426862147800583e-02
-1.374991945844268419e-02
-1.408361362635579019e-02
-1.442536482683600546e-02
-1.477509978379233473e-02
-1.513265578591173680e-02
-1.549777896658315231e-02
-1.587012341978924837e-02
-1.624925101277907569e-02
-1.663463175963297500e-02
-1.702564481067563029e-02
-1.742157999411367633e-02
-1.782163969423276872e-02
-1.822494107839655458e-02
-1.863051861903424269e-02
-1.903732679590851642e-02
-1.944424305073958956e-02
-1.985007080415052833e-02
-2.025354263212343284e-02
-2.065332346355492829e-02
-2.104801403933387674e-02
-2.143615439122946789e-02
-2.181622761200298008e-02
-2.218666383425225291e-02
-2.254584454984586914e-02
-2.289210733321761157e-02
-2.322375104697015427e-02
-2.353904173006176812e-02
-2.383621908824402197e-02
-2.411350385201005073e-02
-2.436910593095183500e-02
-2.460123361876681222e-02
-2.480810374725858983e-02
-2.498795296427066062e-02
-2.513905010243876886e-02
-2.525970959748520192e-02
-2.534830600722046828e-02
-2.540328956963781859e-02
-2.542320253553045570e-02
-2.540669637007618789e-02
-2.535254957074111956e-02
-2.525968585231387967e-02
-2.512719259927104556e-02
-2.495433910418851792e-02
-2.474059450886162415e-02
-2.448564510086424437e-02
-2.418941053473785269e-02
-2.385205881295716923e-02
-2.347401945421877939e-02
-2.305599468951071568e-02
-2.259896827401031150e-02
-2.210421162162150635e-02
-2.157328689453379481e-02
-2.100804687380510016e-02
-2.041063132866634267e-02
-1.978345962219231133e-02
-1.912921955788769030e-02
-1.845085235324894768e-02
-1.775153363112226199e-02
-1.703465058551294209e-02
-1.630377537173078803e-02
-1.556263492842315833e-02
-1.481507752007158937e-02
-1.406503624757006639e-02
-1.331648996344504850e-02
-1.257342218555124354e-02
-1.183977821528441575e-02
-1.111942123123553505e-02
-1.041608808432050413e-02
-9.733345078781718146e-03
-9.074544739949225516e-03
-8.442784038363583196e-03
-7.840864812874524109e-03
-7.271257123425250643e-03
-6.736066088264520448e-03
-6.237002819570119407e-03
-5.775360093222266060e-03
-5.351993117939203744e-03
-4.967305936333089172e-03
-4.621243845759056244e-03
-4.313291947559789660e-03
-4.042480150267225084e-03
-3.807394551588741231e-03
-3.606195360823506897e-03
-3.436640902839791130e-03
-3.296117650945610666e-03
-3.181675950274077003e-03
-3.090070861793233880e-03
-3.017807681332352471e-03
-2.961191238524954732e-03
-2.916378470712103262e-03
-2.879433438789432559e-03
-2.846383839269823416e-03
-2.813278189377129215e-03
-2.776242753561875606e-03
-2.731537096888699348e-03
-2.675607697673227769e-03
-2.605138427660818549e-03
-2.517097128313605658e-03
-2.408777505077266002e-03
-2.277835563128760826e-03
-2.122319948100918636e-03
-1.940695672728106605e-03
-1.731860827706138868e-03
-1.495155909489530744e-03
-1.230365534341112781e-03
-9.377127022566507765e-04
-6.178454413264985708e-04
-2.718163635955362484e-04
9.894479273273264067e-05
4.926649248764231395e-04
9.072671273722748495e-04
1.340415259369540351e-03
1.789562661775227466e-03
2.252004256274122741e-03
2.724930799948004079e-03
3.205484437824749743e-03
3.690814396628877905e-03
4.178131767815060522e-03
4.664762318463343618e-03
5.148196188075940087e-03
5.626133729150896087e-03
6.096526298305396559e-03
6.557611310067222414e-03
7.007940795678031104e-03
7.446402928317074656e-03
7.872236052672480430e-03
8.285034784127395108e-03
8.684748246645113134e-03
9.071670301971151637e-03
9.446421930211787790e-03
9.809926270228062212e-03
1.016337669661553089e-02
1.050819854542901430e-02
1.084600527842510646e-02
1.117855020503912868e-02
1.150767457730779257e-02
1.183525321810263188e-02
1.216313886765621986e-02
1.249310650695645980e-02
1.282679885707695318e-02
1.316567436642869689e-02
1.351095884667503043e-02
1.386360196686052711e-02
1.422423963849757736e-02
1.459316326257875142e-02
1.497029669776113979e-02
1.535518165780344960e-02
1.574697203451391747e-02
1.614443762239745755e-02
1.654597722005828053e-02
1.694964118054907015e-02
1.735316322270522016e-02
1.775400098374086549e-02
1.814938467349764065e-02
1.853637306859282768e-02
1.891191576112143113e-02
1.927292057612358875e-02
1.961632482539545086e-02
1.993916901860772264e-02
2.023867137348184242e-02
2.051230172465904125e-02
2.075785316764372501e-02
2.097350984826314504e-02
2.115790924440919332e-02
2.131019751592756056e-02
2.143007654199216225e-02
2.151784127930842991e-02
2.157440642624234087e-02
2.160132134667845649e-02
2.160077263766214950e-02
2.157557381021018433e-02
2.152914188685484467e-02
2.146546086717243326e-02
2.138903247851361641e-02
2.130481460525087897e-02
2.121814836333552057e-02
2.113467492010633053e-02
2.106024329228422740e-02
2.100081082432468313e-02
2.096233798454462741e-02
2.095067954568797727e-02
2.097147418483950171e-02
2.103003469438069484e-02
2.113124116179143988e-02
2.127943932416119163e-02
2.147834644903238305e-02
2.173096691857868273e-02
2.203951967017736546e-02
2.240537949506880497e-02
2.282903389505067798e-02
2.331005718811446012e-02
2.384710299672092304e-02
2.443791627166815028e-02
2.507936539544971047e-02
2.576749470312732909e-02
2.649759738901723977e-02
2.726430840656679511e-02
2.806171644662295087e-02
2.888349388170595097e-02
2.972304299689689649e-02
3.057365670128122173e-02
3.142869136362530513e-02
3.228174919739381504e-02
3.312686738730895308e-02
3.395871084799120115e-02
3.477276530092050094e-02
3.556552740165791482e-02
3.633468827364334797e-02
3.707930705516192249e-02
3.779997089616271566e-02
3.849893806453967560e-02
3.918026090909226822e-02
3.984988562775795828e-02
4.051572604299118197e-02
4.118770904238695102e-02
4.187778945464969149e-02
4.259993280150968509e-02
4.337006448595463054e-02
4.420598479727717856e-02
4.512724953751708068e-02
4.615501621280945765e-02
4.731185695692369242e-02
4.862153904248051745e-02
5.010877509405184393e-02
5.179894520659639179e-02
5.371779366768268671e-02
5.589110358736302381e-02
5.834435296008753935e-02
6.110235628567611127e-02
6.418889581201760175e-02
6.762634700607406124e-02
7.143530295607071479e-02
7.563420250937639977e-02
8.023896701702282197e-02
8.526265032636255736e-02
9.071510711761557322e-02
9.660268388627368807e-02
1.029279370559342821e-01
1.096893821904882105e-01
1.168812781435097370e-01
1.244934493986532831e-01
1.325111494855572558e-01
1.409149678242423431e-01
1.496807819590029731e-01
1.587797563303238180e-01
1.681783884512876026e-01
1.778386026178278845e-01
1.877178907105269134e-01
1.977694990277716058e-01
2.079426598434576112e-01
2.181828653303630738e-01
2.284321815310469961e-01
2.386295991496068525e-01
2.487114178728678793e-01
2.586116603657513946e-01
2.682625118434538991e-01
2.775947808352922652e-01
2.865383767296058592e-01
2.950227993149899808e-01
3.029776356384537572e-01
3.103330594656521502e-01
3.170203287588800878e-01
3.229722766793782229e-01
3.281237915953184037e-01
3.324122821979237363e-01
3.357781237911171002e-01
3.381650823356480151e-01
3.395207130304692678e-01
3.397967306789772546e-01
3.389493494519868477e-01
3.369395901185533448e-01
3.337335531468186289e-01
3.293026566168972824e-01
3.236238381396760455e-01
3.166797204955388301e-01
3.084587410578458200e-01
2.989552453002440879e-01
2.881695451705731381e-01
2.761079432575450632e-01
2.627827239355815525e-01
2.482121129648343361e-01
2.324202070140972132e-01
2.154368749098797275e-01
1.972976323171381774e-01
1.780434916474925577e-01
1.577207889607556701e-01
1.363809896416414424e-01
1.140804745822769223e-01
9.088030835185513523e-02
6.684599104513196111e-02
4.204719490299307222e-02
1.655748715795628614e-02
-9.545959949370408371e-03
-3.618267106350909340e-02
-6.326918066405454177e-02
-9.071935652192322785e-02
-1.184447330020041017e-01
-1.463548538404862154e-01
-1.743576239250519966e-01
-2.023596698068702848e-01
-2.302667086831902687e-01
-2.579839251773667352e-01
-2.854163558294239844e-01
-3.124692805914002225e-01
-3.390486207056323531e-01
-3.650613422871240021e-01
-3.904158645934520666e-01
-4.150224717321117085e-01
-4.387937265175776425e-01
-4.616448849849603131e-01
-4.834943095028836346e-01
-5.042638785516796451e-01
-5.238793908043178904e-01
-5.422709609782666584e-01
-5.593734046536381621e-01
-5.751266091285239801e-01
-5.894758872216651069e-01
-6.023723108320145903e-01
-6.137730208662214304e-01
-6.236415102357558693e-01
-6.319478765616205473e-01
-6.386690413775668596e-01
-6.437889326144768942e-01
-6.472986274340299939e-01
-6.491964526445404005e-01
-6.494880403211494846e-01
-6.481863363783354481e-01
-6.453115603489019136e-01
-6.408911152900910180e-01
-6.349594467786534580e-01
-6.275578507833446951e-01
-6.187342306131536906e-01
-6.085428037779098132e-01
-5.970437600675539969e-01
-5.843028728801009652e-01
-5.703910662871053416e-01
-5.553839409445183728e-01
-5.393612624271026945e-01
-5.224064161549023533e-01
-5.046058335785003068e-01
-4.860483946171983427e-01
-4.668248116690146277e-01
-4.470270010189905108e-01
-4.267474475855021487e-01
-4.060785690123063785e-01
-3.851120853094370799e-01
-3.639384003564368197e-01
-3.426460012886948236e-01
-3.213208817286083430e-01
-3.000459946415376389e-01
-2.789007401740324910e-01
-2.579604935827462531e-01
-2.372961777510164127e-01
-2.169738843156479025e-01
-1.970545469963621565e-01
-1.775936698791419632e-01
-1.586411127811293009e-01
-1.402409352592272895e-01
-1.224313000136771773e-01
-1.052444357429015154e-01
-8.870665867130057836e-02
-7.283845128533360247e-02
-5.765459643718037069e-02
-4.316436383430961171e-02
-2.937174556437767425e-02
-1.627573669687634728e-02
-3.870656542328617875e-03
7.853494313459616696e-03
1.891064660900067598e-02
2.931825014358678885e-02
3.909684246229482713e-02
4.826960436171414542e-02
5.686190827284665766e-02
6.490086542769891997e-02
7.241487757513417889e-02
7.943319891111474962e-02
8.598551345864680062e-02
9.210153299770125479e-02
9.781062001837501074e-02
1.031414397891859264e-01
1.081216449987295880e-01
1.127775961208517252e-01
1.171341196995020761e-01
1.212143064942841769e-01
1.250393503542584217e-01
1.286284285432748864e-01
1.319986231899804019e-01
1.351648831007103702e-01
1.381400246555463673e-01
1.409347698178720076e-01
1.435578187858092269e-01
1.460159545205147735e-01
1.483141757175249487e-01
1.504558547596582530e-01
1.524429166035348449e-01
1.542760345821627410e-01
1.559548388723870915e-01
1.574781333012898188e-01
1.588441162611215485e-01
1.600506015133194848e-01
1.610952348939243273e-01
1.619757029043941143e-01
1.626899298717822406e-01
1.632362601788432677e-01
1.636136229468226344e-01
1.638216764833177741e-01
1.638609305506603941e-01
1.637328449040998390e-01
1.634399029554298166e-01
1.629856600110768661e-01
1.623747658742559496e-01
1.616129621634618263e-01
1.607070550781805884e-01
1.596648649129451536e-01
1.584951538355094391e-01
1.572075338430314884e-01
1.558123572233210963e-01
1.543205920025364497e-01
1.527436851227619019e-01
1.510934161228518202e-01
1.493817444228523472e-01
1.476206531634402241e-01
1.458219926903095709e-01
1.439973264757713478e-01
1.421577824608686591e-01
1.403139124460787979e-01
1.384755619928458581e-01
1.366517529771193173e-01
1.348505808659440364e-01
1.330791281917848845e-01
1.313433956296529426e-01
1.296482515747935937e-01
1.279974008058817336e-01
1.263933724931083358e-01
1.248375274117100170e-01
1.233300839235944163e-01
1.218701618697268091e-01
1.204558433326696487e-01
1.190842489287941425e-01
1.177516278927418780e-01
1.164534602013885950e-01
1.151845687310928956e-01
1.139392392819915528e-01
1.127113462032279800e-01
1.114944814151583724e-01
1.102820844601270639e-01
1.090675713199210084e-01
1.078444598392333670e-01
1.066064897616409990e-01
1.053477353042437809e-01
1.040627086024486087e-01
1.027464524216485237e-01
1.013946209123142012e-01
1.000035472883667315e-01
9.857029764321691145e-02
9.709271023683585522e-02
9.556942011539187876e-02
9.399986904123784626e-02
9.238430094213206933e-02
9.072374338609281996e-02
8.901997586423479603e-02
8.727548581386232462e-02
8.549341355526189623e-02
8.367748737664618131e-02
8.183195027008642597e-02
7.996147997483464553e-02
7.807110382918340530e-02
7.616611015162590148e-02
7.425195788962735133e-02
7.233418614270703539e-02
7.041832526398764114e-02
6.850981102276001988e-02
6.661390324074235869e-02
6.473561033838401424e-02
6.287962089194983062e-02
6.105024319198269767e-02
5.925135365365670481e-02
5.748635466553855128e-02
5.575814236445361671e-02
5.406908454813490195e-02
5.242100876819461019e-02
5.081520056377375472e-02
4.925241122522299592e-02
4.773287489265289063e-02
4.625633412801206240e-02
4.482207335239062063e-02
4.342895893411740510e-02
4.207548518798982784e-02
4.075982506785016252e-02
3.947988445680735564e-02
3.823335878334060273e-02
3.701779087568537324e-02
3.583062884075308152e-02
3.466928287958568472e-02
3.353117992064649777e-02
3.241381517515339733e-02
3.131479956316525481e-02
3.023190238324104454e-02
2.916308853782397653e-02
2.810654973301214554e-02
2.706072932400424222e-02
2.602434046569675891e-02
2.499637758713529889e-02
2.397612113484325763e-02
2.296313583044012896e-02
2.195726264811345349e-02
2.095860496579537643e-02
1.996750947056147654e-02
1.898454241768035566e-02
1.801046188049503990e-02
1.704618678568384574e-02
1.609276350502586786e-02
1.515133089542557848e-02
1.422308457664024986e-02
1.330924127122527778e-02
1.241100408579063480e-02
1.152952933664324296e-02
1.066589586914977114e-02
9.821077256659102930e-03
8.995917585860843321e-03
8.191111323580959822e-03
7.407187553248119165e-03
6.644498919691776279e-03
5.903215394667989981e-03
5.183322922916255328e-03
4.484626931398373595e-03
3.806760604067046562e-03
3.149197521424042679e-03
2.511268456667463487e-03
1.892181864528539627e-03
1.291047543732692145e-03
7.069029467944400787e-04
1.387415256749978398e-04
-4.144575134039048042e-04
-9.536987627374722510e-04
-1.479940091538716612e-03
-1.994062687310860140e-03
-2.496842386691774506e-03
-2.988922827863510576e-03
-3.470791065952366812e-03
-3.942756162094541300e-03
-4.404931093184072388e-03
-4.857218494482192124e-03
-5.299300499701629745e-03
-5.730632861143668787e-03
-6.150443526991713518e-03
-6.557735682928260250e-03
-6.951295283799557335e-03
-7.329702842403171097e-03
-7.691349365075823841e-03
-8.034456103929624171e-03
-8.357097785148414129e-03
-8.657228871696410685e-03
-8.932712402694597056e-03
-9.181350908592579227e-03
-9.400918808383000591e-03
-9.589195728504943880e-03
-9.744000203748817354e-03
-9.863223041290135329e-03
-9.944859928993143167e-03
-9.987042654196703548e-03
-9.988068389649325945e-03
-9.946426508270548444e-03
-9.860822606322330874e-03
-9.730199285564860093e-03
-9.553753393416576992e-03
-9.330949409151696738e-03
-9.061528820603242593e-03
-8.745515400938957962e-03
-8.383216260017737134e-03
-7.975218787477197230e-03
-7.522383543578788426e-03
-7.025833316253398027e-03
-6.486938527764148608e-03
-5.907299196813813047e-03
-5.288724026507697802e-03
-4.633206790047545570e-03
-3.942900574344198987e-03
-3.220090268121288297e-03
-2.467163748686159157e-03
-1.686582320972153859e-03
-8.808509102586453395e-04
-5.248848466491562578e-05
7.960009552200313782e-04
1.662156187769753008e-03
2.543584998656452014e-03
3.437988551361806366e-03
4.343183444429057384e-03
5.257121190697468249e-03
6.177904865095215636e-03
7.103802786056423284e-03
8.033258980442133448e-03
8.964900500424069843e-03
9.897541455765669280e-03
1.083018383177425728e-02
1.176201517314639025e-02
1.269240333481591251e-02
1.362088841448860256e-02
1.454717211641553751e-02
1.547110482322259194e-02
1.639267067162632555e-02
1.731197104105202528e-02
1.822920660043394342e-02
1.914465846037497268e-02
2.005866876155509501e-02
2.097162103568111363e-02
2.188392060908587317e-02
2.279597560688356381e-02
2.370817874748847032e-02
2.462089016438501199e-02
2.553442168652313507e-02
2.644902281213155210e-02
2.736486843534085070e-02
2.828204855665166634e-02
2.920056019789838558e-02
3.012030147801614613e-02
3.104106801463341406e-02
3.196255152298027591e-02
3.288434065270354895e-02
3.380592389627578437e-02
3.472669461230402238e-02
3.564595783309570942e-02
3.656293873747409884e-02
3.747679261476169477e-02
3.838661599126305668e-02
3.929145876762569350e-02
4.019033700041393237e-02
4.108224618557441976e-02
4.196617465152176901e-02
4.284111683941821402e-02
4.370608611873326443e-02
4.456012700363489593e-02
4.540232643528232387e-02
4.623182395806387651e-02
4.704782057060790529e-02
4.784958610834055825e-02
4.863646495137777248e-02
4.940787999823514215e-02
5.016333483856941222e-02
5.090241402095577877e-02
5.162478144743087166e-02
5.233017695522567542e-02
5.301841113467940098e-02
5.368935839293119405e-02
5.434294844961210652e-02
5.497915644137756769e-02
5.559799175405883559e-02
5.619948589687642770e-02
5.678367947502880458e-02
5.735060862687445943e-02
5.790029115946657839e-02
5.843271260171841591e-02
5.894781243815214178e-02
5.944547084542910198e-02
5.992549615914066763e-02
6.038761319699709890e-02
6.083145289206667167e-02
6.125654333054968842e-02
6.166230241837384468e-02
6.204803232701269766e-02
6.241291591701066815e-02
6.275601522034873758e-02
6.307627209455138328e-02
6.337251107007307871e-02
6.364344445013345175e-02
6.388767974979357722e-02
6.410372921016575798e-02
6.429002140545889143e-02
6.444491503623756001e-02
6.456671438493019610e-02
6.465368655405762111e-02
6.470408019573331559e-02
6.471614546579293470e-02
6.468815498879414150e-02
6.461842561267194807e-02
6.450534052390193007e-02
6.434737162461486026e-02
6.414310164267469916e-02
6.389124584886446412e-02
6.359067304027807288e-02
6.324042535739578252e-02
6.283973682109449121e-02
6.238805013126903082e-02
6.188503167321383197e-02
6.133058426678773822e-02
6.072485751812931737e-02
6.006825572173460359e-02
5.936144293564060009e-02
5.860534532228308530e-02
5.780115044939487801e-02
5.695030360589267010e-02
5.605450118165467704e-02
5.511568101398742203e-02
5.413600985234457569e-02
5.311786802588346762e-02
5.206383133398725244e-02
5.097665060820346511e-02
4.985922893103738457e-02
4.871459684838806009e-02
4.754588579470653276e-02
4.635630008512640204e-02
4.514908777428416203e-02
4.392751075589305249e-02
4.269481443842633450e-02
4.145419731480962794e-02
4.020878084406545594e-02
3.896158006764922910e-02
3.771547515758166130e-02
3.647318453527838983e-02
3.523723959670200384e-02
3.400996156855809471e-02
3.279344065061298719e-02
3.158951782599673380e-02
3.039976955173809628e-02
2.922549546980615295e-02
2.806770939234105172e-02
2.692713366900429187e-02
2.580419692218690816e-02
2.469903531255356749e-02
2.361149729186705348e-02
2.254115180116162201e-02
2.148729970722481480e-02
2.044898850455858022e-02
1.942503009075031289e-02
1.841402129888950953e-02
1.741436695647400126e-02
1.642430521780122166e-02
1.544193488938655316e-02
1.446524433811501031e-02
1.349214166782065211e-02
1.252048575006848435e-02
1.154811772921474425e-02
1.057289262270378477e-02
9.592710603016927143e-03
8.605547650121761830e-03
7.609485022878023294e-03
6.602737320523557364e-03
5.583678714220901076e-03
4.550867108262849313e-03
3.503065837837614476e-03
2.439262707120399762e-03
1.358686110548459934e-03
2.608180312594622586e-04
-8.545962106348461550e-04
-1.987541574756022944e-03
-3.137730342928251367e-03
-4.304602614799188376e-03
-5.487330217036042249e-03
-6.684823915235000961e-03
-7.895744008102138431e-03
-9.118513875703199156e-03
-1.035133650252592630e-02
-1.159221364282193682e-02
-1.283896743655838467e-02
-1.408926411577151282e-02
-1.534063957053295041e-02
-1.659052635876525489e-02
-1.783628187218350494e-02
-1.907521728430992825e-02
-2.030462687992086457e-02
-2.152181741394552233e-02
-2.272413715451856303e-02
-2.390900424270885408e-02
-2.507393402740255850e-02
-2.621656498357107651e-02
-2.733468293445252481e-02
-2.842624342702673029e-02
-2.948939178999299138e-02
-3.052248078191239708e-02
-3.152408556532241418e-02
-3.249301590626572228e-02
-3.342832540515938006e-02
-3.432931780532962052e-02
-3.519555019108273203e-02
-3.602683316281759390e-02
-3.682322788978915906e-02
-3.758504025325717229e-02
-3.831281210888014266e-02
-3.900730986218320373e-02
-3.966951047147342091e-02
-4.030058502106047269e-02
-4.090188018815836546e-02
-4.147489783346310077e-02
-4.202127290141306065e-02
-4.254275002257387056e-02
-4.304115899054158229e-02
-4.351838952767079355e-02
-4.397636563096017637e-02
-4.441701966397276768e-02
-4.484226669872373033e-02
-4.525397927587617580e-02
-4.565396293011399209e-02
-4.604393276995646933e-02
-4.642549133711865866e-02
-4.680010798231579172e-02
-4.716909997843394403e-02
