4.202098514787020768e-03
-1.529120332210491887e-03
-7.872694286247877357e-03
-5.733104396677633600e-03
2.082305110397722221e-03
9.855733697699589277e-03
1.215438716279922983e-02
9.775293612629756823e-03
6.691353760454155954e-03
2.881956043030325151e-03
-1.540805320645817749e-03
-5.865088744123859825e-03
-9.836969300396845514e-03
-1.639739811578371648e-02
-1.519575209100897106e-02
-2.575801193155937818e-03
1.170925552217780621e-02
1.456296724380595591e-02
7.697064120127752353e-03
-9.201634273666778460e-04
-6.682488792844744167e-03
-3.161669947294083217e-03
5.072953244499756216e-03
8.252116636027885185e-03
2.851467451363235307e-03
-4.133906570594050867e-03
-5.562358822606188781e-03
-3.907767773161298364e-03
-3.016522992904364844e-03
-1.086085131373534535e-03
2.839092683905319620e-05
4.599430854492402238e-04
1.566215907408741387e-03
3.944858266741973866e-03
5.601693455252237420e-03
3.018653744914493418e-03
-1.521384921550449857e-03
-2.679871030392228133e-03
-4.115409146754136181e-03
-5.054694600527182002e-03
-3.191189488222721891e-03
-3.315612161551793327e-04
1.569718529442046522e-03
1.780899556843636806e-03
2.620916428669275468e-03
5.947089141559037083e-03
6.439358354117167942e-03
1.445436368610926317e-04
-6.215199716081548469e-03
-7.447901565920883767e-03
-2.483945494234641484e-03
4.404773908810918730e-03
4.368716439126007177e-03
-2.438702306646580581e-03
-5.793226450786352101e-03
-1.116932223625148298e-03
4.569911569865328822e-03
3.786647116296471775e-03
1.561154193108512181e-03
9.332950673356443317e-04
-2.080717643484831982e-03
-4.907832660443084763e-03
-4.826515855247450089e-03
-1.255291916436785792e-03
2.416361503946024350e-03
5.542144573161308062e-03
6.862830395801601015e-03
6.491826563475081718e-03
3.477113040443898222e-03
-6.845431698029056993e-04
-4.941304317738899089e-03
-8.070736336640890740e-03
-1.020206884978543983e-02
-1.083168270611378596e-02
-6.536945370353998939e-03
2.151075461439950608e-03
7.228966235583662685e-03
1.014769890609215457e-02
1.127400443543029665e-02
7.288571338368921189e-03
9.473995739684373677e-04
-5.968937735374057118e-04
-1.202919755723960184e-03
-4.900367799758120063e-03
-6.421453822638450125e-03
-3.094187059058752225e-03
7.406464227530954120e-04
4.722680229534434795e-03
3.474625508239756987e-03
-7.292367248744203306e-04
-6.048286722692174273e-03
-9.702379358580228569e-03
-8.279496499630740330e-03
-1.402887863828147699e-03
5.515017147944801038e-03
8.130269703392077954e-03
6.515362825982523066e-03
3.167841716550599904e-03
3.004923906855418939e-03
4.358450221148708545e-03
4.011053789981881661e-03
-5.370847756790391846e-05
-6.509538617278864785e-03
-1.083341470048465073e-02
-6.672523916950627056e-03
5.805021512915476420e-04
3.861579274713854929e-03
2.523557714165835901e-03
-5.633143292198393047e-04
-1.759407000697353575e-03
-9.301965246426886639e-04
1.145482545099022094e-03
2.468130823676799313e-03
2.409918384377134331e-03
1.408675715038317910e-03
-9.994921911752111237e-05
1.675952286701102396e-03
4.426811480488818985e-03
3.712588647828589990e-03
-7.767439652837823628e-04
-5.064132415242116568e-03
-6.527383676252418963e-03
-5.117630751067913340e-03
-4.275004747788337979e-03
-4.828139495291878212e-03
-2.253512637845092766e-03
1.719519802117850955e-03
1.692848696722672229e-03
3.085328671840318216e-03
9.611589767268280404e-03
1.213667124396425150e-02
7.746708920306611020e-03
2.081656222325886521e-04
-3.841231353113931397e-03
-3.886221192282290817e-03
-4.455016859902690730e-03
-5.952827396433350501e-03
-4.499205163591835435e-03
-1.380694977766697053e-03
-2.994072572269308513e-04
-2.793746144012771056e-03
-2.899298374879075071e-03
-1.343695893305719546e-03
5.505712418024889723e-04
1.621402788525934304e-03
2.995210175906025309e-03
7.011312975926727899e-03
1.004443774200686028e-02
8.604767594978869269e-03
1.320894930042597597e-03
-9.990203543760992413e-03
-1.665751418664327896e-02
-9.865904206157167719e-03
8.838967865279131206e-04
7.003116449578103246e-03
7.224178574150017830e-03
4.243952916880030721e-03
2.893513950167615496e-03
3.121270071688732415e-03
3.353691882350628116e-03
2.484170901371013374e-03
7.945918545264886142e-04
-5.989639463302334592e-03
-1.433527881444863344e-02
-1.762928281723623314e-02
-6.485343076708308292e-03
6.073819601896883295e-03
1.085290745775466421e-02
1.147616193505100399e-02
7.439556196076422406e-03
2.494343630839451851e-03
-1.157199491123762133e-03
-1.186042103950180060e-03
-9.346119250444978295e-04
-1.327327226449793052e-03
-4.528993565320956101e-03
-3.106675677819664260e-03
1.664234341477148754e-03
3.008549587409292767e-03
-3.586606409693079154e-04
-1.787441519180206929e-03
-1.643857503287839009e-03
-5.939838481507916457e-04
-2.127404439401895135e-04
1.136882326314916144e-03
2.505865036524760128e-03
1.427289023707491687e-03
3.248141383257141480e-04
-2.795571627520979357e-03
-5.496080119784445793e-03
-3.349517045097875727e-03
7.514424986881023749e-04
4.527120294469741922e-03
6.919583339174961538e-03
5.955454560424317846e-03
2.408177532600303764e-03
-1.573848331225253475e-03
-4.601084219111911851e-03
-4.514243627352736848e-03
-5.248563088998572761e-03
-4.015569702648197521e-03
-1.527458762507443672e-03
-3.215579834537138490e-04
2.711909148990638164e-03
3.506855080748114920e-03
2.259613207630251693e-03
8.297090406129498325e-04
1.820321108702252673e-03
1.404299113908915849e-03
7.677911076859634263e-04
-7.547428158211372945e-04
1.211150626986518615e-04
2.242345372192922071e-03
3.534313215198656936e-03
2.381389853408193320e-03
2.288809941246267932e-04
-2.071136269940651326e-03
-3.489701230858397937e-03
-4.646549315900332620e-03
-5.976208428724481478e-03
-9.254417662066593414e-03
-1.012567827364361031e-02
-3.604526108795213981e-03
7.368394321801002844e-03
1.481269834968052153e-02
1.347770178656522606e-02
4.646820506994469267e-03
-1.580152731972211174e-03
-6.324268620786268605e-04
1.040747466008920758e-03
-1.054345021857273305e-03
-4.259816777400502082e-03
-3.334315928456030829e-03
7.068031189838491291e-04
2.584632385707173133e-03
1.615245205121500043e-03
-1.182618819149682194e-03
-6.897452281003729931e-03
-8.346768452159061130e-03
-5.794456935647822153e-03
-3.292756606593048776e-03
-1.444861243842355354e-04
4.357273333394444913e-03
7.866903704923215029e-03
9.401232047694425484e-03
6.737381561352303802e-03
2.205970475442474692e-03
1.621380399278772328e-03
-2.043389044287525092e-03
-5.458930286362456176e-03
-4.088638660847351142e-03
-1.795176491210007889e-03
-3.058034561647151586e-04
-1.801430444933290430e-03
-4.488190704788130175e-03
-3.816469327846620362e-03
3.399256973757553996e-03
5.856540656813066098e-03
1.566489044999222133e-03
-1.538362439088411396e-03
-4.073718054526260504e-04
1.142730892492343706e-03
5.137414002573725607e-04
-1.651379084533995166e-04
1.842828859180869376e-03
2.100560971805347579e-03
-1.083423517893294464e-03
-1.617974439509266976e-03
-1.496612043239069689e-03
3.431541516226240983e-04
1.612562086741690113e-03
-1.343868588677455973e-03
-5.155784036693942217e-03
-3.242243939424300191e-03
1.369547034604685042e-03
4.281956469545963699e-03
5.370280439657242749e-03
2.219133061215621417e-03
-1.487120946750191460e-03
-3.289925522742931374e-03
-5.009206539227151200e-03
-3.894044743484635553e-03
2.048465464653143617e-04
3.460919308827056177e-03
3.564282256071353138e-03
3.231294773217409811e-03
4.560157959042453538e-03
6.592475273076270348e-03
4.402360958765691966e-03
-2.657857515682353605e-03
-9.730439105616604453e-03
-1.010844589144689783e-02
-7.286172491066666979e-03
-2.598426708046228887e-03
1.115082434151851067e-03
1.030196252072131981e-03
2.417700464495928323e-03
5.054045603367884366e-03
4.890882654594390887e-03
2.744763519503688656e-03
-4.389413469981388654e-04
-1.605821410713181678e-03
1.202399434368205729e-03
4.882269803781139582e-03
4.171807605631736200e-03
9.644487450962503433e-04
-1.023816111240992638e-03
-2.807060079381944271e-03
-4.932732165531568055e-03
-5.948053635683680195e-03
-3.462315247042316389e-03
-8.575037045452609105e-04
-1.489589714918707064e-03
-3.197751315205411664e-03
-9.030679061800720797e-04
2.246251993497908831e-03
3.870525099824979973e-03
7.539847724803486022e-03
1.101940381410636445e-02
6.418741597424511280e-03
-4.245100511866596767e-03
-1.057209388472442162e-02
-8.577483427020181697e-03
-7.840737895665453230e-05
3.951504952501931275e-03
1.679410672919947950e-04
-4.702793903327600472e-03
-4.393494152254344073e-03
1.561453470987215781e-03
3.856471340201165186e-03
3.859381284803577259e-03
6.285765821561707135e-03
6.686702717507975006e-03
4.530935931124658320e-04
-4.974027541185243109e-03
-5.052704670824043759e-03
-2.407819187987988302e-03
-4.182955185571263354e-04
-3.214320351412392352e-03
-6.063278341412028927e-03
-1.321543152595857935e-03
6.609295178023321185e-03
5.245759374560811199e-03
-2.331087247690892452e-03
-5.415028993516894304e-03
-2.158662883348089548e-03
2.864207904925641923e-03
7.048123475844026396e-03
7.160659737609561745e-03
2.242233504986876694e-03
-1.349419372435486887e-04
-9.517630966548710656e-04
-3.937426195260418024e-03
-5.338867438218999027e-03
4.404576156670829629e-04
2.383437265116002471e-03
1.092537972662055478e-03
-5.154487768963474407e-04
-5.143486301163743314e-03
-1.074019650714583100e-02
-9.283624520069595765e-03
-6.737813151773177625e-04
7.410807775252079704e-03
1.170998940679183163e-02
9.405072621043899031e-03
3.757040411144511784e-03
8.978835329322322348e-04
5.220733040456855068e-04
-7.537727761604246608e-04
-2.671638691200878268e-03
-3.461292832948045534e-03
-1.816263858902329286e-03
-2.227086227155860611e-03
-3.073219653218684302e-03
-1.501274770778100124e-03
-5.939807334637445214e-04
-8.245728885052163197e-04
-1.431205612957565845e-03
1.907940112175030446e-04
3.144714099858929995e-03
5.317143250592739137e-03
1.390245259984763775e-03
-3.734084906840370952e-03
-3.176780356119895000e-03
-1.380262856310113793e-04
3.087913038672948380e-03
3.433955498130789475e-03
3.774830761580067091e-03
3.163392867740158054e-03
4.958187017907942891e-04
-2.432687212630664595e-03
-7.637526979327700048e-03
-8.733906764761432615e-03
-3.599039726882441882e-03
2.729663559033759183e-03
7.361860889100641653e-03
6.806022403237586664e-03
3.833850153516467959e-03
-4.560968700488158894e-04
-6.944943266717328208e-03
-1.010230033417189137e-02
-5.311831393645154165e-03
4.718172313855417861e-03
1.239384571644808024e-02
1.042143492154403751e-02
1.113593381244943562e-03
-7.425723034853201447e-03
-1.045593061533436376e-02
-8.582507074022626206e-03
-1.195160578819784870e-03
7.123225217248312612e-03
9.037116479283962764e-03
6.206727335552467313e-03
1.048138888951279882e-03
-3.418276967569007594e-03
-5.702017763070420416e-03
-3.856177163955122177e-03
1.000614246302505882e-04
1.834086933936233650e-04
-1.955650791773352794e-03
-9.996719814998489967e-04
1.964925074949935759e-03
5.703769942874309037e-03
6.087982900397964983e-03
2.961183949464189606e-03
-4.696696026111226016e-04
-4.499158549076474022e-03
-7.734044264492724412e-03
-9.076551249660681428e-03
-6.352446298357617566e-03
-1.655062430030776726e-03
4.600338824574516997e-03
9.855587225116443570e-03
9.403605600942837803e-03
5.386729928765119323e-03
1.454419407172786571e-03
-5.923260375300113323e-04
-1.254556065224705832e-03
-1.192888768124295311e-03
-1.677956899590492788e-03
-2.141690077104944738e-03
-5.969356465052619992e-03
-8.898461734036456489e-03
-5.272939352248179334e-03
1.274832064909365691e-03
6.212934512557181412e-03
7.308968624076743296e-03
1.877324328569125126e-03
-3.003461210567763117e-03
-1.787429636215404679e-03
2.057932632236375830e-03
4.593867034421547819e-03
3.545222690370573859e-03
1.316093584068329459e-04
-2.304429743083121276e-03
-3.330288162506481620e-03
-2.063247527439528075e-03
-1.439763775045190507e-03
-8.884315125680658639e-04
7.730807997714269188e-04
1.524955303005313696e-03
1.639502084251631209e-03
-7.431283212312397597e-04
-1.069484359445588631e-03
1.098998075360852443e-03
8.655057385362590868e-04
-1.626150368261759229e-03
-1.954668303029716021e-03
-1.192076561561068509e-04
7.026372831889893906e-05
1.520634807281043104e-03
2.105411472864858555e-03
-4.533513428406347372e-04
-9.563069723576919515e-04
1.502634983134965940e-04
1.657183929118293160e-03
1.439949204229448720e-03
4.263326957480567930e-04
-1.828275936233934211e-03
-4.241421183033486364e-03
-3.745866101702174066e-03
-1.729641158615939254e-04
2.067775414528256334e-03
3.447695112772352407e-03
3.519247660334914440e-03
2.440937860030551777e-03
1.282331284998207595e-03
-8.744434200524999748e-04
-3.576438833273716013e-03
-4.540538621393016248e-03
-2.551228224869912190e-03
4.040288709206463257e-04
1.118607462560561230e-03
1.269851997618558735e-03
3.603745970393606828e-03
3.389472260998278256e-03
6.263317630628802883e-04
-1.329139085054291750e-03
-1.560680475191015930e-03
-1.286174102083829625e-03
-1.415518912271707119e-03
-2.397911862634849369e-03
-2.391487488325552604e-03
-2.147741180362789260e-03
9.369554485408479677e-04
2.137201584308433700e-03
2.212836049266247475e-03
2.065669821593857629e-03
1.974790977127585580e-03
1.748719068461790198e-03
1.184258640378179185e-03
-8.347329193595460963e-05
-1.203796601965429793e-03
-1.054899902999537542e-04
2.846683758349460511e-03
2.721492417115108347e-03
-1.123228661851615384e-03
-5.493734848834059582e-03
-7.477093157529053798e-03
-5.966003238787909689e-03
-1.660310365031842771e-03
2.471044583912980399e-03
3.014591186254052171e-03
-8.099871393985426989e-05
-3.208339700530786747e-03
8.904456942219557631e-04
8.926109449385523364e-03
1.422908080305920579e-02
9.341468270960299677e-03
-3.605746627622635671e-03
-1.075231518658704283e-02
-8.627839919706843663e-03
-6.891699183414848676e-03
-3.913162094665513686e-03
1.788646151803563716e-03
4.222765841554150003e-03
6.101443646473606215e-03
4.038971295759516411e-03
9.109344194846935800e-04
-1.470255295811707767e-03
-4.644311495695213100e-03
-6.484337156541828719e-03
-5.317558392485309017e-03
1.446318047233689005e-03
7.089377244691183119e-03
5.348561134121768319e-03
1.399903537091671570e-03
1.082683770126138508e-04
1.144991627132055422e-03
2.651904496245876489e-03
2.312569588700575697e-03
-2.338645141944186313e-03
-7.198597301145388296e-03
-6.474557112825572378e-03
2.992339196219844519e-04
2.921875099470617933e-03
5.624168521018899601e-05
-1.994025048589084543e-03
-8.846223229340020779e-04
1.612688250814178163e-03
3.572920626672233466e-03
2.608354718668607491e-03
-1.083534173307169543e-03
-3.349820984744157626e-03
-1.577406858454643256e-03
2.711831737482669601e-03
3.860886602388825892e-03
2.607133671530999838e-03
1.812048952691745502e-03
2.039557900915951218e-03
-7.283902923340699123e-04
-4.405750567656301249e-03
-5.680394687217136564e-03
-4.740357225591139249e-03
-2.219499920372561361e-03
2.176670363493031588e-03
3.719369454655200788e-03
3.030623667460577778e-03
2.824126161014135989e-04
-6.861034629730842138e-04
-1.526308162961114746e-03
2.367028943892871603e-03
4.916774941846511864e-03
-1.177444598216480405e-03
-6.892622845871053915e-03
-3.210068461377702485e-03
4.387935121628056510e-03
3.088799992868120330e-03
-2.684791429808490188e-03
-4.245894878466856606e-03
-1.156355494399801884e-03
2.129615183179969957e-03
5.268156202960339041e-03
6.533488045191230588e-03
2.362245912831888867e-03
-1.656729702585204873e-03
-3.289939208282633733e-03
-2.433167489899923114e-03
-1.106137864239852952e-03
-1.769398518180501914e-03
-2.132927187068556132e-03
1.183585449157796479e-03
2.427434224804496648e-03
-2.455030726838146934e-03
-6.666500443864267940e-03
-2.939660730344963516e-03
3.639005559776188354e-03
-1.326542943834019186e-03
-4.318497136933751798e-03
4.501332857701493412e-03
1.297433438900771549e-02
9.065731727652898489e-03
-6.376042944234436901e-05
-5.604275735147998608e-03
-5.485019739271384392e-03
-8.585493542425038293e-04
8.548355700425878641e-04
4.706954365410999592e-04
4.867836974087898618e-04
1.885820609171857780e-03
3.073704548337012534e-03
1.257991524814927164e-03
-6.175214501639489546e-03
-1.265714535015400287e-02
-1.281371095814439094e-02
-4.758913892076046745e-03
5.167204434639948059e-03
1.062834738549089768e-02
1.184263265852176540e-02
1.038524196794511807e-02
4.146546619199514665e-03
-2.599738202200312358e-03
-4.535876427473717332e-03
-2.925011149757217408e-03
-1.179432994436783576e-03
-2.751652210963637232e-04
1.866346314503105914e-03
1.993338578532938884e-03
-5.353436552554669383e-04
-6.186927537988251222e-03
-1.220043476793242730e-02
-8.009277498053022845e-03
-2.689532533131101235e-04
6.057741636609364350e-03
8.150382460165727858e-03
7.000630179266129592e-03
2.521420817550441753e-03
-6.608222396351264493e-04
9.918222462905407558e-04
2.298323730478904047e-03
4.117008242335458684e-05
-2.452716601118410875e-03
5.728654476965870353e-04
3.270881768327220211e-03
-5.386136696661106109e-05
-4.715900017076713607e-03
-6.783625877222742954e-03
-7.196426037180656682e-03
-4.592497388472544136e-03
2.643110359359879475e-04
4.480677108467849036e-03
4.859816545380504088e-03
5.220543784415614293e-03
5.864569726885900461e-03
4.642393649067289366e-03
1.225934068530008195e-03
1.025397020234218321e-05
-1.173472974799541491e-03
-2.202306911626176686e-03
-4.470619547867114851e-03
-7.223361785923694371e-03
-5.874903406926981590e-03
-3.605601188557089592e-03
-3.735103779990409968e-03
-1.145443918495165454e-04
4.861108325621441538e-03
6.654183712883676716e-03
6.664701102602465892e-03
8.258421651103424813e-03
7.152235274714883496e-03
1.334328190644228345e-03
-2.064083470512044233e-03
-4.156008619689109153e-03
-5.439640508243032656e-03
-5.637154533676765229e-03
-5.976656061529074700e-03
-5.831210490441381816e-03
-1.802734985223107805e-03
6.783577058884030517e-04
-2.933082107737908272e-04
-5.124548140332708815e-04
1.477170189434354360e-03
4.068031015966697313e-03
7.005473507821493966e-03
1.000839220535028502e-02
8.188787951849477165e-03
1.665702430870350057e-03
-4.582917620063842006e-03
-6.358779453848008821e-03
-6.643319361325780888e-03
-6.433873636118102313e-03
-2.752824441096399493e-03
-1.307353112362465933e-03
7.555817365388998183e-04
2.795140364023002925e-03
3.726973944586823868e-03
4.948924854507229460e-04
-1.403476216597870571e-03
1.785629544592265546e-04
1.135015905786224523e-03
3.464733064168523582e-03
4.588813684334458638e-03
-8.190699458833684441e-04
-8.473144891205862742e-03
-6.458888890429196825e-03
3.099821717187440945e-03
7.397803504290068576e-03
4.158324611772091020e-03
-5.029450227657864111e-04
-1.690452248829645530e-03
-2.441827930612792703e-03
-4.114075494739894041e-03
-3.026284471896157745e-03
-2.256233261010010113e-04
1.258074454138200654e-03
2.056265951946833256e-03
3.102703719906276577e-03
1.969428867756947525e-03
-5.733224547108441973e-04
-1.168117545120015950e-03
1.788478741998793058e-04
1.319203454451272316e-03
-5.104693435391208104e-04
-1.210241205682275386e-03
-9.539742749025145003e-04
6.953006855846959348e-04
1.124986782196633331e-03
9.305454067664507790e-04
1.020601845453026051e-04
-2.737787823381616133e-03
-1.940949265921038201e-03
-3.981640804648940843e-04
7.314712174522986030e-05
-9.676045326661573314e-04
-1.365748836269043993e-03
-6.464857761261215158e-04
1.355639474039207039e-03
3.578708969551187054e-03
3.426432283701183728e-03
2.107962992461335453e-03
1.739291415712943467e-03
7.675284185439762387e-04
6.878309192360858564e-04
-2.345182541517611043e-03
-5.306566315656026898e-03
-5.469431948107225834e-03
-3.149477709066455210e-03
-1.786343990376743204e-04
1.467085112893772806e-03
2.564319717603019775e-03
2.977092305528881901e-03
1.958760083588364457e-03
-6.299978596621779022e-04
7.124156044592380764e-04
3.547507896277753061e-03
4.058456569404736251e-03
-5.069261088010145215e-04
-3.441469984675628747e-03
-4.597588649023993078e-03
-4.433732451639673701e-03
-4.519302868002418854e-05
4.613367620023959420e-03
2.694947598900857347e-03
-4.249517535989690530e-03
-7.493868059890613186e-03
-1.362764433036420773e-03
6.694367100843076623e-03
7.238938926789088499e-03
-1.546725748754364162e-03
-5.469144650919286789e-03
1.413988372347772327e-03
7.181255782605114497e-03
4.937560838617874488e-03
2.125199863850151492e-03
-1.444400873292237767e-03
-3.209596132509096467e-03
-6.398386949912956284e-03
-7.359559683219828695e-03
-4.410560988720916772e-03
-5.842366752626014991e-04
2.014316770755856210e-03
2.508292776746597671e-03
1.395859854060213338e-03
1.154246838694138275e-03
1.808924426699021117e-03
3.675632725542687419e-03
4.458418319589219254e-03
3.674004459381459333e-03
-2.458327106717297711e-04
-3.084225589323345666e-03
-2.005710203367924455e-03
-1.958915515165072369e-03
-1.937509697353822710e-03
-1.625212371956199142e-04
5.818362991394993760e-04
-2.922130383206753435e-05
5.989683229555392259e-04
-2.583718960591318658e-04
-2.711485382469140584e-03
-3.800440245777686379e-03
-2.076452845147629730e-03
-2.947653262990024021e-03
-2.968970069664351574e-03
3.894587739750033934e-03
9.323517521748434303e-03
8.795575826403905298e-03
2.496946150655415548e-03
-1.475346072154838737e-03
-2.524248780617804108e-03
-5.566435263037828284e-03
-4.243734334495419085e-03
6.181735496520835782e-04
2.082298487750471744e-03
2.270622779385213620e-04
-1.054166239781880810e-03
2.135915023836171267e-03
5.462357091131276286e-03
5.211510140278869177e-03
-1.095392323428288212e-03
-1.210555330930652464e-02
-1.652953113289920908e-02
-3.059654976465011906e-03
1.307736748791627109e-02
1.254673762531299808e-02
1.960326814657412358e-03
-7.032788046256820309e-03
-5.074634012117943543e-03
3.454513366073122971e-03
7.300512571452490683e-03
2.067138539755868521e-03
-2.154674451968334372e-03
-2.911314490314507227e-03
-2.943684088907723428e-03
-4.199582050036122912e-04
1.757984557755401089e-03
6.857727945666789110e-04
-3.033501479191172065e-03
-8.036007857979485594e-03
-4.721068863712940718e-03
5.063898448780006049e-03
1.336285946184675479e-02
1.221427156149207903e-02
8.237310277396898495e-04
-8.329712630808448412e-03
-7.799815851423680564e-03
-1.576922963604616805e-03
2.698499271373074222e-03
-1.573994868501988427e-04
-3.562507069813187262e-03
-5.801304199841303411e-03
-5.449748583851119280e-03
-4.642485315056380088e-04
3.114681192849981864e-03
4.430457647010931435e-03
4.904150855947940479e-03
4.413712159298844272e-03
3.883799765488135831e-03
1.469352156791287577e-03
-1.034887451493569054e-03
-1.700762458206340685e-03
-1.666176944957562835e-03
-1.619662049073453645e-03
-1.183773874660945177e-03
-2.823992408061639812e-04
-5.102755580248155131e-05
-2.527379996005749401e-03
-3.629453321121075410e-03
-2.004108134788578407e-03
8.204556731306640463e-04
1.654302554607161050e-03
3.730980240579150845e-03
5.108547113265375118e-03
3.397610641506778380e-03
3.198981908307063724e-05
-1.868937003940675246e-03
-3.910292074024458546e-03
-6.472629021179741697e-03
-8.409685455106129942e-03
-7.510540927158149312e-03
-1.115827071791476634e-03
8.992693771229793090e-03
1.353382478733801929e-02
1.113347085206505514e-02
7.712561286262922811e-03
3.061553524464327280e-03
-2.286937758365611365e-03
-7.354130915873819015e-03
-8.263053457468536381e-03
-6.162906932217175962e-03
-7.373559424935192952e-03
-7.969411243423381308e-03
-5.832996261842729804e-03
4.101944949013513553e-04
8.028887895232287783e-03
1.246740769593506284e-02
9.932387244453702926e-03
5.779567942420215862e-03
1.235906882271218480e-03
-3.243195655257399054e-03
-4.919324076176186979e-03
-3.496975566236364477e-03
-2.644875165175894320e-03
-4.956838941313583373e-03
-3.252153733630858568e-03
-2.090423233209693851e-03
-2.972629203077820255e-03
-5.303664528530726381e-04
2.667963708071040795e-03
3.893598376870533763e-03
2.693929015810847278e-03
5.619502601356708531e-03
9.743833173052038332e-03
8.616713522713365450e-03
2.187996667595703323e-03
-3.336718626738338547e-03
-7.235496912097779364e-03
-9.224854102000070930e-03
-9.299228567705276546e-03
-9.710165515267659905e-03
-7.336998866331618380e-03
-1.004255314218438283e-04
6.467100817436772717e-03
6.838735544841179417e-03
4.635351747998085574e-03
4.831105722564991815e-03
4.740579047946919845e-03
1.946546414228565464e-03
7.058097410722292487e-04
2.489949220060831084e-03
3.701500557594506954e-03
3.311591854813001213e-03
7.344141190356951116e-04
-3.397710801934101122e-03
-8.137574042273510930e-03
-8.702546059049333371e-03
-4.858544149888338083e-03
-4.730060673514162317e-03
-7.862441536011169005e-03
-2.326318258839053018e-03
7.809662506522955724e-03
1.360883147862677542e-02
1.193832878189431644e-02
3.629896427187102610e-03
-5.610519725366564132e-03
-1.100452852331183437e-02
-6.566385584679672836e-03
4.368530799239262255e-03
1.219648659543416495e-02
8.218863318422709938e-03
-2.079898326342548200e-03
-7.726118020064415975e-03
-7.359014411160279961e-03
-5.412457851871338085e-03
-3.415307915909769707e-03
-1.822233833184870849e-03
1.968253069928100740e-03
4.455440973029202965e-03
5.188019402616319067e-03
4.319339455353336799e-03
1.994864420665308849e-03
2.471474097087172049e-03
1.911603418168042294e-03
-2.306244741381855042e-03
-5.938161428282301077e-03
-4.432312048193523708e-03
-3.149048954852546635e-03
3.414784530951089437e-04
3.747987622511975928e-03
2.499100403926219054e-03
-6.449429449658972179e-04
-3.528824578752122899e-03
-3.841616273127908265e-03
-4.927807027427635661e-04
3.485819386390452863e-03
5.209738400766337867e-03
3.771015670547609149e-03
3.594230739903962659e-03
1.009250275725904079e-03
-2.014098537628448028e-03
-4.119502513514702695e-03
-6.239787132251622091e-03
-6.711756074782812900e-03
-2.953348981037972384e-03
4.416565998599062716e-03
8.067779453462617031e-03
6.164530286481698269e-03
3.890519119156111028e-03
1.394480892833760942e-03
-4.682981066841501207e-03
-1.037417231283843840e-02
-6.366642344346964619e-03
4.823712225145269797e-04
2.403968070965599533e-03
1.854661195388329501e-03
4.037197240648231558e-03
4.843918954005389452e-03
4.283121052190088165e-03
1.748656299142813293e-03
-2.147914755658886492e-03
-4.659739789978421635e-03
-3.191054321880537441e-03
-3.229610705720736136e-03
-3.086618257728655865e-03
-1.734087433177436135e-07
2.539420016397985532e-03
1.806681296765977980e-03
8.738797685750760184e-04
2.505070842199177885e-03
1.982444723836409954e-03
9.904856359023289907e-04
-1.692464358520833542e-03
-3.175056134111184283e-03
-8.773976163804653606e-04
2.129202539515934276e-03
7.852616400553038851e-04
-5.118452509881671287e-04
-1.792426876726792469e-03
-1.867761816834629784e-03
1.518258197341620236e-03
2.687378640826291586e-03
3.875991512549182855e-04
-9.849635152629435814e-04
2.229720987620338081e-04
2.313082704640324547e-03
1.915599233774009733e-03
-8.210446870249562884e-04
-2.991732540868713083e-03
-4.579528904039185770e-03
-3.572838424576209749e-03
-2.389426457013865820e-04
2.263436655554958155e-03
2.916427636025731730e-03
3.144618230074150336e-03
1.318366547310077536e-03
7.492466764313411316e-05
-1.160841611494069919e-03
-3.279144266741672482e-03
-3.214193334391025024e-03
-1.116864440398892232e-03
1.017880694382141717e-03
3.318063109763738031e-03
4.220613518157576537e-03
5.508649898444808145e-03
4.990704712575333261e-03
9.308426182726114691e-04
-1.078515610836369059e-03
-3.673614127714904150e-03
-6.726552765555609582e-03
-6.882666161471958158e-03
-5.950670724213981237e-03
-4.647746985093933851e-03
-4.282757884074236444e-03
-9.658376278537304750e-04
3.700294809762561931e-03
9.018028472383525507e-03
9.996691102490668987e-03
8.025971002789429945e-03
4.920987512306268519e-03
3.286695411419887159e-04
-2.011494208109041240e-03
9.495112458744918243e-05
-1.084440088740314459e-03
-4.429323418935054817e-03
-6.364368538150312962e-03
-5.580379685061811861e-03
-5.011671868725287547e-03
-3.746166372671342563e-03
-1.298828960511986489e-03
-1.125590131956768960e-03
2.186967316532494824e-03
6.738630236965047204e-03
5.900548508567173868e-03
4.481439634986888847e-03
2.699627860451202493e-03
1.672438778133766239e-03
2.106626510445815505e-04
-1.365660115279198391e-03
-1.682230877978535197e-03
-4.257720623015969104e-03
-6.055830268011182585e-03
-2.669954049450951571e-03
9.980367880036531032e-04
3.861660079634998948e-03
3.614883386972302451e-03
1.767537914777080705e-03
-1.684440774612908694e-05
-1.141652226792718664e-03
-3.297698436556612857e-03
-2.833675833020303687e-03
-2.166939561739712793e-04
1.950954490039904458e-03
3.508783566586860889e-03
2.159811236272153080e-03
-1.341898902466412153e-03
-3.649092346899192579e-03
-9.573028008847005079e-04
2.755897050792219596e-03
3.818720125861711518e-03
1.917760147157610440e-03
-1.579461646630974346e-03
-3.470824796219373811e-03
-3.143767220500600420e-03
-3.185280259337759570e-03
-9.900221725344872555e-04
1.014976923729933589e-03
3.302886638353756243e-03
3.293853323769822816e-03
3.882694542568133770e-04
-1.593396085933216234e-03
-5.149076143419967569e-04
7.188576239183684050e-04
1.181835031931895716e-03
1.623276301585129585e-03
2.791725155575593316e-03
3.607086722301023046e-03
2.690112849413380924e-03
-3.464949021412582798e-03
-7.517194093940839095e-03
-7.604074000129920977e-03
-5.205369224881811578e-03
-4.535670534349629975e-03
-2.173917796550794111e-03
2.858126569012619904e-03
1.015520573920872770e-02
1.105358536759823776e-02
4.645919314023077597e-03
-4.816857659907893864e-03
-6.247925569682320941e-03
1.340469193150099596e-03
9.452425826063133238e-03
6.219276563093916257e-03
-3.977800917561515352e-04
-3.806769791828891730e-03
-5.945472039517792073e-03
-7.352811486675671880e-03
-4.108648079734097264e-03
1.490581136911263514e-03
3.070096624026687985e-03
-6.695756274521783751e-04
-6.262865421548253174e-03
-8.081414748725876743e-03
-8.568555697959228876e-03
-6.045637846792274728e-03
6.799222159585706360e-03
1.955088231132969673e-02
1.961920981832292535e-02
1.130511435286088960e-02
2.350853268596452559e-04
-5.565911885284398515e-03
-6.955819560920646107e-03
-5.116949588654071644e-03
-1.693624743388117467e-03
-3.037756870839638862e-04
-5.458798303935757587e-03
-1.034792439085467121e-02
-9.346076098750067188e-03
-4.728047905958090644e-03
-2.646753278764414066e-04
4.719486696363376851e-03
8.163620418804662729e-03
9.989484719490706460e-03
9.344829207944934518e-03
4.901439180861335947e-03
1.565586089775405313e-03
-8.131117500950992482e-04
-3.928662394720714747e-03
-5.825199302152246454e-03
-6.536554443974208935e-03
-4.723746805016941150e-03
-2.248601397729584322e-03
2.532528323508769505e-04
3.204943988456598935e-04
3.781410921630119467e-04
1.173358927616995149e-03
3.989142009912090238e-04
1.998168419748891280e-03
5.787311071510291456e-03
1.126992892731336002e-02
7.720725203172215494e-03
-3.227438349368577045e-03
-1.032447904771898080e-02
-9.786738048074566584e-03
-6.817476202031893216e-03
-5.990504746511190332e-03
-1.178791891757339626e-03
5.064765820508459505e-03
8.522267167011087288e-03
7.578229290966247318e-03
3.977705967153677240e-03
8.388674561765936547e-04
-2.690010299202444128e-03
-6.854236766825229712e-03
-7.478819200797893335e-03
-1.615159265455003591e-03
3.759927290531770664e-03
5.169834168944275991e-03
1.872839481213417695e-03
-2.461612493827726716e-03
-2.043328412753256124e-03
5.148910759597915849e-05
2.256254518025360960e-03
3.446839752606868906e-03
5.021439117872934874e-04
-8.590955334534628677e-04
-1.485551643353129987e-03
-2.433745096009706657e-04
3.700632134798910022e-03
5.239266483147033901e-03
1.570773641205560570e-03
-3.370287261563518263e-03
-4.248653026678540258e-03
-4.243228501643678784e-03
-3.907291209738155031e-03
-7.426867493180624134e-03
-1.026690653208923130e-02
-4.215917660478264543e-03
4.749192056688148270e-03
9.572040831755770571e-03
9.885288321964049926e-03
7.421647735680580657e-03
4.938233621896543149e-03
3.162173506574892604e-03
2.166515218930328661e-03
1.682909676366833212e-03
1.113109163708715784e-03
-1.677529830057834402e-03
-4.698919499498179116e-03
-7.161947766930997113e-03
-7.634724924166677064e-03
-6.932684215923358775e-03
-7.656419677525328621e-03
-4.731961376365617297e-03
3.749864380294843248e-03
7.673713089271031948e-03
2.587693091317389265e-03
-2.375254695086431809e-03
3.588182607697830082e-03
1.005277541387819898e-02
8.855431246213150975e-03
2.941006042506234559e-03
-2.183071740286913771e-03
-3.326536159371223846e-03
-2.967440302112479139e-03
-3.141299745962870642e-03
-2.076408742600812079e-03
-1.663458045874241942e-03
-2.109035892009141454e-03
-2.389171743823688236e-03
-3.298773414424345171e-03
-1.195076566790866622e-03
1.930375364701151890e-03
5.468433806711366953e-03
6.222182460187614290e-03
5.118028956687192300e-03
-1.341439666828804240e-03
-8.109062113150277556e-03
-1.029182667751296978e-02
-4.067728255128291379e-03
3.394238243143588973e-03
7.512268961746731630e-03
7.663147457720969127e-03
3.824488920583472753e-03
2.526625862699537466e-03
1.749429037944571358e-03
-3.753305300010283075e-04
-2.963980436281169785e-03
-6.189445743996152029e-03
-5.630181629380154491e-03
-4.473764336009313988e-03
-4.208179692821444572e-03
-1.114333537001791462e-03
1.369598767903478734e-03
2.406979458688076733e-03
3.754713424313968744e-03
2.583479829149268412e-03
9.308819562042449551e-04
2.796611118775242742e-03
3.610398924358693227e-03
2.285460406263663778e-03
3.045073299781211927e-04
-1.074131733438402547e-04
-1.012496664040383326e-03
-1.123639524818001618e-03
-3.742984539082822850e-04
3.943915523904512098e-04
5.087127831240120671e-04
-2.515622007368748751e-03
-7.018766339678072196e-03
-7.500521284661046048e-03
-4.234715599491280409e-03
1.609476964848950611e-03
6.282554299100808447e-03
4.362154057874835164e-03
-2.691257778330563696e-04
-9.928985803811453577e-04
1.772944542644294772e-03
3.926761844243144110e-03
5.310593155211260248e-03
5.896216314045078268e-03
3.957627306733256002e-03
-1.328917744187755028e-03
-5.146804340774870611e-03
-4.812414698587912446e-03
-4.802428021659855412e-03
-5.608562301369269913e-03
-8.921920346694683229e-03
-5.425511759783878223e-03
4.145912281312189550e-03
1.067908289070955592e-02
5.983390755204732840e-03
-1.041628067547827313e-03
3.290601297275208776e-04
2.500196405847655064e-03
1.679235365336400297e-03
1.080410550485765443e-03
1.618391274915418829e-03
1.148357562730018423e-03
-9.523046697588616067e-04
-2.101026798724580594e-03
-3.677421620831286715e-03
-6.289757638828107587e-03
-5.043033162015378261e-03
-9.833721261581335714e-04
5.780809284843220009e-04
1.352594894055772273e-03
3.049717771203201960e-03
5.540977354461160825e-03
2.582891264330749049e-03
7.347622923590649323e-04
2.420185052585384442e-03
2.570868346812950778e-03
-7.926776641805613390e-05
-2.990047914789294679e-03
-3.014454764375976755e-03
-1.276282008319575174e-03
-4.188078966935485049e-04
-2.159570531724099626e-03
-1.947227971978959717e-03
-1.777786117454739027e-03
3.337155919009403152e-04
1.959373736731359443e-03
1.901729361841080542e-03
8.011109557672088178e-04
-2.408564886543705609e-04
-1.037644923158492685e-03
-1.710292428720752017e-03
-1.011355118280657210e-03
1.384384288657202313e-03
3.810627566005696330e-03
5.355936606338335820e-03
4.796615803692281729e-03
5.989974904578536765e-04
-3.736616545004092533e-03
-5.775576710414695968e-03
-4.297852050574128661e-03
-4.330915650347857450e-03
-3.873813978981283015e-03
-1.878943320861282518e-06
3.043109708843088831e-03
1.630634272161294316e-03
5.186518091014601659e-04
3.541298379713944764e-03
7.349436730251897136e-03
7.359895585637631250e-03
2.791149432319311573e-03
-4.860394618059034159e-03
-1.135913115660138438e-02
-8.658230346630796381e-03
-1.223221654537798558e-03
2.667564151980064257e-03
3.588444978865496134e-03
2.878889266352932692e-03
3.100599754026505186e-03
1.475834473075518082e-03
-2.788088824953112096e-03
-1.783806500059972574e-03
2.940037271004528659e-03
6.179690703281926455e-03
3.809588719549658175e-03
-8.055838994270855596e-04
-3.826661192263593365e-03
-5.515125144884529783e-03
-7.790815475520213897e-03
-9.045502983118571330e-03
-5.520709305304944900e-03
2.924642849555268232e-04
6.204796465040210603e-03
7.724041822324451655e-03
5.063565648339959750e-03
3.134030320409501771e-03
4.977164869264795628e-03
5.814017483656439868e-03
2.814137559415826138e-03
7.490182684441361186e-04
3.610888991671219132e-03
1.045849508650807842e-03
-4.165961375956747648e-03
-8.609010621256666176e-03
-1.432490072789842882e-02
-1.385202724832388169e-02
-8.382299766810194508e-03
-1.204544412830396271e-03
4.726903643432203532e-03
1.059317458574894448e-02
1.254039936732112386e-02
9.142268767448454014e-03
4.745708135855570241e-03
1.071570421845015070e-03
-6.514097092265488378e-04
-1.820793152930403388e-03
-2.487654165981747177e-03
-7.384110729509442373e-04
-1.688517886418812973e-03
-2.214545690673704915e-03
-2.542483351491310346e-03
-1.815778291628525245e-03
-1.142190236260561854e-03
-3.133470593470354202e-03
-4.581068397820632979e-03
-4.545616109936707026e-03
3.688855350199887100e-04
6.853913137746481428e-03
7.636548424728425120e-03
5.511590945587690853e-03
2.808452142647786722e-03
1.679217888857685798e-04
-1.016870975051090229e-03
-2.871661706671799381e-03
-5.545598589772922013e-03
-4.462093472071685871e-03
5.281102324066171009e-04
4.843223620847560661e-03
2.222809888378115065e-03
-3.522998245693335310e-03
-6.143464182930413395e-03
-4.119868378040032059e-03
2.995293533628952658e-03
9.083786821533513037e-03
8.174592047863858332e-03
4.057061687568557472e-03
-1.619415865986002876e-03
-7.969307905153067209e-03
-8.458722005418686449e-03
-3.261635841960497991e-03
2.421097140754209596e-03
3.703659441071362798e-03
3.492334887729327698e-03
2.566855909528334423e-03
-8.781241405151535328e-04
-2.476099135055072212e-04
-8.415607193968714867e-04
-4.292459633490082645e-03
-4.295093773512995670e-03
-2.021094277126427464e-03
-2.613534943197857747e-03
-2.374392936790766396e-03
4.058791541102029464e-03
1.073853731483608541e-02
1.139091947015750776e-02
4.450584500036217778e-03
-1.596144551749241209e-03
-4.380320218637646229e-03
-5.964738287591277860e-03
-6.122239615338961882e-03
-4.617299723729576325e-03
-2.878853746960851039e-03
1.191219247859663221e-03
2.843488332834633037e-03
1.161674155306620122e-03
2.265277561215777412e-03
3.132846687133759942e-03
9.071736451322986528e-04
-8.830938444022342747e-05
-1.932416865960234677e-03
-5.784578721828884280e-03
-3.800479723298142137e-03
4.180274108673906345e-04
4.026553324165596699e-03
6.155549477197260616e-03
4.550641326740860297e-03
7.589646804897406127e-04
-1.854806981010747539e-03
-3.142983125706203060e-03
-2.511061585884413229e-03
-2.425282095436313758e-03
-1.086610909563165243e-03
3.989884038097919966e-04
4.628394854919647096e-04
-1.552622436578309124e-03
-3.580113352854519477e-04
3.229216798877743069e-03
5.032539700950099115e-03
5.452994217643748580e-03
5.199841599349354186e-03
4.119074523424435435e-04
-4.062518765427105584e-03
-1.083547182148041424e-02
-1.502247383348912640e-02
-9.734802299267078865e-03
4.610656609820179032e-03
1.616688189046778731e-02
1.263676532179049128e-02
-1.490916201778685456e-03
-6.777945553017631318e-03
-2.562294204885808956e-03
3.263254556334015469e-03
4.779096778548208579e-03
3.227438826967874395e-03
-4.628171261768578319e-04
-3.079601867077373396e-03
-3.549940065397585477e-03
-5.378895049804663722e-03
-5.203973543491849374e-03
3.385312305913698800e-04
2.099954264536906066e-03
-2.210365503718001931e-04
-3.705292023399403513e-04
3.165872922618463963e-03
4.413921050039732244e-03
4.252767100780437994e-03
4.922399254527873649e-03
2.549487571072238997e-03
-1.556514807542785407e-03
-4.254250991180119103e-03
-2.242218525428071960e-03
-2.275750278887181139e-03
-8.676296896481908464e-04
-2.595380886531354400e-03
-5.757180544857519108e-03
-5.578066946112757163e-03
-2.301657363978714278e-03
4.813794701649631554e-04
2.691156305662453785e-03
4.392376089317094438e-03
7.464155329465416849e-03
4.606901522216415995e-03
1.463611367543393802e-03
2.733875218927494383e-03
3.326867061563806415e-03
3.016166305008538637e-03
4.312570486248252545e-03
1.488525194103965414e-03
-8.271733804011511745e-03
-1.463861887425081491e-02
-1.442390301257780692e-02
-9.441138262346293955e-03
-2.234746378164033636e-03
7.118082323681568062e-03
1.306310705366084922e-02
1.249234789390753914e-02
5.801450664034645509e-03
-1.287881890589012961e-03
-4.294842940352942319e-03
-3.339159246263516487e-03
-5.473295530536973928e-04
1.169677458405188200e-03
1.934024869996987112e-03
1.700516908942699325e-03
-3.492157813213837814e-04
-1.987098236186377390e-03
-2.358741347067355026e-03
-1.063445960165187044e-03
-2.117896250170852538e-03
-3.577785264470203109e-03
-1.656634892882212755e-03
2.102325873584830283e-03
2.808504762181262410e-03
1.377288794497558838e-03
2.086564387079204580e-03
3.114480834889695338e-03
4.774245171580151440e-05
-2.522308635687856536e-03
-6.128064752943365766e-04
1.979208970065763056e-03
-5.246736092683065107e-04
-3.219516299357299324e-03
-3.334985776913683506e-03
-2.525422728000325644e-03
-2.751980480271780469e-03
-2.165411446177847605e-03
2.144412476627936392e-03
9.568269825959570610e-03
1.338213923720846937e-02
9.597731231980630856e-03
-1.508917254714738695e-03
-1.356167205634406688e-02
-1.545190317021963473e-02
-7.355016371227612697e-03
1.409159456043208945e-03
4.431735938563343379e-03
1.417764952644005958e-03
2.150719426275195852e-03
7.415767255358717870e-03
8.997018525420655624e-03
3.256220815693381104e-03
-4.747644500116345555e-03
-8.886959603532529339e-03
-6.389357110306387311e-03
-1.956930145208369588e-03
1.388550170979976819e-03
7.778988072615237526e-04
-8.627277066728909760e-04
-7.663965544168299627e-04
1.534690599977651341e-03
5.731965320573908888e-03
6.618668271469405409e-03
4.160357929907977821e-03
5.973735521802590919e-04
-4.739704287382198733e-03
-7.338145600060074457e-03
-4.822019421293454421e-03
1.221761828106709535e-03
6.315786071728892240e-03
4.773890740654752191e-03
-1.293746102231265252e-03
-6.709249309385466493e-03
-7.804065341346149917e-03
-1.656645681140025451e-03
4.902822590115783752e-03
5.665059763077309740e-03
2.819512471301342284e-03
2.360668822283400236e-04
-2.795304367208134317e-03
-4.549426975124033247e-03
-4.684284360316222535e-03
-3.328961116746143208e-03
2.880471629029783022e-03
8.438878402757754582e-03
8.278857130709232209e-03
5.401217951078248099e-03
1.265695853696332650e-03
-1.761201332027536540e-03
-3.601941413887161086e-03
2.556835984633497707e-04
2.594046471089500767e-03
-1.029804524871777167e-03
-1.136218904492259686e-02
-1.629432906602798839e-02
-6.274605563099030017e-03
5.086720569622486636e-03
5.727233227942398440e-03
3.582912381165553710e-03
2.159981100769480054e-03
1.283851565138909110e-03
7.486883403884817901e-04
1.375453713940820964e-03
2.563677925307465948e-03
4.272109711242148139e-03
6.867390956373126652e-03
9.909086600321964991e-03
8.650262056271382227e-03
-1.981353713781587155e-03
-1.012449007966395934e-02
-1.397520210593643925e-02
-1.154772078721445945e-02
-6.460482611999623752e-03
1.379221011199467054e-03
5.248901083860313919e-03
5.493731225180554720e-03
9.750525487667020168e-04
-4.835592324605588604e-03
-8.750810930101115409e-03
-7.269951683020601206e-03
-7.126492405769999311e-04
9.514335732649656721e-03
1.648032893443115640e-02
1.641992435266265843e-02
1.178139565949938225e-02
2.836843969004686303e-03
-8.037318626200901789e-03
-1.329651812116036322e-02
-1.196342315085723550e-02
-7.631181495558637430e-03
-3.875492671991085086e-03
-2.569934075811014431e-03
-3.426403657457045577e-03
-1.098125230991421879e-03
4.134050998671752290e-03
9.254049475577398945e-03
1.216580953732905590e-02
1.061963439752020531e-02
4.650410337682208371e-03
-5.101407495383790923e-03
-1.250544887403337406e-02
-1.402621126235077849e-02
-6.585083078058354307e-03
8.429545136606335929e-04
4.164403227784590350e-03
5.231459929478625946e-03
4.513170881163736103e-03
2.311936736096933086e-03
1.965055963934534463e-03
2.519713376456976951e-03
2.549138471496217775e-03
2.750242275338290326e-03
1.829228814198240747e-03
-1.813199133061870263e-03
-7.480669927559628618e-03
-7.444284611472386411e-03
-4.179936311912241242e-03
-5.998421083936404793e-04
3.152058824349676745e-03
8.478333179011462561e-04
-4.264582766076338051e-03
-2.671105308821224242e-03
3.702343021332135144e-03
9.571173235088336478e-03
7.813112588546285153e-03
3.350442207010132910e-03
-3.483301183392221393e-03
-7.176971103729172692e-03
-3.906155966076390457e-03
5.349622804815954607e-04
1.722573013595771890e-03
7.252810449042095117e-04
-3.193683987278746065e-04
-4.927470423685328125e-04
-1.925868086531401686e-03
-3.543630376665962180e-03
-2.133988359055139644e-03
6.313095066318954356e-04
4.298129898607308715e-03
4.592438406534155200e-03
1.505818141729595421e-03
-7.052833650613357782e-04
-1.606381934784479248e-03
9.095759911633045664e-04
3.147605204242551625e-03
1.411777816114039540e-03
-2.346014304255779424e-03
-5.405975097892370788e-03
-3.820299724156149199e-03
-1.872270216538124334e-03
-3.268881997242981943e-04
8.214044696132056069e-04
4.635469426402497213e-03
3.500038731768299188e-03
1.244505344958468825e-03
3.235471622777304082e-04
-1.541175440920310342e-03
-3.274674420261106285e-03
-3.195686162993914038e-03
-1.611014839204905243e-03
1.015193388170926130e-03
4.671592456975196851e-03
4.917017439890266663e-03
3.715170079428557325e-03
2.812751443286772577e-04
-2.811529712105210847e-03
-3.443432662758917368e-03
-3.911779153951401751e-03
-1.010045944240262148e-03
2.987502200646219210e-03
-1.352395556291035965e-03
-7.429851699589692070e-03
-4.363711867589502996e-03
3.931140204233097082e-03
6.063366869992610660e-03
3.759720051099225361e-03
2.095160511289662075e-03
2.623355725420895620e-03
1.544131082938271504e-03
-1.598962594933219655e-03
-4.832855641206479889e-03
-4.668373008957340912e-03
5.452343032450510498e-04
4.671675332539425816e-03
3.097553879134452588e-03
-1.925199002841887367e-03
-5.855282263796244245e-03
-2.928698830147004068e-03
2.703407084317632856e-03
4.299645523563100369e-03
2.599593028591663628e-03
1.399130762206427046e-03
-1.604293856136610515e-03
-2.909150187017835783e-03
-2.059344845527423529e-03
-2.101779602140532981e-03
-7.366422785842311220e-04
1.289215004153424588e-03
1.706577272061676710e-03
1.757415561646581692e-03
8.955138943847115989e-05
2.319346289912344690e-04
9.805269159528073181e-04
9.753605144134469378e-04
-1.299568349184804846e-03
-2.480626340992950988e-03
3.022646233824327015e-05
1.809975573420513455e-03
1.943803426021629890e-03
4.318062210625004099e-04
-1.810288512869368243e-03
-3.408239447826062665e-03
-1.308155806852351723e-03
6.831365681862278712e-05
1.793655734093939401e-03
2.651947041285199202e-03
1.732228863287527338e-03
-1.986696210969136510e-04
-8.599116273819748090e-05
2.413239858378469506e-04
-7.413129851025321466e-04
-2.423195536470057563e-03
-4.500246319786891692e-03
-5.450249566159523669e-03
-2.687190753992338942e-03
3.774442777259053809e-03
1.024943749271369463e-02
8.770258497935608938e-03
4.635088432276029957e-03
5.412940971744759295e-04
-1.731388934552427570e-03
-4.213866357621100407e-03
-9.384241374105605632e-03
-9.023260637639559170e-03
-1.910786504936191638e-03
3.734005682112101054e-03
3.679034924174035340e-03
1.948389250757612831e-03
2.577851307540660834e-03
1.217169557024513904e-03
-3.126265633590690363e-03
-5.498972191947127004e-03
-3.093928163603987258e-03
1.234781403104841073e-03
3.697623676473673227e-03
4.754133345036364727e-03
7.585336558661079018e-03
4.514134954075949696e-03
-1.018581132590382424e-03
-1.009087280259123942e-03
3.327713283058532498e-04
-2.843112145869663423e-04
1.948358288725931045e-03
-1.718943155591511800e-03
-7.952329821307949770e-03
-9.874799776492424255e-03
-8.814813831085071757e-03
-7.290891913182180779e-03
-2.916073346031415690e-03
2.435236314917710743e-03
7.648973255099518649e-03
1.235762389634623322e-02
1.418196327396412104e-02
1.284332454123334605e-02
6.804420184803777576e-03
-3.522920981907159878e-03
-8.903097005760009230e-03
-1.094929661794504482e-02
-7.920675359748110059e-03
-4.477050710140256275e-03
-3.736168796014440342e-03
-2.996642443171991608e-03
-1.213793633888451181e-03
6.929935794219756065e-04
5.786782150158958048e-03
1.027382319317986584e-02
5.939529623105023123e-03
-4.772287706625624173e-04
-3.918969297414806770e-03
-2.994390776718540165e-03
-7.412384233515743577e-04
4.098830965655900433e-04
1.077991415351949598e-03
6.603674301123091872e-04
-2.666471485330036261e-03
-2.790779452238388841e-03
-7.714409052863416315e-04
1.265438290116222952e-03
5.837782882059557032e-04
1.618747740276623229e-03
1.480146304464319534e-03
-8.928760583771503572e-04
3.033871433647452199e-04
2.631216548799900513e-03
1.057824146898361925e-03
-1.515184118613994426e-03
-1.880180340546918315e-03
-1.100248355383203836e-03
-6.939775372527775578e-04
-1.262286142878122578e-03
-1.268582987514873563e-03
-1.618027936946516213e-03
-1.692521348269106262e-03
1.888354430625260568e-04
2.341929033536645655e-03
5.818793931661454637e-03
4.793149094515958449e-03
-3.170946630069634278e-04
-2.390526119189070528e-03
-8.743225230570845921e-04
3.562162035353838791e-04
6.320318120245804099e-04
3.593523662702872773e-04
8.723024045943031943e-04
6.229583998827479619e-04
3.732483386995928557e-04
-2.448177178605478663e-03
-7.336412812399319312e-03
-7.354798352356865972e-03
-3.634842702943584091e-03
-5.001877135919419659e-04
-1.203229938093712190e-03
1.524816716923597763e-03
6.084565010780551911e-03
1.054393405185651868e-02
9.274431434018372972e-03
4.850009800441031776e-03
-1.913034531286524195e-04
-3.189176184161778439e-03
-1.504416889895220186e-03
2.151892688863673870e-03
4.937217672459308761e-04
-3.526903447302659391e-03
-9.832169741005885102e-03
-1.205582302489203138e-02
-9.899336598606494134e-03
-2.876854526674239246e-03
3.881079366152001466e-03
7.553340929616839637e-03
1.143244491409164086e-02
9.502853037901706421e-03
4.895628766492235960e-03
5.750008346548084745e-04
-2.062547675046655154e-04
-1.535834501547897208e-03
-6.142205017607542568e-03
-9.135652749714740992e-03
-1.006035017584994314e-02
-5.263885234917998514e-03
4.015056256916493642e-03
9.661296123347923662e-03
9.956295436227462561e-03
6.983107117216364769e-03
2.049672906065782511e-03
-1.256040125105252047e-03
-2.248432925784604221e-03
-3.906664899739807845e-04
-3.527035083952447404e-03
-9.260662341675846704e-03
-8.000486357590383749e-03
-8.118237234209377739e-04
3.176975083829306195e-03
2.335179450142283852e-03
8.295052464078083495e-05
2.064214454644227203e-06
2.319646349916102464e-03
4.054494161757315508e-03
4.505082642491311552e-03
2.652003898866633468e-03
1.428712461469333617e-03
-6.707124195881418579e-04
-3.486493676495205137e-03
-5.038137554626662996e-03
-3.352862855206254628e-03
-3.177240604628945447e-03
-1.479862238128619879e-03
3.699283858347257679e-03
5.467091997244955329e-03
4.709726521105843389e-03
4.142557473065508478e-03
7.213649289504605547e-05
-3.563189255784550685e-03
-4.193047851929905187e-03
-3.969332154516687534e-03
-3.966169397963486241e-03
-3.416742414562339274e-03
-6.302041331023767621e-04
3.038215638120921481e-03
5.472291126379509943e-03
4.248632262266224813e-03
9.057498512785681086e-04
-5.841414274761726677e-04
-1.445518110274466011e-03
2.930642286487072251e-04
1.713168886787830390e-03
5.018288951184656302e-04
-1.536160407543945595e-03
-3.205368601857756447e-03
-5.596511469199871207e-04
5.013626716031472155e-03
6.643536847774910402e-03
-1.766313156176323867e-03
-9.667398116629760327e-03
-9.855195460804547919e-03
-3.811308825341160663e-03
1.802555980384848346e-03
3.531639880300644057e-03
3.257986820492027227e-03
3.463797900999329195e-03
4.632058783357480107e-03
5.395693751871561555e-03
4.367713330254347805e-03
1.363730634923782884e-03
-3.049187667808929544e-04
-2.675129186814373481e-03
-6.563720992416310039e-03
-6.830427548723540590e-03
-4.121659521440865920e-03
-7.471783896609698666e-04
3.288264456033095345e-03
2.349180880795453258e-03
-1.711078352301244375e-03
-2.758895624988643228e-03
-1.066474135347334016e-03
9.554706255757509622e-04
1.804623187114948093e-03
3.629719661809042899e-03
8.718663721541872885e-03
1.171632214158290115e-02
5.119913587657307606e-03
-7.136174835704239654e-03
-1.425207083889376211e-02
-1.320480071924807521e-02
-5.691886784723617851e-03
2.481135570426772855e-03
6.893196749950481796e-03
4.809879176946662595e-03
8.248696267251326127e-04
-3.215412651425392319e-03
-1.959756812079059812e-03
4.594753682923419236e-03
8.202032105974931681e-03
6.863099768308819452e-03
1.929213177105944862e-03
-9.783580331040025307e-04
-3.864531015039712573e-03
-7.199056776673841244e-03
-6.401696841493056782e-03
-5.419154531140220159e-03
-4.364777019938830341e-03
-8.941775546633809945e-04
2.007695941747100754e-03
1.817798814968174135e-03
3.180805509950103502e-03
2.795102741531422033e-03
5.733274519378999887e-03
8.958525453812449593e-03
6.816740594445873554e-03
9.567972248087369550e-04
-4.394673188890267992e-03
-7.156513196154869021e-03
-9.368960939961489681e-03
-6.505424755814445854e-03
7.835790465706970196e-04
4.384634770108976690e-03
3.675786722222054194e-03
3.374414067956305573e-04
-1.497472218449763179e-03
-2.113280017151514516e-03
-1.790474077379396742e-03
-1.267894737253198473e-03
-3.740862232020167473e-04
1.052660033314608201e-03
3.313005129964052050e-03
4.860243969281649069e-03
5.351171121166238553e-03
3.663756555228719555e-03
2.478450941746018071e-03
-1.329077433825345128e-03
-4.626263443349495387e-03
-5.340118279311319334e-03
-3.670756294353945143e-03
-2.543533929541069282e-03
-2.112510202806772847e-03
-2.353639199715501767e-03
-1.082861770558725401e-03
8.519761655757289659e-04
2.769918513480905484e-03
4.150460509574824090e-03
2.643364380340036852e-03
1.539523081424296232e-03
-1.220210896659296509e-03
-7.855048877609732607e-05
3.182492017049676648e-03
5.109988181053049926e-05
-2.741472073631982462e-03
-2.293334620259562633e-03
-1.514016895421847536e-03
6.430231001566703375e-04
4.146975617286459588e-03
1.635630823171580275e-03
-1.746040859959926538e-03
-2.076577217778572543e-03
-3.179913548128130265e-04
-6.354643932171983580e-04
-2.003678022306229836e-03
-2.325980314213322523e-03
-1.028306617989382639e-03
4.826141079091156956e-04
2.785844703539995786e-03
4.173205574269279843e-03
4.921719965572397826e-03
3.479806600836434210e-03
5.890693516152173100e-04
-3.764722857872685076e-03
-5.313213175293039423e-03
-4.505585079932995438e-03
-4.981345140328435374e-03
-3.347348392035028996e-03
2.274955997790023294e-03
3.395456404633200032e-03
1.902323246774706173e-03
1.054062738072683407e-03
2.728189889851971844e-03
2.992564623989433983e-03
1.106002079775022118e-03
2.417103904738222581e-03
3.106844652296194588e-03
1.025154917985158501e-03
-3.389708985574318729e-03
-8.022518786298643567e-03
-6.330775370500969605e-03
-3.821671995834688158e-03
-4.582436442044279714e-05
5.603672004750239778e-03
5.802215137650622127e-03
1.770900283693201040e-03
7.018515447583409481e-05
6.968268156153347099e-04
2.424200362319756715e-03
1.734789129053816280e-03
-2.448379706630154223e-03
-5.861130114637447090e-03
-4.847869437570016989e-03
-2.159411016215281257e-03
1.591538086115664927e-03
3.351470039774246453e-03
2.964890924607087915e-03
5.786007844785834081e-04
1.065546771775500827e-03
4.106275341460293576e-03
1.290415225888972509e-03
-1.451330742910573578e-03
-3.833962994999379550e-03
-4.044061646859335897e-03
-1.026317522038066102e-03
6.353708287828229795e-04
2.620738432118343338e-03
2.497489621649323036e-03
-9.383169391325561380e-04
-7.963575221834850700e-04
-5.560286964702403903e-04
-9.450964487556086065e-04
-2.230162619744313970e-03
-2.692920142244223467e-03
-6.021266187055947065e-06
3.270908449390823921e-03
2.740215781274574387e-03
1.929471959625808598e-03
1.608766368133220060e-03
-5.720146830886986989e-05
-1.710179586329478281e-03
-9.330316706709303231e-04
1.785255984504131128e-03
1.221246309821849649e-03
-8.307526437783392627e-04
-1.811898898389365225e-03
-3.126443845322763627e-03
-1.594775728038836781e-03
9.348068307389831863e-04
7.908581885460597019e-04
1.023357955184354268e-03
8.742109947637446239e-04
-1.019728143196175314e-03
-2.050568023023622514e-03
-2.186888426857708039e-04
2.508622834341340656e-03
2.026625003473572773e-03
7.892867766720648151e-04
-7.365736496393915670e-04
-2.545894160894100495e-03
9.254076913436666118e-05
2.598239906165773511e-03
1.455430571165117334e-03
-9.035030969899877093e-04
-2.353378109527371267e-03
-1.838401913523457108e-03
-2.118152680866030538e-03
1.066504694478905176e-03
3.124374682666660255e-03
1.447664087123049642e-03
-1.536162751428758180e-03
-8.054141104369102241e-04
2.702371495822708265e-04
1.069775061914886218e-03
2.196429506541013304e-03
2.580333787179903485e-03
2.837606768750776474e-03
1.763152915194701308e-03
-1.225763298519032783e-03
-7.308740423794828425e-03
-1.078533795433808500e-02
-8.537513379095995961e-03
-2.628121980699492290e-03
4.422390346121902842e-03
7.186027210498278743e-03
6.015881338298591230e-03
6.275534210835874947e-03
5.211390941109456630e-03
2.174404710680906492e-03
-4.533567781299006026e-06
2.091876391210516998e-03
3.930955640981130886e-03
-7.033793575721469836e-04
-7.644931154698732766e-03
-7.522516238339961407e-03
-6.655718993378276042e-03
-6.144642651713782405e-03
-4.919771515331721606e-03
-2.017809695613485615e-04
3.490286004274542088e-03
5.470020475253662730e-03
8.722061372186118433e-03
6.465656956692864867e-03
1.068276749264821576e-03
-2.368301632514885260e-03
-1.809388448142765834e-03
-1.187776942703961313e-03
-2.774288755506142210e-03
-2.294158387658676128e-03
-3.699898981391582442e-04
-5.368763884805435654e-04
6.771111872497837013e-04
3.834182731794628582e-03
3.842091874899742233e-03
4.851064809332530882e-04
-2.946249742190801182e-03
-4.229302230918481273e-03
-2.358071073039234595e-03
7.819030337578495140e-04
2.705736480430449582e-03
4.452170432907036693e-03
6.466669243939753356e-03
4.942255676990201310e-03
-8.534937107873410761e-04
-1.071258572054547588e-02
-1.326269771253352561e-02
-7.331569294475600608e-03
-4.851675401212719035e-03
-3.556087234244330840e-03
2.175753095366314560e-03
8.181901402745580046e-03
1.027033170055690128e-02
1.015909119833808931e-02
1.058698029588970961e-02
9.819384254892038477e-03
2.110922114499190396e-03
-5.957441593598399553e-03
-8.281695876706214945e-03
-6.695682895371497106e-03
-7.293493345468720322e-03
-6.225688880580146183e-03
-4.796216821129344922e-03
-3.506766976572087222e-03
-4.498122580807920219e-03
-1.941219723556325636e-03
7.274467432801462810e-03
1.544480520090790732e-02
1.228164559711195959e-02
1.994862163549837326e-03
-7.089288990078536530e-03
-9.703284825067772304e-03
-3.945475290499729677e-03
2.106251209715002699e-05
1.087233897819919705e-04
4.726266660035042698e-04
9.802250961525292312e-04
1.482166311810717042e-03
1.658740711664104944e-03
2.545795681167146995e-03
2.568751791621473862e-03
7.496405055684593694e-04
-6.948727661818439056e-04
-3.156517963241990904e-04
8.962555350358814748e-04
8.889105802695945529e-04
-1.918983392315101819e-03
-4.055693633225970762e-03
-5.232907559491857541e-03
-2.851212035583289891e-03
-8.510774394170477755e-04
-5.607240287507523962e-04
-2.379663814606510462e-03
9.287524005327440439e-04
5.767235012991762944e-03
7.463557909135037222e-03
5.453148679865444000e-03
5.290241626138702949e-04
-2.718057682719564761e-03
-3.070396876659948603e-03
-2.070577604190376210e-03
4.069614191345960171e-04
9.717126333793963582e-04
-7.178614682314163982e-04
-2.866382618323551432e-03
-4.704544608731658353e-04
1.255951176871420447e-03
4.634388764479811839e-04
-1.026745302823767496e-03
-1.133164332112353550e-05
1.075496311788836073e-03
-3.457548949684734457e-04
-3.339341430295503232e-03
-2.540807457930054081e-03
3.964633674867298506e-04
2.749481039114022151e-03
2.859253157943023645e-03
1.286259856122770650e-04
1.429673300650352932e-03
3.403326898035574644e-03
2.226062062785012872e-03
1.699282291336493868e-03
1.503186429948090257e-03
-3.867770589022372953e-03
-9.079792065885782665e-03
-7.875571515114939899e-03
-3.602112513892143011e-03
1.469218003071943741e-03
7.665620225223808946e-03
9.821712005695558412e-03
4.447061925911874498e-03
-4.936636866071612319e-03
-8.103072209599640821e-03
-5.212496996539425255e-03
1.122193225130852824e-03
9.497451641514552054e-03
7.970382574172922563e-03
-3.048713351042406502e-04
-4.703594893518498084e-03
-2.385158136702142731e-03
-1.187314506848076391e-03
1.283349172941170534e-03
2.855009449022756843e-03
7.617500379877960174e-04
-3.623420408442593575e-03
-6.770810623126763232e-03
-7.877216474502103660e-03
-4.138087700094958930e-03
3.907491218390023863e-03
9.166512584851996617e-03
7.293322897757824330e-03
2.634385592361865227e-03
-1.389640359765077684e-03
-2.134507349602159185e-03
-2.276280864335459859e-05
5.404347270401670122e-04
-4.407084325236242800e-03
-5.413530741814148901e-03
-5.165361318390592578e-04
4.452879333152084777e-03
5.637298240078070059e-03
3.290958187469733825e-03
2.564570321076550504e-04
-1.543682089266283815e-05
-3.281176450292821057e-04
-2.563185767602896552e-03
-4.929943414325960692e-03
-6.082364517445843811e-03
-3.439232777198904592e-03
1.017179933690543717e-03
3.638351025451740713e-03
5.820346321656012269e-03
4.539955465394250080e-03
8.964915221785215793e-04
-1.263894634284309319e-03
-2.063659704021475472e-03
-5.442247469252442342e-03
-2.982467304364498379e-03
3.505796329470630291e-03
5.036553223039073358e-03
-8.201201188210229280e-04
-1.241020702237085336e-03
7.222632526886037718e-04
1.707828098016281500e-03
1.806298731972082465e-04
-1.430020312086600865e-03
-5.437177199458412095e-04
8.422329861955878084e-04
1.799779565068296457e-03
-1.191174132339074300e-03
-5.087257421789704269e-03
-4.402028753798577047e-03
-1.278204968469303683e-03
-1.370115366952848407e-03
-1.944803207223953431e-03
2.778974281151169647e-05
9.856170947369775545e-03
1.620577310459563741e-02
1.322612767002302216e-02
2.539499560532104423e-03
-7.666836028301263033e-03
-1.499079995993891738e-02
-1.670292734099957169e-02
-1.355448060651089949e-02
-2.908511659983538649e-03
7.067262465672818385e-03
1.112707328062050721e-02
7.395946901680036656e-03
4.684169110395114237e-03
2.184024395213997934e-03
-3.823812671678352478e-03
-4.564496859490894606e-03
-1.966234174024595379e-03
2.018452572589732579e-03
3.122735986346421820e-03
1.326826466070668087e-03
1.622296304800043346e-03
1.655215558732249081e-03
1.225139001283412322e-04
-2.154875202829990323e-03
-4.667806561463704561e-03
-3.245924608891492640e-03
1.555375182043529456e-03
4.764879099272271469e-03
2.035031172145430802e-03
-7.415786176924200066e-04
-2.077805980249286966e-03
-3.516545363732922948e-03
-2.457953383765355132e-03
4.330974922112329657e-03
5.456256608253320581e-03
-2.675296840768707444e-03
-9.603835848967933950e-03
-8.826948213526980211e-03
-2.536268178676098165e-03
4.631158274365406932e-03
8.331556226778620566e-03
1.000035296630443112e-02
6.318293220195485109e-03
2.941928249855760551e-03
3.138317828039624774e-04
-2.213589479774076552e-03
-5.151233370382029587e-03
-5.661725746175137568e-03
-5.944655220188218431e-03
-3.159812809377479225e-03
8.113725245804459052e-04
-4.793313046937769861e-04
1.332250958742286617e-03
6.228716271233968906e-03
6.572852752778550987e-03
1.449749953312833364e-03
-1.655542925622102268e-03
-2.422477115786542817e-03
-6.780025768929700582e-03
-8.749864881347331480e-03
-5.402175732543683211e-03
2.225459263876758496e-03
1.003940164575980488e-02
1.134357338590133435e-02
6.449458799146529260e-03
3.862484102889626953e-04
-4.422094621730842702e-03
-5.101815551685691917e-03
-5.038833095134025164e-03
-3.345607113134278429e-03
8.703405708617558073e-04
4.999777946216510914e-03
2.780887837348834050e-03
-2.882697741414269425e-03
-5.262791292577372222e-03
-3.573583628937578634e-03
-1.600725914141498500e-03
5.350286293648549374e-04
2.253855808008442627e-03
2.970385033909896024e-03
4.226254329971226159e-03
4.804872714060178136e-03
3.782517278363429526e-03
2.208126004938312271e-03
-2.081519159688002829e-03
-4.081307862716488689e-03
-5.498243194709838411e-03
-5.896629530193184081e-03
-8.634146917428784295e-04
5.023870423971323919e-03
2.927715475954406968e-03
-3.007999023616900018e-03
-3.747353407916252568e-03
-6.242505470001766211e-04
2.130639263520523255e-03
3.336625575121749451e-03
-3.292476358020128861e-04
-1.213585209079958305e-03
-1.136714074064426941e-03
2.015814946216170137e-04
1.863780476942811844e-03
2.742665207548760330e-03
5.835193869536425305e-03
4.207469685163272612e-03
-3.131440086478569623e-03
-4.204459914222626223e-03
-9.152393070462186203e-04
-1.913377036253399331e-04
-2.453435796197954910e-04
-1.251388088818518275e-03
-3.663806883606469597e-03
-3.180958330524859441e-03
-3.716709840203558969e-03
-1.382553413004703694e-03
-5.152887654640297575e-04
1.879376993741952535e-03
4.063959242716082276e-03
2.154793591173082175e-03
1.853672437083835273e-04
1.403035901217826020e-03
3.993056009217310111e-03
4.739821522162060083e-03
3.301258630072688525e-03
1.908329486236854658e-03
1.404810947168030032e-03
-2.698330740210324978e-04
-4.561489216678987421e-03
-1.000364513612669870e-02
-7.632573940643635167e-03
-1.277160181361794346e-03
-2.337759955217212421e-04
-5.383416782809321947e-03
-4.924959117309076970e-03
4.712356681814568356e-03
1.275641598919933194e-02
1.224151824747989753e-02
3.968672771798488312e-03
-1.209925283208632043e-03
-4.975328539445079967e-03
-7.350115859658538746e-03
-4.559512595614249701e-03
-2.608359145480747439e-03
-1.878074579280039061e-04
4.919393675807218549e-03
7.144969958532644029e-03
4.735982208931872363e-03
3.269487661378733204e-03
3.451657809528324052e-03
5.642466111024891599e-05
-8.302367619142592831e-03
-1.306233865782510835e-02
-8.985321093405454485e-03
-4.382129175254701609e-03
-3.112828049792506265e-03
-1.239392746596703048e-03
2.738430380677125704e-03
8.937520310984718025e-03
1.195847010179948780e-02
1.033558821898328088e-02
4.546946485137363068e-03
2.174253543362607852e-04
1.878875226903020364e-04
1.013716757935345571e-03
-4.627812761768302112e-04
-4.963495890734910369e-03
-8.167959874983277482e-03
-8.789630645388310168e-03
-8.415473048172151735e-03
-7.534815958524839624e-03
-1.267276575365257080e-03
7.968295409416991867e-03
1.243071220298199928e-02
9.424659815658696996e-03
1.598656722213867652e-03
-4.128629673801647269e-03
-3.896112175201362719e-03
-5.640319611614633480e-04
2.999674492014355823e-03
4.377856092435164839e-03
1.452885615838824928e-03
-4.082203897828364132e-03
-8.858478779050792118e-03
-8.593273216311611215e-03
-3.278612286992049676e-03
5.258371094833085360e-03
7.859389766794531995e-03
3.900992241169015575e-03
1.597285473135937484e-03
2.740184691626587708e-03
1.632242203651902528e-03
3.483007809978920727e-04
1.950581555971584911e-04
-1.335102420791074414e-03
-3.081278878692264144e-03
-1.886777796213998017e-03
-2.054807241870952594e-03
-2.070133393045514147e-03
-4.516048490453740925e-03
-4.631159244724472601e-03
-9.934695751777204188e-04
3.712061599212240163e-03
6.960337501915374314e-03
5.922568231565950893e-03
2.344029983431758415e-03
-5.113632864759222246e-04
4.584262920258303344e-04
1.173931699666735809e-03
-2.453756383731209648e-03
-7.197904783467354989e-03
-6.787903905149261612e-03
-2.742979822917861014e-03
3.256345990944509942e-03
5.704602938254799832e-03
5.950856854408423380e-03
3.347548797826875849e-03
-1.087263341264700731e-03
-4.363148011091349046e-03
-2.887671573882960325e-03
2.959895564059394826e-03
7.612477224293211914e-03
3.677149349360147364e-03
-3.106032027693840167e-03
-5.455703049474457632e-03
-4.615848738405000859e-03
-4.860161089156802595e-03
-6.320297542964026065e-03
-8.040262787924795998e-03
-2.641085650619786826e-03
7.039865080636297304e-03
1.389176877672892302e-02
1.323692041828989675e-02
8.013686280876125209e-03
1.755716333293127086e-03
-4.000356113568003143e-03
-9.863141775444629264e-03
-1.217219795362395850e-02
-7.570415281893634780e-03
2.857206059349066832e-04
4.084398686789903962e-03
3.691406284768587124e-03
2.485704457272907078e-03
1.405527836701276354e-03
2.302422195310470637e-03
1.987984558975316920e-03
-9.012191495449561494e-04
-1.784510591017825394e-03
-2.801965598290933734e-03
-1.064792508549845850e-03
1.427026027183279141e-03
1.142354434789255970e-03
1.412066038328291945e-03
1.291182415685631409e-03
5.956199665892719783e-04
-9.619927499732194333e-05
-1.883014658603847369e-03
-4.334738149448158148e-03
-2.286813691051260006e-03
1.343161533479833927e-03
2.422094402255721857e-03
2.620243427480128950e-03
2.391859018364192197e-03
3.111227986480539012e-03
-1.777378005668661318e-03
-6.617933053621701152e-03
-4.681574943339363200e-03
6.939664689697592559e-04
4.342891041665844151e-03
1.710858249390044420e-03
-3.212693279157496570e-03
-2.321884037746224736e-03
1.649942854921873691e-03
3.826154558696888679e-03
5.425726737442774020e-03
4.302935758368165060e-03
-1.999616153122542924e-03
-5.872761266021471124e-03
-4.438960936296724655e-03
-1.990903435868289842e-03
3.867412041661085148e-04
2.682560952836369767e-03
4.659418551544715304e-04
-1.074691740363931418e-03
2.797182368082282589e-03
4.921860958478950845e-03
-6.342383580283569291e-04
-4.693284830027170951e-03
-2.650237908084787219e-03
-8.823444021173767983e-04
-8.815072874798010475e-04
-2.460954462726451346e-03
-2.232400606593448050e-03
1.812842027512668631e-03
4.044297555146117960e-03
4.464589376502289125e-03
3.824919848758961960e-03
2.099133564966661550e-03
1.139520333585301946e-05
-1.112869152268539628e-03
-1.325779006676486424e-03
-6.781799068468938015e-04
-8.925653683658027080e-04
-2.458988234386201913e-03
-3.868383787943654745e-03
-2.220800471912703130e-03
6.713155859706558060e-04
7.228031056523298191e-04
-2.476815430256836068e-03
-4.447650482164801182e-03
-2.997164716462906442e-03
2.230971872009824154e-03
8.377155133912544960e-03
9.513075540974868377e-03
5.335871212827096068e-03
5.571007507292575567e-04
-2.266707756468202498e-03
-2.576838479120203713e-03
-4.247553268712810949e-03
-3.982573553388752893e-03
-4.638557843833415869e-04
6.184621112350574762e-04
3.029646301953666703e-04
2.558029288361232103e-04
-2.111425140466837488e-03
-2.503717379496370448e-03
-2.715206758665585605e-03
-3.919365951536146926e-03
-3.927745118341420712e-03
2.346178664093447313e-03
9.758345658307103140e-03
1.071097099624108463e-02
6.746093178020983253e-03
1.220957334809362905e-03
-1.299842835770181632e-03
-3.279250996287106680e-03
-4.741135980019450628e-03
-6.468486914415851920e-03
-9.388192845908072820e-03
-6.633864988827315769e-03
1.271059255524067131e-04
4.963201714842198006e-03
5.608581922329596882e-03
5.898870356687027638e-03
3.558828913407656794e-03
1.489834461532631767e-03
1.382510265749782629e-04
-1.284216926790164061e-03
-2.357831973061746533e-03
-1.757510513284570551e-03
-9.117105550107085449e-04
2.735902184230889567e-04
1.892656334501370986e-03
1.449586177388143557e-03
-1.873015097888030374e-04
-9.184553849571095796e-04
3.009585015791432783e-04
-9.617242547520826659e-04
-2.865984905231979459e-03
-4.316835784693486174e-03
-6.932713242251052838e-04
1.958892994912132552e-03
2.945514787994284612e-03
2.952896338351342163e-03
-2.289039266648345205e-04
-2.249787616508618082e-03
-3.037270572992376103e-03
-1.459504778119799420e-03
1.467148029107859502e-03
4.559057104181320728e-03
4.327198413744871679e-03
1.079901434057044512e-03
-1.229185067953422229e-03
-2.170885653733734249e-03
-1.328126300574187504e-03
-4.286994860978433431e-04
9.308907960260118979e-04
-1.577397836610844100e-03
-1.293227453647610020e-03
2.192664788427092261e-03
3.346148255945500648e-03
7.624806750746994334e-04
-4.053017256952225027e-03
-5.616235794693463616e-03
-2.094066100902539692e-03
-1.104336904621423593e-03
2.704088684950732525e-04
1.898898617463725975e-03
3.496232286850205206e-03
3.399377824056347766e-03
3.952992711858776794e-04
2.569456118730713973e-03
4.875339267879205164e-03
-3.029874052456929100e-05
-4.237072814006205036e-03
-4.719012542698610736e-03
-2.415317491121541163e-03
-8.537977126608905848e-04
1.786093365900501620e-03
1.383122833150475994e-03
1.149817225508360276e-03
-1.948303842358053289e-03
-3.460982469467318787e-03
-1.983608154026553216e-03
2.300267332617111525e-04
3.826197576867868076e-03
4.108614871829933783e-03
2.022202559639642207e-03
-1.494506865992518193e-03
-2.306008025451487722e-03
-2.082657096547432720e-03
2.533587625504020013e-03
3.755875749752406526e-03
8.118624884172394871e-04
-2.495923574330492171e-03
-4.501992515990457626e-03
-9.457913882442895532e-04
8.391432610055129778e-04
2.983310912212166349e-03
2.738447706618253683e-03
-1.876713086282203076e-03
-5.057796389924574219e-03
-2.370915386681037365e-03
1.463937555191900924e-03
1.726199421015268531e-03
7.114259403687328738e-04
-3.583060806264737807e-04
1.892853798941995140e-04
2.491374805594464160e-03
2.555101492681750592e-03
-1.791555412682877685e-03
-2.353971031229345773e-03
-1.778815840559458622e-03
1.249535723034856348e-03
5.603599393941984842e-03
7.411613135536663545e-03
2.656262079575049187e-03
-4.580298481228071289e-03
-8.062055992688766520e-03
-5.498129104946590517e-03
-3.270172151961545353e-03
-1.630937665069314129e-03
-2.183345873153058701e-03
9.648759488789612109e-04
5.935764437320104232e-03
5.667365173423481901e-03
-3.983997246877321510e-05
-5.140865167510368962e-03
-4.829732958330210102e-03
6.402186592046691651e-04
3.968371921973956433e-03
4.079281416847544035e-03
4.443634698720375954e-03
4.230193454966700746e-03
5.329766690071938498e-03
6.717204494763272943e-03
1.867456518472732823e-03
-8.720839152024649141e-03
-1.492006991886384200e-02
-1.191773884821528164e-02
-2.956848604722162304e-03
2.497048785958850495e-03
8.077624548272728045e-04
-2.328317341134387118e-03
-8.938332982736373620e-04
6.098736366779064152e-03
8.035641201583646961e-03
5.276102366479461757e-03
4.263272027221510010e-03
3.483218971864203862e-03
3.078583140796331812e-03
1.190343987201285085e-03
-2.831438642294240721e-03
-5.520632666794142614e-03
-8.289765381043168527e-03
-8.267960772188691007e-03
-4.705055487733776631e-03
2.403485613746320169e-03
6.212101104367807186e-03
4.008337170656842662e-03
2.601745195666777194e-04
-1.781203760245393848e-03
6.641995339062834163e-05
1.724061578334961341e-03
7.825930511518157948e-04
-7.532695611475653591e-04
1.092110360925406184e-03
1.888985435270072082e-03
3.756753608444943129e-03
1.938365604916960109e-03
6.234583730134674647e-05
-2.060228341576212947e-03
-3.548628198628266030e-03
-4.889948258716309525e-03
-3.205925207612258642e-03
-3.385707764347252761e-04
1.879970986231322425e-03
4.051602944957165536e-04
-1.393224714434016919e-03
-6.008814805843207610e-04
2.490917178138636265e-03
5.907973272856862496e-03
4.922553329129149800e-03
-7.763965020446791021e-04
-3.573943731136756171e-03
-3.644910337086675316e-03
-6.053260383604651927e-03
-4.118363473153668040e-03
4.717519665458649869e-03
1.248231488519729523e-02
1.013686672809119976e-02
1.158481861362041423e-03
-7.915285326293892282e-03
-1.007589600595814802e-02
-5.316422857209721943e-03
-1.697094892422954231e-03
-1.917424665706157338e-03
-3.318744562782503533e-03
-4.831341887903383694e-04
4.231343139614812156e-03
5.871123985483579950e-03
4.051462170647744665e-03
2.797685289167186565e-03
2.148581774167926048e-03
1.511282685311983454e-03
-3.385895997554637512e-04
-2.508324901360884079e-03
-5.036544232405216169e-03
-5.379638881971043028e-03
9.820639819752082118e-04
4.221394303713579300e-03
4.582161594472370161e-03
5.058614100202894932e-03
1.175796356293199374e-03
-4.053094713522655164e-03
-6.684643659902973940e-03
-5.352431423095489575e-03
-3.860430147619666689e-03
-2.792210609709705731e-03
9.431200493265134511e-04
3.729508995920154373e-03
1.798852610458358866e-03
3.126471568981391540e-03
5.910780758899292393e-03
4.825662823152083482e-03
1.089727871680718028e-03
-5.846727737577110630e-04
-2.059421238437825121e-03
-2.305878226767630202e-03
-3.045593945377356344e-03
-2.489171920371105809e-03
-2.146677587529310189e-04
-2.159561416200244137e-04
1.306481858774017138e-03
8.403146937984468535e-04
-3.843877275934493346e-04
-2.042157490688123987e-03
-3.493675198178404582e-03
-3.331196863523534606e-03
-1.061021695791751571e-03
1.671292694048808446e-03
2.907483502986242703e-03
4.797849580849329436e-03
8.105794663615592532e-03
9.613678403438281547e-03
1.667362946807007720e-03
-7.982758591426815029e-03
-1.006110833235425613e-02
-5.814832941023951283e-03
-4.468335101049210811e-04
4.517588429391646704e-03
3.298022580569505945e-03
-2.391970133666279207e-03
-5.330539000756250555e-03
-7.439715443554245806e-03
-3.921573719391544845e-03
4.375568539842799622e-03
8.813686388380788730e-03
7.301398070913780666e-03
3.220355019320313410e-03
9.969878405514018792e-04
-1.541126105951941749e-04
-1.040145010877316107e-03
5.658085197687705596e-04
-7.508225780108402020e-04
-2.628521190112000343e-03
-6.215068094347213010e-03
-7.464654245699688280e-03
-2.169131619112643888e-03
7.636039521213032651e-03
1.352076197045287871e-02
6.154354671923632954e-03
-5.315085161880623264e-03
-1.050252868817546856e-02
-9.382685700861100042e-03
-4.509328430452828711e-03
-2.555251233870668845e-04
3.742600507026421289e-03
5.713126588874735227e-03
4.335815841322082989e-03
4.534829918443949136e-03
3.741984456226323062e-03
7.453282902990578671e-04
-6.478535855283985454e-04
-3.589319208539619168e-07
-1.308618290509642058e-03
-2.316149179698046793e-03
-2.595247770248374376e-03
-2.931796407051156638e-03
-2.422447091609300322e-03
-1.982065933303574050e-03
-3.760794281040530504e-04
2.421357680354446242e-03
2.325669307004450334e-03
9.041089136761899748e-04
-4.263580850141561419e-04
-7.080521675820685866e-04
-9.720851573542546543e-04
4.885918372381924286e-04
9.447804637911150953e-04
-3.623896821175310408e-04
-6.968483813169240202e-04
3.425606763398901262e-03
5.404552223597985580e-03
4.121208505392466928e-03
-1.703701861552265901e-03
-5.723311893792300611e-03
-5.250928359001105945e-03
-4.920569958479194738e-04
1.797768278775896834e-03
2.354239023691705440e-03
5.561320228631988364e-04
-1.606626148606093464e-03
-1.211806931417027658e-03
-2.493632341657387244e-03
-4.180866017501850759e-03
-2.552757540771844087e-03
1.632921242998537159e-04
1.889156284912180562e-03
3.588927236335973363e-03
2.854646194152269962e-03
2.904853399809440538e-03
4.647986486900445961e-03
5.462165163499959827e-03
5.715914706425859757e-04
-2.299533985842094896e-03
-1.840670726245270715e-03
-4.002424694835707069e-04
-6.207283260831144732e-04
-2.532646364904550963e-03
-6.601480742837398212e-03
-1.006350445832682530e-02
-8.147706417684686536e-03
-2.015026800733527284e-03
5.353826298175747012e-03
8.233190014375097940e-03
6.382105447329213498e-03
6.561360506188304402e-03
7.878890614177892077e-03
5.296699431973142351e-03
-2.433381760986872994e-03
-5.898685612621190621e-03
-1.345655015249565788e-03
1.729920781038024645e-04
-2.932271815666835472e-03
-7.816407765127424134e-03
-9.483931571256886545e-03
-3.991226572967014607e-03
1.787017156536284488e-03
2.514112137811240055e-03
3.694308824395875230e-03
7.629381514928987654e-03
8.073581816730035846e-03
5.184673177952953474e-03
3.997960340915960448e-03
2.984612716313678280e-03
-4.265536876255604862e-03
-1.316971602865092163e-02
-1.623485667845625535e-02
-8.700840998024777020e-03
4.287464684113509276e-03
9.660490257091520691e-03
7.170433865982843956e-03
5.875513015430496901e-03
3.382394058390802549e-03
9.482973174856249932e-04
-4.455832260052784710e-03
-5.344914513684221116e-03
-3.097848908316636150e-03
-4.795056523538642574e-04
2.175518704488866965e-03
3.913014367714852740e-03
5.450371598748964333e-03
3.381404821944417223e-03
-5.399900554489765313e-05
-2.153192322505484077e-03
-4.323605917247265451e-03
-5.669893631492644269e-03
-4.974831811855787329e-03
-2.224482815018309200e-03
2.305755370941081715e-03
2.554253483638210028e-03
8.584100858897407297e-04
-7.493171226090840136e-04
-2.837096281624861341e-03
-2.782099283077172063e-03
3.406331131442958153e-04
4.685262628567324859e-03
8.378851796781274300e-03
6.011635154292554843e-03
3.593716663259986701e-03
4.371023658027712103e-03
3.189460147028375884e-03
-5.227483849166520086e-04
-4.725132876988581525e-03
-5.362199064607063408e-03
-6.270724873770012163e-03
-1.230632327739910638e-02
-1.454075891897151605e-02
-1.056062119751554999e-02
-2.799486069612331426e-03
4.192890621196308266e-03
1.502316346861262350e-02
1.947878930194398006e-02
1.356838117047892874e-02
5.460845412399182273e-03
-2.365665188713833708e-04
-3.392640591489787857e-03
-4.073002181632832085e-03
-3.597510297636551200e-03
-4.069596582427303412e-03
-3.327466475040492897e-03
-2.255789195173535985e-03
-8.077634857520226688e-04
7.822883226774373028e-04
-1.352811016114118491e-03
-6.013444860078984329e-03
-6.781552432784143311e-03
-2.247892872528479621e-03
2.303066103170528425e-03
4.040202370383058975e-03
6.086336561871778621e-03
8.049410785185111272e-03
7.846875877986833961e-03
3.990334355809164145e-03
-3.500379095778825052e-03
-8.976419290905911577e-03
-9.092114764048718489e-03
-2.649572097777156809e-03
1.621713220100739605e-03
2.156257125965815435e-03
2.874989938436147471e-03
1.894377889169461190e-03
1.445517770594524068e-03
1.619548114618794225e-03
1.132915735803506846e-03
-2.364326516728250827e-03
-1.451042073594834047e-03
1.385222178833600028e-03
3.365367039770936729e-03
2.795861551699313583e-03
-4.702184389066872564e-04
-6.861900596807073149e-03
-1.266436022898015379e-02
-6.815644353330515930e-03
5.744016745693668498e-03
1.291682215851481727e-02
9.783770997194150831e-03
-3.691492355359693705e-03
-1.366703726692229670e-02
-1.058711705696866422e-02
-1.745612222848672143e-04
1.166986552127061670e-02
1.260686392102418861e-02
6.744346122372427317e-03
2.430996668833928284e-03
-9.927224203494023399e-05
-1.243248462415159298e-03
-2.934420139797985338e-03
-4.054847065666672933e-03
-3.171678879616519637e-03
-3.869383533508330506e-03
-7.725120739798981874e-03
-9.729001660877575897e-03
-5.152217608733163437e-03
4.496810200959893214e-03
9.023086945016623589e-03
6.625596728108287294e-03
4.803781665408140070e-03
1.734444609691511169e-03
-7.554037255821194365e-08
-7.377905027275056702e-04
1.147147109745808849e-03
2.534782219480220637e-03
4.416089748862123132e-03
4.729942484689290440e-03
2.645525294898065302e-03
-8.168615211378366580e-04
-7.048486817835454381e-03
-1.267291356953509363e-02
-1.671366715729241323e-02
-1.266068222360475053e-02
-3.125360115708699770e-03
6.556301468784864715e-03
1.471689221766419621e-02
1.281217460271476781e-02
5.699669048910743600e-03
3.349792097569267860e-04
2.712576509410745971e-04
5.046779382579838838e-03
8.509535616536643282e-03
5.233543285001396837e-03
-2.603448539061551867e-03
-9.326279042197764199e-03
-1.169918856585064511e-02
-7.997542743644817445e-03
-6.085327110578628469e-03
-2.810324056890696042e-03
4.328470670792065400e-04
2.582361227760422099e-03
3.208057788274766477e-03
4.334338635031639332e-03
3.565019043954454226e-03
7.891182571221167863e-04
2.141561693452810090e-03
2.298456848896529830e-03
1.869910516978032667e-03
1.449257844141067612e-03
6.998754906372899954e-04
4.955679762217168882e-04
6.371800020671964521e-04
-7.517271949712147315e-04
-4.625028403985554856e-03
-1.085657877061873416e-02
-8.013690029585343252e-03
7.038297726108044350e-04
7.990868419334292913e-03
7.927037745494891138e-03
2.991713463787595145e-03
-2.348610617444753853e-03
-4.847969518138431182e-03
1.106232832238301049e-04
5.696167819443687629e-03
4.157368346607728457e-03
-2.191180807959108075e-03
-4.477993429904418045e-03
-1.006632279743043326e-03
1.829833436521777386e-03
3.834047707902719449e-04
-3.501885151509085813e-03
-5.084161136862244863e-03
-1.149571834064357350e-03
3.272470557312226729e-03
4.368063925376289638e-03
3.504558026854038156e-03
3.109753659232545545e-03
-1.945246606794439432e-04
-3.079172246901231477e-03
-2.372402914406711825e-03
-2.229106566312088599e-03
-1.463769633098822029e-03
2.179077915427263690e-03
3.328996303803224196e-03
1.503161388940721464e-03
-1.181378475084474654e-03
-2.600862877822779969e-03
-2.760583302903732092e-03
-2.116512205580715292e-03
-5.022643534782170616e-05
1.314897157742129456e-03
1.231554880127049521e-03
2.462573180027151625e-03
2.123652236141965969e-03
3.793837356424277886e-04
-1.083462471452769499e-03
-2.768087829321627560e-04
-9.887545644437695561e-05
3.640824675373167518e-04
3.455514325822443703e-04
-1.226988597767554460e-03
-1.611364279360507712e-03
-2.642494657440082849e-03
-1.119190234180336306e-03
1.582574210117509983e-03
2.103135422534086179e-03
4.391555481258564361e-04
-5.669406269191267899e-05
1.678698990082928572e-03
4.877501120525256674e-03
3.280397758183717198e-03
-5.179234792281331911e-04
-4.068866569613416306e-03
-3.541589656648537997e-03
-3.334369028319765591e-03
-4.019896323961834154e-03
-4.330501974198749937e-03
-4.671208570042402648e-03
-4.110887993448874731e-04
7.734481181166426994e-03
1.079830320319521628e-02
6.967461889479748850e-03
1.122376828709755348e-03
-2.487958315977149577e-03
-3.143099497745132330e-03
-2.426369836596192330e-03
-7.100127422510702771e-04
1.172153624306180534e-03
-2.057924505780515381e-04
-1.091095818495357687e-03
-1.839558586968288679e-03
-2.334814139282410418e-03
-3.054778859958939743e-03
-3.240502290320342125e-03
1.086029139113926616e-03
3.081062053553975787e-03
7.920407015871415045e-04
3.581029815621202201e-04
3.189173189213769660e-03
7.641718694588546870e-03
5.965424649009293777e-03
-2.857636772870120320e-04
-1.047638700772318514e-02
-1.390216061295261769e-02
-4.285339687669726706e-03
2.676998124923897059e-03
6.084689701536448621e-03
6.098894367090049867e-03
4.702540253114394740e-03
2.799765835191694082e-03
1.742101265288964647e-03
4.314225959951429852e-04
-7.091088331926984978e-04
-3.545160647577644177e-03
-3.834158203930670798e-03
-4.191168507372647692e-03
-2.642061332264084971e-03
-2.082997062964264505e-03
-1.278691460003828200e-03
8.624633607352164911e-04
1.164635419552693821e-03
2.403490438966321505e-03
5.062187806797316565e-03
8.548738362503678287e-03
3.259553361204060255e-03
-3.175615735463746449e-03
-2.829591822956992707e-03
-1.513590202769527068e-03
-6.415232107243126584e-03
-1.190622274086720715e-02
-1.190162942282277890e-02
-9.291123615563495882e-04
1.808701472436319985e-02
2.588937327288363954e-02
1.587921779831169555e-02
9.860356623335683225e-04
-7.230456034870178482e-03
-1.398290977858388830e-02
-1.790163406168570823e-02
-1.896300364213626341e-02
-1.574143048918661553e-02
-2.056668612410754698e-03
1.516397908338582012e-02
2.350236137976617623e-02
1.556489323303291393e-02
4.840935169170611750e-03
1.892711661385351480e-03
-2.278058849383775893e-03
-6.319682981248907726e-03
-5.695642683133384822e-03
-1.679165758634446320e-03
-1.039774494734807628e-03
-2.760844399163302817e-03
-2.001343125469733173e-03
-3.520224138455490745e-03
-3.670131287823754068e-03
-2.148134678423862121e-03
1.205038723713236330e-03
9.067188374804181729e-04
1.848156826637298647e-03
5.250779611576538233e-03
7.440985019026956880e-03
5.645950872610092097e-03
1.197940269067542755e-03
-3.514916599557240100e-03
-3.670594490447042901e-03
-2.382959200092800867e-03
-1.384711244200307386e-05
2.018797022140159190e-03
3.077730307915597843e-03
-1.986049222064004756e-04
-4.890559878706784470e-03
-1.003634024195021457e-02
-1.297186887535610803e-02
-7.199511941586052635e-03
4.481581031800777395e-03
1.515374425908089413e-02
1.499141490006107753e-02
7.732051624889674062e-03
2.430883456535490404e-03
6.418279783993700730e-04
-3.122872990807167275e-03
-9.028600129373714339e-03
-1.298088521993399566e-02
-6.009728184546717956e-03
3.609203899188888776e-03
7.141614411174253621e-03
4.550816060200032521e-03
-7.968278477754923376e-05
-2.245039337994222560e-04
1.029609977809627010e-03
1.818393910013261757e-03
-1.703126424983386926e-03
-3.610114984291949800e-03
-1.787159313562773372e-03
2.413536883675465898e-04
-2.799517012550651555e-04
-7.602417525361127850e-04
1.853862145573617788e-03
3.447852195220559284e-03
1.435870558426892516e-03
-5.097800507680763085e-04
-3.935874328906714811e-04
-1.559064717479856322e-03
-1.702483368977267871e-03
-3.498976618426022627e-04
5.319571529553128062e-04
-1.329060003273675348e-03
-1.950566740735184060e-03
6.629410654049623782e-04
8.725306862497909845e-04
-1.626931065240629169e-03
1.754861847350721628e-04
4.736930642793427300e-03
5.623167383293180277e-03
3.717164690578530790e-03
-1.170307270051437146e-03
-2.819728783746922908e-03
-2.025702572901046366e-03
-1.098909144840863389e-03
-2.793833803143029853e-03
-4.965385499614794959e-03
-2.704115280914546823e-03
1.134232127066813877e-03
4.566900089211247370e-05
-7.151853003631139559e-04
1.427391196067198361e-04
2.382314115796267066e-03
3.011656349599248998e-03
3.145557320863410274e-03
3.576777882987198717e-03
2.180129474557950930e-03
-8.996182155162826951e-04
-2.788378344712165273e-03
-2.457519229741147570e-03
-1.178027147560311086e-03
8.402501016679001867e-04
3.323856919648771448e-04
-2.762275320187316131e-03
-2.856003776469804439e-03
-3.072631716970916594e-04
1.937749416807574461e-03
2.618661983843966357e-03
3.687736232366952555e-03
2.681510859469845350e-03
1.114442967277201688e-03
-9.720715709365241024e-05
-2.922764443909388419e-03
-6.570557267316847784e-03
-7.488278364033962818e-03
-5.315955841242662148e-03
-6.010454181250801621e-04
7.027128886948315681e-03
8.780260715574132735e-03
3.947430320828035182e-03
5.006860835941306107e-04
2.122301332626077772e-03
1.795539635495103665e-03
-1.409177608810592824e-03
-4.772602575848427890e-03
-3.601097445311311415e-03
-2.249764995657801232e-04
1.498790435533242128e-03
9.204140300577142797e-04
-7.730248386306604437e-04
-2.500570849072583429e-04
3.374837898092900934e-04
1.442660451711921029e-03
-2.849231626434356891e-04
-3.302032573298808050e-03
-2.698928208374533518e-03
-5.774745629593160123e-04
6.597262845555357290e-04
4.418591088993560709e-04
4.835609844251082283e-04
5.083745659812632890e-04
8.390914029478571895e-04
-4.647732941598728146e-05
2.875181566983744767e-03
4.846181746008890699e-03
1.857253168474659686e-03
-4.125021943563323811e-05
1.074645097135593563e-03
1.177253012448318484e-03
-2.229705855708310428e-03
-5.069712470984805500e-03
-5.538625863215036922e-03
-4.254160674211939636e-03
-3.644764869867509610e-03
-1.847846028311521307e-03
3.471529545310230672e-03
6.112333610798843103e-03
3.690861136203113600e-03
6.863792628702304480e-04
-1.089145954851826427e-04
8.805586033112821525e-04
2.147945265923444352e-03
1.561284095833666979e-03
-4.311219874024023761e-04
-2.934692358065867351e-03
-2.164049172563100448e-03
-1.369446428945469063e-04
1.890709395103882303e-03
2.207686597258745435e-03
9.395169976371885124e-04
-1.321983838867476016e-03
-2.601006418155398219e-03
-4.724490107909293073e-03
-4.319443996678567869e-03
-7.489824375525735252e-04
6.804362494777308748e-04
1.684991453701317884e-03
5.200665906714308818e-03
3.934870250522198507e-03
5.046421388897991004e-04
2.629657334126380081e-04
1.837817849783816284e-03
2.473710798585584004e-03
-8.980263669839024790e-04
-3.874315130818553610e-03
-3.122038192343884466e-03
-2.173472418341550281e-03
-1.811137626148647244e-03
-1.592649027035942296e-03
9.121129653086097093e-04
1.269840712156096408e-03
6.943340486423894972e-04
-3.640408475711755069e-04
3.273218258194618077e-03
4.727120674931363856e-03
3.219095777482478514e-03
1.047016375449063121e-04
-3.718444958270106064e-03
-4.298663299894641548e-03
-2.409694730745841427e-03
1.133697920498297944e-04
-3.877955815319112992e-04
-8.498178509668654398e-04
-9.490316722406609519e-04
4.063193564332098079e-04
2.022117591155712414e-03
3.162591600752350397e-03
1.564495309927744658e-03
-3.085096892519902231e-04
-4.549710278372297865e-04
-2.066433391099498171e-03
-2.388665041712009166e-03
-1.724236491730469362e-03
1.145369801857057997e-03
5.298078562704534346e-03
6.756449450434343779e-03
2.303626448858298644e-03
-4.411385237544405459e-03
-9.738194060368706925e-03
-9.413040360130490655e-03
-2.830584696239634660e-03
6.955505110013184174e-03
1.002659233922038005e-02
6.686968085758028014e-03
5.959371898199696893e-04
-5.505083801029151021e-03
-5.824677164403328951e-03
1.308215958315606282e-03
5.053403584363676086e-03
-1.307229309308011742e-03
-7.856651836138017417e-03
-6.810633766631199459e-03
2.294069526340972252e-03
1.320941612358612210e-02
1.511157111388115697e-02
-3.803844392867983390e-04
-1.753669248535019709e-02
-1.558988292046303674e-02
-2.456768241284944514e-03
5.859517144200360704e-03
6.323802159784151951e-03
3.982418408243964397e-03
2.346734897945877869e-03
7.969086434617221994e-04
1.447871167316012488e-03
4.268079041277887502e-03
5.099420517973866397e-03
3.902213735134148730e-03
3.846087047153679168e-03
-4.552480740745624803e-03
-1.626380805463110979e-02
-2.211774671134535131e-02
-1.536558888967726015e-02
-1.298365826979632886e-03
1.205150710509673637e-02
1.664477117380232588e-02
1.632525919420914698e-02
1.216248064146095362e-02
6.567633255604085445e-03
3.143266622850577566e-03
4.352422118728346704e-04
-5.460798848261170721e-03
-1.066130871375846161e-02
-1.126229431500916367e-02
-9.736108255172300219e-03
-6.531761775857374518e-03
-5.261254781843075455e-03
-3.701161189592611696e-03
-1.736763100253997487e-03
3.507260636811479742e-03
1.078482130455439038e-02
1.089827636330449601e-02
7.742369463136915785e-03
6.240616967207822559e-03
3.491127541156987830e-03
-1.771699917142636419e-03
-1.846890359197178848e-03
7.168524790280695171e-04
1.220506496630837691e-03
-3.204863627325586512e-03
-7.939769114045671511e-03
-9.868319591578847069e-03
-6.455174874365924437e-03
-2.761061679731959938e-03
-9.149544285541568378e-04
4.916401186349511490e-04
1.361700615634481738e-03
5.576636778052167231e-03
8.322094155553327530e-03
8.897149091166125026e-03
4.910114503012852870e-03
-1.620828762914747808e-03
-2.436471135481857887e-03
-2.107523805650861597e-03
-2.466619286645164826e-03
-3.214168337790943974e-03
-4.660921394388266997e-03
-5.436319159941340774e-03
-4.165746313716858600e-03
-5.391274829291418024e-04
6.365690487603868110e-03
1.121396361745619942e-02
6.073869381382132442e-03
-1.884560280185864928e-03
-3.206664243125485151e-03
-1.563094195156346494e-03
-1.673243439321592816e-04
-3.604485757373549881e-03
-5.470079951624428651e-03
-2.102206794614675401e-03
3.145464231062681734e-03
1.122752720891143953e-03
-2.062375208645778578e-03
-4.580301251001560412e-04
5.167581522954957200e-03
4.729984575971095916e-03
1.410223851377525716e-03
-2.840980247943489419e-03
-5.165731475731834797e-03
-1.491424775003206233e-03
6.300813724952876102e-03
7.023051086820760423e-03
2.005088096051329573e-03
-1.767004590586526269e-03
-1.258756204333761914e-03
-2.112840402965465193e-03
-7.506841517634594250e-03
-1.098055663800530032e-02
-8.950079134801548070e-03
5.004135440504298236e-05
9.102706273868417866e-03
8.849314817365918490e-03
2.127877272165320469e-03
-1.071666654263331211e-03
1.889616436979502274e-03
4.922165650840428473e-03
5.719151134042292466e-03
5.301008905038521839e-03
2.388287068293000167e-04
-7.419559657093997319e-03
-8.919454483199910910e-03
-5.387421753716923603e-04
7.418485455139026997e-03
5.125291274360575626e-03
-7.454805144331875556e-03
-1.705534597490781720e-02
-1.129758433356940414e-02
4.216425482731159073e-03
1.078028898906301276e-02
5.718993508010853342e-03
7.010774718559693733e-04
1.283144318282038263e-03
4.308918161460800582e-03
4.923751354898908521e-03
2.676308094078722749e-03
4.512999444773875242e-04
-1.783422415678579016e-03
-3.920217866882067144e-03
-4.485217765065813329e-03
-3.379233477825611693e-03
-1.262549413408659265e-03
-1.535014611330201648e-03
-7.209218021827010344e-04
2.529049322852051310e-03
3.928042176627600211e-03
1.944507377327532333e-03
-6.259411089018583185e-05
-5.585990027692167232e-04
-2.427917595289925349e-03
-9.202910769027171064e-04
2.005197920430989902e-03
4.087928371432560277e-03
-7.448417166078879310e-04
-7.730804277680285858e-03
-6.614743653358836836e-03
3.893944943569145004e-05
5.999156438475000512e-03
6.706341148960246260e-03
4.153481558889667719e-03
2.307903895929287828e-03
1.161312256575875845e-03
2.072805982632456353e-03
-2.451064206345590982e-03
-8.916179226815519263e-03
-1.184049571411303035e-02
-5.888712504780365016e-03
3.293594372762214274e-03
7.317471466255482011e-03
6.643891182495238398e-03
3.561278772979402894e-03
1.267529770930482958e-03
3.258844786925831679e-03
2.802195617648556378e-03
-1.247499103497784782e-04
-2.491949955080640256e-03
-3.858588177521715679e-03
-7.132381496601235098e-03
-8.496530434971463763e-03
-5.496649708529635289e-03
3.632286011235058435e-04
8.041798002027233591e-03
9.478741063370158676e-03
5.459092594495927771e-03
1.642434678254242175e-03
-2.887741165670197055e-04
-7.976438797482791150e-04
-2.018152404699369773e-04
-2.637439300760634382e-03
-3.390718735021057070e-03
-2.932662862525237373e-03
-1.118317023165467990e-03
-3.289115266171172784e-03
-2.572911511814459078e-03
1.803991476439817734e-03
4.667061983098756174e-03
4.961636484291801277e-03
2.393555876594569837e-03
3.266697388588486956e-04
-2.610174336304492328e-03
-2.604680128990967489e-03
-2.732651488616479095e-04
2.556559517740789609e-04
9.559702490736324840e-04
-1.657247867870028594e-04
-6.766782294290662417e-04
9.424171484715929571e-04
7.205954326690968206e-04
-1.037178475393147302e-03
-6.652563917961900296e-04
4.702539926707432517e-04
-1.129920888748292378e-03
-2.707012254368308061e-03
-2.875303680035916527e-03
-1.624358919853373384e-03
2.882742246392387166e-03
4.388598022757411905e-03
2.882623858234744079e-03
3.684374457950446036e-03
-8.668243919697494982e-04
-3.334096514373436574e-03
-1.321745301142056208e-03
3.291492768868066899e-03
4.051657899461355399e-03
3.101904459425593652e-04
-1.855961477515944476e-03
-6.730108584482772348e-03
-4.386155446608344145e-03
-5.944341104595051708e-04
5.727169354197773595e-04
-5.734912131199999211e-05
-2.865560421797794244e-03
-2.916896658283734799e-04
2.101832628688993752e-03
1.644717675908302385e-03
6.885340022249705110e-04
1.413280103548582734e-03
4.145145830574387298e-03
4.150527904627557101e-03
4.911967206771380989e-03
2.414879253883677520e-03
-3.510717386600578161e-04
-3.913381341712279630e-03
-3.916507840461483890e-03
-4.999894529296216618e-03
-6.601266373482514611e-03
-4.173571669488776968e-03
-2.306481205540033327e-03
9.885564322307913328e-04
6.034790207932906082e-03
7.365191062840898382e-03
2.872279137138366353e-03
-1.314004555381837001e-03
-3.647604706282648723e-03
-3.354425764788258619e-03
2.371633066726203283e-05
3.576568421840643167e-03
4.687754223189490900e-03
4.257464491356197133e-04
-3.991161506164160730e-04
3.237916750114384640e-03
3.054903456840828060e-03
8.471940752035631104e-04
-5.240212920617740196e-03
-8.958951685642452256e-03
-6.940826179595801539e-03
-4.495751472288548635e-03
-2.491547633530851250e-03
1.420450285860886362e-03
5.932238321512679595e-03
8.818408473687124050e-03
7.845062120995704644e-03
4.884928983122610417e-03
1.795306359468202152e-03
-2.480640578474576068e-03
-4.434453423579293695e-03
-6.059345924152967529e-03
-5.996135769301524053e-03
-3.955136700610274378e-03
-5.618237386502622976e-04
-1.032093591593522637e-04
2.441111008681131917e-03
6.443754519462583513e-03
7.154053388731090347e-03
3.174420614725258823e-03
-7.921288935497302090e-04
-9.586769337456569609e-04
-7.071567467066302475e-04
-1.124246363906724385e-03
-5.118085834300416595e-03
-7.803365038398724779e-03
-7.487690526199071266e-03
-4.300595912446222684e-03
2.548573784365313743e-03
7.593045202265724658e-03
9.173037462316497789e-03
9.277741246179084869e-03
4.844496767283576304e-03
-3.544226895618016095e-03
-7.080962422100677868e-03
-4.292827298621855470e-03
-1.188490398611249856e-03
1.870401301816745476e-03
6.818138919411216060e-03
6.141088542137864391e-03
-3.689814848420085083e-03
-1.183933276503765751e-02
-1.217926346057669404e-02
-4.204129022344829138e-03
6.203019185852036606e-03
9.816998413000014787e-03
4.744615666267523561e-03
-3.430357173824765977e-03
-5.163971637288266268e-03
-1.759491292615042403e-03
2.256838802428095484e-03
5.388214320044440279e-03
8.249955809175160693e-03
6.245848289572373917e-03
3.761984766100886623e-03
-6.286397460830223582e-04
-7.750070071709947404e-03
-1.094899402422139408e-02
-7.684292258151910124e-03
-1.353007441255349354e-03
2.221481429853665226e-03
7.398186491030549943e-04
-1.677143799855913787e-03
7.767827416177619428e-04
2.922867838342977937e-03
3.850813841198068906e-03
4.014959869659029922e-03
1.569024908138596467e-03
4.520465461382412948e-04
2.149509071203278485e-03
2.339264813269220384e-03
-4.064592437881914223e-04
-2.326619831346135852e-03
-3.467948645538877772e-03
-4.322185446550680203e-03
-9.383876819800415032e-04
2.110494325797222185e-03
2.257810664468987930e-03
1.111797919751934208e-05
-4.406774682513866191e-03
-8.009864611267826506e-03
-8.716668388027254757e-03
-3.220579806988780594e-04
1.040454192426969529e-02
1.271335509538825716e-02
7.736081104623630626e-03
2.072271561390981540e-03
-3.198870190385851974e-03
-6.413836873767270359e-03
-2.727325646278180773e-03
-4.341837943255937851e-04
1.314029037063096060e-03
2.530018645998201754e-06
1.813224468885528493e-03
1.030379246727901018e-03
-2.102183479064797904e-03
-3.208614089047117160e-03
-2.781384394736334791e-03
-3.281258165267982030e-03
-3.339727334234580351e-03
-9.657004656124119077e-04
1.873299599673972299e-03
6.418606778585355353e-03
8.876710135651685527e-03
5.146534872554263569e-03
-6.369987752456515847e-04
-2.358740533238346069e-03
-2.450217123486874132e-03
-5.173537552935012634e-03
-7.311600198284667028e-03
-4.728474017602383832e-03
6.521507350251217192e-07
6.284988306995253037e-03
4.376251993655066487e-03
-5.256765755089560154e-04
-7.877042109032068645e-04
3.889154849020368468e-03
5.096161305469193437e-03
8.242232066015647536e-04
-1.176552188487348539e-03
-1.551021622478072209e-03
-1.399950439878015589e-03
-4.259095858014208362e-03
-1.904504762414606714e-03
1.389029955817998058e-03
1.819661122921599310e-03
1.399390256007668545e-03
-1.341422764196519967e-04
-5.014893261671190226e-03
-9.670243825322747885e-03
-6.099530765857819579e-03
2.097706748375490881e-03
7.038695504476584833e-03
9.673011232220325023e-03
1.077447882084395930e-02
6.971220847300773141e-03
9.698165345959688108e-04
-6.375114152130369367e-03
-8.119591578769907655e-03
-6.633585567837436796e-03
-9.281900583074414101e-04
2.822744177381999574e-03
9.008958325308912040e-04
-2.002200434537004890e-03
-3.464708113866762744e-03
-1.045765187884686257e-03
2.067116103384460200e-03
-1.983380912128494995e-04
8.970950404095617533e-04
6.709016980050169646e-04
-3.700219494975387534e-04
2.619965171522714359e-04
1.233405752096487437e-03
4.710913911881445953e-03
2.627014301492451662e-03
1.782769328457354434e-04
-8.056774994486354214e-04
-9.445388039066867454e-04
-2.236446240072150100e-03
-2.714538236687354458e-03
-2.242766857759980002e-03
-8.356124088674726563e-04
-1.830305606084452327e-04
4.694827878452923842e-04
9.633365610608604981e-04
2.514649542119265588e-03
2.220000466657896104e-03
-1.756469739916127152e-03
-3.011946244072208779e-03
-9.431266213063095377e-04
2.458440008711404532e-03
5.048522476477516029e-03
5.904807209800828384e-03
2.429653812966737700e-03
-3.849144031909253975e-03
-6.970704225487174381e-03
-7.372983440210275838e-03
-6.246673895885452958e-03
-2.790300523361779594e-03
2.276450808294220359e-03
4.418435634921586731e-03
4.128897847167248975e-03
3.719210185152742234e-03
4.720348211159671424e-03
4.218407192260126629e-03
2.484181689429554914e-03
7.673099488387645929e-05
-2.151738239616903837e-03
-3.507334269277845654e-03
-3.447682140641600886e-03
-4.169566350799312759e-03
-2.516665801083445633e-03
-8.099643372633879386e-04
-1.353247238362840013e-03
-4.827304319159250170e-04
1.054849900871920746e-03
2.829300770716321797e-03
3.807830174916665249e-03
2.961918479334850474e-03
4.851498738596681523e-04
-9.880841640407121880e-04
-1.266506926387378409e-03
-1.229063230551489866e-03
-9.938195698398263195e-04
8.227052487015022817e-05
1.572560556576826267e-03
2.133472138762077322e-03
8.778393087603932792e-04
-3.364074462304511830e-04
-3.315407011895308339e-03
-6.206209955909274337e-03
-6.245277454394302166e-03
-4.033859285908272634e-03
1.646234122029974125e-03
7.877677764647232281e-03
8.062072320675638809e-03
7.940197875473137962e-03
6.825065092079619922e-03
3.099787767408777265e-03
9.393523793222179107e-04
2.500819225688641649e-04
-3.319127778962219655e-03
-1.058437112752197602e-02
-1.759823746564901162e-02
-2.007144295238632442e-02
-1.230682463674274627e-02
4.705724654598365635e-03
1.778382484372029518e-02
2.183244670959978706e-02
1.708394009014743350e-02
8.020267146272182929e-03
-1.056271949951865987e-03
-3.732800194067315263e-03
-4.907629165440568521e-03
-1.040567948209514780e-02
-1.247354781374057815e-02
-7.014286711985511999e-03
8.801868250379375237e-06
2.797168898928570086e-03
3.497588187651264145e-03
3.195850064379222085e-03
1.301615748472383137e-03
-3.153972021552439633e-05
5.798773921865389052e-04
5.415114787501010317e-04
2.587003843526049836e-03
4.859423295751998280e-03
4.727417449294404016e-03
7.721123869099453087e-04
-2.630450172495509518e-03
-3.695866282108127131e-03
-2.462477596898301861e-03
-2.617189610071812746e-03
-2.489048870202733871e-03
-4.508008547635131667e-03
-4.371835819472441424e-03
-1.882812778892152365e-03
2.862025644642090822e-03
5.344772536062632022e-03
3.944223829252110729e-03
2.981579095957355170e-03
4.018299175024581983e-03
2.191316855250921743e-03
9.796629012233219486e-05
-9.001765488759813768e-04
-2.505557135108351426e-03
-2.462025278884360114e-03
-4.621987085957493004e-03
-6.125922206079660939e-03
-1.825299438421017651e-03
3.969211573246120110e-03
6.185472366902872686e-03
4.482955040882597927e-03
8.115463705425475039e-04
-1.960810514837421723e-03
-4.635407099042108525e-05
3.177741281146216536e-03
2.360042021557414403e-03
-2.345796794628414970e-03
-7.567955859873084536e-03
-8.394239548710625068e-03
-4.934424748355120682e-03
-3.397144229278715099e-04
4.227727631491688502e-03
6.994710887752253990e-03
7.096740006930700624e-03
3.199574713067426020e-03
-4.005718891162052047e-04
-2.933423724993508477e-03
-1.355302424957211633e-03
2.634569493098910462e-03
2.445493025799508769e-03
7.908057237008051226e-04
-3.776923680110064901e-04
-2.153453683129797572e-03
-4.550947385079334370e-03
-5.892354078541239305e-03
-6.468721315996585862e-03
-1.522319674029228107e-03
3.643431419461791183e-03
2.203299496160309161e-03
-1.583044652005183598e-04
2.081184891731236841e-03
5.731754217882699225e-03
4.074677562736983387e-03
1.966889568624713164e-03
2.566641249441716996e-03
1.538596034061673768e-03
-7.334062983646020455e-04
-2.038112740057363825e-03
-6.174154386985817580e-04
-6.513190693225879560e-04
-2.637681761512872518e-03
-5.370443736196684262e-03
-5.326375791357733196e-03
-3.684249881403201844e-03
-4.191984792510731681e-03
-3.102300221725840489e-03
1.663081639518438921e-03
5.925411501175686241e-03
8.546243408124225630e-03
8.519013385141523467e-03
5.420081225717365142e-03
-1.967955180618730007e-03
-5.127581204039605503e-03
-3.961095816097067943e-03
-2.237238593838876194e-04
4.314659268914024064e-03
5.741532025945039232e-03
3.045940767119742747e-03
-8.044417935237038091e-04
-5.721358088842992164e-03
-1.128466915614825122e-02
-8.345602657456159534e-03
-4.660545706597929785e-03
-3.531643257530810587e-03
2.442779406412851680e-03
7.097524372613883345e-03
7.779870178552510812e-03
4.729035679008569346e-03
3.051368532134551750e-03
1.880872624365170689e-03
2.616401997701129582e-03
2.818745029476810420e-03
6.390177145659637703e-04
-1.666423450221637091e-03
-4.138161081598239026e-03
-7.428692722145012819e-03
-8.524448394606082627e-03
-7.303470024407903056e-03
-1.041037502996667186e-03
7.502107957051049568e-03
8.703845806642398694e-03
6.524375173460235551e-03
5.076086259692522314e-03
2.366525770586177298e-03
-2.529238134195643372e-03
-5.804484657831918658e-03
-5.937360241025719382e-03
-3.841368818625513250e-03
-1.491190870666113302e-03
-2.381195127520320271e-03
-4.356201181909158393e-03
-9.884336730541995464e-04
4.532736693945380209e-03
1.190911852231960055e-02
1.427080413934261362e-02
7.178794034960737057e-03
-3.590237591659038632e-03
-8.599922069004568848e-03
-8.175234972150528454e-03
-5.376941767336195985e-03
-5.691631605118823919e-03
-5.585643146790745736e-03
-1.203857859001273341e-03
1.097353968705131431e-03
-4.556229053633965398e-04
2.889180432447299197e-03
9.344063703854961836e-03
9.473991445140978948e-03
5.418255889472920091e-03
1.276183050499578222e-03
-1.468471040615455716e-03
-5.468569684165316795e-03
-3.926606302077265132e-03
-1.186709813214181092e-03
-5.206177320393748842e-04
-3.664085791769816896e-03
-3.946294413370633226e-03
-2.156808190171409078e-03
6.262434895098492821e-04
2.424224788825949002e-03
1.728363967903723004e-03
1.463379106184802816e-03
2.117223643937229168e-03
1.890228692258635271e-03
2.018642265847926534e-04
1.302262790593514694e-04
-1.049496589623667838e-03
-1.184251171229271961e-03
-1.330147940067362118e-03
-1.326961469300776391e-03
1.728392527702774309e-03
4.479971604896145453e-03
2.196606983425462411e-03
-3.292329260423281986e-03
-6.037014057124609999e-03
-1.001363140824415836e-03
2.815257143409351931e-03
1.451864508904735602e-03
-3.521270236870094241e-04
-2.962006859299535057e-04
4.126480000197906982e-04
1.637021985603883886e-03
-1.794899536025213122e-03
-1.474109908624322406e-03
1.242838339491223777e-03
2.099878760388986052e-03
1.875639999053393741e-03
2.796407130634968657e-04
-1.453965490404421487e-03
-1.940025363934464115e-03
-3.152571916066518060e-03
-3.254414102891263396e-03
-3.312921005432309905e-03
-8.938911980063329659e-04
2.153568674107539122e-03
5.034957588396624453e-03
7.245763717695502537e-03
5.977546784868442188e-03
4.360077802929185342e-03
-1.304725316902650241e-04
-2.541987218486453648e-03
-2.187392090939964569e-03
-2.636228051628906454e-03
-3.467562968744154761e-03
-7.741682185804198146e-03
-1.192730921908589231e-02
-7.429203598983637538e-03
9.432421235480754765e-04
7.174451907079187028e-03
7.541788845843733387e-03
8.844828016260184930e-03
8.102384896020465091e-03
6.279709935670910181e-03
5.234798772399520787e-03
-8.247185758772614594e-04
-8.552115016042352233e-03
-1.140602905408777921e-02
-1.001987132539819240e-02
-2.583521020012760194e-03
2.952742455940368747e-03
5.205948478548699104e-03
3.713697669380122256e-03
3.204662997614857525e-03
7.790478508371410276e-04
-1.733642848166962527e-03
-2.963929540417825203e-03
-6.299236138651973958e-04
1.443148852231146764e-03
2.172882256254161665e-03
-5.948159007264399974e-04
1.382843839249525318e-04
1.755524337589254354e-03
2.402888423149789239e-03
9.909184929469483719e-04
-3.108373186667913977e-03
-6.092244020298714230e-03
-3.540419232092885653e-03
1.803634114520829158e-03
4.610145159829455615e-03
2.150066945799018053e-03
-2.044225067528701156e-03
-1.079666115656136753e-03
3.394093836583023278e-03
3.624606236491541029e-03
-3.258506121445765760e-03
-8.378612582050954868e-03
-6.372606259838219794e-03
-2.758194639790339684e-04
8.088644414462817234e-03
1.078351981685070175e-02
5.200223798813193889e-03
-1.057988788006983174e-03
-3.601574586153869547e-03
-2.319079808478172362e-03
-2.288066650571184222e-03
-2.631538115653771822e-03
-1.701900411215801975e-03
-2.571204474370405047e-03
-2.195814335400636010e-03
1.564816171852435617e-03
4.759316397837256608e-03
6.040345273460651608e-03
2.848024611422819274e-03
-3.556557337936460620e-03
-7.482924704462539690e-03
-6.442858465156694504e-03
-2.068866016122604921e-03
4.923595904608569053e-04
3.561808629579998452e-03
6.700277781373991694e-03
5.026224878859536505e-03
2.031080699017031536e-03
1.949913579028701022e-03
1.066230003207619976e-03
-3.818854139773451275e-04
-2.010792196836707051e-03
-5.726406734252342812e-03
-5.799912025092925950e-03
-3.205908295358424285e-03
2.163210125054546625e-03
3.412122099581024488e-03
5.286901292349530969e-04
-6.845532337426089983e-04
3.759206822659004466e-03
5.501225960204191544e-03
-1.057992987185688450e-03
-5.637663343024333119e-03
-4.814165563010303767e-03
-1.718395779601670061e-03
6.427212559635762500e-05
-1.832028668520845538e-03
-3.191544524145501459e-04
2.371215859871160254e-03
2.769560497828193937e-03
4.709282602789221714e-03
6.049069587545575361e-03
1.113929659123487174e-03
-2.823390812840797116e-03
-1.865274395871313910e-03
-2.137885369529456689e-04
-1.161322987780891375e-03
3.932968074213590579e-04
2.540406520745337737e-03
2.774637624377162323e-03
-1.694397240466655966e-03
-6.766355557550975813e-03
-9.229961845610786322e-03
-6.763284442137873671e-03
-8.359438695303712244e-04
6.337011455914714000e-03
6.599606352338078033e-03
2.478747103872614831e-03
1.530627616839949027e-03
3.974659040446001761e-03
2.536407283997992295e-03
1.976564187017127144e-03
-1.050830469113148494e-03
-3.806150905810302531e-03
-3.717550315883854251e-03
-2.497570085380709619e-03
-1.409697091324174038e-03
-6.551986834416790749e-04
-2.863351045345085199e-04
3.457706828645331666e-03
4.724971866386034648e-03
4.227216100449020415e-03
2.376125425919778811e-03
-1.018672806272515313e-03
-3.847052046026220706e-03
-3.526453518006122511e-03
-4.171674782978705524e-03
-7.744767514759051848e-03
-7.343456307905951545e-03
-2.159393719619604694e-03
4.651504389703232240e-03
9.776225019246537890e-03
8.211637791690552454e-03
5.771388797521128690e-03
4.282527217294437166e-03
1.739263210349230229e-03
-8.260031912735104438e-04
1.580132053010675861e-03
2.207854957116521001e-04
-4.321252722208121684e-03
-9.307110458394624725e-03
-1.380364856132936663e-02
-1.288343014846267398e-02
-4.341385134028271676e-03
6.872953107746815164e-03
1.306995844642164749e-02
8.385455853140532170e-03
2.807220541949625395e-03
2.634411265553737117e-03
3.910361113348529566e-03
2.338679541595519492e-03
3.038976712917250281e-04
-3.041919773198173589e-03
-2.769206502728929851e-03
-6.742835909844582245e-04
-3.871277685513376107e-04
-9.534856237484729121e-04
-2.777502452081960678e-03
-3.342387454645925557e-03
-8.674750423835925510e-04
-2.561771308548036743e-04
1.858475550560801000e-03
1.243532784032895782e-03
-1.272007415326726048e-03
-1.174923829587642965e-03
-3.548631928739563127e-03
-4.616828987774184399e-03
1.617824232583100368e-04
5.099265213236606718e-03
4.952029076098624950e-03
3.764498942340274192e-03
5.404149532970504120e-03
3.030856839824918551e-03
-1.676548877587604510e-03
-3.858103004811949330e-03
-3.250280186240762318e-03
-2.960026696532690182e-03
-2.440356772477999831e-03
9.886699852758458994e-04
2.531069453237883796e-03
2.125329549186206948e-03
4.797739341472078453e-04
-3.214256389516854072e-03
-5.940502614510525213e-03
-4.061583686053222599e-03
3.628981282060050970e-03
1.102304790729033250e-02
7.901033036365950196e-03
-2.216255760629213135e-03
-7.408749280740683368e-03
-6.278417595148889051e-03
-4.745762169022339251e-03
-2.166172920551111963e-03
7.323760887329250563e-04
1.234786381428269048e-03
2.873927709387937793e-03
4.897772244494817510e-03
5.470634058534025977e-03
3.197834371235594875e-03
2.314779381457197308e-03
7.885290829684053109e-04
-1.284473148166546909e-03
-3.350192429879034813e-03
-4.847706955902193575e-03
-2.150948190602687462e-03
-6.180253790328951507e-04
-1.007755940442806031e-03
-2.988321094680705930e-03
-4.223220105714415272e-03
-3.426723203908623935e-03
-2.168522308897616454e-04
5.640707785395761460e-03
9.647683312188385166e-03
4.244933054415202592e-03
-1.509043805232598758e-03
-1.472751683370940572e-03
7.104563381233629021e-04
4.628139849464060263e-04
-1.012355073492223964e-03
-1.763555804370287809e-03
-2.597747927286976882e-03
-2.957554033565923737e-03
-9.186145887933745138e-04
2.513643394182592467e-04
-4.287080258883916662e-04
2.468319017848237280e-03
6.894322277553404342e-03
6.532826003559056086e-03
3.162026786562778091e-03
-1.885947543533855308e-03
-7.567961871592686698e-03
-1.053193295255343970e-02
-6.945482486770445350e-03
7.902417323186833537e-04
4.343121016104800787e-03
2.109861157486077766e-03
-6.380679508607688946e-04
1.066525530348375267e-03
3.334275906718057233e-03
1.042021194461160895e-03
-1.338835429287201298e-03
1.831452475258588683e-04
3.319289053374376974e-03
3.468373378760268230e-03
5.163178689388758791e-03
4.680070957036257251e-03
-4.940772812902478146e-04
-6.466159554247890608e-03
-9.795217709412908785e-03
-5.043740247754029647e-03
-1.861990175068718636e-03
1.870596863498512254e-03
5.550237902029797610e-03
4.016319083467207070e-03
-2.075628304146766735e-03
-7.020986627997261725e-03
-5.869373458810912651e-03
-7.608592122870371389e-05
5.085762727466149567e-03
7.080515567603882197e-03
7.935952160071703745e-03
5.389853512563626096e-03
-1.465353988776084849e-03
-7.146099825329879467e-03
-6.336175869170316763e-03
-9.021520087948738239e-04
1.025853060597993385e-03
1.636593918077304923e-04
7.351684335358633698e-04
4.037815977522646533e-04
2.481290440982724440e-03
1.128465333008528458e-03
-6.381585625626478306e-04
-2.541796315969830408e-03
-4.603238529917434534e-03
-2.563023643933753752e-03
3.115386591255352774e-03
4.040170218668133993e-03
2.505449866543229404e-03
1.876865975473864575e-03
-1.954444428339500647e-03
-3.635344658119771342e-03
-4.067791574490791165e-03
-1.406676644318044381e-03
4.667100973522985731e-03
5.621821097452969242e-03
7.067181251539895537e-04
-2.132225766941348282e-03
-1.368287774467075689e-04
3.349288435392184290e-03
3.155002603235536243e-03
-2.375921456729991957e-03
-8.026520163075343689e-03
-8.572645123169438455e-03
-1.988286338678062291e-03
2.617216995092089358e-03
3.305607697705403338e-03
1.032281433655405116e-03
2.235324281114699132e-03
6.776987096477975724e-03
5.804940924802672562e-03
6.726586716553954954e-04
-2.247008337449857545e-03
-3.155167595077514129e-03
-1.650758452535146725e-03
-3.286944331122288853e-03
-3.239632439573878267e-03
-3.418047395032721173e-04
6.303335610800439278e-04
1.318536448836160439e-03
2.458920915437085800e-03
1.440495596874172887e-03
-2.965137169307256217e-03
-2.517468230472266408e-03
5.027786294785624313e-04
2.600122560119052118e-03
1.961932098398204947e-03
-1.085405818885645064e-03
-5.684499635004591636e-04
1.704247664792135934e-03
5.660295901349848358e-04
-2.895909242700766932e-03
-4.240782563242350561e-03
-4.678090320880758796e-03
-5.403542041997510181e-04
6.339686835955057539e-03
9.849086783505539913e-03
6.003823521284013497e-03
2.258743596453472672e-03
4.215675286162241147e-04
-3.494510959086066793e-03
-7.668539896560800685e-03
-8.739433963755016341e-03
-7.601404037715552876e-03
-2.384754596109110638e-03
1.623048252682007028e-03
2.195269234969027868e-03
2.294898246508760963e-03
4.421111340112829531e-03
4.956402554401614403e-03
4.232000890270260808e-03
5.914640409014351556e-03
3.731434845111873764e-03
-6.411287207156444231e-05
-3.689568831402096748e-03
-5.369121579579920651e-03
-5.005045193100051207e-03
-3.866336877036925454e-03
-2.295437441588061688e-03
-2.147431047268574464e-03
-1.602218247013873203e-03
-8.125407704140883694e-04
1.143939077035337161e-03
5.497054479492469517e-03
5.692398612160603881e-03
4.782692899121427331e-03
2.455760494917133292e-03
-6.931533245426363182e-04
-2.244178707874118148e-03
6.656455023894516823e-05
-4.994263758436298445e-04
-5.793892062309549153e-03
-1.003231226709289624e-02
-3.759524418582844366e-03
5.551096646843983913e-03
7.687207362950175711e-03
3.733784847958763076e-03
1.798948917142903590e-03
2.059322928871663329e-03
2.100516389325189463e-03
-1.098541233704295253e-03
-4.145526886379925259e-03
-7.457371193971810801e-03
-7.325906560882463822e-03
-3.548957451080832562e-03
3.007740627208015192e-03
6.438642153614153145e-03
6.474421877118802238e-03
4.052272848084321512e-03
5.496340753162982451e-04
-1.912164208165883887e-03
-2.298631744226815789e-03
-1.880910677023282665e-03
-1.486086488950330272e-03
1.100767520482689391e-03
4.427334323805240217e-03
5.057702335746742765e-03
2.155700617653270954e-03
-6.766502636771666839e-05
-1.045804626768280510e-03
-7.055815363086743834e-03
-1.031062351613140464e-02
-7.268865765481924597e-03
-4.435824655716042765e-03
-2.347631757740610472e-03
2.131241562106249866e-03
9.541688357634607251e-03
1.400519144970384204e-02
1.069238009888540987e-02
3.905145126527192426e-03
-2.842739932351862325e-03
-6.365356944471934654e-03
-8.224492879850569052e-03
-5.262623820094317235e-03
1.248486741599454195e-03
4.087825111356334536e-03
1.381394397038858586e-03
-3.424825895174450239e-04
-2.935478383515831118e-03
-6.252166899662898840e-03
-2.504494884530070620e-03
3.900195222609881881e-03
4.138356684571124766e-03
2.056511509854446005e-03
-1.701723387840340176e-03
-2.375078092931315072e-03
8.249870409767829553e-04
2.880578906557335669e-03
-7.784747014719775376e-04
-4.204935587846735622e-03
1.741491886773465381e-03
8.795764554517694969e-03
9.295068923063790414e-03
-2.995969495589597798e-06
-1.150714300621914592e-02
-1.014423769268677986e-02
-5.746579726905365251e-05
5.773146427917109566e-03
3.995723011716002804e-03
-6.391407707246567942e-04
-5.197874268083424280e-03
-7.345892891888400507e-03
-5.351647297132466376e-03
-2.282076616440595470e-04
