4.366835323614028271e-03
4.352128061323787440e-03
1.033439326416616018e-02
1.208548264151527996e-02
6.837303400387528124e-03
-5.289647361023643891e-03
-1.547951013966072757e-02
-1.613042817649173663e-02
-1.122335089103452567e-02
-4.721559309689986501e-03
-5.710275443640567541e-04
5.687738616540104902e-03
1.089127796844118097e-02
1.309586175425678060e-02
8.061666494776695627e-03
2.524073549417034813e-03
-2.286645824217038280e-03
-6.218375850554062889e-03
-7.904659442179782017e-03
-5.218250678931806406e-03
-6.080724109741832617e-04
1.802252925982583426e-03
-2.753339214183529683e-04
-1.495654482365586617e-03
7.420187025860268968e-04
2.782109355554303071e-03
1.118916072540545583e-03
7.866698493307308941e-04
7.094076158494015379e-04
1.329503266966920901e-03
1.403395683374677148e-03
4.440033264539328941e-04
-2.093251984185208773e-04
-5.927033119490422068e-04
-2.838735790024861719e-04
-1.451204290977734087e-03
-3.663300342679785999e-03
-4.039847365641252575e-03
7.656422980593116873e-04
6.478705359027387214e-03
4.560214584239575923e-03
-1.162578583154160860e-03
-7.314639479166125564e-03
-3.497719038125637458e-03
2.683558776343500721e-03
2.404308507601557541e-03
-8.026215553799570827e-04
-1.119763488596948672e-03
2.686544033713909613e-03
3.907878014249478379e-03
-5.100854599325615113e-04
-9.643991601046415741e-04
-8.281331835232878151e-04
1.709929704456109121e-03
4.645625408682046119e-03
2.468045394123452498e-03
-2.697928621865429422e-03
-5.818497540523264767e-03
-5.509722385238295141e-03
-5.714965625040302304e-03
-2.278061474071418034e-03
1.794976774618195318e-03
4.723721834923722343e-03
5.337490497685583139e-03
1.238767120810723397e-03
-2.961796380310436402e-03
-2.210070125636075071e-03
4.564737890137745766e-03
1.002507856950516155e-02
7.124542563161230524e-03
-8.174697497527232603e-04
-5.603519653563868337e-03
-8.037560408561655878e-03
-7.085656389552247303e-03
-5.823121452302039251e-03
-4.719499808551156847e-03
-5.455066591477600139e-03
6.105916853659627223e-05
7.864672267702524713e-03
1.108521017847289604e-02
1.001121911024591658e-02
7.052270296264349231e-03
4.603616470654874060e-03
-5.949618180855984753e-04
-2.650493300985403127e-03
-6.191299228892175113e-03
-6.978949916359238406e-03
-8.532674239541822650e-03
-9.002324137205338153e-03
-7.881940874877658640e-03
-4.335469715690762511e-03
3.557977161891266813e-03
8.264539521415929096e-03
9.263040934851163657e-03
8.456240109659172652e-03
6.195175684993064688e-03
2.190307865823558960e-03
3.903966075019746091e-03
5.650218681862999477e-03
-7.160682129087554476e-04
-7.478551662965741281e-03
-1.149544618181711116e-02
-1.220629277444918413e-02
-7.810416476017148155e-03
-7.570143838486713536e-04
3.322071804057291026e-03
4.153077082135240260e-03
5.745938621506353240e-03
8.605477019243430031e-03
9.725332132528836590e-03
3.651729557667316665e-03
-5.616944779582521384e-03
-1.241264331775492231e-02
-9.092050441414714634e-03
-3.126006350773512851e-03
3.041868045337089207e-03
1.016322459509675334e-02
9.214014776366715245e-03
1.230589687133418122e-03
-2.689364960041787031e-03
-1.068376675640683813e-03
-2.351116806492981222e-03
-5.979980031095314015e-03
-5.901502397765765948e-03
-3.228986165378272370e-03
1.540523358705421942e-03
7.000471104243220256e-03
9.003477452715498083e-03
6.459753605081996163e-03
-3.404073882314005142e-04
-6.520337133938748295e-03
-7.192108553017624757e-03
-3.099969327132089808e-03
-1.381959991297075554e-03
-3.113125479422030077e-04
6.309486210408567523e-04
2.583892720464107170e-03
1.656835758464870502e-03
8.266683146415113254e-04
-1.053000425967823197e-03
-2.542188903970641310e-03
1.907643197098009454e-03
3.640036750305368756e-03
1.611438784253395925e-03
1.012278276962093803e-04
-2.579867961955427651e-03
-4.018036930357048349e-03
2.305392998213296601e-03
5.806699252206727092e-03
3.522073218867426483e-03
2.638449598499854670e-04
-4.803203887306989849e-03
-5.950730081933769226e-03
-6.142056079278100482e-03
-2.991550273903966720e-03
1.928784291609050069e-03
7.972315751772315190e-03
9.619108611731605821e-03
7.309487386946793112e-03
-2.473711796748173913e-03
-1.118231531651282286e-02
-1.208713546689217481e-02
-5.160376801354732944e-03
5.517319882588178452e-03
8.549928136849316643e-03
5.058778704376740848e-03
1.049195542856336000e-03
-3.274235578796305928e-03
-4.202688778143877021e-03
-3.528007118642451870e-03
6.108489058106774316e-04
4.876436004394981392e-03
3.936525396566531096e-03
2.213647381468691281e-03
3.968344346609208734e-03
2.620716266829037095e-03
-4.292304122735633547e-03
-8.551617370021474471e-03
-4.680015586911313863e-03
-1.231154475806614090e-03
2.684511752031015471e-04
-2.203514094298211334e-05
-1.633434870180800911e-03
-2.803697114640902092e-04
4.047918326304120185e-03
6.473918417582016221e-03
5.774517767573599143e-03
1.175983330632416213e-03
-1.680803578222484244e-04
-1.331874895477618524e-03
-2.643483628480748204e-03
-1.833110713530332466e-03
-1.048165906862626433e-03
-1.814992740710111600e-03
-6.258323933053202941e-03
-6.268264216962856489e-03
-1.050705485529662784e-03
1.342101869848177486e-03
2.621271960631272116e-03
4.031500531106949579e-03
6.650534095291200758e-03
6.807545733324089736e-03
4.626565223724342889e-03
2.131456561177783602e-04
-4.052746866623919628e-03
-4.731285722416727138e-03
-2.656068755550199372e-03
1.040603529328603272e-03
2.187895243459601034e-03
-1.619904440157139388e-04
-3.424858546370296037e-03
-4.839727114548307736e-03
-7.572994478184048341e-03
-6.836194290561943727e-03
-2.403992356555818485e-03
6.260817536322003420e-03
1.145359176926268735e-02
1.034199625080651358e-02
3.891303781209159898e-03
-1.155726954740432261e-03
-1.892489434459108683e-03
-1.535113809773483570e-03
-1.102964262596190350e-04
-1.774041288523482956e-03
-1.988499727249183526e-03
-2.622851382892315338e-03
-4.624848471950317348e-03
-5.424128702315607863e-03
-4.271873795870049367e-03
2.030875374481081689e-03
1.058627974976805892e-02
1.224463138068183216e-02
3.961895795102325993e-03
-5.708189571689743953e-03
-9.584101212472365475e-03
-7.501779074354071597e-03
-1.126397693890368677e-03
2.384922330567925287e-03
3.961886021503133008e-03
2.853245346124631474e-03
7.444750636770315058e-04
-2.275981393272515302e-04
1.303560261447651771e-03
1.356515125402174733e-03
8.260735510919217477e-04
-1.534208340958930807e-03
-1.633163719570255787e-03
-1.026067289898517599e-03
-5.037431135691330117e-04
-8.536197100081445227e-04
-5.694885336734303643e-04
-7.333980575763547225e-04
1.546081910386897743e-03
1.537284820627606323e-03
4.656699710213705592e-04
6.308458512840525766e-04
-2.393295411743380204e-04
6.241545283343941661e-04
-2.602398210501133142e-04
-5.705442282490770598e-04
-1.947642554708317771e-03
-2.519698426255257990e-03
-2.549760798770385646e-03
-1.996854330053048424e-03
8.543061671532407820e-04
4.965080658427324135e-03
5.777092319148102208e-03
1.313733431547274132e-03
1.140158364455824734e-04
-1.044531642836768644e-03
-1.122095536334680914e-03
9.139612598906980733e-04
-3.160597625506829074e-04
-1.036584314328297014e-03
-1.741131815433840605e-03
-2.154174859122010965e-03
-2.755203351812333078e-03
-3.529830508774391617e-04
4.698779062230941253e-04
-4.375529630868708474e-04
-1.750759356247103845e-05
1.127371213675741005e-03
2.088335433109394026e-03
2.716455580339661741e-03
3.316047115486458422e-03
8.296115202223900776e-04
-1.750996767940136934e-04
-9.311401543149253187e-04
-1.603637511782077859e-03
-2.355494876166039971e-03
-1.361670300131284780e-03
-3.047577383012162883e-03
-2.219587740554012940e-03
1.743589186232467631e-03
1.074562668075614621e-03
-5.486043706304145505e-04
-1.280077812149002254e-03
2.400912776991790624e-03
4.854565056544636083e-03
3.791902616032676466e-03
2.869205165107285588e-03
1.924152039279571286e-03
-4.547160213003627501e-03
-6.634747781515222195e-03
-1.746900633269588693e-03
6.622468881229516069e-04
1.219336675950975866e-03
-2.338300541038772998e-03
-5.246037826977413034e-03
-3.496900006150894299e-03
2.034480471373677907e-03
4.976739879966753967e-03
4.443297765764393434e-03
3.654977851832394344e-03
2.765695484321705876e-03
-2.228839779404287241e-04
-1.220602436805137084e-03
-2.405827306901580243e-03
7.482652025757849422e-04
2.845980500394883206e-03
4.754659809995677141e-04
-4.887931554063685430e-03
-8.709306027555374641e-03
-5.985991437010742232e-03
6.659552845473334795e-04
6.809296968321334846e-03
8.014884040526611478e-03
4.589878454036292431e-03
-1.021799779884665629e-04
-2.846239563756439942e-03
-3.016752520937754454e-03
9.327746178348577484e-04
2.315483230586919041e-03
-2.038984522339612731e-03
-6.749235411745387915e-03
-5.512684307233730978e-03
-7.209541908681902809e-04
2.640112070511469507e-03
3.699986045637723361e-03
4.325674038236077337e-03
8.780850916489270743e-04
-4.499094560078316547e-03
2.223169474820497257e-03
1.262794440716546486e-02
9.283011344109155100e-03
-3.584126241110788865e-03
-1.289733132346162527e-02
-9.237214627569599254e-03
1.568326312121854933e-03
4.246815642253613278e-03
-2.570875590729357601e-03
-8.182138702717363724e-03
-5.989898075447177596e-03
1.762101193662727206e-03
8.712869957940400437e-03
6.513014982446780309e-03
1.144557614772819931e-03
-1.733324253775080873e-03
-1.365866530540899926e-03
-3.786377053614805146e-04
1.021166611754132378e-03
4.131704374503177533e-03
7.488676204615885533e-03
5.803961096898127385e-03
8.079742380351519595e-04
-3.318079413068861921e-03
-6.188173101113822114e-03
-8.913620497578383581e-03
-9.518970520807046656e-03
-6.296205238821920604e-03
-3.604719245272864237e-03
-2.416818152085654231e-03
3.334928176896396427e-03
1.225024845463384970e-02
1.193967474240218395e-02
5.869390499560883483e-03
-1.905484006162267135e-03
-3.235953845142913298e-03
-2.054789381270905914e-03
1.493980166748740037e-03
1.140177753797969387e-03
-1.317246824311841006e-03
-1.955862430610005604e-03
-2.964094177976469083e-03
-2.870588347297358279e-03
-5.073226218773591164e-04
1.178765198682986317e-03
3.156577771156197964e-04
-7.823045179240469080e-05
-4.864654080188003313e-04
-3.177248467605537328e-04
8.722311424984896836e-04
6.323985367728805372e-04
-4.342439779385860775e-04
7.172751774178234537e-04
2.248286644309755670e-03
3.345810781335557512e-04
-1.526381236913155375e-03
-2.739089960235174901e-03
-4.218604001789762496e-04
-1.003064220066670308e-03
1.294547051047779127e-03
6.754899830422923974e-03
6.813592672667172223e-03
2.676372759598556143e-03
-1.238645184045177126e-03
-6.299880326047348732e-03
-1.080894764226006562e-02
-9.236020010892813728e-03
-3.359418413468730474e-03
1.545708114189673580e-03
4.483631512157500512e-03
8.730910089454226725e-03
6.417754717927610063e-03
1.715241586488757460e-03
-3.077656325305627499e-04
-1.468404766852812997e-03
8.221527688156102806e-04
2.727329512987516306e-03
1.618325253898107718e-03
-2.547912885775869152e-03
-7.834065407075124776e-03
-5.740180187500688695e-03
4.894521200398618691e-04
2.735110792794980070e-03
3.623059371463248921e-04
1.595105266193438259e-03
4.136948248928466916e-03
1.731251905072061408e-03
1.098111102891088367e-03
-1.913117393381509211e-04
-4.407241800963033855e-03
-6.032469413152735487e-03
-1.986918650051466926e-03
1.046112426102998021e-03
3.401781141733126092e-03
2.817315337542760159e-03
-8.411426922346549239e-04
-2.071959264711637112e-03
-8.790856150483524617e-04
2.872552944159125453e-03
5.642437656846999681e-03
4.030652124779888698e-03
2.105151314551903605e-03
4.199541898313345146e-04
-9.275056382062339720e-04
-5.342182656435534409e-03
-6.450864167889754780e-03
-5.035491958777321871e-03
-3.538281621608374908e-03
-2.553078203284223947e-03
-6.761507359288437260e-04
1.978939767137056441e-03
4.843040600400480046e-03
4.291029096200786076e-03
5.691021547687622785e-03
7.379504504576390490e-03
5.085937371287327716e-03
-8.932382624412437333e-04
-4.774265343599380478e-03
-3.366874338588948714e-03
-1.408132393447930793e-03
4.011569421844397940e-05
-4.644524334197987561e-03
-1.267377310174291546e-02
-1.574986944079025467e-02
-7.700434231422716852e-03
1.001990788607981693e-02
2.297881882936270853e-02
2.130410557660420215e-02
7.458569186484854431e-03
-3.915528337293964177e-03
-9.951205049779345002e-03
-1.100672813743075636e-02
-5.165470054809995215e-03
-7.409559958512062497e-04
1.124310581224992941e-03
2.073666136523235693e-04
8.699700545678059694e-04
1.585066774631164110e-04
-7.511560071073881397e-04
2.420357816346332481e-04
1.281102928607507187e-03
1.738393049337560482e-03
-6.842234521966260351e-04
2.675722142509389225e-04
2.005345833614276957e-03
1.032618557624861337e-03
8.798678151458026340e-04
1.423995736581477184e-03
-1.721410314081356450e-03
-4.540980913844349168e-03
-2.552511935289271741e-03
-5.739943847190646367e-04
-3.113224444360631130e-03
-3.537947961185720913e-03
1.728591590192887426e-03
5.878047152763432072e-03
3.155817729347320817e-03
6.059465499450488119e-04
8.258207161429511516e-04
3.033313851805125722e-03
2.152320086697411938e-03
-1.571190033040713264e-03
-2.564445515493818037e-03
6.177089587171602546e-04
2.705685862578864447e-03
5.607877019251081459e-03
2.090863749119563787e-03
-5.293224445751357719e-03
-8.016329371425960290e-03
-1.156068208213789639e-02
-1.131026797683188680e-02
-3.693735103030399824e-03
6.026186369560508280e-03
1.442396540466196406e-02
1.242380822353350740e-02
3.295414517542944680e-03
-2.998911375583553345e-03
-3.388557301319270691e-03
5.933428423925351343e-04
2.353872367038103378e-03
4.674284846144463211e-04
-1.624343756558672362e-03
-2.930812720936815975e-03
-3.990595641080028899e-03
-2.745714358996846367e-03
1.343816552779645689e-03
3.794864180567892892e-03
3.497039064304615849e-03
3.936196568295326041e-03
1.447318282974312557e-03
-4.713321884164877081e-03
-8.400696153448686948e-03
-8.637065737150288053e-03
-6.869312235404161256e-03
-1.024428745711961335e-03
4.411140255551361349e-03
7.231941024943634375e-03
6.436064911789408753e-03
7.253088733155227917e-03
5.880991545641276429e-03
4.286841907243152568e-03
2.733776839956704278e-03
2.229860031236443729e-03
1.486431974583609858e-03
-7.343037478944857040e-03
-1.545881935694074817e-02
-1.602225730760946723e-02
-1.025485600572665322e-02
-5.722581174038508236e-04
8.342487819465383564e-03
1.227684005326739811e-02
7.783669012632762028e-03
4.531045949059232282e-03
4.847693034797639737e-03
1.734525132987177042e-03
-2.368732913095068001e-03
-3.669688222826375350e-03
-4.497135815563964648e-03
-3.684037891450241565e-03
-2.514236706644878885e-03
1.168085615018169768e-05
1.228860950360084053e-03
2.898339463912298977e-03
5.106405201730963156e-03
2.910747848719653572e-03
6.872030096500414539e-04
-2.362258396970140679e-03
-2.134863127664339902e-03
-1.372949933274606729e-03
-2.337519314708069642e-03
-3.298139221357274369e-03
-2.196516852898640956e-03
-1.075217708349887483e-03
-3.947257130910364169e-03
-4.138982269330002996e-03
-3.207894701273251254e-04
4.551488600697666323e-03
8.720776122467521763e-03
9.180101167533245496e-03
5.635470824057505455e-03
8.102124568553859202e-04
-3.214247677122620498e-03
-2.550839165852249527e-03
-6.536471471827249224e-04
-9.839780786471577327e-04
-5.917608390005297354e-04
-1.092685894041461880e-03
-2.404403615070014287e-03
-5.487556291185784890e-03
-8.528209905260281803e-03
-4.343998740064017837e-03
3.743584214786106323e-03
6.786280136292260033e-03
3.324195104098754197e-03
-1.232615849316016660e-03
-2.546425287670696456e-03
2.488978544579416915e-03
8.571691841178124757e-03
6.108629881951219490e-03
-3.219779510408923981e-04
-5.091486741956268228e-03
-2.585367115674318522e-03
1.967879684339926809e-03
-1.737695295856049116e-04
-3.713184106175286461e-03
-4.415983100750439302e-03
-3.074724679337676424e-03
-1.082247012133811040e-03
1.399457646958151332e-03
2.691415664382066242e-03
2.494725768043022564e-03
9.725799653667322993e-04
-1.709807097185410581e-03
-5.042101897684763767e-04
3.075368222931350228e-03
4.156686887019431578e-03
3.359859537415326846e-03
1.763273252838610606e-03
-1.841076012607195320e-03
-8.351554478825785194e-03
-9.200152384612844680e-03
-5.425777364752577651e-03
3.615732193422374879e-03
5.599994694256541644e-03
2.390464975647415419e-03
1.336439226888466811e-03
1.994065804206180108e-03
2.227305944287993455e-03
2.784678874742897107e-03
2.112180668367509302e-03
1.696483469225460285e-03
-6.448964522577507264e-04
-4.044803734152965444e-03
-4.428723163681870870e-03
-3.665460596676350848e-03
-1.629167766547693751e-03
1.403620313936184945e-04
5.740554053516759092e-04
7.506609173812356459e-04
5.373184644886552829e-04
4.174136784184908147e-04
1.029327749326159735e-03
5.690390566054417129e-04
8.906247619379720421e-04
4.848360516201023892e-04
8.862112683066592552e-04
8.740590294785263378e-04
1.508106298408221470e-03
1.786893699392603195e-04
-1.761998934323166224e-03
-1.438947623056371136e-03
-5.552313438711050904e-04
1.019270713144201750e-03
2.961416633788621980e-03
-8.084818168548198961e-05
-3.838572118318023946e-03
-4.339211543444948700e-03
-1.721423973431713628e-03
-3.887919471771619914e-04
1.058844643880176364e-03
2.650904971675821335e-03
3.500708768522247088e-03
1.955167234893729743e-03
-1.203138142756653151e-03
-1.231489103114801528e-03
-7.190596222867071639e-04
1.857448345373259114e-03
2.369130934040046370e-03
6.494447296910792590e-04
-3.013335053005290493e-03
-2.228116530673839978e-03
1.310590547399340632e-03
3.623020155722975980e-03
1.241734055321867076e-04
-4.914777977203849471e-03
-4.775005418927175636e-03
-2.345267844946429935e-03
-9.685402180018249730e-04
5.904862583837703098e-04
1.733204026303318806e-03
3.380528083173301845e-03
5.376145449719643178e-03
5.569646987791365342e-03
4.089545349574520358e-03
3.193294310050058711e-03
-9.680708648299871577e-04
-8.578850188060213947e-03
-1.050744113810032562e-02
-4.934056928562966134e-03
-1.468299653096297262e-03
-1.923284120068118573e-03
5.973694635072044528e-04
7.962474830939232986e-03
9.836860367991539372e-03
4.276343384856104608e-03
-3.648754634270202479e-03
-3.686318085428531496e-03
-8.494820557847763574e-04
1.979054722776319320e-03
1.759317032582163138e-03
-2.568576152937255674e-03
-4.590401191388430308e-03
-4.913434608626167203e-03
-3.995432107051971604e-03
4.478311831843012668e-04
5.658357813515959601e-03
5.512050327586092043e-03
4.402489001796569719e-03
3.049854523531670553e-03
2.011768779215850848e-03
-1.365420832499723673e-03
-6.838750603043301270e-03
-5.312661474634988203e-03
2.397690965222039946e-03
5.570803410978861225e-03
-2.434485486242193549e-04
-2.998097907804182435e-03
-8.790042783931206923e-05
-1.553947007386203595e-03
-8.570677021710113377e-03
-9.940075893716185731e-03
-3.459470524600364531e-03
6.665629261933566155e-03
1.652815802856536301e-02
1.640970368681598721e-02
7.713851324967682839e-03
-4.663902246013843129e-03
-1.172337181776090392e-02
-1.408811496679951598e-02
-4.300267116728033467e-03
2.055576067130501176e-03
7.663234255839894513e-05
-9.479244194202347080e-04
1.557885398209679813e-03
7.270437125375991093e-03
7.472492068661169481e-03
2.295685876204951043e-03
-6.514415472620879678e-04
-6.241763428269613131e-04
-1.449548004228021301e-03
-6.487695340286280844e-03
-8.406124048208068675e-03
-4.742934607407009971e-03
-1.417656888721035343e-03
6.931509961636421512e-04
5.445915272762216416e-03
7.844373885201259486e-03
6.546989739374605398e-03
4.474024031056096119e-03
4.140053786980329520e-04
-3.956311057507245176e-03
-4.832329027281683648e-03
-2.686908621992542111e-03
-1.198875001712198813e-03
-2.062361357140391881e-03
-3.459376799207531435e-03
-1.127608963371907851e-03
2.178319339053890608e-03
3.856885171211457772e-03
1.610354167370795214e-03
-3.007939306315926672e-04
2.532417667094067834e-03
3.681019618276101975e-03
1.595519872728371662e-03
-2.223397216425410366e-03
-3.985461281473792229e-03
-1.270427961030863367e-03
-3.501549853436167941e-04
-2.912088472940943529e-03
-2.854574409916116155e-03
-4.782720301329679161e-04
2.700139695641020320e-03
3.030086773520857587e-03
6.754528065909876826e-04
-6.929579913343165152e-04
-2.738390990989002488e-06
-1.069729194856252176e-03
6.769791541017275514e-04
4.157782806476580453e-03
5.696198458148350394e-03
1.310649857318779005e-03
-1.074554965126020036e-03
-8.507435527560987558e-04
-1.210832484839737596e-03
-3.347301565045267963e-03
-8.586416811187894127e-03
-7.860068984405192347e-03
-4.597248542373375338e-03
-1.607720011171651694e-03
3.029181191343549660e-03
6.188878957073630505e-03
6.710629502234967229e-03
7.983172107670461273e-03
7.868554058488708494e-03
2.973062280320061274e-03
-5.870488235518026617e-05
-1.474830711383356193e-03
-3.829437373164602289e-03
-6.021297692862775074e-03
-5.266934724572814100e-03
-3.499908736268592894e-03
-1.717689891672591774e-03
3.284014462466242632e-04
3.220018436262695512e-03
3.294244058340967899e-03
1.186582419595681595e-04
-2.596301773693550710e-03
-3.257763568761063745e-03
-2.853499588483217244e-03
5.350667334382240570e-04
2.570831100173406013e-03
2.724916943694553461e-03
2.286583906941742211e-03
-6.776007283585868670e-04
-1.409502325013622329e-03
5.520619298542388123e-04
4.575401073995720783e-03
5.885947360880382749e-03
1.978760630758015244e-03
-2.040918127720171100e-04
1.720094946175431978e-05
-3.389444030953140796e-03
-8.206348386173215395e-03
-7.926373464249238457e-03
-2.927363564153125574e-04
6.600236937692489404e-03
5.904203212744246927e-03
1.323071254879901355e-03
-3.113566026760949696e-03
-9.005901969641216462e-03
-1.107763194131322453e-02
-3.439407995382016189e-03
5.296434358184890639e-03
1.169081290717436002e-02
1.136641611137986611e-02
6.173775392503360812e-03
2.205622998698201793e-03
2.474690031548103849e-03
-9.963308104920674726e-05
-1.930926585398770167e-03
-5.235485356747269538e-03
-1.069858483648392089e-02
-1.319426266307113967e-02
-9.562527364421936557e-03
3.985792560574903491e-03
1.080964141167114513e-02
4.350581905366565638e-03
4.866799343062390990e-04
3.957877416025864202e-03
7.599296401483132506e-03
5.767393325404436034e-03
1.970161470651477214e-03
1.725855439728753724e-04
-2.343417389648723642e-04
-8.701331759721469411e-03
-1.589867879867521913e-02
-1.797640411938550287e-02
-1.076792473846156263e-02
5.626825138759669782e-03
2.286613725175623557e-02
2.435810200582093701e-02
1.165190306549709377e-02
3.155446833967885537e-04
-4.781025791221796793e-03
-5.187034409866872302e-03
-7.183693144566371570e-03
-8.347632702136675853e-03
-9.751039763891541576e-03
-1.290650730867364329e-02
-8.629093156943571860e-03
2.511546318439826942e-03
9.571974583912941023e-03
1.121341311421887588e-02
8.977743344960846181e-03
8.195468611854179325e-03
6.385597971657946612e-03
4.548575440895982931e-03
2.289611445190615265e-03
-2.018790397703446472e-03
-9.240994398145322905e-03
-9.394902722211143434e-03
-9.412097601871402888e-03
-8.258571657694226478e-03
-8.375920786565379042e-03
-4.544400769634992544e-03
6.039966039975914851e-03
1.399044810000379425e-02
1.252015991190708923e-02
5.672150392996250061e-03
-8.022236368345392245e-05
-7.202559630759122538e-04
-2.318367629555443798e-03
-2.109827516505725659e-03
-4.818761319184420612e-03
-3.581127946336441856e-03
2.222955364556911334e-04
3.377481889951556345e-03
2.365149484634683497e-03
-1.907663352823747629e-03
-3.649218900524883475e-03
-4.237669277479764324e-03
-2.608987017214560184e-03
1.689526632846613009e-03
4.529684433688251945e-03
2.845866845070140882e-03
4.316479057813522218e-04
9.201695897251925939e-04
3.512584994682632286e-03
6.184928963410882448e-03
5.234423429465355840e-03
3.201693537301524050e-04
-5.378400377248044630e-03
-1.034408040600018862e-02
-1.441296743913133768e-02
-9.465693028360625330e-03
-4.871727172825411059e-04
7.549930369461498557e-03
1.089748123010394511e-02
7.022640401125447226e-03
1.771164022818748612e-03
5.112149784159411093e-04
2.331902861537899028e-03
2.332116533778864388e-03
2.304593499162747340e-03
4.027385687267768383e-03
1.031162718393712754e-03
-7.507450371895748285e-03
-1.324886325639284927e-02
-9.670942997255547319e-03
-3.967584881998979622e-03
2.330120654158255537e-03
7.858044985193020707e-03
7.141969802861635429e-03
2.951974594527536581e-03
-1.026471279968396277e-03
2.092968331663107306e-03
5.763783121784716613e-03
2.300886283981611264e-04
-3.515517671160430305e-03
-2.721079777593664317e-03
-3.330070810194389955e-03
-1.057772874359346436e-03
1.215638511530160682e-03
7.203405524382308807e-06
-1.139823577596898790e-03
-4.780149672611670383e-03
-4.615601668476257413e-03
1.531136771302203745e-03
3.777523513872995450e-03
3.980329981032070148e-03
2.914325267056803916e-03
3.931749551416508816e-03
3.806186587570621963e-03
6.682314545254885692e-04
-2.482113915509238933e-03
-4.637732559224959188e-03
-5.711521673800093631e-03
-4.242954393438350645e-03
9.273869243794802828e-04
5.015086580466007922e-03
6.296834375500340308e-03
2.907895781915412810e-03
-3.341516789288345290e-03
-5.286201371138955427e-03
-4.290232529534043077e-03
1.197641527070511525e-03
6.793414858532438941e-03
4.312518692411209525e-03
-3.889405721077458019e-03
-9.955306071464659415e-03
-8.923484376854752889e-03
-1.174633054359718997e-03
6.035548119438954341e-03
5.893296474524693969e-03
3.616661515509560134e-03
2.412229729072990457e-03
5.456149100363010852e-03
4.145392604009707181e-03
5.320182729496174311e-04
4.636233479975440056e-04
1.649829087600959698e-04
-9.336294115576900020e-04
-1.710901181048074884e-03
-1.937734571086990182e-03
-5.014914011241433656e-03
-8.659212339248692838e-03
-7.037332715300960266e-03
-7.552560343365758398e-03
-2.469700440183791781e-03
7.423804827434702346e-03
9.601039130227792540e-03
2.975611777432990348e-03
6.357042524242929047e-04
5.724872435486190285e-03
7.925367826649052164e-03
3.138430370002722684e-03
-2.395749354668127735e-03
-5.217283466982782815e-03
-5.251226467215769876e-03
-4.121999643795028027e-03
-1.941471108723504761e-03
3.766570071266768429e-03
6.781900910955759171e-03
2.875605574376618578e-03
-1.638745067383353283e-03
-8.855974710813836574e-04
-7.139087926493798038e-04
-7.554626571515596183e-03
-1.239740317791449865e-02
-4.982254060211567699e-03
4.376718638598884638e-03
1.225124145190407618e-02
9.426883131287876888e-03
8.847895354955047928e-04
-3.970334691345999388e-03
-3.980100100688685992e-03
-2.421594077792050582e-03
-2.280129690632552112e-03
1.835556727356146356e-03
4.618038512449990085e-03
3.793067433879198421e-03
1.492795662891325268e-03
-1.846711341856492779e-03
-5.804983508033179432e-03
-4.328687476085966122e-03
2.369529455432165064e-03
5.525287575344288091e-03
1.711067741089556619e-03
-1.667383689350928700e-03
-8.634360399358734879e-04
8.571140039201737221e-04
2.222291965221996884e-03
4.476624479507062431e-04
-2.047179560046131965e-03
-5.724084857986687716e-03
-5.228461654601854712e-03
-7.165643670885670554e-05
1.398825848279887114e-03
-6.100953280840219241e-04
3.686522638925525787e-04
2.865795921031404330e-03
1.895257803361472849e-03
4.818744362306207410e-03
2.808749548196625822e-03
-4.661503996257189376e-04
6.308295745154213078e-04
5.845546882530434658e-04
-1.093938120377196520e-03
-1.999070232541904930e-03
-9.457371010538996115e-04
-1.009793811091191538e-04
5.518982713744997968e-05
-2.777145769068259558e-03
-7.376121153222569421e-03
-6.252078276835247757e-03
1.685374275262288123e-03
6.393467354719498466e-03
6.070512716897425234e-03
4.710216202185730540e-03
1.569821996713817707e-03
-1.965196980967650643e-03
3.653203268021138319e-04
1.234369611791365099e-03
-7.387221680233964447e-04
-2.969238517004980406e-03
-5.313129885924975510e-03
-5.182111539408614659e-03
9.316579429421908152e-04
6.774645797594290239e-03
5.791845194663085457e-03
1.349234134632617058e-03
-3.338005624108421419e-03
-5.511628668620065750e-03
-6.075829181560055657e-03
-4.105722732709951757e-03
2.540051030740628126e-03
9.587319681087148882e-03
7.564696720399336632e-03
2.652874502473021251e-04
-4.255933084143253067e-03
-1.615009412799036422e-03
1.579809920621962288e-03
2.838215257745332724e-03
7.404870609742736582e-04
-2.158857480398464201e-03
-3.294232642480333061e-03
-3.900414513458100741e-03
-2.601919472103270386e-03
-2.584395379058243309e-03
-1.525379755212791493e-03
2.451598536510129003e-03
3.906225485160467938e-03
2.588732745552957751e-03
8.411529346402701933e-04
8.466617774819481428e-04
6.592347177093541575e-04
-6.102722380693621036e-04
-9.638462778106651795e-04
-7.040660572202204689e-04
1.992064548075286965e-03
2.377471575020189808e-03
5.816008626608562028e-04
-6.505890230484730706e-05
-1.572643544392998650e-03
-2.438628876927857129e-03
-1.307214422772639065e-03
-1.392478282526025089e-03
-1.474896007872931753e-03
-1.242336294152870165e-03
-1.139065121424929876e-03
-9.950266100898128539e-04
1.954577643772319184e-03
4.063177007415898906e-03
2.441345420076429951e-03
1.363172305024092090e-03
1.736525183732155189e-03
-5.753071002663994035e-04
-1.477162498680255906e-03
6.873323834964922916e-05
1.893010252616317063e-03
-1.377794506342323215e-03
-4.280237765460942999e-03
-2.565974695585730887e-03
8.604944141175614822e-05
-7.580217072172349682e-04
-9.792505842851008564e-04
3.395730163930662463e-03
5.817515364259320289e-03
2.487829504193714986e-03
-1.690549726320140275e-03
-3.490486610067179609e-03
-2.887001473227438723e-03
-2.600406756614517985e-03
-3.214971159642956468e-03
-3.181094359012098891e-03
1.138530915587664507e-04
5.154698302601180317e-03
1.239968994641742900e-02
9.631086462935999071e-03
-1.646199022755771759e-03
-9.253377697225997553e-03
-6.507570253321832976e-03
1.539570175588834142e-04
3.233049823267907397e-03
1.040896368877708032e-03
-3.367718732985468342e-03
-6.313518155969945894e-03
-4.409238104843857774e-03
-3.412519598745974384e-03
6.905510510447351391e-04
6.421097111823531080e-03
9.853402895211057014e-03
9.340099783032358716e-03
9.311218409325429249e-04
-7.131819414506179559e-03
-8.452863247688494411e-03
-5.041651316442706532e-03
-2.123298451275198225e-03
3.002509408191006163e-03
7.840890977017957522e-03
7.603210957240267957e-03
3.144755273740897951e-03
-7.095193732140823951e-04
-3.246979082953157028e-03
-4.199712796116644373e-03
-3.434447332975747863e-03
-4.153502024656426095e-03
-6.942733958098290352e-03
-7.331684306917406191e-03
-1.443559824643415260e-03
8.962947583580871749e-03
1.175579748901108869e-02
7.767967989892953819e-03
1.100001275464607695e-04
-3.850624577918331220e-03
-5.003798780841178448e-03
-3.952208715836830373e-03
-1.620831268483741193e-03
2.117973156862215482e-03
7.225990726016419570e-03
4.499421950886013134e-03
-1.996862327625378505e-03
-1.791059296833636023e-03
7.911572137326465049e-04
6.700926918864644156e-04
-2.184826943843817728e-03
-6.718733697364728634e-03
-6.059250439870639444e-03
-2.775640286770014210e-03
-3.366177354303250295e-04
5.468764877230594896e-04
4.204080442263329054e-03
2.907526202528381339e-03
1.585602484156191459e-03
4.084240030897978019e-03
7.059956986364146654e-03
2.115028649180894938e-03
-3.906923356363601468e-03
-3.413198879515980978e-03
2.177532914146147920e-03
4.577498851552387789e-03
8.007493043115602310e-05
-5.246632059401920220e-03
-8.830633471709642759e-03
-8.999828550364396065e-03
-6.508344504508570445e-03
-3.776986296585459289e-03
1.509534622022940410e-03
9.986533884064634561e-03
1.709260192001074707e-02
1.581087271872479508e-02
5.212006182309702855e-03
-3.897983086189774331e-03
-7.435215390225768592e-03
-1.062415061994180683e-02
-1.227303527844949248e-02
-7.971886951988856745e-03
-7.259953097174336699e-06
5.537021075597634533e-03
6.711565558716867975e-03
1.118893421964014655e-03
-1.732762522752227460e-03
-1.187242511319517788e-03
5.052521788858288726e-04
2.456465561772758644e-03
4.679616144878508653e-03
6.410036470438337623e-03
6.258942936378884131e-03
1.758935270914637177e-03
-5.443065558232143206e-03
-9.885198768014665308e-03
-8.846465117682545537e-03
-7.530727963988744812e-03
-1.975185070348940610e-03
7.978865871580149982e-03
9.070216321490619585e-03
3.758237622226776389e-03
-1.987948121721177640e-03
-1.896889778976189236e-03
8.375021785546144047e-04
2.099787922709752449e-03
-4.006947829293278649e-04
-3.467359355896574517e-03
-1.925075722137488529e-03
1.004943009003214302e-03
1.335774657260285986e-03
2.250729724208686867e-03
1.440124813693585042e-03
-4.679486955212991232e-05
6.396232824749405448e-05
2.378454457902232685e-04
-7.464594110545016243e-04
-3.490479618988698730e-03
-2.329701077222948950e-03
-1.050776226182273225e-03
-2.364939050027916635e-03
-2.570716137230661964e-03
-2.558078470271889877e-04
1.409064297771118546e-03
2.904823809635210825e-03
2.713887149826096738e-03
3.115535068803884037e-03
5.302211607120043725e-03
5.719040914438120599e-03
4.307847729084034530e-03
3.939624478342093660e-04
-3.185498982773988640e-03
-7.091624916799824790e-03
-7.540784739110052703e-03
-5.453608555195111653e-03
-2.484555863094378789e-03
-3.006164239883883128e-03
-4.500416904253808255e-03
-2.449294146839673097e-03
3.093758704444977883e-03
5.356187525275234868e-03
7.619823784220156222e-03
9.783735640551944820e-03
9.120822311485832570e-03
5.805434929914513606e-04
-6.577391053614785495e-03
-3.884094928962107153e-03
3.243744475243545916e-04
-3.157882809049393979e-04
-2.710251316797081950e-03
-4.521526004637555635e-03
-4.772245433028544058e-03
-1.551082704458850697e-03
6.662611624311554634e-04
2.767609437312162479e-03
3.069444540424518236e-03
1.588013290478363900e-03
9.529396645989067017e-04
3.658523687883641438e-03
5.042522833809431025e-03
-1.680753145456673290e-03
-1.062215794782808524e-02
-1.603877804352013201e-02
-1.157616227066585353e-02
3.773900785138154749e-03
1.757822521189881040e-02
1.890805583809594334e-02
1.023517162756591541e-02
2.089141045393577440e-03
-4.640832842883997091e-03
-8.629381881989535430e-03
-6.733652604479638780e-03
-5.733964465363500587e-03
-5.388895609851372843e-03
1.112638294770669240e-03
2.435435716498916305e-03
7.434194045051847107e-05
-1.107083607544763655e-03
-8.133448153547357925e-04
2.630939202917790317e-03
3.885473741611729457e-03
3.103524121633192533e-03
-2.129996166768527693e-05
1.523066442448655191e-04
-6.561471123002004342e-04
-2.000027782625591211e-03
-1.298517780642637889e-03
9.767459198757838350e-04
9.979255252732161831e-04
2.798675723724728726e-04
-1.169961972923405348e-04
-1.416676430657810154e-03
-1.481167900364253453e-03
-2.744753224268426262e-03
-1.598116118584168429e-04
1.712585881519463737e-03
2.587071439661566517e-03
3.095840405716214407e-03
9.729012981287398767e-04
-2.080213009470235387e-03
-4.057004613206949967e-03
-2.798914517360956162e-03
2.325837727329997748e-03
4.318222840568323312e-03
3.348841211695931155e-03
-2.397857525141532456e-03
-4.211720889955882820e-03
-3.914307177225856069e-03
-2.789555912342680339e-04
3.644392779394715204e-03
2.512118864091027713e-03
1.351152194960092336e-03
1.474771994756683214e-04
-5.075869133337861799e-04
8.889916756956721573e-04
2.481269425986494265e-03
5.823669634228827727e-04
-2.236069522588961939e-03
-4.160783646928685464e-03
-3.830156539665120242e-03
-2.317170251508827994e-03
8.374736484488221272e-04
2.893714239118680507e-03
2.945428535950058140e-03
6.974028325914825898e-04
-1.798305255152169184e-04
3.190634047805540911e-04
1.737724566681070728e-03
3.005405301103338065e-03
-4.616210924679621649e-04
-2.720860563518303493e-03
-3.323933683233628363e-03
-1.364305218338119621e-03
7.090082406173357473e-04
9.066024231753915972e-04
-9.280819539932928710e-04
-5.252317847220427981e-04
1.294758102087573332e-04
3.322659504151041169e-03
2.032242521821396499e-03
-2.372755825921029314e-03
-4.404735713992238497e-03
-1.029816781849447619e-04
5.490122251994366404e-03
5.501644939814046877e-03
-2.256272113517757616e-04
-3.605517668721722451e-03
-2.802236484227244723e-03
-7.025251036797782638e-04
-1.557279647622572712e-03
-2.998236105897900518e-04
1.737084786186592240e-03
-7.388340157232657418e-04
-2.333391238202987480e-03
-8.547090275119064275e-04
6.991676908172199389e-04
-2.184393002806431922e-04
-2.198004708589064524e-03
-1.251654097156860729e-03
1.553402747481636868e-03
2.380643456912145701e-03
6.371975747549477390e-03
6.743723229356313534e-03
3.405319834449721961e-03
-3.921201115296843931e-04
-2.167979497882434933e-03
-2.186656457393795945e-03
-3.905818628635036958e-03
-5.880468500929334277e-03
-6.180946582436824994e-03
-4.047006852696018306e-04
5.050350350790725786e-03
3.208240003281516341e-03
-1.433962521243069971e-03
-3.592620646958163619e-03
-4.833842794395372920e-03
-5.494575029210570401e-03
-1.182327208336217796e-03
6.534015720545455555e-03
9.504685186334438027e-03
6.877008877929621788e-03
3.259560285482843416e-03
6.336358102786966923e-04
9.494569804339615541e-04
7.909661822431165827e-04
-3.428452512214663281e-03
-5.233510402071111893e-03
-1.352828078563259994e-03
1.880955095981021435e-03
-1.543594415547997617e-03
-5.867765235945821521e-03
-7.140749178912097865e-03
-6.119348123885141010e-03
-1.252253936386016949e-03
5.973701869963539239e-03
9.042783603549216231e-03
7.084162697243126701e-03
4.255247272252392701e-03
2.768397298969724760e-04
-4.228401634944450004e-03
-4.684226783510714309e-03
-1.256756810071444968e-03
1.300633475296467806e-03
1.890138363086831409e-03
3.530683677639766954e-03
3.748505838515546126e-03
-1.757045057046923223e-03
-5.224538871042253875e-03
-7.121907567800191650e-03
-5.616435218657585444e-03
-6.949352525769274041e-04
3.545280519701272514e-03
2.249681243693542245e-03
7.883744294129210175e-04
2.544607573292596066e-03
6.927416656175493757e-03
9.216658149898091304e-03
8.674346809786804982e-04
-1.019491297687010432e-02
-1.361105606643220507e-02
-6.656430236768156802e-03
3.166293886020967677e-03
6.062543718045184174e-03
6.273167419641888579e-03
5.901041469697358363e-03
8.880651720396502691e-03
1.106406025544359739e-02
1.295014249682827513e-03
-1.340701031436454006e-02
-1.485920590804237947e-02
-9.721790708046062005e-03
-1.027157892991655518e-02
-1.121340017450563574e-02
-6.627348973294295773e-03
5.439399156335021461e-03
1.593721468752725204e-02
2.448213136998330514e-02
1.752362796459724925e-02
5.875105521279066177e-03
-1.530136749168538920e-03
-1.445553349984753013e-03
-6.063590705455169753e-03
-1.065073930667881537e-02
-1.123112749481376162e-02
-1.037037918836195699e-02
-6.483917073407465502e-03
1.285845777390694656e-03
3.151920827353933089e-03
-4.163555622252902840e-04
2.978467168069178633e-03
6.067963471310474158e-03
5.865579452856515413e-03
3.048640308443836041e-03
3.630929861185555347e-03
2.632079812848797228e-03
-3.106591150383736840e-03
-7.292470006348348611e-03
-3.183025114123752032e-03
5.467517901809254089e-04
1.320787613285653080e-03
2.205315074322965110e-03
6.181122093651346926e-04
-2.668394526051404408e-03
-4.137343361784293419e-03
1.556886377567338452e-03
2.667348685987200145e-03
2.855152060331048441e-03
1.352453321739257187e-03
-2.765469922084385843e-03
-3.408734793558467705e-03
-2.273861701572897718e-03
-6.039542419762460859e-04
2.642488202992745571e-03
4.078074050351388098e-03
3.669423678234435843e-03
4.891538698688136823e-03
3.286489148518726474e-03
-2.851820940800284167e-03
-7.743496332901499656e-03
-6.816707629805801236e-03
-2.656527936336595605e-03
-2.105720085231353820e-03
-2.381517815910477297e-03
-2.353045645284965225e-04
1.068728650361274617e-04
3.874938954484265143e-03
8.963837605545900422e-03
7.301908859155555910e-03
5.647568895151569785e-04
-1.808367461483674585e-03
-1.594551917886614196e-04
2.107087464277975115e-03
9.723373789388516358e-04
-1.476056992492072581e-03
-2.529932962305569358e-03
-4.042488653490372390e-03
-6.625692519454801956e-03
-6.444297092273719788e-03
-3.609619603636051843e-03
-6.582633383520659518e-04
3.397224682868011389e-04
1.586369177096219650e-03
4.968363109774241726e-03
6.860021577127885413e-03
6.508669446193008669e-03
6.030845528686519866e-03
3.851060884535481652e-03
1.989568278168062304e-04
-1.815073617743138707e-03
-1.988136187798039863e-03
-3.318580831841269271e-03
-6.501414353821404965e-03
-3.967219861255906130e-03
1.967739135658125391e-03
2.005553298614907737e-03
-3.652315489571324614e-03
-6.069892042916194379e-03
-6.808092690059200716e-03
-5.268503312358713449e-03
-5.358025278824283524e-04
7.693424115835711605e-03
1.055188512835633467e-02
6.163025887285794244e-03
8.843673180219653682e-05
-2.460873222702378380e-03
9.315114631813101393e-04
6.532069447643815835e-03
9.650916600003764390e-03
5.108784857594383423e-03
-5.884305480917923804e-03
-7.322546299147410925e-03
-6.841867276509162529e-03
-5.951902311402946198e-03
-3.687436907654809918e-03
-2.094674301585547262e-03
-2.871621227574569848e-03
-1.571208763705177810e-03
-5.763700316506003120e-04
1.115403050302890380e-03
4.372786744119470936e-03
6.563294982448676131e-03
4.747738338822559898e-03
1.622754512368213952e-03
-5.889723488626458009e-04
-7.529633341554550904e-04
-8.082455545489797321e-04
-5.791163409482180799e-04
2.429637646789723892e-04
1.186713023475313971e-03
3.943285756398683421e-04
-1.254519874081049457e-03
-5.961862007558470190e-04
-7.238991325632827952e-04
-1.828959330735733082e-03
-1.808406731978492825e-03
-1.146219639541527563e-03
-1.387008537411951433e-03
-1.322058120825736656e-03
5.675259582858209603e-04
1.072978223320952048e-03
1.563010426129470345e-03
1.725166554195956686e-03
3.073439695801401597e-03
3.759382179542428582e-03
1.929353083204784179e-03
-1.679956746560458229e-03
-3.128666469588322219e-03
-2.289717210728481247e-03
-1.167398731964905401e-03
-8.431079540887768996e-04
-2.084081464044639301e-03
-2.138450586510188579e-03
6.867167287229466533e-04
3.362064011787565827e-03
3.779910922745789974e-03
-1.067078921994444717e-05
-2.328945944541316055e-03
-2.681571268637367774e-03
3.428334258403175055e-05
2.494231481663601330e-03
1.980934894770336983e-03
6.556827859528622420e-04
-2.404851229109600816e-04
-2.218017779498079444e-03
-5.360969609020392644e-04
8.439191703204842196e-04
-1.586101409098179729e-03
-1.573194453471398434e-03
2.644969055052883962e-04
4.048044627689844103e-04
1.729235483271976230e-03
1.926351015675882225e-03
6.638583815335082636e-04
3.525437863986399757e-04
9.598307740702624819e-04
-1.408034084837358774e-04
-1.758869728070171570e-03
-7.156534552064549009e-04
-1.150088740439719152e-03
-1.394751942518700303e-03
3.791117022809734017e-04
-9.460007644002111065e-05
-8.181145088788031308e-04
-1.313374755053750825e-03
2.749322487230988418e-04
-6.052157178399307112e-04
1.410938479524950599e-03
2.833931228193918225e-03
1.083413448941262722e-03
-2.309131253249773873e-03
1.298731566360455188e-04
2.437537820322754640e-03
9.320682729365681839e-04
7.759252193132296950e-04
2.245602225021551927e-03
1.345316574106418051e-03
-1.949528897138613683e-03
-2.773127460296781824e-03
-1.742076340782660509e-03
-3.885131196301669799e-03
-4.604453085461404117e-03
-9.681388288909773465e-04
1.878402974521214096e-03
3.068052076982974614e-03
1.276955357994996034e-03
6.018443483899696845e-05
2.179072175741864634e-04
2.385908874348534065e-03
3.523901882654889139e-03
2.255469462474264577e-03
1.615649801866203897e-03
-7.121375390629214189e-04
-1.863730970202392458e-03
-3.509593398464580212e-04
-3.294034601312559362e-04
-3.049226049622801027e-03
-2.732042409551186431e-03
-1.675294562831556016e-03
-2.622752857519027470e-03
-3.120486664476262648e-03
-2.539333921461985662e-03
6.669155121073877665e-04
3.005096990956691774e-03
4.634775667162376392e-03
6.617278523135609360e-03
4.046742662753051965e-03
2.529621203001284745e-03
2.623469555079225007e-03
6.051534842169702154e-04
-3.129656760035854756e-03
-2.990248406852854396e-03
-1.610609100635786856e-03
-4.196918053030332732e-03
-5.247846252709250682e-03
-5.795370029633509397e-03
-3.183117630868207999e-03
-1.905229796927179666e-03
-2.628130877537727603e-03
8.804739912100632447e-05
5.571243416468033699e-03
9.162991440822224748e-03
8.923580874167976254e-03
6.999979411724569292e-03
3.368599410037645663e-03
2.636962347580077424e-04
-2.087725838961091915e-03
-2.403815295127545350e-03
-2.608416635442907180e-03
-4.614734883590041088e-03
-2.532709528125313189e-03
8.595857182478978476e-04
-3.743214708359868075e-03
-1.447308773264629339e-02
-1.875038747416030507e-02
-6.872619333559576611e-03
9.510236712299139847e-03
2.118516274743074274e-02
2.410882658025510772e-02
1.497184235424086317e-02
2.637449840915131408e-03
-6.506310551183626910e-03
-1.189769723784294894e-02
-1.604558737977788974e-02
-1.170210151192626301e-02
3.345237289437645329e-03
1.178423099254662446e-02
4.858253571098093172e-03
-7.408386067846571554e-03
-1.009557023466442494e-02
-3.987677304756120748e-03
7.852088431118675604e-03
1.290726303371722040e-02
4.311478873240449233e-03
-3.131931298262302567e-03
-3.621059392862579530e-03
-3.552730658010263285e-04
-1.719683851969965125e-03
-5.262404125597250522e-03
-2.576548275688686409e-03
4.220709147939500500e-03
9.354703255761247921e-03
4.003663549561014938e-03
-4.017257577043500429e-03
-5.819595391855957728e-03
-2.885472107296812531e-03
-5.694790601395154951e-03
-4.735125235820224210e-03
1.114123462219727186e-03
6.561645497899926648e-03
9.208101836024383188e-03
4.659920862910285448e-03
-4.503721522429221438e-05
-2.154440648806439217e-03
-3.352968359243995236e-03
-4.114458994699075368e-03
-8.002957595130746329e-04
6.099273907280929096e-04
-1.746967316862236197e-03
-4.286622481143187056e-04
2.392287322174978855e-03
2.252799193292443890e-03
-2.412830307070374693e-03
-3.254004526025725159e-03
-1.229940009224603399e-03
2.850932353112650697e-03
4.974546587926902304e-03
5.704323343273689714e-03
1.790852541947809008e-03
-1.770705836226432739e-03
-4.096594641281052843e-03
-3.680452367389988513e-03
-2.357374520932993111e-03
-1.792353221377489475e-03
-7.332406003835509464e-04
2.577762455882047542e-04
1.700512990635537954e-03
1.572610919639703042e-04
-2.159233436121056355e-03
-3.189730745102034321e-03
-2.865372527141600047e-03
1.159171096461189803e-03
6.329221695298851806e-03
1.190057040295058530e-02
9.477835546064957567e-03
2.584048258933189591e-04
-7.252186687047219339e-03
-7.152265195546669667e-03
-4.071554707327202684e-03
-3.704158218090951044e-03
-1.054212561803114564e-03
-1.947766367683851328e-03
-1.364471023990691725e-03
-6.811482300702115982e-04
1.480846524204891806e-03
5.437417344810621840e-03
6.165598823301757063e-03
7.772118190580778541e-04
-2.480603092109639422e-03
-3.147263150835885853e-03
6.066129178239714186e-04
3.587768329461240701e-03
1.821535074045763439e-03
3.052633524621339769e-05
4.004499533856930790e-05
-2.271696655434245638e-03
-6.748751601918344910e-03
-7.278538920135240765e-03
-3.084267078155806391e-03
4.934849437011214375e-03
8.249287812028948536e-03
3.207721540382659376e-03
-2.686613713400110492e-04
-5.048823567281232865e-05
-1.222842092563084177e-04
8.625480143286994505e-04
4.286930822453884613e-04
9.797479037346218562e-04
2.783303644740880035e-03
2.297095473620450450e-03
-1.112429213228394208e-03
-4.708096337271125247e-03
-7.566854697613854298e-03
-8.899977951312657010e-03
-4.086787326558313088e-03
4.030364218396644341e-03
7.276781648515144758e-03
4.650935663784994990e-03
3.538434032850494917e-03
2.006066189945969035e-03
-3.686038586260589325e-04
-1.584021166940898298e-03
-3.318733680338988631e-03
-2.233004688186096889e-03
2.861600010155512883e-03
6.275010580040394324e-03
5.055625537218016823e-03
3.683872270387145110e-04
-1.736891651751988489e-03
-4.510769232485943234e-03
-7.834732578268345168e-03
-1.004930507792628318e-02
-6.122474149632801087e-03
2.124722678685699983e-03
6.471378391961733756e-03
4.802881663920440490e-03
4.919398641444813237e-03
5.304695217508090428e-03
5.193928235366989353e-03
2.742194788108147634e-03
-1.768887089966586935e-03
-5.316412092595187121e-03
-1.977813977312301106e-03
3.342407858562506610e-03
2.547731165575294054e-03
-6.948560511860994889e-03
-1.459168087918090613e-02
-1.118150577379758114e-02
5.955739307481911502e-04
9.364930280404077170e-03
1.046715006159271502e-02
6.865249768851801153e-03
3.033998022265013608e-03
-6.907277315489019969e-04
-1.400220991211911792e-03
4.366181387418084604e-04
2.196658061796319568e-03
-5.880374262126974267e-04
-4.001627084621909095e-03
-3.368401883405498527e-03
8.014265135962147591e-04
-8.319666735840086213e-05
-3.922882752977296765e-03
-3.877224018266994549e-03
-4.233947710517273547e-03
6.468165487527769786e-04
7.104059140670694085e-03
7.361099492716641213e-03
6.460445889065505667e-03
2.578574465585209852e-03
-2.903402865430387749e-03
-7.535127694494492268e-03
-7.948463463171169183e-03
-7.028567390542116329e-03
-1.860084022848953762e-03
3.300896115244067539e-03
9.993883976833496316e-03
1.029219182533392535e-02
4.348391335179355686e-03
-3.573601762690574359e-03
-7.233778393858486359e-03
-6.501080012535747840e-03
-4.146567030513806200e-03
-6.532347707056107003e-04
3.039034489916046019e-03
6.602824610533244813e-03
7.425340844796079337e-03
4.272451793849367345e-03
2.784669762036560189e-03
-3.884617632239653574e-04
-8.429530000530465611e-03
-1.565320737481673205e-02
-1.330426956729460937e-02
-5.124357366332686799e-03
5.001525597807540170e-03
1.257855700271554543e-02
1.340792276723737353e-02
7.850477915310927549e-03
2.346356302433353930e-03
-2.642325714262722374e-03
-5.459264052860329092e-03
-3.403214350109480795e-03
-9.625921578767345421e-04
1.329481778298260888e-03
1.713447056349006944e-03
-2.027729594088642246e-03
-1.881913936281878882e-03
-2.025024952309986996e-04
-1.922862165466635844e-03
-4.025485220074788775e-03
-1.186853296371528747e-03
3.998727480658147496e-03
5.137448918663355645e-03
1.036390242337679318e-03
-9.422347862354426553e-04
-1.210859739689356968e-03
-5.365651781965409886e-03
-7.252678239280013588e-03
-1.636561291767361058e-03
4.961617074711622069e-03
9.366519202340313141e-03
8.235957885015958435e-03
3.094934642422737543e-03
-3.020471118421087873e-03
-4.034273231774428321e-03
-2.422743366475464764e-03
-1.427177909046467401e-03
-1.081442667101493137e-03
5.717848432215938805e-04
1.533428680479948306e-03
-1.556020975745959047e-03
-6.091859986345503353e-03
-7.168523986415108878e-03
-3.075714157198017416e-03
3.171230710876276390e-03
7.640557734276540690e-03
5.173373394979500703e-03
2.806797240476941943e-03
3.291748865523716223e-03
2.803777999940811061e-03
2.694415085424182836e-03
1.255608765317691453e-03
-1.697018911324963200e-03
-8.022396907918344020e-03
-9.194034178060623771e-03
-3.691181628729182842e-03
1.033795572126756457e-04
-4.653987784384882621e-03
-3.435347440069847370e-03
4.862874228762578861e-03
9.286389595206730185e-03
5.737463813571920708e-03
4.904485845768185616e-03
3.115054714027480718e-03
-1.489573942394079985e-03
-1.322366533370410938e-03
-1.165844715101164780e-03
-1.839263863314572226e-03
-3.396740411045037940e-03
-4.206009962305782938e-03
-1.809239212987810144e-04
-6.476058867273306588e-04
-1.487756887147811177e-03
-2.453347902892079281e-04
9.723207000534627234e-04
6.793842408146286540e-04
1.364653382564447095e-03
7.899002408903076566e-04
9.884884277942009283e-04
-1.306509977077821181e-04
-1.156717865496591311e-03
-2.311571607788917831e-04
3.731771121670877196e-04
2.796333099348669287e-03
3.063101342807472011e-03
1.155315210512337454e-03
9.890561035145420832e-05
2.457869854994557037e-03
4.200987140593399655e-04
-7.108709050759180227e-03
-1.053428249868118213e-02
-5.440643409895667103e-03
5.732105039734453934e-03
1.109290142063726337e-02
5.929856071586745055e-03
-3.477382148562062607e-03
-6.878890053198480695e-03
-2.721295450129719833e-03
1.392410034229696293e-03
6.024528635905927656e-04
1.487290741670899445e-03
-3.693244315813335810e-04
-3.138170784540425268e-03
-7.299248293888778482e-04
4.996865027101181182e-03
6.372130170881940697e-03
3.801259766565772639e-03
1.495668550117575536e-03
-1.220220049264282482e-03
-3.952538522643016770e-03
-5.842557195816366553e-03
-5.256350090362579310e-03
-1.612069802334616542e-03
1.265050795636138772e-03
-2.796627207126294078e-04
-8.818932277182434804e-04
3.310251226787292670e-03
5.477485187125727926e-03
6.588915790255638581e-03
-4.703390865913769292e-04
-9.997379588427657976e-03
-8.509395674430193443e-03
-8.387318959827068680e-04
3.597174039453488511e-03
6.051549224780539485e-03
4.865277983807601674e-03
1.263589264706904258e-03
-4.914349144310856598e-04
7.973306119304684938e-04
1.739549488517981015e-03
4.585512277653470449e-03
2.125476254484523139e-03
-5.367317988519740811e-03
-9.978870275535190945e-03
-7.137051809568179146e-03
-4.612931769241842769e-03
-1.617701934056902605e-03
2.495607318955003848e-03
3.495620588826424315e-03
3.099074101358394607e-03
4.538709607450344512e-03
5.843720099411721207e-03
5.176896410676360381e-03
1.291739639275060487e-03
5.537200801469310341e-04
-1.448343922246321568e-04
-2.544468815205091616e-03
-3.806880205393814269e-03
-3.679355225064259802e-03
-1.894723175005048714e-03
-2.134493410227786530e-03
-2.719244500104126081e-03
-4.238869772998777111e-03
-5.588668460644617697e-03
-1.991248661135940849e-03
5.230805979069312432e-03
1.185175088743862029e-02
7.378965469059581457e-03
2.056180750114606614e-03
5.961492622517613506e-06
1.824668128389351444e-03
2.602466600453052625e-03
-1.052019989807971003e-03
-5.969705287338832045e-03
-8.212861534270312139e-03
-7.952589984519222582e-03
-3.362026976409022375e-03
2.975725219505438810e-03
3.150425578747877847e-03
2.536978782608005807e-03
4.074534221631003796e-03
4.447408981662153392e-03
3.374554049484264221e-04
-2.423381559558613913e-03
3.115681719046463566e-04
1.695133842011223692e-03
-1.007560463537321817e-03
-2.604133363169069699e-03
-4.928262682130869245e-03
-4.785173979005766416e-03
-8.183941643218351760e-04
6.031919863120166654e-03
1.039231155753264982e-02
5.660638605865840091e-03
-1.344006777251704424e-03
-5.026897059679068767e-03
-4.065581335019898511e-03
-2.779021093343059853e-03
-2.731545709142676592e-03
-5.939093586464263544e-04
2.550318933968911961e-03
1.205025341676584354e-03
-3.484859763641907178e-04
8.081726880745699910e-04
1.040589514089634762e-03
-6.853914955875045579e-04
-2.958715225652633080e-03
-3.604233846036302303e-03
-1.058788181598268718e-03
4.100135158044112930e-03
5.337251083936814418e-03
4.806220229252104216e-03
1.142103886533077199e-03
-7.721435370605863073e-04
-1.247646704916810078e-03
-3.345264244705798730e-03
-1.428339675709620893e-03
-3.860071066548721687e-04
-4.034624448515550764e-03
-5.351461146349240951e-03
-2.344469032255642234e-03
1.945891439444336329e-03
5.089786173228387153e-03
8.469609539935512438e-03
5.986375722901160316e-03
1.148706118112834389e-03
-1.776663598022358136e-03
-4.324382165632081713e-03
-6.046234202807858338e-03
-5.424773068572904221e-03
-3.992418000651077464e-03
-1.907163072352243902e-03
-9.106646344536910211e-05
2.513050947731704059e-03
6.496721231513547488e-03
8.321041450471198045e-03
5.198556539919584746e-03
2.876724826604118695e-03
6.883855281816627031e-04
1.018520041650136003e-03
-1.064030526030100218e-03
-6.812339782903271447e-03
-1.059028271571231007e-02
-9.786402581533419978e-03
-5.575928040286279481e-03
-3.839243567130481895e-03
2.074035109798306412e-03
1.119442955611514058e-02
1.660108500793681247e-02
9.685020894111278852e-03
-2.920670401072756380e-03
-8.042609106250615120e-03
-7.483758228759647586e-03
-6.579359785425381753e-03
-3.057236736099477447e-03
1.519179123840727879e-03
6.024679134771701410e-03
7.333046822980087039e-03
8.865669474355186708e-03
9.153239432950740009e-03
4.132623363503636245e-03
-2.467349752523817757e-03
-1.208549966197652696e-02
-2.094319178371234144e-02
-1.729182282148812588e-02
-1.400657397599452524e-03
8.335485533264191602e-03
6.210104760859399935e-03
5.296577147648065878e-03
4.628791371818161485e-03
3.227159046987959374e-03
3.140643421231755026e-03
6.693727933471495424e-03
6.107733400730011412e-03
-9.341534647324612394e-04
-4.873768796127090144e-03
-5.480741343319813462e-03
-1.620730518688800591e-03
-4.020221055333750423e-04
-1.450908191099134232e-03
-4.143730709358404247e-04
-7.041307500758939427e-04
-2.659470204153684993e-03
-4.308692482829318444e-03
-1.216914586595989594e-03
3.593605651164261117e-03
3.302115614854446001e-03
1.933523623745920725e-03
4.683720268810720152e-04
1.954538275032981437e-04
-4.963707027645459851e-04
-1.238624164837057000e-03
3.140976737512849587e-04
2.531051077981613228e-03
2.092541643040698660e-03
-1.433551472643681494e-03
-3.151040758252069557e-03
-3.669549583843350650e-03
-1.933150857759811112e-03
-1.034410849364060135e-04
8.653438877283563995e-04
3.515388374708444761e-03
5.341483593762597418e-03
5.507352362538895686e-03
3.476502468206835086e-03
2.375030078388524167e-03
1.487530584836834488e-04
-5.088399728181760076e-03
-6.349587306528205015e-03
-7.300787180518875444e-03
-8.677880887693603315e-03
-5.693800506066218174e-03
5.122547005156080505e-04
1.645406195201118155e-03
-5.137607181716722380e-04
3.589545123814800402e-03
6.247933688774348106e-03
9.642574124315028000e-03
1.103574596624063396e-02
6.888792529002808925e-03
1.104863058284075248e-03
-4.423980323350135829e-03
-5.533290067662334673e-03
-6.607130202127115513e-03
-5.611568227286384096e-03
1.644226345225901619e-03
1.832805884171826317e-03
-6.436847902140910467e-03
-1.200751631552237492e-02
-7.350520688199454165e-03
-1.602250222095793954e-05
5.820809778511955995e-03
1.102711969082987263e-02
1.020954364488986174e-02
5.284759798749664485e-03
8.949152271155296498e-04
-2.462325989722418621e-03
-4.008896393503372756e-03
5.205938758804936435e-04
5.303048130385111872e-03
8.412511266202451045e-04
-5.278050611857440857e-03
-6.383665615475349678e-03
-5.412653875957533847e-03
-5.751974758304027185e-03
-1.929686204132462137e-03
4.209590561667359357e-03
5.638195552793780728e-03
4.790477017675806581e-03
4.556994408741998556e-03
4.010003897629799315e-03
-1.291959416626859824e-03
-4.807399136413425221e-03
-3.505847386164874253e-03
-1.985441405139647206e-03
4.145690725235325839e-05
2.561963098290222316e-03
2.669761335688248995e-03
-3.989860728299876374e-04
-4.807898970249501087e-03
-4.747676917385013594e-03
-8.133066085063291690e-04
1.062188071191010053e-03
3.796141758875603255e-03
5.421093360554136119e-03
3.965932227513803941e-03
1.575125511582834825e-03
-1.441663247256118070e-03
-2.640720869027382220e-03
-2.324962394854782413e-03
-3.084055834483354422e-03
-4.299721028855664658e-03
-9.244427043640376191e-04
1.106655345572493156e-03
1.353868169039475818e-03
2.429501311922948551e-03
4.502620594514343717e-03
3.161110834043544260e-03
9.180127938277383038e-05
-3.786262672417348239e-03
-5.727528772783792646e-03
-3.295645782923594270e-03
1.517094875567910790e-03
3.968458629564189204e-03
4.043272917779321823e-03
2.486638193906362104e-03
1.873133782117135295e-03
-4.104536959529120213e-04
-1.084272887632561693e-04
-1.810419062874513499e-03
-6.895160551193911698e-03
-9.104780059877836881e-03
-5.379497102103202207e-03
9.353146157358556640e-04
6.493672242829233096e-03
7.486489914910638387e-03
7.724581858017410055e-03
6.429172885776474229e-03
2.351749251067276111e-03
-2.866444888557853708e-03
-2.400903809169877175e-03
-4.837344720823313730e-03
-8.378416000559671742e-03
-4.958648456465352024e-03
3.800102022581240560e-04
4.595399200814682603e-03
2.371695127575574723e-03
-1.981259365435345584e-03
-2.008286511020032031e-03
-7.096107629368105744e-04
2.119724069329657380e-03
4.850462757278979804e-03
4.778715144105661651e-03
5.649971174426765943e-04
-1.358253863334410276e-03
-1.740360551466824503e-03
-3.171124123725456954e-03
-5.959924719933239017e-03
-2.794201752250858890e-03
3.255830904118407667e-03
5.604092009745156693e-03
3.304503942431715434e-03
3.341008194409239487e-03
2.624321030427472379e-03
-7.134710485858776442e-04
-2.584935856271687680e-03
-3.929796870354264511e-03
-6.134120349007061816e-03
-5.535317930738480746e-03
-8.989354800388813784e-04
3.985445479783964080e-03
3.657605112774808560e-03
-1.541070915432041655e-03
-8.948363288798919435e-04
2.267790355185121762e-03
2.777326302547466780e-03
3.386471115530679480e-03
4.088061847701612503e-03
2.115946977405378480e-03
-7.282140506771932675e-04
-3.106411191720667882e-03
-2.461119452487034280e-03
-1.571862402339667918e-03
-2.600271458868713345e-03
-4.493356123562390787e-03
-3.897931316257096344e-03
5.662814598036658128e-04
1.437998772883511325e-03
2.552679949601491163e-03
4.237775806607662656e-03
3.461883664676587875e-03
1.461614889231816622e-03
1.146360239561896709e-03
3.845621675094840078e-04
-8.233104083810056104e-04
-1.105528394170132885e-03
-1.579944305044324012e-04
-3.319544805348065807e-03
-6.006315345536420575e-03
-4.392274577033940426e-03
9.280415361754579826e-04
3.106698452889771443e-03
4.908990579506467347e-03
6.503794213651964418e-03
1.646789941496251686e-03
-2.484241179080032367e-03
-8.534993439722377050e-04
-2.010630300408741515e-03
-5.201619784441730530e-03
-5.250836307586392165e-03
-1.900980783371314679e-04
5.842018972305790606e-03
6.719729614020265862e-03
2.569757441898940821e-03
8.401754911743459587e-04
1.806228892841169704e-03
-2.953097268893129131e-03
-6.443451502571796025e-03
-4.563269955157905899e-03
-3.579145035559098791e-03
-2.892977446885008517e-04
3.631905766123993615e-03
3.767918113541991656e-03
1.654821213747340253e-03
-7.143584201129469331e-04
4.817731265390378303e-04
2.652289098545730119e-03
2.287197978260476893e-03
9.094866698987727786e-04
4.173259333422197747e-05
-9.274874677750362135e-04
-1.536398794710792850e-03
-2.536285349832044511e-03
-3.600913730321137624e-03
-4.851889488265396719e-03
-1.671641335128908751e-03
2.018957124092921745e-03
3.522521006888738523e-03
2.276310899666277813e-03
7.633584325981705070e-04
2.361618500030037782e-04
3.765579745946201311e-03
2.506268489768851207e-03
-2.941391841277569974e-03
-4.208968371059649584e-03
-3.316197947913769508e-03
1.674680320332583381e-03
7.964323807044156045e-03
7.256760571512224818e-03
-6.563069436363188789e-04
-5.907418097041689138e-03
-5.638744109589554666e-03
-2.319887856789409029e-03
-1.151643069362839195e-03
-3.657081716513359022e-03
-6.920610539199185084e-03
-4.354971674888898255e-03
1.475736061893891983e-03
1.166707738326174838e-02
1.372594836350068785e-02
6.438261542977052020e-03
-1.505715648988148730e-03
-3.258871714583918503e-03
-2.662861642300745017e-03
-1.424440316183261338e-03
7.389115782408512247e-04
1.546581798789484425e-04
-4.238157854081720487e-03
-7.223440839213170553e-03
-4.936686109090776368e-03
-3.564783388530270210e-03
-5.618533951438932188e-03
-4.447677936317207502e-03
1.558344057784172114e-03
1.338478870648527989e-02
1.764916447344602388e-02
9.787913620998848346e-03
1.683336292883997557e-03
-3.511166987386982099e-03
-4.345594960963989305e-03
-3.505381113377720095e-03
-3.528312062683208912e-03
-6.946868968135311642e-03
-7.124422589028841374e-03
-4.271083304281888052e-03
-1.015883696777595668e-03
3.543882924737687835e-03
5.905362047766871993e-03
5.327474033138739594e-03
1.994962821965135576e-03
-1.155283974765626293e-03
-2.253091525172347485e-03
-2.634734920440461384e-03
-4.251911263510910720e-03
-2.807820114912900310e-03
5.679501571012063148e-03
9.159331281742217820e-03
6.556234474868473730e-03
2.431029371307411382e-03
-2.476406824180831228e-03
-5.139058698519717062e-03
-5.425740785768806002e-03
-7.469962780196410211e-03
-5.323776555323923680e-03
-6.571887147031489412e-04
3.649137927619808004e-03
3.042988792033243621e-03
2.435433443281961353e-03
4.142258946184431377e-03
4.065900182600197012e-03
1.764161405165875444e-03
7.548341672114962939e-04
4.294046264699528286e-04
-2.113991633752002660e-03
-5.506950861572809663e-03
-6.855284902575658861e-03
-5.705060611421983001e-03
-6.856344237083830109e-04
6.369337707647735637e-03
8.131266141668090294e-03
4.744887982086250580e-03
2.148972500633135503e-03
4.801589400341908483e-04
-1.194961734488259736e-03
-4.724493176962434905e-03
-5.391438850530432675e-03
-3.355314083004251342e-03
-5.989919956791528400e-04
2.886032417486614470e-03
1.163815415584760300e-03
-2.236900933622597201e-03
-2.412668478967598847e-03
4.165085431849866425e-03
6.219530896488419114e-03
1.622527733274455389e-03
-3.979976959351701898e-03
-2.661404437214168976e-03
2.510946361540051380e-03
5.259243134525420568e-03
8.272347631516531333e-04
-6.998475631056601601e-03
-5.886123741240349531e-03
1.697306365673513593e-03
4.438488249996349125e-03
9.468999464004403989e-04
-4.212146074708884858e-03
-4.332222984076478448e-03
2.720130479465883953e-03
8.554234929762880371e-03
5.851903349384868572e-03
-1.256178054320015221e-03
-5.581864104317276788e-03
-4.355190578403896930e-03
-4.258890838430870289e-03
5.443198930588398010e-04
2.928491055299035830e-03
3.498377515060953954e-04
-3.630478960210420207e-03
-1.791421469042151328e-03
3.926648104169008953e-03
4.096665941960903577e-03
2.647557085333130571e-04
-1.460802811123551766e-03
-2.378300536719040164e-05
1.223235145448815027e-04
1.985646914861782884e-03
4.136692180615696851e-03
3.611301578053479136e-03
1.408649037815905237e-03
-2.080863139967261809e-03
-6.001833384121649240e-03
-8.723687995827201017e-03
-6.769036634406700760e-03
-1.527724067945617067e-04
5.633573585048614815e-03
4.807309766205049989e-03
3.040309509781175760e-03
3.569788519613746516e-03
2.312234039728911818e-03
-2.373458492337284387e-03
-4.957521123471700202e-03
-4.184724400580400357e-03
-2.160087923677101590e-03
2.516183955584476092e-03
4.981557951058877658e-03
3.722832062022255525e-03
5.752628317831511408e-04
-3.702601167640587419e-03
-3.172158256009720810e-03
-1.412297148837806304e-04
3.229914286931606909e-03
1.420929028212057285e-03
-1.018731820188340138e-03
1.682481647117553113e-03
3.856020415602357584e-03
4.503248530046281882e-04
-6.405481347921434913e-03
-8.315326575763434813e-03
-3.432847281015456286e-03
3.232785391862936803e-03
6.223545512659929731e-03
4.207207511230342915e-03
7.369178293782347290e-04
-7.874635510731015043e-04
-3.073218321532810750e-03
-2.272624250880392414e-03
-2.481360353890165165e-03
-2.923730086302209555e-03
-4.058810210735813717e-03
1.572420904282367891e-03
8.440887713291092206e-03
1.221991189899964379e-02
9.939866049079971316e-03
2.129217741419056013e-03
-4.736599859042374752e-03
-6.465671975063649705e-03
-9.227167584028110256e-03
-9.554101851475347434e-03
-6.392413929386231604e-03
-2.167508391929277075e-03
-3.452696583625692586e-04
2.954375136186044616e-03
6.131772392657467048e-03
8.049128686421680792e-03
2.833507420152556276e-03
-2.430558163729800315e-03
-2.049793211744331111e-03
1.255688235951369800e-03
4.591420495691346179e-03
4.432402021493045408e-03
3.951048480632999953e-03
2.494244996610146467e-03
-2.426059609079500752e-03
-7.648642704580861304e-03
-9.849462006072133916e-03
-8.436002375831022290e-03
-3.714218749355358614e-03
-2.466743576964393119e-04
5.045203911429359776e-03
6.548115264115380793e-03
3.988132547150313907e-03
2.119237296001984152e-03
3.426259811882735812e-04
5.063816069013532366e-03
4.973352600814323100e-03
8.037879542779365451e-04
-7.694513562305041769e-04
-3.906965733343818921e-03
-6.204125157638062764e-03
-6.162188929943335745e-03
-1.963380485326977638e-03
7.492839676189220555e-04
1.633999997385032982e-04
-6.368583821316719205e-04
1.595298235864957542e-03
2.940296524497284809e-03
2.072622753583731967e-03
-2.020691968495010342e-04
-3.545608044061875682e-03
-3.208420406272162202e-03
6.595796054769620604e-04
3.922593038665818203e-03
6.850771489346048349e-03
7.407679223388407945e-03
3.847750351965228272e-03
-3.447075298269015788e-03
-7.077321828076914463e-03
-3.451769382046057481e-03
4.849316480576781278e-05
-1.953752435290939584e-03
-3.672453405181417500e-03
-5.399074442616675316e-03
-3.280186367321242472e-03
1.676380050670031856e-03
4.664126811539257879e-03
1.953853715745367675e-03
-7.212880881674958158e-04
1.451381038979710370e-03
8.391084195964999479e-03
5.964280592085106393e-03
-2.126536101529057348e-03
-2.887875851986768279e-03
-1.347018778342876869e-03
-4.222716161586708913e-03
-3.443105119211617698e-03
-2.524124993587370134e-04
-6.319188343690463781e-04
-6.510134971878868719e-04
-1.878835396814292503e-03
-1.009047217145664843e-03
1.136638382002317293e-03
4.185657176863855772e-03
5.468537585572596366e-03
4.751166348264734135e-03
6.222380299340721059e-03
6.445453521076526839e-03
-4.463770626830157592e-04
-8.703563381049968586e-03
-1.285445356415722967e-02
-1.181970697325680775e-02
-7.842327629630793315e-03
-2.370363119837890376e-03
1.799940323461369108e-03
7.227698034862632161e-03
8.997940962378018701e-03
6.916717310080633223e-03
2.449277540437071968e-03
5.732200702852441841e-03
5.205276368615962407e-03
7.237752679048224192e-04
-1.930683873260921786e-03
-6.607665464885770050e-03
-6.486116016814016429e-03
-3.903296826016238157e-03
-2.566530894158363264e-03
-2.055699363585820113e-03
1.110807299792426674e-03
6.588578288834312903e-04
8.513530886728144309e-04
3.363272307196648377e-03
2.548686267402288340e-03
3.917781292026120037e-04
-5.646892670309528513e-05
-1.727025391640627352e-04
2.020322082963261004e-03
2.393570846885559756e-03
2.046397947427747947e-05
-4.500345407024185403e-03
-4.618615180540734666e-03
-9.540598752648172696e-04
1.145495786296300269e-03
-1.563469259864597345e-04
1.716633920074384046e-04
3.804133216512537840e-03
4.328041381075439786e-03
5.980345271816881695e-05
-6.138809584494271622e-04
7.757629239106853068e-04
-3.099461363095031008e-03
-6.290259816259228913e-03
-4.980741030951255782e-03
8.328532022645725391e-04
5.815264661696011896e-03
5.852077150426356067e-03
1.710520045215171980e-03
-1.113811120385081819e-03
-6.365269827811925784e-04
8.536001606930246821e-04
3.056834479991276570e-04
-2.429456551341296813e-03
-2.766703189595473133e-03
-1.609018198772052240e-03
-3.516160108431663333e-03
-1.904342245224655960e-03
1.878768945146744567e-03
6.791763073534740069e-03
5.688705231678550973e-03
4.236915466002754782e-04
-2.727672464055802461e-03
-1.308143855311927947e-03
-7.983801962757468588e-04
-3.477665099726036900e-03
-5.219586555835964946e-03
-2.359159341979542336e-03
6.607764903907552018e-05
4.335991207633502383e-03
7.991671198978061996e-03
6.428397181169828029e-03
1.898574183296547740e-03
-2.590020030030655649e-03
-6.475531968823159366e-03
-6.297741796407303749e-03
-2.408317816973901820e-03
7.269033013832644713e-04
3.379932248462828425e-03
4.763338499684635456e-03
1.810058597015632483e-03
-1.213276709698551774e-03
-3.355322045621359330e-04
-2.409606622826721955e-03
-4.360880442409893580e-03
-3.564289488889205593e-03
1.390785468039860192e-03
1.847671958694365813e-03
-1.630817996730877639e-05
1.787822101821041508e-03
3.782724748716415151e-03
5.687641879820275019e-03
5.229739310640285806e-03
-3.293801465956523863e-04
-8.546247059600385262e-03
-1.148823075655198631e-02
-5.497384531292015715e-03
3.927552520955490505e-03
7.166234446065322325e-03
4.666312300708854235e-03
7.586368520267358726e-05
-1.893338030376618157e-03
2.622071675425594484e-04
1.634949129955474891e-03
5.252116686295659441e-03
8.956577070855675782e-03
4.647908668150198437e-03
-8.896125474186738005e-03
-2.021797707297953023e-02
-1.921719203533020157e-02
-6.918013351368000434e-03
1.108631157774964300e-02
1.623271429363466745e-02
1.009024800525608681e-02
2.449614494720359862e-03
1.704326510732828790e-03
6.151210811909005143e-03
4.144990874726137316e-03
-1.329539874747780962e-03
-4.856397972447484661e-03
-3.461676434793715691e-03
-4.538594209806501127e-03
-9.665069187055973232e-03
-7.273925765213442619e-03
-2.710364424116122693e-03
1.908625794155795110e-03
7.080017964945866348e-03
8.279538866766612826e-03
2.668984949597548711e-03
-5.111682603341524515e-03
-4.322900462343329600e-03
2.491817095919536540e-03
5.606720878704301962e-03
6.880915107212556142e-03
6.330990340451880978e-03
4.545031177781516879e-04
-9.069367360411082976e-03
-1.293488286748603437e-02
-9.160524783753109038e-03
-2.782631212939098899e-03
2.688655609684750033e-03
7.097863990425229939e-03
9.826193293528259418e-03
9.483581271187065467e-03
5.586061499682157434e-03
-2.511242677005231291e-03
-9.507411521914163263e-03
-7.660744116928906375e-03
-1.127276964567820120e-03
3.045907838036396396e-03
8.743018063671524837e-04
-1.086006157910764146e-03
-1.302472378501875940e-03
-2.504597827083836215e-03
-2.226049042899829432e-03
3.253623189710777878e-04
2.432442410902327292e-03
1.984087947658858767e-03
1.743662548159791419e-03
6.482425798472751669e-04
1.893787999305969862e-03
3.321634013024791273e-03
1.386914299824872554e-03
-2.124900168618825812e-03
-1.162162234377364092e-03
1.019362221100073148e-04
-1.739070704894048192e-03
-1.995526597894768054e-03
2.662629517372225481e-03
7.190808820693542561e-03
4.123704817328916090e-03
-8.793584500400670675e-03
-1.624596023382925136e-02
-1.129067948190267540e-02
-1.618794328154100470e-03
5.390232153701873287e-03
7.083301988799198083e-03
6.896213256854017218e-03
8.545907272556278050e-03
8.852408694772591000e-03
5.823641687195730936e-03
1.834521659655896511e-04
-2.333292108226685691e-03
-2.262791186323581238e-03
-4.112400274790616907e-03
-5.363149985558337413e-03
-6.530880957562501705e-03
-7.802407478170379947e-03
-4.912377801102810713e-03
-7.406766877460054443e-04
7.866076915384064396e-04
3.082053264726973812e-03
4.375424722380579987e-03
5.028157545674362579e-03
3.251987612309447957e-03
2.426133336873406796e-03
2.590897954559044864e-04
6.889147060588474538e-04
2.287880542619172633e-03
4.027121950894657978e-04
1.308576347102514905e-04
3.816369791159548476e-03
4.345298617016464006e-03
-5.013663470929853724e-04
-6.207456612586047077e-03
-1.143225423356555512e-02
-1.190218703305490587e-02
-5.445248186745042795e-03
-8.444095949974057954e-04
2.449237985168115864e-03
4.845747473245200047e-03
6.757246668003943565e-03
5.382340827164996434e-03
6.446158322783983145e-03
8.783015599471916471e-03
6.470649065070234116e-03
2.565159755956330969e-03
-2.032424685885289659e-03
-1.009432801376618401e-02
-1.691886717066575299e-02
-1.307005128209164958e-02
-1.310563398187949893e-03
7.061258211940723596e-03
7.925844997861497890e-03
3.270224804133156724e-03
1.488607196059069451e-03
4.866268665989998375e-03
3.473607477431630772e-03
-4.203828292999237234e-04
-7.392019415647734003e-04
1.968976480324892376e-04
1.287719469304437862e-03
-1.920382523951183213e-03
-3.650367673967898265e-03
-5.134110900947099800e-03
-5.608470404421138020e-03
-3.994506076191174128e-03
-2.562435781440494404e-03
6.931369301944198752e-04
5.944057354154883357e-03
8.166087712606656668e-03
9.799362838295600300e-03
7.471216401024034434e-03
2.373043739224557896e-03
-4.161007766184028969e-03
-8.206796360837967722e-03
-8.431508551296105006e-03
-7.613465498040824543e-03
-3.940309845514741033e-03
2.431622087491494121e-03
4.951789304753771541e-03
2.575042100404667696e-03
3.725703041369141533e-03
4.016421300336958482e-03
2.419668996486309086e-03
4.498706972935067900e-05
-1.693412690868264115e-03
-5.655267036752525782e-03
-1.043047633372512668e-02
-6.526189829863721960e-03
2.573411611178574605e-03
1.093240484812473164e-02
9.549636462242341861e-03
3.446599036706003965e-03
-5.395197496954948343e-04
1.431534073889079032e-04
3.155552757321913784e-03
1.121393920370995171e-03
-3.869969286363169735e-03
-7.733659840510650162e-03
-1.018230857524573228e-02
-7.246284566815501191e-03
1.813916362951711056e-04
6.494662388275695454e-03
6.251889394746994698e-03
1.951124761097871620e-03
-1.164841277709740847e-03
-1.065746583281609004e-03
2.434278684928959692e-03
3.553190900032841566e-03
2.746130318971835762e-03
-3.137250663451479583e-04
-1.087710990187433762e-03
6.763230217693825706e-04
-1.196355941124310068e-04
-1.711538008808936948e-03
-1.418760073515355942e-03
2.412607986966385345e-04
-5.949321630181100265e-04
-1.977840616014924207e-03
-5.675263546369909437e-04
-2.473681301537738065e-05
1.195933991228435855e-03
-2.515161587965736561e-03
-3.936627041608637377e-03
-2.246220391571750446e-03
1.704242796866284240e-03
2.026182487982776219e-03
-3.097754338547436702e-04
5.372095440246822630e-04
4.287708974418173204e-03
6.370703990844221905e-03
5.095077137597414305e-03
3.177829002814281430e-03
2.103037244015872921e-03
-1.686291673100717876e-03
-5.336696886915100538e-03
-1.071610616266504938e-02
-1.326952467805495896e-02
-7.509570329165935962e-03
1.538765983750547701e-03
9.931098372073876232e-03
1.113584851374131192e-02
8.387693059957347999e-03
1.712376343220259767e-03
-3.226538612177444736e-03
-3.826451998700639793e-03
-2.986706968209511693e-03
-2.851001302170187886e-03
-7.521377868482590195e-05
4.561601745118017831e-03
5.396285812831059202e-03
1.232973438076851976e-04
-5.930922806792610948e-03
-5.604690794652470408e-03
-1.344257298981313409e-03
5.944004595689109495e-04
-1.463399568228589825e-03
-3.087496640786393902e-03
3.032335873790239751e-04
6.876584183018654740e-03
7.316480791276281682e-03
4.047898564885756521e-03
1.471840304231561685e-03
-7.460406036816240099e-04
-2.941162818982376477e-03
-4.529562418094663923e-03
-4.002947724093433406e-03
-1.671128927236024964e-03
-1.032543560482086439e-03
-7.565882402196615324e-05
1.091047483350318691e-03
3.593976917091210293e-03
1.246307941384970728e-03
-2.366166607220386662e-03
-4.418219314116640824e-03
-3.002889118109322141e-03
-4.939288576237613193e-04
1.026140441545776542e-03
4.490826282631632353e-03
4.112215694712411523e-03
2.620432625514967744e-03
3.328209425902276929e-03
2.197863617640184210e-03
5.224650085062382005e-05
-1.539191720894249327e-03
-3.152216174767164935e-03
-4.600618410649995674e-03
-3.402421482195106851e-03
2.480721018506158813e-03
7.020192092792687348e-03
3.449419863391823323e-03
-1.389400489258908397e-03
-7.947892886410855978e-03
-1.145924710374058436e-02
-8.196695748454095945e-03
1.469630080114459319e-03
5.893470625986749895e-03
6.252086258645808345e-03
5.550368122902853661e-03
5.102821644432139168e-03
4.222067764720113976e-03
2.046368793846584187e-03
-1.240306299025743884e-03
-2.117578216728528522e-03
-1.659525234206858787e-03
-2.020518233581939174e-03
-4.752047967468277061e-03
-6.526249408324883913e-03
-5.541804465410173075e-03
2.444684744775788270e-03
7.486686748114812495e-03
6.504230619141342096e-03
1.299674902988723520e-03
3.888856203407036654e-04
3.896192340242489276e-03
3.403913413854860268e-03
-6.600890138163442375e-03
-1.117623831719264868e-02
-7.424737934143510638e-03
-3.735072146231255058e-04
5.569168915217100231e-03
7.221120983023641797e-03
3.995748151807496616e-03
-2.254348993480605277e-03
-4.646489429903728242e-03
-2.727828949577659409e-04
5.373602062426639271e-03
5.264640555305178694e-03
-1.591096735946584016e-04
-3.749704362476836712e-03
-2.635611626496398973e-03
-1.423139068323908078e-03
-1.054658283397366756e-03
5.835049446621223867e-04
3.322397950159735117e-03
2.728127585533878224e-03
-3.336077793258652134e-03
-6.622503464256543869e-03
-1.774583590463438927e-03
2.075115807895387080e-03
3.733232033871588217e-03
3.534300801813501647e-03
-2.155172112787261205e-03
-3.544277465822243817e-03
-1.681406321284285941e-03
2.530280507140683383e-03
3.601358383753815433e-03
1.373798327266352983e-03
-9.622886141032002032e-04
5.388257080162872463e-04
2.951643441471729287e-03
5.027854930280510615e-03
4.866534997079386337e-04
-3.975415520980768447e-03
-4.854582310539153067e-03
-4.735865407159887096e-03
-6.340761097681046725e-03
-6.424644626706992913e-03
5.577740274082719713e-04
6.883066286344716352e-03
5.895671122404631467e-03
3.902913709068285032e-03
6.378362242262562926e-04
6.990806157695200447e-04
3.020221360575363421e-03
3.768987445395853998e-03
-5.989766778773251065e-04
-4.028702819270211892e-03
-3.373606494759207042e-03
-1.289909438646540639e-03
-1.654683957331284667e-03
-2.238251509464400050e-03
-3.704697781749796259e-03
-2.897093167591577659e-03
1.211412009886693713e-03
6.601224270557901758e-03
6.679538537420756823e-03
4.318165699605990872e-03
1.783634034448292830e-03
-9.390518224287597434e-04
-2.633622973108153912e-03
-1.611825463585585825e-03
-2.878352069666905962e-04
-3.345258937161693993e-03
-9.039685706352806535e-03
-1.332117151741150744e-02
-7.398244978924922895e-03
4.401342800058134254e-03
1.469183479932260721e-02
1.576645652344343604e-02
1.057604597813011256e-02
2.654039538358008311e-03
-3.883518125986353594e-03
-6.622852759716348243e-03
-5.608633518323011269e-03
-3.030659569398980440e-03
5.989844466988818736e-04
1.722855128609818674e-03
-1.068323345662178063e-03
-3.980328308234940167e-03
-4.880513787040369027e-03
-5.740179839170857570e-03
-1.956718143859653876e-03
3.145204739535365206e-03
6.699277180102300271e-03
5.527492757077928295e-03
1.321673203228306785e-03
-5.821810730266702974e-04
-2.498296285422540747e-03
-5.063006475396544933e-04
5.021746221252375471e-03
6.373265120369412708e-03
2.233779544849744721e-03
-2.000364874698200724e-03
2.937409396851423235e-04
2.784389249149391184e-03
-2.208979814424468207e-03
-7.228714408008522600e-03
-1.179926204608366773e-02
-1.266027496843739018e-02
-6.363687539866467319e-03
4.004929893699893557e-03
1.003597109130736215e-02
6.985307867262695314e-03
6.120603969927615289e-03
4.497298204201177069e-03
2.802798377935009685e-03
2.147275371047206987e-03
2.479546499626882625e-04
-1.701928237049300883e-03
-8.588237377334559082e-04
5.646500015062386928e-04
3.436316278935593613e-04
-3.292425116659172205e-03
-4.785052409636365335e-03
-4.820152133480137824e-03
-4.066878333543793612e-03
-1.801621757056315418e-03
1.193247541569316447e-03
5.221876182739723822e-03
6.941941241775090483e-03
3.786438182311295010e-03
6.406476945630646628e-05
-4.640163460499312394e-03
-4.023184264280634664e-03
-2.766445815163002826e-03
-1.279842325101625527e-03
-1.300292337671743849e-04
1.084526816954648723e-04
1.748530027233994233e-03
3.120710726978303141e-03
3.148211662981873545e-03
5.829085462892847876e-04
8.724045889673320625e-04
3.955456768108166037e-03
1.824778611167193016e-03
-4.101577631544059584e-04
-2.827006876815729361e-03
-3.359328920552638424e-03
-3.283157668484318337e-03
-4.976553208124767950e-04
1.170840181038983099e-03
-1.315485268493453734e-03
-4.405640537177379999e-04
-4.146402570756076286e-04
-7.260442247437118302e-03
-7.457149347484540863e-03
-3.348655585205204902e-03
5.005483116160543665e-03
1.280203605115932085e-02
1.155449643242682789e-02
5.109712452254205201e-03
1.559228895269445126e-03
1.644961953136024006e-03
4.433504609908765640e-04
-6.218069228624685703e-03
-1.183384301242344436e-02
-1.019914900178719476e-02
-3.796519527095746759e-03
2.148976265949466367e-05
4.138065910180373577e-03
3.816442375537852736e-03
1.954310897952555529e-03
-7.618313858119638970e-05
1.839902249663885516e-03
6.470377227593503318e-03
9.066060836170630050e-03
3.650810620781554192e-03
-8.008954087050295994e-04
-6.604290544202281836e-03
-1.042175545668066854e-02
-8.751401142637069488e-03
-4.790808338045538309e-03
1.176193191555615410e-03
4.452961567665510156e-03
4.165546186066436569e-03
4.630840357850535445e-03
3.297151963757161217e-03
1.879114426557772482e-03
9.903374441789603109e-05
4.161274688726210357e-04
1.007868770302882983e-03
-5.665369758751347953e-04
-5.075492865924092871e-03
-5.204555584602495351e-03
-4.018394063459727709e-03
-1.532805007610297740e-03
-3.611737415547270269e-04
2.981700474370760010e-03
7.549721523441965676e-03
7.507227344117532210e-03
5.405171744090687784e-03
3.028842848076291391e-03
-7.335038329767555381e-04
-5.001738638176155514e-03
-9.339028806308149674e-03
-9.932061823356243269e-03
-6.149583105580490663e-03
-1.763438635360141653e-03
3.745429521572245669e-03
5.873046890702855911e-03
5.613409507816716389e-03
4.720453495538129950e-03
-2.498492560386176209e-04
-2.075802457095591701e-03
-5.738272719616050984e-04
6.040216237462555423e-04
-7.924348576063505820e-05
8.548800475230754550e-04
2.595135623507483641e-03
2.333174205730888413e-03
1.512771262802742778e-04
-1.277131854016319611e-03
-8.013193296788812979e-04
-2.296913645776508476e-03
-3.521913110121339344e-03
-1.148316644227619088e-03
-3.730947292180400400e-04
-2.405830201891344649e-03
-2.181672643696749934e-03
-4.193099050657367452e-04
1.409478934025216795e-03
4.635718000234337549e-04
7.659958599836566616e-04
8.383431771032244127e-04
1.172523370370827725e-03
4.837531439278573535e-03
7.254409836611310468e-03
4.589177772535460789e-03
-3.345111460889220890e-03
-4.843768694280425717e-03
-1.328755908415513425e-03
2.118249833077959481e-03
-4.153724044644355184e-03
-1.009880801586690580e-02
-7.638937823455365685e-03
2.928171649988727584e-03
1.353808780168280421e-02
9.730206238595081117e-03
9.379600388324685432e-05
-1.043838094821144397e-02
-1.265899118401403803e-02
-4.839209842553632464e-03
5.588360895246820802e-03
9.043773833851064328e-03
5.849399352934574713e-03
4.279579238753392642e-04
2.327622200205353925e-04
2.473331866168060073e-03
2.663474014522811649e-03
2.722862240414432224e-04
-6.586507573492828872e-04
-8.153650363292511008e-04
-1.636303776202775642e-03
-2.558569015588985085e-03
-5.132167823822186663e-03
-7.370924915556743319e-03
-4.362306930284431776e-03
1.048950804824373261e-03
4.816880448429068130e-03
3.060214440361321096e-03
-2.605593367946351571e-03
-2.635759880461300327e-03
2.125077483151281092e-03
6.234323408893112026e-03
6.207844553940667330e-03
5.858339165019775356e-03
3.784001105060766021e-03
-2.188135792369174304e-04
-1.486866675934708911e-03
-3.756857106988991182e-03
-5.881438251794351979e-03
-8.840191509162487193e-03
-5.815224688061983171e-03
5.699623184747048621e-04
4.354713290755497443e-03
3.716202805702673462e-03
6.605694197842714279e-04
-2.643995690095451382e-03
-3.872519493865818081e-03
-2.433257017856078354e-04
3.542594505999428593e-03
8.725485233622360878e-03
9.209411343746060075e-03
4.074268045521593253e-03
-5.473944890344087204e-03
-7.249138759673021126e-03
-4.325377272130629704e-03
-2.519878733615272832e-03
-1.539139337701111131e-03
-2.148349306225917806e-03
6.955642134665913781e-04
1.668578641023967402e-03
3.693085741816883993e-03
1.302893261745808034e-03
1.870170231405455120e-05
-3.491462525672112040e-03
-4.325344871747114663e-03
-9.458145649110297464e-04
2.375447415571497502e-03
5.779733139950692100e-03
8.175081666613738876e-03
6.627049998539245521e-03
-2.570210369099156910e-03
-8.783140518128146335e-03
-4.428185127017409024e-03
2.063919720498430446e-03
1.664409422029039694e-03
-2.432638937057262068e-03
-6.405231223145479470e-03
-7.329489152915121333e-03
1.701055990114152486e-03
9.293769049116830730e-03
2.383890417155827297e-03
-3.406075998490571636e-03
-3.292020592353386062e-03
1.549910014751960767e-03
8.252169332038135005e-03
6.913013125335694051e-03
-1.246104463542645289e-03
-4.794883605494223988e-03
-2.080541886207789865e-03
-1.376829461891502897e-03
-2.722207993084005146e-03
-3.576110133970523226e-04
2.780843957007222023e-03
2.236016475661547001e-03
-1.863355998505459546e-04
-3.587814141757033563e-03
-3.856743865802308904e-03
1.906835490779803903e-03
4.556721594582638021e-03
4.467486638480279394e-04
-3.535770803908006715e-03
-3.247572423843372077e-03
-1.259471439158634225e-03
-1.366258705002048246e-03
-6.553277473833248610e-04
3.471315963931684463e-03
5.665460840483657265e-03
6.364770311951954349e-03
6.911027271911032895e-03
2.992032433242788805e-03
-2.078164496311659271e-03
-7.881565922433787438e-03
-1.109159317492544941e-02
-8.062060283675681269e-03
-1.843556328468408823e-03
2.088776917460495684e-03
4.098899520408621393e-04
-1.651502668558852815e-03
5.256037577127469808e-03
1.079715443663723136e-02
8.596284086076537434e-03
2.949104766687536943e-03
-1.800652594689632199e-04
-3.531898033937289506e-03
-6.951586002567777638e-03
-8.758057102342885550e-03
-6.351129322400127925e-03
-6.350968106054736195e-04
3.675492867333423220e-03
2.783638340923621970e-03
-1.005711631952906299e-03
2.999249226530273545e-03
6.102734346007454742e-03
2.801998374704732942e-03
3.994915723908991920e-04
-2.206108105151366808e-03
-1.744065940038530462e-04
8.005364272812069649e-04
5.810646771158575839e-05
-1.229153579702313252e-03
-2.798407093129513801e-03
-5.903932502156083832e-03
-4.617814223652346242e-03
1.047953698718912061e-03
4.072540985937587142e-03
4.462682295722174113e-03
3.147206391446699322e-03
1.822823198115836995e-03
3.868750512574759340e-03
1.987001154793692579e-03
-3.944359055129660098e-03
-1.007502669115776031e-02
-8.277375529750002556e-03
-6.436412834847727920e-04
1.579322275164684198e-03
1.179220328403916829e-03
3.529437459564419358e-03
7.429339231402838813e-03
7.084824808171379627e-03
3.398833348959538325e-03
1.073635703027515844e-03
-2.354759992296309680e-04
-4.999170862613130061e-03
-6.854243694651256970e-03
-5.840187051229249297e-03
-2.291147563340509546e-03
1.183000926259719556e-03
1.680732908502638239e-03
-1.779108577511859246e-04
-1.016622605836534814e-04
7.128624390528684766e-04
6.123255450199528238e-04
2.365311673555997151e-03
7.990312642622458350e-04
-4.188382304239453768e-04
6.895740993375251661e-04
1.512735824000663136e-03
3.438082025214827912e-04
2.639051318160597157e-03
7.135930112667246590e-03
4.637134189665218648e-03
-5.351883917892976891e-03
-1.019233834204067227e-02
-8.979295857449632115e-03
-6.435401305003566122e-03
-2.229542676502986164e-03
5.205964269758616043e-03
9.057752163810701626e-03
7.400898625486530998e-03
1.972644687445374457e-03
-2.747784150925432819e-03
-3.357238393684230850e-03
-3.634328810181164382e-03
-1.418160394364378300e-03
2.540872825504149422e-03
2.139491575238671676e-03
1.028154062877272923e-03
2.236297620248268048e-03
4.970138079770303891e-03
1.716550887284896227e-03
-3.900416450656772616e-03
-4.897578079373180425e-03
-4.661994569992513292e-03
-4.894099531375126037e-03
-1.792155766501082360e-03
1.892425532667590688e-03
2.498494589888462705e-03
1.250265870041310234e-03
3.033206600921232142e-03
3.726363562591790326e-03
2.560187181280556331e-03
7.428614250883041172e-04
1.614002425828325090e-03
8.814442880669964711e-04
-2.083964426336636349e-03
-5.007709924190492309e-03
-4.081682048801820763e-03
-9.809919386680049369e-04
-1.642492202662677175e-03
-2.380125207806979819e-03
-2.632519905716677053e-04
2.607387528478988074e-03
3.215435832343432020e-03
3.880924884752976183e-03
2.185998373939203581e-03
-1.245514501806153571e-03
-1.986292459624723009e-03
-1.723618477855546911e-03
2.728151477839300953e-03
4.018323117959820591e-03
3.183643031407977671e-03
-8.767728332474872309e-04
-6.057046443782419624e-03
-6.430519680075121210e-03
-1.402079042450260406e-03
1.241860672042096030e-03
3.186573386021501059e-03
2.465707742540199175e-03
-1.199750343621178682e-03
-2.283751305883861740e-03
-7.491518175947099083e-04
8.585252962214445739e-05
3.005435607312480998e-03
4.686466673248749527e-03
-3.137226903992477566e-05
-4.414593830121586564e-03
-4.333276603244972693e-03
-3.145163627054588674e-03
-5.579367635147181167e-04
2.486929012759646340e-03
6.254999582557092645e-03
5.963189348615830464e-03
4.141291160425687561e-03
5.648776248522473968e-04
-2.703902992316512596e-03
-1.004577698261889702e-03
-3.465631570795665124e-04
-3.212140897489865025e-03
-7.788653502559552549e-03
-8.118483004490143623e-03
-3.407082772887443361e-03
2.431699086958111992e-03
3.363977813184403261e-03
4.045868441662247780e-03
1.962750939344342412e-03
4.664246414777615396e-03
4.123385305656125654e-03
9.939896040234538939e-04
1.099276785865724217e-03
-4.370287215526832752e-04
-3.624728147179224341e-03
-3.909132448164805672e-03
-5.596280613976363809e-04
-1.753789333461475619e-04
-2.023022682496299898e-04
5.414775370584445436e-04
1.257979369248135755e-03
1.460556534645945145e-03
2.130788525950182491e-04
9.911605464643511365e-05
5.096942955530114156e-04
2.385069552401529111e-04
-1.601942777311666285e-03
-1.155509963940006468e-03
-2.641077128075592154e-03
-3.706672180407795305e-03
-2.299846877196130325e-03
-1.555708793536702324e-03
1.793542179738940494e-03
4.136793841757658088e-03
4.438058692157534346e-03
2.705205982143930443e-03
-1.081883591766067635e-03
-1.785017666960902159e-03
8.219724787523291455e-04
2.666129763926371101e-03
8.730183158507316731e-04
4.868431496361705748e-04
1.349913758737245019e-04
1.955283359305753487e-03
2.755727604072557516e-03
2.569589598021951131e-03
-1.285728949027671424e-03
-5.044734103720037270e-03
-7.489898467738966524e-03
-5.828192682813840460e-03
-4.999201036566752222e-03
-6.235572708850628358e-03
-1.731186849129686279e-03
2.305798228185330836e-03
5.474733727576686255e-03
1.057303214129481396e-02
8.475351788791990817e-03
-2.112440973674635644e-04
-6.224465296474200431e-03
-4.927375385033501073e-03
2.469020485020747679e-03
8.907225531971660684e-03
7.286259022631924771e-03
2.829112593452212665e-03
7.339086390665228122e-04
-8.320759895620741470e-04
-3.851725877194252853e-03
-7.544989044681506100e-03
-5.610236932534241015e-03
-3.152764639896536106e-03
-7.067385321137497484e-03
-1.154319733048560399e-02
-6.919326561496652074e-03
1.078898215581587747e-03
9.332009402480582333e-03
1.273414065476724533e-02
1.196132556701616501e-02
8.120318715244651334e-03
1.521904271071003890e-03
-1.300806249339609994e-03
2.048100287893760878e-04
4.665108941290117741e-04
4.628532390234461587e-04
-2.793323445919565929e-03
-9.071545971026396746e-03
-1.064131782737008820e-02
-6.913706402333475928e-03
-1.539284512806921631e-03
2.015585290016829855e-03
3.362793999025531343e-03
2.743124807969552371e-03
-5.142747354768071721e-05
7.210646445952414345e-04
2.399871279991829236e-03
4.289760865523619890e-03
3.382931208803300217e-03
5.037297863153495335e-03
4.971291674046013527e-03
5.585245832072203856e-04
-2.910376324270685065e-03
-3.054010671639324249e-03
-1.307538210547831790e-03
-3.525303323747041792e-03
-7.462438024852936606e-03
-1.009527711071026533e-02
-7.162698338569005625e-03
1.949001590041693575e-03
8.250708167275619398e-03
1.069236631224198056e-02
1.081690748649744016e-02
5.279576216027441829e-03
1.410522415955667037e-03
-6.367725328382129726e-04
-5.746147012418531541e-03
-1.345896048056447608e-02
-1.385108702085076533e-02
-6.452549256112415262e-03
6.159995316326559271e-03
1.393486675711405436e-02
1.139536126444134351e-02
1.755454127383271074e-03
-4.608862180910766430e-03
-4.808956837388992864e-03
-1.306614690353035150e-03
1.292183253019111872e-03
3.869219279088239195e-03
1.047736599115073157e-03
-2.477471722145793438e-03
-3.991310586937476569e-03
-1.534768724595464949e-03
2.740458575815208752e-03
7.424053320899164565e-04
-2.029321782649696083e-03
-3.115911980683375507e-03
-1.574600081414037622e-03
1.714263671912135897e-03
4.655075579498341512e-03
2.255711681464750169e-03
-1.168230806039333505e-03
-3.134903781619015253e-03
-2.693290901688895952e-03
-1.035570381753628689e-03
2.010621534643637284e-03
4.166049261737406716e-03
1.614551627111582375e-03
7.523256440571086208e-04
6.413789086050980179e-04
7.936039583085886633e-04
-9.625207070586413657e-04
-2.527552240389648475e-03
4.888578824882814375e-04
1.343556669480540540e-03
-1.205304078078905461e-03
-2.591251580689178744e-03
-2.967343518222635701e-03
-1.255848232811583327e-03
-3.847774536654843380e-03
-3.396501876069320074e-03
7.310832107436132004e-04
6.111890816107455084e-03
7.262162122966982040e-03
7.230904256847835339e-03
3.255347601855382387e-03
-1.488746826969016262e-03
-4.597759752117060346e-03
-3.214796515819334961e-03
-2.874442912452330329e-03
-7.130084792954606348e-04
-4.179808998457482409e-04
-1.391465640981809880e-03
-7.325255541763012407e-04
-1.782333332397917228e-03
-3.292094658126833596e-03
-6.466339738436264811e-04
3.450700668464413718e-03
2.025673545217811840e-03
3.818295768889593250e-03
6.119156403127606544e-03
3.770403513263865299e-03
-9.162410539187776847e-04
-5.329975936057179502e-03
-4.575320294546350759e-03
-3.371900157458494317e-03
-2.320024912169095423e-03
1.162116529238558940e-04
2.115261041867163606e-03
2.158897442968097432e-03
7.089227207018566597e-04
-5.575394373709786433e-04
2.983056954939278683e-05
2.607828325641740105e-03
2.575270859086725098e-03
2.190380511592691839e-03
1.417011604124857483e-03
-3.599103913390928628e-03
-7.252810554404787863e-03
-6.226584900282252678e-03
1.579196453088349116e-03
7.281502675197479985e-03
3.832358509398780654e-03
-4.006077820083649458e-04
2.497243624825681331e-03
3.966898069514252813e-03
-1.796765612277644898e-03
-8.077815218158002422e-03
-6.166750418026090662e-03
-3.670968399751193233e-03
3.557960786447559838e-04
5.187505135783373501e-03
5.065448859901541638e-03
1.249097360820530800e-03
-1.231834914353400296e-04
4.487022663990431447e-03
4.725845166969938962e-03
-9.169825045671546561e-04
-8.311362659181718848e-03
-1.043203587506985434e-02
-4.834358564876368308e-03
3.446766121307886458e-03
6.473989977666458513e-03
1.125952074792622992e-02
9.705075978105033238e-03
1.185861659437929035e-03
-1.065147093619057787e-02
-1.346067679256762219e-02
-6.334619182440413138e-03
1.874909281336905719e-03
4.764239398043898163e-03
4.479832355375240084e-03
2.102839458610122978e-03
-1.285335156766452547e-03
4.302337910990920765e-04
2.222274614315111144e-03
3.026959958323356074e-03
2.082069727534887563e-03
-1.529789481535440577e-03
-3.691772826598450560e-03
-3.033337913294272773e-03
-3.370677146019713990e-03
-1.652172327251589905e-03
-1.387089786037719926e-03
3.224482572199855726e-04
4.691718346150969103e-03
3.316106952943991600e-03
-1.231806195049272527e-03
-7.441862192284577409e-04
2.142432458001596821e-03
4.629537963593072930e-03
1.775637228079530354e-03
-1.597930524789098038e-03
-1.277931685296180859e-03
2.073998065615529143e-03
2.469393142295007223e-03
-2.628252076335178605e-04
-6.575708594603882177e-03
-1.033550357292252649e-02
-9.655571095136903509e-03
-3.389988736634762332e-03
5.350916698103759528e-03
1.102343935750900623e-02
8.998331021298343335e-03
4.350392702098150469e-04
-2.994959862941995368e-03
-3.221644026745951444e-03
2.074148194439143222e-03
5.117522528821216200e-03
6.047043325431089404e-03
4.221256489300159037e-03
-1.165374805008819424e-03
-9.855285593754063364e-03
-1.090838549100930401e-02
-3.906617916651347090e-03
2.861013191091671274e-04
8.866200979502754593e-04
-1.201735663899105829e-03
-7.988668052130414986e-04
4.375883604910309893e-03
6.832736213416877764e-03
5.024438802265519637e-03
1.971089700253690190e-03
5.301785136957610231e-04
6.524581279999743010e-04
-1.224113878844505614e-03
-2.555825470742841259e-03
-7.907427303139325783e-04
8.386417448595896934e-04
-2.712598973038592501e-03
-5.023542787383530536e-03
-4.228047196887758236e-03
-2.253057386649901482e-03
-1.923101666866909544e-03
-7.100228051779664418e-04
3.003491099068516471e-03
5.185498204729101050e-03
3.623637078143843691e-03
2.648523894725657128e-03
2.752825254694433923e-03
5.886018371373081615e-04
-2.335462388304922025e-03
-1.788393891144219715e-03
1.840859613604397789e-04
-1.577190866448512996e-04
1.829412638116102371e-03
2.698931709019956795e-03
2.823620726730870136e-03
-3.108994047284382696e-04
1.079094220161130272e-04
-2.204819376520855082e-03
-7.706076328123688014e-03
-1.117570210699471780e-02
-7.363467379785524486e-03
6.137767870901478457e-04
7.062420750042895656e-03
6.143206406550399262e-03
3.456687677527593445e-03
6.211258248892817047e-04
2.587619622892068424e-03
3.290142839883866688e-03
1.510757552197755562e-03
-1.562842900014695200e-03
-3.403749942355358427e-03
1.089651658424362849e-05
4.898267039369607820e-03
4.255417266274080963e-03
3.808287400895185256e-04
-1.506540616006895672e-04
8.581377036799340110e-04
-2.490475091434667370e-03
-7.515209345702589076e-03
-7.679373922617381554e-03
-2.505626646114042424e-03
1.050414472988706310e-03
-7.228849551362435608e-04
-2.655181117342295550e-03
-3.369588572921068410e-03
-2.701353927645184713e-03
1.035046526729214034e-03
3.403024035386352422e-03
9.853704029957197769e-03
1.588066250534747939e-02
1.220345549333448458e-02
4.299593683308395968e-03
-3.000972246281263366e-03
-1.038871334225719041e-02
-1.734849830442682095e-02
-1.192408131206371472e-02
4.528958984371238847e-04
5.056951735101605956e-03
2.744023539625688700e-03
1.863445316030149347e-04
1.631129686375919902e-03
9.632006809409759084e-04
-1.055964138204918811e-03
-1.486244619573184053e-04
2.015623706868048277e-03
5.904501422628913136e-03
3.898078482164412262e-03
1.955768694370598436e-03
-1.440244923707577687e-03
-5.670739900052206538e-03
-7.978169175517649259e-03
-8.806616105751155846e-03
-2.647102820377761085e-03
5.175851672011982062e-03
1.147145715018074372e-02
9.686790427522132957e-03
2.264768467601809606e-03
-3.475641949006417087e-03
-2.966930375927720812e-03
-6.459457453396606329e-04
-9.474996208177321588e-04
-3.265567705559402172e-03
-5.613001706913142014e-03
-5.993922358590779084e-03
-1.489054731489299326e-03
3.349377108417137417e-03
3.970639626671647500e-03
2.077273896390932108e-03
2.416803521256847501e-03
5.302134907007734557e-03
6.305283078584311002e-03
2.209128138641961933e-03
-1.818326506787564054e-03
-5.800372705619594692e-03
-8.538582831868896106e-03
-5.930591120075871803e-03
-1.954075865279931903e-03
-1.189431015952188263e-03
3.538663860428524922e-03
8.881089560527632987e-03
7.980708604391796579e-03
2.677276586967780505e-03
-3.360150263391269414e-03
-6.922203703913271458e-03
-4.495933928024446052e-03
-3.403555467552352252e-03
-3.187243635752993413e-03
-1.881532993181516842e-04
4.669593229343967956e-03
6.182028497847650260e-03
5.087370214180727754e-03
3.335817519728847668e-03
1.192183403092134629e-03
-1.997594081825461009e-03
-2.460954442596341961e-03
-6.906586828449816492e-04
6.968354117431108845e-04
-2.271246562466517141e-03
-7.902142840176042474e-03
-8.531749264303740282e-03
-2.123201431616744423e-03
3.913977889703186032e-03
4.619184917949894185e-03
3.423885305841222783e-03
-2.159452986032062280e-04
-1.366490473388941914e-03
2.443793598148624475e-03
6.337930456047160405e-03
5.108519923528429679e-03
1.306666838912734149e-03
-3.993041937260295325e-04
6.794354622297468175e-04
3.451295022774081506e-04
-2.848012319482605328e-03
-4.685793736423833102e-03
-2.915909216664743821e-03
-3.041027935479517167e-03
-6.719834785515316038e-03
-6.274969392268761777e-03
-2.397734998611377073e-03
1.337548847127188745e-03
4.872586637227382771e-03
7.839880675972006260e-03
7.569117398532008816e-03
4.114477813258206503e-03
9.677760741429750155e-05
-1.434823975278361544e-03
-8.165057802200198066e-04
2.174460723551173858e-04
6.763611059318216890e-04
-1.378724338113778087e-04
-2.165786489422271647e-03
-3.820228370388043752e-03
-3.353190715188826814e-03
-2.817860520283366893e-03
6.325669786068369377e-04
3.913185042049709648e-03
5.789918425168555545e-03
-4.453220761495797547e-04
-6.376851249393290094e-03
-6.625638134982522222e-03
-5.108855206890479395e-03
1.892942632198791469e-03
8.946016624827673319e-03
7.409201535063447350e-03
5.357547416821279796e-04
2.662041962074743412e-04
2.508195075756290953e-03
-1.978222506575482700e-04
-2.349384458891070043e-03
-2.110954843636629261e-03
-1.005414283882302478e-03
-2.843042238758503905e-03
-5.022045365846201578e-03
-4.478802240882370951e-03
1.752073186369690555e-04
4.379048059743234633e-03
6.012065201959353351e-03
5.086092867925268504e-03
4.964188480850958464e-03
-3.050829952320402568e-04
-6.456285057879610802e-03
-7.856476373370564759e-03
-2.234732285707016763e-03
-1.058031985482634375e-03
-3.286935675551027822e-03
-1.328041654996870834e-03
5.383944527055698447e-03
9.622076934656472250e-03
9.489960377769566038e-03
3.541343726420342463e-03
8.558375170704849788e-04
1.667403719488212742e-03
-2.779744066895531007e-03
-1.130177278459577883e-02
-1.459939352554673157e-02
-8.834332315070045002e-03
-2.038214045382031030e-03
4.193522255750168314e-03
7.521917937738661387e-03
4.548964107941485570e-03
2.555825768983055035e-03
1.487181952328978009e-03
3.514470440325372308e-04
7.243008461652601345e-04
2.320479208482856704e-03
4.366888832190443485e-03
5.147659003171595540e-03
5.519304712876937219e-03
3.120426609280385621e-03
-6.245353159648313161e-03
-1.135690302351268638e-02
-1.059100492413742219e-02
-6.117545473590994820e-03
-2.523320730419628764e-03
1.274128102956006373e-03
3.171952623918090821e-03
1.842355032354600283e-03
1.149545937362010141e-03
4.496067288276133292e-03
9.628238127577008754e-03
1.061554838142986755e-02
4.410611762509147014e-03
-3.045642528950855219e-03
-7.501021708648630305e-03
-1.249023571457775518e-02
-1.025627299846076403e-02
-6.676586577075283154e-04
3.289818700454896685e-03
4.809261171081988424e-03
2.355901369737118615e-03
1.108411484888515743e-03
2.275282058661582969e-03
3.245897820514140764e-03
5.982694622173765839e-03
3.136944399534364811e-03
-3.332931343745502897e-03
-7.651095193465473794e-03
-8.918274224450415191e-03
-4.395079670448957289e-03
3.938221700555927067e-03
5.414498960271089435e-03
5.245402445985931049e-03
3.767922310489111356e-03
1.173161647153112171e-03
-3.715578875687820196e-03
-6.272314790936475357e-03
-4.767390910499638181e-03
-9.801467145874910580e-04
8.658338226013138775e-04
-1.171366652416343463e-03
2.622079080498211320e-04
3.348524384131341177e-03
3.349758697458919167e-03
2.676714962426605168e-03
5.853160184398333021e-03
5.937733940862812733e-03
-3.721983387459438988e-03
-5.831273921702174318e-03
1.950514326217352590e-03
9.766056450600949304e-03
2.435946648939960827e-03
-1.169367579632190485e-02
-1.356188698064148164e-02
-6.043141881502517819e-03
-1.893104353114264445e-03
-5.598888202672608295e-04
-1.010047466996065544e-03
-5.195124862516051385e-04
1.956143657515098389e-03
6.836366523523854447e-03
9.020821490778247950e-03
8.408945516040202892e-03
6.690753577850975208e-03
3.379522776473788733e-03
-6.358868480545209253e-05
-9.836990092276912991e-04
-2.844908715525288050e-03
-8.503836748325560232e-03
-1.104240646396341397e-02
-8.559164163906328796e-03
-9.586113445847801442e-04
2.879600818930256895e-03
4.020338806359578972e-03
2.635127470019065464e-03
1.047930041310048133e-03
-1.154518335257033283e-03
-3.314959177061117205e-03
5.604089405044477374e-04
5.622191042935997113e-03
5.024015895802113642e-03
3.653644844676653004e-03
5.621442640612060726e-03
6.176478740545960494e-03
2.393200163175827726e-03
-8.957810816385880850e-03
-1.522829753389592748e-02
-1.245301026848467593e-02
-3.362707466409101380e-03
3.226172590036068422e-03
5.225598935755856184e-03
6.202163557371198795e-03
5.757314842064095890e-03
3.945900330942948842e-03
2.027048231997976646e-04
-3.304346032032264100e-03
-3.049574931044079715e-03
-1.169328511754555693e-03
1.840732575080829833e-04
9.796654601913067258e-04
1.783785288681193721e-03
2.847140221481810497e-03
2.582349146839318325e-03
1.230264089031927240e-03
-1.729214773779531953e-03
-2.994485687855727527e-03
-2.761784335871940704e-03
-3.653317610957680390e-03
-2.017431733409320773e-03
-4.402194801409298848e-04
9.508352067247606001e-04
1.279817878591169586e-03
7.495928408185579964e-04
1.400202004340748594e-03
8.479591454358185705e-04
-2.531269826149760635e-03
-2.587370825561995796e-03
1.172509554373935611e-03
2.970634407840685044e-03
5.252634214854810975e-03
3.580826360662095302e-03
1.131238227887123356e-03
-1.984709686172049167e-03
-3.528008454299784002e-03
-1.873597124516309005e-03
6.379648137400875533e-04
6.045900103028705461e-04
-7.874058977616996439e-04
-5.067274987684890772e-04
-9.993898186979773002e-04
-3.321745839042015199e-03
-4.547523657522413616e-03
-2.500670799115943966e-03
1.493992837008956912e-03
4.131513221934370907e-03
4.088495276131720070e-03
3.393292069871924445e-04
1.154527884869926708e-03
2.582914913364621739e-03
1.572921843942986370e-03
-5.970979075530056124e-05
-5.127984715586532015e-04
-5.885492830571888590e-04
-3.326357187576431005e-04
-1.929021928070002523e-03
-6.930078539416167872e-04
-3.262153794193022168e-04
-2.995346794034266149e-03
-2.463684785116050571e-03
1.719200788431914963e-03
3.149266772584914404e-03
2.299966812175532633e-03
-3.457831306890901983e-04
-4.755408265028169580e-03
-6.161126184872644379e-03
-1.166304262861902336e-03
4.621993968538342865e-03
8.186553732666411107e-03
6.198266283385306559e-03
2.033714049415665404e-03
-1.243937175462776334e-03
-5.919181334593113554e-03
-6.347225621354722624e-03
-4.974039220727138368e-03
-1.806881287064617935e-03
2.076007970730324188e-03
4.219113932652277486e-03
1.551001103975836607e-03
9.114548247017537378e-04
5.876646527014777214e-04
1.606193303860008019e-03
4.072699834985868579e-03
5.496735301744237225e-03
3.085148499724691545e-03
-1.216941151492898117e-03
-6.213398244473635097e-03
-7.331895253435980267e-03
-6.538508198977991369e-03
-5.470276959790204389e-03
-3.911521208201654103e-03
3.533867920757373772e-04
3.292340752631215534e-03
3.923911793654483691e-03
4.612889157072876632e-03
5.416065294164191558e-03
5.296812149374827312e-03
5.631623385087121576e-03
3.496777908720894931e-03
-3.931841141155567208e-04
-3.204687474492857666e-03
-4.706985847790876899e-03
-5.127140034770526385e-03
-4.226552980843642157e-03
-6.025178851259424019e-03
-5.522977166169546100e-03
-1.058982448008972347e-03
4.771123949554161373e-03
6.484372580558456743e-03
3.029911260099534074e-03
2.361999720670548888e-03
2.515480214585693458e-03
3.963259674412428039e-03
6.130957822205138638e-04
-3.101684197678801231e-03
-6.411044329177793821e-03
-4.576721477584573192e-03
4.284433621732733908e-04
3.431140225291333390e-03
2.924358055652246432e-03
1.524809234811060153e-03
-1.352073885800568389e-03
-1.863877482891602034e-03
-3.492014358554520592e-03
-5.447132319029078691e-03
-2.366655656802728151e-03
2.406838717808753528e-03
5.672377979061954054e-03
6.504030663715971126e-03
4.723534181646153567e-03
2.273987850545008439e-03
-7.449079375271239157e-04
-1.952555331450986581e-03
-3.243018749682510804e-03
-2.386487360508459960e-03
-2.636454134554738326e-03
-1.738569316362276792e-03
2.906816207305856293e-04
7.077682346643858003e-04
-7.701280051241156735e-04
-2.424795686656002012e-03
-3.439599711021484093e-03
-1.767978303952099728e-03
1.740997964621926160e-03
1.658013455826943747e-03
3.531533472542021466e-03
7.098154902371626822e-03
7.347383566368911705e-03
1.355650357050318475e-05
-6.826554670879033185e-03
-4.042527391256506980e-03
2.429949170006286000e-04
-5.731922223699284979e-04
-1.500066991369703112e-03
-1.207720529224326055e-03
-9.564684009354781002e-04
7.458088940706840636e-04
3.109746272579217482e-03
1.844832754506173277e-03
-9.215940064925563563e-04
4.571147680207034592e-04
2.635185139152290343e-03
2.124703351335481029e-03
-3.789184702331194199e-03
-9.877797758689722818e-03
-7.701491170967886095e-03
-1.787779503743699722e-03
4.096378116217073637e-03
6.175624121801982780e-03
6.763893910178084799e-03
5.867614891859178686e-03
3.014631022767713751e-03
1.527410801212530228e-03
1.965402286305283509e-03
1.062965602956385041e-03
-1.854316532485938539e-03
-6.692590059657639069e-03
-9.225416523130358648e-03
-6.886620362979993699e-03
-2.582269939918174859e-03
6.494460087558096917e-04
2.381385222818277903e-03
2.197803124966996296e-03
2.281475721902395757e-03
1.913532899254501932e-03
3.265641658574176646e-03
4.071260397634318857e-03
2.658693511495802912e-03
4.359906171028687071e-03
4.728435216917534732e-03
1.598515652729727045e-03
-4.145903456013714898e-03
-1.115873545743652911e-02
-1.564262614867438506e-02
-1.073525471424395354e-02
2.504802217586989208e-03
1.433278732717159845e-02
1.394296048111712781e-02
6.096103914863487336e-03
1.655481110529031987e-03
-2.098909868992142932e-03
-8.042963187073957215e-03
-1.035794139471673224e-02
-5.669149460996101599e-03
3.920871618239152182e-04
5.240985331518899226e-03
5.064123695876316875e-03
2.751195233086079633e-03
2.399741984198709883e-03
1.837572234633987360e-03
5.581555432267634427e-04
-1.497699389717579510e-03
-2.564902717702338946e-03
-1.948758359028838431e-03
-1.726645265575850767e-04
2.400083442887835684e-03
4.960619794155385863e-03
4.427742084932033764e-03
-1.954398623362301433e-03
-8.984183840798756759e-03
-1.021526207176128541e-02
-6.807790370643045097e-03
-2.954679574592025421e-03
3.572310075576715874e-03
7.223420143128825993e-03
5.800657684428830313e-03
7.010692490973986953e-03
4.197047815755315485e-03
2.276589932613843226e-03
1.259744047993624407e-03
9.833281291518961020e-04
-3.309671142956337447e-03
-6.925938457768845806e-03
-5.328627721837527094e-03
-6.932499250581484118e-04
-1.903879976569970538e-03
-4.867490986941489829e-03
-2.432284524940664990e-03
3.403562503759379864e-03
8.508245071363908923e-03
7.071226822854261192e-03
2.985292479208316108e-04
-2.825332856335247781e-03
-1.711303579841477740e-03
1.081762930007440038e-04
7.797279564573565908e-04
8.944898474131868704e-04
-1.087059350489884540e-03
-1.813967727071108278e-03
-2.656437809938131094e-03
-1.007882525187941188e-03
-2.797891802730356411e-03
-3.115600463077977927e-03
5.421059195601801457e-05
2.012380060415887382e-03
2.479910838520511807e-03
4.983559667166566169e-03
4.645719772820717554e-03
1.915738704996177919e-03
-4.816878376979783242e-04
-4.105985088964723105e-03
-4.726810516883748169e-03
-1.628078662258135734e-03
1.633205866704781715e-03
2.724213429616433209e-03
4.965385089266914284e-03
4.822281985877588210e-03
7.597378146855234904e-04
-9.560019093153405241e-04
-4.870031884919850430e-03
-1.214680934424822341e-02
-1.248427048893677518e-02
-7.311730254091722281e-03
-9.477162201617601650e-04
6.408435527162453099e-03
1.530780304929617482e-02
1.498641437021309454e-02
9.297023045811442926e-03
-5.371683804743626047e-04
-6.155900569498813299e-03
-1.669577348325215239e-03
3.684401721055916273e-03
4.764418480417891098e-05
-6.416740984056958086e-03
-1.213052444650364152e-02
-1.014237979625736037e-02
-4.619930889066431977e-03
-1.587031026163557897e-05
4.879775626064236302e-03
6.710762561160364160e-03
9.297557298921264174e-03
7.304753905748730992e-03
2.716723631331384187e-03
-1.877649135587702422e-03
-1.605487793718952168e-03
-3.039980267385257017e-03
-3.749768163992796017e-03
-9.925437837204104281e-04
-2.698144692265857028e-03
-3.815401413464504770e-03
1.328800794419081940e-03
2.091331212142710175e-03
-4.132498754736612040e-04
-1.097879131041757045e-03
-1.740530970580619246e-03
7.610197951550497003e-04
2.636039559704214143e-03
2.087585847609307269e-03
1.731529205444514146e-03
2.491978905240732796e-03
4.669885225534119513e-03
2.909691023888029849e-03
-1.132478360076754568e-03
-4.430320755978712534e-03
-6.855459004404779004e-03
-6.291014848296729890e-03
-3.512309543816428004e-03
-8.133858347627052681e-04
1.500822674255779428e-03
4.806252210402063400e-03
6.052573316204712915e-03
5.084135508396645138e-03
9.756795721447116205e-04
-2.169991950488508667e-03
-4.091538132182944527e-04
1.957731174879981904e-03
-1.812898308441118636e-03
-5.340825013343291315e-03
-2.547227703216471597e-03
-1.080641544982811290e-03
-1.716869437706172730e-03
4.199654123672095065e-04
1.665545069224316213e-03
3.851790014751173708e-03
2.403374106649747415e-03
-3.882984282280584022e-04
6.672061517140676816e-04
1.757933098874084419e-03
2.888135287582659517e-03
8.610075433106713057e-04
-2.326972160345335602e-03
-5.740375525259677585e-03
-5.078806664051965271e-03
-1.374788939500297055e-03
-1.606186247563395246e-03
-4.967076141196980280e-03
-3.330675926419814515e-03
2.723043216393277507e-03
9.700028258860564356e-03
1.301890461023298695e-02
9.298042863650862050e-03
4.596933742652705920e-03
-4.194368282122918311e-03
-6.306447956430468425e-03
-4.699425708662619168e-03
-5.219922519320924041e-03
-9.269387869614016673e-03
-1.090056488144235634e-02
-4.904065355327172186e-03
5.253838049874118114e-03
1.001887771338061568e-02
6.558037012098596498e-03
2.260673653001183444e-03
1.608661616525676376e-03
4.340016673110341262e-03
2.241566506798598705e-03
-1.167928357004857903e-03
-4.827283336089264847e-03
-5.247640665008906045e-03
-2.765563997834656878e-03
1.384127470389096568e-04
2.351935934684158073e-03
1.996852933446662762e-03
2.077027838013279382e-03
2.393299642194974056e-03
2.139790538556452393e-03
-1.314317189807508212e-03
-5.098146408841189650e-03
-6.025147708171922807e-03
-3.186001129610057433e-03
2.356499798984951297e-03
5.124848583291278549e-03
2.549050841063149001e-03
6.100794537465481721e-04
-8.107203104232178553e-04
-1.829888496593255450e-03
-5.795490453155748099e-04
3.587285797619465654e-03
3.382220101702808953e-03
9.761579352791555130e-04
-1.919047934277981916e-03
-5.118888885476136248e-03
-5.236572168146376265e-03
-3.008656458538452611e-03
-7.035324772732739476e-04
-1.667115681007908749e-03
-1.171578694285558241e-03
4.425549962961514323e-03
9.438918582064987489e-03
9.535867993782512833e-03
7.689640520224157345e-03
3.351256466080814508e-03
-3.421890202808250143e-03
-5.088691072955469144e-03
-2.787095770596422894e-03
-3.271915307832998481e-03
-8.683804093120433068e-03
-1.563033384474811840e-02
-1.625592256041772515e-02
-8.320004332210880968e-03
7.232021730892102852e-03
1.999701069008085613e-02
2.062623857689165757e-02
1.317084583113329287e-02
3.170472435523309391e-03
9.108709748237872692e-05
-2.966969928669884338e-03
-8.357649701075872684e-03
-1.174346256306986643e-02
-9.409441098570623177e-03
-1.763261584506443155e-03
4.841285182923896376e-03
7.417714628961408728e-03
3.146413311697056001e-03
-2.687936442751089408e-03
-2.492446022723387999e-03
2.954633598056854819e-03
4.657802322944705649e-03
9.689296131845729883e-04
-3.786226643636688826e-03
-7.091340847508517155e-03
-6.106194302663337653e-03
-5.758693690364523853e-03
-1.814551718224514769e-03
6.509028965138943411e-04
6.469230004151825010e-03
1.038063823317846718e-02
9.233518523005284501e-03
3.505757546121706422e-03
6.607449075808092273e-04
-8.716116500462007871e-04
-3.449335511393670020e-03
-4.869978620215305830e-03
-3.549960297642340470e-03
-2.941262092035034584e-03
-2.979315287703550395e-03
-3.826787478223495206e-04
2.653072797140435934e-03
2.424481575529876393e-03
8.921891148269350076e-04
-1.949290726161764190e-03
-3.800892219623910363e-03
-6.159051967266865150e-05
2.282812901272432936e-03
1.440569148406893162e-03
-1.173656594386130944e-03
-2.712473883407313848e-05
9.472208676861576526e-04
-2.079105426972019085e-04
1.254209007211148398e-03
3.661000519622131105e-03
3.498694481291079149e-03
1.212460558948288752e-03
-1.638841163084076664e-04
-6.497390945361430003e-04
-2.703127447612993159e-03
-4.960665941865753312e-03
-5.286391981901979523e-03
-3.974725147640074778e-03
-3.939801327567711174e-04
3.654504200460427597e-03
4.848397164657286887e-03
2.765322884493595732e-03
2.167691628114238808e-03
-7.335344414192895629e-04
-3.632795176717403159e-03
-3.319358739161247518e-03
1.422924448267427408e-03
4.933015391798060804e-03
5.965245142367810345e-03
3.113705923265072065e-03
-2.743325461743629894e-03
-5.387882894263695301e-03
-5.618010900878126976e-03
-2.394270267578909109e-03
-1.616631774740252088e-04
2.137610317571432984e-03
2.366245180713770664e-03
6.835810344392575979e-04
-3.038834493763335797e-04
-1.801036271793608019e-03
-2.570675628956816880e-03
-1.225014632699838015e-03
1.177736509367577171e-03
2.046672516069344191e-03
3.970579490410186541e-03
7.393409174699150203e-03
5.427500375403290084e-03
-7.322220989161414830e-04
-7.755027732491343896e-03
-7.270428085958822312e-03
-1.732830352685534297e-03
1.380126309936994221e-03
4.029254847084927935e-04
-4.637955391801069048e-03
-5.007012177196704279e-03
2.240951074978985835e-03
8.610540159370693586e-03
3.926421482100705095e-03
-2.919465807761744639e-03
-4.876405933382898204e-03
-5.524777161624851119e-04
5.631171310586648333e-03
7.864968377682985540e-03
1.545930732690639110e-03
-3.597258218774690517e-03
-4.252378682217459842e-03
-7.724547320381627271e-04
1.455768013787441971e-03
-3.543738688858004979e-04
-1.960831265374805583e-03
-4.907767711335713802e-03
-2.791530786488772946e-03
2.564702166780842910e-03
1.719571087425148101e-03
1.937408951029270798e-04
-9.122444444871657043e-04
-1.107005721166730381e-03
1.471693696360606811e-03
4.102863320472980614e-03
2.684270002440887221e-03
1.039020759917195450e-03
5.395459212711334893e-04
5.665118713392586778e-04
-1.336509632382813046e-03
-2.899156351866576629e-03
-3.835488948749366141e-03
-1.264103773313328665e-03
-9.981155762140876686e-04
-1.064995188165022196e-03
2.800188474120062550e-03
4.184254299489258144e-03
2.169585492631787276e-03
-3.956527613443257176e-05
-1.067992579858191441e-03
-4.536129741868713018e-04
-1.727530910216339870e-04
-8.249349747744520603e-04
-3.311157285290164658e-03
-7.470898044863080170e-04
4.787832461404189057e-04
-2.511852058517569444e-03
-8.496190593914469723e-04
1.513380263954487758e-03
2.602130323398650115e-03
3.942600765078731369e-03
2.626099856015999198e-03
1.532807215413445508e-03
-8.901434384711350836e-04
-2.386264015704034781e-03
-1.006102504965319597e-03
1.539675555189758431e-03
4.944083995717664078e-04
-1.260110965512412258e-03
-2.661595016203772805e-03
-3.397784735836149872e-03
-2.075437723677164489e-03
-1.715101964041829347e-03
-1.412221318247288511e-04
4.004096762986692013e-04
1.019420114553055675e-03
1.292625875948210171e-03
1.242714729498773903e-03
1.792134299979805450e-03
3.540153795433828490e-03
6.610110753923354072e-03
5.310991622982186820e-03
6.541061011504854502e-04
-2.844854868473834474e-03
-3.719533132047663729e-03
-4.155611683814606529e-03
-5.406641960834719304e-03
-6.263790070563388448e-03
-5.343181783705992262e-03
-3.529044610471408511e-03
-2.299991486054645245e-03
3.740731176616631220e-03
1.083531570326135354e-02
1.064112116305280555e-02
6.703966267877422072e-03
2.552828195550623045e-03
-2.725516089805711788e-03
-6.244269426257302233e-03
-5.432138099165162611e-03
-3.673993323164362421e-03
