-9.571428014993972958e-03
-7.277542614320830008e-03
-2.632346737867724638e-03
-9.044702647038956218e-04
7.355950964280620619e-04
1.915648022662495408e-03
2.103142693001604571e-03
3.494217253957434492e-03
3.985013283185593821e-03
4.031066077757380212e-03
1.912405308991672794e-03
7.521993942653229168e-04
3.788344767936738418e-03
4.920190200542634215e-03
1.839532765970618806e-03
-9.048639982316700669e-04
-1.965212356077373785e-03
-2.112565828329059266e-03
-4.681665499843831908e-03
-7.320922722669848115e-03
-7.020272019158348663e-03
-5.907514064865894768e-03
-2.552288209717801497e-03
7.025817152053006644e-04
2.002997130446946498e-03
1.496196910915880470e-03
1.926490289636532526e-03
3.432887937543344526e-03
6.283009428917539496e-03
5.980498931497752954e-03
3.940264598938001371e-03
3.367036532375935771e-03
3.917912402671702363e-03
1.836226991092570961e-04
-1.974043547477242339e-03
-3.262261438143066340e-03
-1.635859798026240066e-03
-1.897524538006165485e-03
-5.005819231599458255e-03
-8.220161547127197849e-03
-8.454189805547343214e-03
-5.023371826339083530e-03
3.493136320877787866e-04
4.439279186839615796e-03
4.490921691238480666e-03
3.850124147619766145e-03
2.794197061791374535e-03
1.266952874258795141e-03
1.919968366426349094e-03
3.545441729739169136e-03
2.904462331325816625e-03
2.662463251073740253e-03
2.238780185866360174e-03
1.020153553348845466e-03
-1.018491666279737386e-03
5.144030890127087446e-04
2.504391882375929176e-04
-1.208158271180591412e-03
-3.837138043438881752e-03
-7.112087381805980504e-03
-8.628172258919104831e-03
-7.302990481978679713e-03
-3.989309815044733004e-03
-7.199543901642052775e-04
4.316127187926307660e-03
5.467894475117022167e-03
3.950282419530694311e-03
3.557216285061887921e-03
4.087996470347534349e-03
4.695469745314952842e-03
3.881317991816752005e-03
2.547659230923305946e-03
3.390884050261831848e-03
1.296799976166061567e-03
-2.304910889094090309e-03
-2.784509986393444471e-03
-1.911598895500864464e-03
-2.959531511368520499e-03
-5.049116707013433236e-03
-8.024279888132358068e-03
-7.108577197300860150e-03
-3.435579257072064827e-03
-1.156046757199845343e-03
1.096093101609275705e-03
4.544695096435776537e-03
4.457981479709705736e-03
2.798431055384434981e-03
1.800697603038927796e-03
1.672403339794747718e-03
5.165532197739417311e-03
8.570839566153924324e-03
6.146094908787621061e-03
9.567109337849412365e-04
6.149905749313620048e-04
-2.084552532255131829e-03
-4.276697913702930468e-03
-5.674453952655830399e-03
-6.571314346999030179e-03
-6.762092379293878353e-03
-7.215574625685046081e-03
-7.784756208056211463e-03
-3.854091813787929432e-03
2.054001437877251129e-03
6.218022063949809122e-03
7.364679883138670544e-03
8.333488267268334207e-03
7.519943371139946320e-03
5.581331263079475878e-03
4.212486763144183792e-03
4.339747612204212672e-05
-2.843258471857188722e-03
-4.042565502988498642e-03
-5.138776863066087629e-03
-4.201644362564217403e-03
-2.185494605336396525e-03
2.828036577767066746e-04
6.203924478650935277e-04
1.310200185772241420e-03
-1.543049605005066341e-03
-4.787538611397779663e-03
-6.621475249124521290e-03
-1.107223533158804927e-03
2.898899259414990711e-03
3.403433553222651262e-03
4.044526891500839841e-03
4.468869960022800285e-03
2.001565442123853875e-03
-1.645992536770892693e-03
-1.753079660423481146e-03
2.547245569042612141e-04
2.452940651975704569e-03
2.575106407566409624e-03
4.123187226772842204e-03
3.712203974206961920e-03
2.356280568419728751e-04
-2.222593397483034038e-03
-2.157729210774188191e-03
-2.158119329174137176e-03
-4.775169967170526074e-03
-5.192015133792429737e-03
-6.630846027641182014e-03
-6.773748583007409285e-03
-2.649861227717744717e-03
2.183684185674829217e-03
4.954915568012697481e-03
5.341817250270008283e-03
5.306666549843609693e-03
4.354101390114179654e-03
2.878913518434029085e-03
1.766655708084178156e-04
-2.179071462140137825e-04
1.078046951577940398e-03
2.656812157518373060e-03
8.010208754361517912e-04
-1.962616736198496189e-03
-2.103930102072721915e-04
1.265910233835785669e-03
-4.766593876492268914e-04
-4.083309756322367826e-03
-7.557238098570860652e-03
-8.257428047509196914e-03
-5.188548338829681618e-03
-8.370045227523684357e-04
2.024638773652067802e-03
4.140666512097304110e-03
4.571819314722877503e-03
4.191521796058698263e-03
-2.763386070435938820e-04
2.128781165181069344e-04
4.130297100386476697e-03
3.338855557696314424e-03
2.777963607044036613e-03
5.668636342106522265e-03
4.823978514172750851e-03
-1.621203248166697792e-03
-2.720036205938521339e-03
-3.384488815021634549e-03
-3.771487291978350368e-03
-5.831582123964730059e-03
-6.891288375145817810e-03
-7.124496153674235790e-03
-6.196603908382862166e-03
-6.463372151880229473e-05
3.143491817144359549e-03
1.884727212907188077e-03
3.627567468475961961e-03
6.374116279601721967e-03
5.055582054500705469e-03
3.271047514381770268e-03
1.836495529481871596e-03
1.376191077105748135e-03
2.018982159327117800e-03
3.251103092781299549e-03
2.704198120659024544e-03
1.337901180217008969e-04
-2.720541532066360086e-03
-3.953278401780721714e-03
-4.990523216166860634e-03
-5.087394908674866545e-03
-5.747137948697588622e-03
-6.904888804973172839e-03
-4.489447584493752585e-03
-8.071802880511734155e-04
3.228768076329051068e-03
4.421888399477299017e-03
4.296005003524930657e-03
3.435123471696376832e-03
2.233071260492414199e-03
3.478483446451451858e-03
4.871823406576998583e-03
1.618474582172616492e-03
1.842801406367532103e-03
3.250144918331315021e-03
2.445241413104228250e-03
-1.086131704663398107e-03
-2.520346395011968145e-03
-1.597853653352357666e-03
-2.913114398354649682e-03
-4.762715560953267174e-03
-6.154934337156697452e-03
-9.551409731672979436e-03
-8.355086531934976385e-03
-3.090104052446126636e-03
3.470895427772846976e-03
6.292683552973321950e-03
6.454028529161772235e-03
6.706652274611382691e-03
4.442044326344511337e-03
2.208985365651961515e-03
3.821841988733000288e-04
-5.518305985961120298e-04
6.167603242117668597e-04
2.926749596537813695e-03
3.101201467518309267e-03
3.034898721247220651e-03
1.566373468164569639e-03
-1.693710426589353432e-03
-4.977319015368339428e-03
-6.941754357781742234e-03
-9.408641555651761287e-03
-9.578604784201305566e-03
-5.373662360409030281e-03
1.304963101480144134e-04
4.643993451111283650e-03
4.510715591873623240e-03
2.474076452411069511e-03
-5.798860607800870696e-04
-2.970883771738655303e-04
3.808517358135527289e-03
9.415413625484224391e-03
1.001872111124645949e-02
8.208670679999740052e-03
7.898227638711072598e-03
3.200281350752651448e-03
-2.936972962910362490e-03
-8.319817560526212435e-03
-1.179122881332902301e-02
-1.137928645625327362e-02
-7.638447613162770156e-03
-6.540231355408925029e-03
-6.959848424246916493e-03
-2.971758451409047420e-03
4.201067472382638383e-04
2.674585596990212630e-03
4.639856965060982011e-03
7.462205460292307274e-03
9.665338049196803630e-03
7.590883024897198544e-03
5.914314851353774313e-03
4.516633759077233294e-03
1.842072465727634129e-03
-1.280559486518148809e-03
-1.015274397245969663e-03
-8.791959401744887589e-04
-2.569478696567345077e-03
-3.045832442846102290e-03
-2.753177804008270866e-03
-3.623505563817313539e-03
-5.250465034138289584e-03
-6.561861587193798355e-03
-8.870865089275606352e-03
-5.199727908560807660e-03
1.094405791696555653e-03
4.239535382178936940e-03
5.492379352363501582e-03
5.491087568310735675e-03
4.390508718892113804e-03
3.678749927881952517e-03
2.199814061321462687e-03
1.792541941938525802e-03
2.559255723140126636e-03
3.021942353437966945e-03
3.944425931772684718e-03
1.630168950858141555e-03
-1.687221354035010976e-03
-3.321063098564758318e-03
-1.640785439740873129e-03
-2.922853460184401866e-03
-5.926136150441402642e-03
-6.765573487513475322e-03
-7.909272452552023810e-03
-6.430378909097741146e-03
-5.726255074694386500e-04
4.288108867803211779e-03
5.396771669764323723e-03
2.756632352787379784e-03
2.013485639108625585e-03
3.913495540556362166e-03
5.055110537484163759e-03
3.832529406486707892e-03
2.415679055823272223e-03
9.524725506585090228e-04
1.693060882211484559e-03
1.473832232837599522e-04
-5.614009804165260523e-04
-1.434631652320886991e-03
-1.940483794590258833e-03
-1.986569722755852658e-03
-4.352107439661145188e-03
-6.899708391516448658e-03
-6.082180628961085869e-03
-3.352674104624816988e-03
-2.270791939969654932e-03
1.854741479970243103e-04
3.995230305063184571e-03
6.081017008741409699e-03
4.263912574301732816e-03
2.133604685322704284e-03
1.105554901052025873e-03
1.941107852947239823e-03
3.371832693350461634e-03
2.406892772709863428e-03
2.273204423497196969e-03
2.658418061244883796e-03
1.248800042392269813e-03
-1.069747118700586702e-03
-2.638637353961409329e-03
-4.675105562668863471e-03
-4.851781220734164776e-03
-4.153796604012835805e-03
-7.332507968720527666e-03
-7.035513452804784303e-03
-2.885134341847150549e-03
8.017464061487802884e-04
2.935693768662478789e-03
5.030024452478956340e-03
5.387786857671126271e-03
6.259981362458562695e-03
4.374514201405495933e-03
3.441672543754820037e-03
3.012728055553874542e-03
1.381160513185604021e-03
-5.966858080450217466e-04
-1.781224714717836652e-03
-8.907597664635793187e-04
6.117507557822105674e-04
-8.585610240707409330e-04
-2.452370968689309913e-03
-4.948067577247685853e-03
-7.710596835891200991e-03
-7.926728457371433334e-03
-5.032798654983811765e-03
1.937995853685923087e-04
3.334810514035771965e-03
4.557176422614630379e-03
4.478217662158072779e-03
4.456374319884636934e-03
2.458583370481959209e-03
1.594844577355221133e-03
4.987362342922124249e-04
3.878397072544635969e-05
1.030011972318779691e-03
2.865625892488612211e-03
3.525101578245131134e-03
1.720757844124150195e-03
2.687123143641366625e-04
3.054061566068835311e-04
1.151037908885644417e-03
2.009262373493241009e-05
-5.370499152734195883e-03
-9.313368954437475922e-03
-9.699977018168645659e-03
-6.492475839421852496e-03
-1.574348724985531831e-03
-1.329760421855899911e-04
1.229433904791705362e-03
1.966499459783178135e-03
2.604934559278346013e-03
5.947146213727949778e-03
6.831611346089984382e-03
4.174204007219689191e-03
2.028353867031883456e-03
3.629992910220507327e-03
5.296511696970019299e-03
4.062500694279373714e-03
1.811204899543268718e-03
-5.176418118761874941e-05
-3.786989440369311049e-03
-7.216815389150326235e-03
-1.027308642973854408e-02
-1.025520235532103794e-02
-7.165076953098631525e-03
-1.417703586620923471e-03
1.270465424656872736e-03
1.315732962095941989e-03
1.438329009330880813e-03
5.121822415266173711e-03
4.847913537421216605e-03
2.987221336621915645e-03
4.617124005965375123e-03
5.154962937746657148e-03
3.478116043024737699e-03
1.927022871178081954e-03
1.276029647938974098e-03
7.446836656805390104e-04
1.474037967067088229e-04
3.667231634402507053e-04
-1.819003473811225523e-03
-6.396797509463121936e-03
-8.581375946268916116e-03
-1.025093302683414802e-02
-7.584624332457398296e-03
-1.593452232842050304e-03
2.329802614778244980e-03
2.943867294944799238e-03
3.144056362659523179e-03
4.148433231650283139e-03
4.567380760837761941e-03
5.273764731143216512e-03
4.816100378405215390e-03
4.143841323300874457e-03
1.266470487779839098e-03
1.328366644700590318e-03
1.358068024655052341e-03
1.113062534239065695e-03
-1.637522225533869988e-03
-2.859620343866320618e-03
-3.532993892822498989e-03
-6.894177093487378026e-03
-8.968912449310473267e-03
-8.182598132249453704e-03
-4.752240374474507416e-03
1.137325473479284654e-03
4.134130808357191697e-03
4.996664292151297565e-03
5.085061676032390753e-03
3.142940828298427126e-03
2.456432038858954395e-03
3.978712142719072371e-03
3.731050607453100052e-03
2.262995528816922827e-03
2.366878074909331119e-03
2.218899954209541114e-03
8.838937558875248433e-04
-3.045291341856928066e-03
-3.803604648272506349e-03
-3.087951073081270006e-03
-2.109599852984025189e-03
-2.499316440884001306e-03
-4.468952397685256248e-03
-5.435557335768953155e-03
-4.141734746568946635e-03
-5.087673385693537893e-04
5.401642852851414175e-04
-1.014122691267931465e-03
3.102864273703382324e-04
4.801055002403782287e-03
6.012637656699618659e-03
5.861569838040029366e-03
4.700787404046074917e-03
3.452534407723186535e-03
1.625969935479356851e-03
5.270272715743335584e-04
5.212198454071942941e-04
7.405386257397709830e-04
3.179509252150018381e-04
-2.056165598922514871e-03
-4.916468464657014481e-03
-6.453190743640046384e-03
-7.556521468072041267e-03
-7.388903964041786121e-03
-3.997802368121856735e-03
-7.320747643544118881e-04
-3.032573254972777588e-04
3.133102941222858356e-03
5.344247604134995389e-03
3.904339963065296074e-03
2.756006660966428806e-03
3.498834068553297299e-03
3.550025715022463602e-03
2.395254643218723816e-03
3.268386634881341804e-03
5.070112982670600156e-03
2.988703786897321715e-03
4.178801745598355842e-04
-4.859181774434576107e-04
-3.295472488019992711e-06
1.152657669623920623e-03
-7.376265638470093540e-04
-8.263473772933406861e-03
-1.554698967579008599e-02
-1.571376168432800716e-02
-8.675992131208596497e-03
-5.305560543834397617e-04
2.986077422993465517e-03
5.632261492442103973e-03
8.735262348295476376e-03
7.505035174174378224e-03
5.508489798150880551e-03
5.955010837233961143e-03
5.582173471414620183e-03
5.484974433260385134e-03
5.473299233680159470e-03
3.165683036599327167e-03
7.180247918194577073e-04
-2.024406058048928373e-03
-5.827566776405167757e-03
-8.386450653731360866e-03
-8.732427564528832606e-03
-1.042462532802505143e-02
-1.040419526248884813e-02
-6.166160102724823830e-03
-1.916375577948061209e-04
4.006400160152243269e-03
5.374969788956581764e-03
6.370040857693348192e-03
5.917900202656636507e-03
5.349595349274496002e-03
5.641136772658124701e-03
4.965091455741581228e-03
3.418024321017224063e-03
2.262383407284668854e-03
2.256705608093963113e-03
1.593283191002620050e-04
-3.167936850846541762e-03
-5.336321420573808191e-03
-5.159493645505581517e-03
-4.316870526749756222e-03
-4.747808559843785976e-03
-5.440177768918370849e-03
-5.479964752157727090e-03
-2.527959318215426861e-03
1.534147203551346650e-04
1.928284701433967711e-03
4.010807843550179275e-03
3.956958744877001229e-03
4.652856864775979477e-03
2.858241148347674069e-03
3.387605698999038035e-03
3.235363964824276243e-03
1.950081512546178453e-03
5.686342499708028908e-04
2.080015903998620914e-03
2.431706596837804931e-03
4.592464872866612851e-04
-3.169341643829966335e-03
-2.889078353153564337e-03
-3.485341388199268177e-03
-4.673313918154981851e-03
-6.432889716718400569e-03
-7.786518599376172044e-03
-6.039420036420896885e-03
6.188636993859747935e-04
4.863300207117925329e-03
4.104923302095127464e-03
4.290266078974606413e-03
2.644961030412515315e-03
2.767275073522542251e-03
3.785246264247992768e-03
1.877033400625539427e-03
2.171449889522052579e-03
2.119242859461196570e-03
3.096093966778481772e-03
2.936958929339270833e-03
8.319682054405980057e-04
-6.433345261722815710e-05
-2.993188203387468251e-03
-4.759174327884795400e-03
-6.551048557693258181e-03
-8.897323135344140793e-03
-9.830644371496752992e-03
-5.652046982604012025e-03
5.184456698576049051e-04
4.528386700228197170e-03
5.298922256931955926e-03
4.351069301774070086e-03
4.722328264500062940e-03
4.392120032298625805e-03
4.359028929356542278e-03
3.599648892186887734e-03
2.729473074535225269e-03
1.869819796082764374e-03
1.875681460699789218e-03
-2.317239286363328196e-04
-2.860389085831696859e-03
-4.870157927269474704e-03
-5.560548986215682263e-03
-4.965949528170767423e-03
-2.628035132691333101e-03
-1.559997918451878820e-03
-3.212467309851345636e-03
-4.426305663326064385e-03
-1.256765193913212276e-03
2.471446759733238099e-03
4.305590321202578188e-03
4.525366213813462012e-03
2.926468654938522897e-03
2.014610667567631828e-03
3.794228798533481276e-03
4.119630697340872540e-03
6.294123589397284009e-04
-5.343453615649213211e-04
6.320133553171954337e-04
1.667374816789289529e-03
8.618593388375842684e-04
1.237901924859242161e-03
6.457972975268517178e-04
-2.577903372294907455e-03
-7.615978608669756768e-03
-1.101068722229465828e-02
-9.559185138804144818e-03
-5.046363017140619543e-03
4.794515651656114548e-04
4.084468498096485017e-03
5.902842016641944058e-03
5.154172385135794184e-03
4.859314880188994601e-03
5.877419480981750134e-03
4.913848126809297612e-03
1.687732595747699817e-03
1.531041917075715464e-04
8.741277064722924924e-04
8.807207290120694452e-04
8.808504962842194470e-05
-6.422925043533723349e-05
-4.141608601172302659e-04
-2.691880990454391907e-03
-6.000255306925180929e-03
-7.571027312237790449e-03
-7.645004469053854300e-03
-6.727760619555672554e-03
-3.918601993401618633e-03
2.595651238812559132e-05
3.286564351672378783e-03
4.032431823954508304e-03
5.896730996524525426e-03
6.975090910617096247e-03
7.596763073948258407e-03
6.808248446084391031e-03
6.799026039245694049e-03
4.667876605546036548e-03
1.132218497660460524e-03
-9.803078084746881613e-04
-5.410249032932350211e-03
-9.933280465406903181e-03
-7.104156512887216564e-03
-4.687207037451558006e-03
-5.504638389350891871e-03
-4.226448696634533750e-03
-2.936087631978510307e-03
-2.897636400324993516e-03
-3.499777976100783890e-03
3.222711730689242684e-04
6.777125762245949682e-03
9.335075064028218461e-03
1.013899274752256413e-02
6.257934279536934985e-03
2.801018698136689255e-03
-2.086979085849029094e-04
-1.728795280823375389e-03
-2.285810179412844055e-03
-1.524197361145026783e-03
-1.551694268012420580e-03
2.450066494068766677e-04
1.752786202369652820e-03
5.694830831618901031e-04
-1.560037799096319726e-03
-2.244362857807137134e-03
-4.390140451028338650e-03
-7.349087399413916678e-03
-7.376848592303253405e-03
-2.978888685885416020e-03
1.972954479925381679e-04
1.709008809876167356e-03
2.946627295547447033e-03
4.065938180908426972e-03
4.583630683951014743e-03
4.585995962398163595e-03
3.803619417971991056e-03
3.743785646866122641e-03
2.959404024898127511e-03
2.242542870599053065e-03
1.733714439940762988e-03
-1.335080892051643427e-04
-1.429299079794161490e-03
-1.594200811763619042e-03
-2.185927535672898669e-03
-2.592366164704643181e-03
-5.817991428361313222e-03
-9.321191031765169860e-03
-9.589055556709094597e-03
-6.106854125132602298e-03
1.838066375089920674e-03
4.768347010523173515e-03
4.516230186896767577e-03
4.899357229484511272e-03
5.143913893676427089e-03
5.212035492567053396e-03
4.266447217491595514e-03
2.191186685850984427e-03
1.422324152604511043e-03
2.984774099694581517e-03
3.448556484467442049e-03
2.805778207081669612e-04
-3.259535688371308342e-03
-5.735051944301966173e-03
-6.146098371104325234e-03
-5.597608864684233514e-03
-3.630291855848428052e-03
-4.931811258716690786e-03
-4.079899059672251194e-03
2.606349303211743032e-04
3.039405538931694208e-03
4.404803478880734216e-03
2.671630285450829565e-03
2.089317920575485456e-03
2.607121277508635867e-03
1.390403028171879451e-03
-1.675540280085024882e-04
1.262879054490780115e-03
3.928505254608115511e-03
4.506365237286277456e-03
3.604220572554604849e-03
4.298757999983333390e-04
-1.092292746531298934e-03
-8.522104476106706974e-04
-7.083111655318214198e-04
-1.727046404065106771e-03
-5.697006616581118746e-03
-9.017038116417437979e-03
-9.558157419335112925e-03
-5.596649760803647927e-03
-1.007707298436639597e-03
3.269301381236333365e-03
5.402051410829434436e-03
5.854306836322680473e-03
3.861000573096252161e-03
1.839522745828082572e-03
3.242801674610289956e-03
3.702125037090183476e-03
3.078730275260332765e-03
3.023811413578273138e-03
1.795864693777186188e-03
-1.152911140059543777e-03
-2.113417360292979292e-03
-1.194052104964749266e-03
2.864655460345084774e-04
-1.104201657538382651e-03
-4.645673412741836705e-03
-7.898977534664577971e-03
-9.602311681348738373e-03
-5.857357846710127894e-03
1.472917936938995375e-03
4.601833389918265696e-03
4.608101325339281421e-03
3.638928864030022050e-03
4.133514886524141015e-03
2.859137533649830799e-03
-1.011945434699332725e-03
-2.401526311216793403e-03
-8.580558573685380733e-04
2.340143939421392063e-03
3.271496641839863415e-03
4.377875250979274512e-03
4.554224459302508299e-03
5.110877786244517190e-03
2.004736435314491069e-03
-3.463942169164017666e-03
-4.635247696624841471e-03
-5.191085471454004105e-03
-5.866371320292119648e-03
-6.271233644069901768e-03
-5.496496410967578565e-03
-4.555761246020856650e-03
-2.729272000129859699e-03
4.416731956672552504e-04
3.309410680841025094e-03
3.934567000350995200e-03
3.578529202377433386e-03
3.635884124633333419e-03
3.332300611493704042e-03
4.750459536422584582e-03
4.127642723591869525e-03
5.130603698619905055e-03
6.195848866705796001e-03
4.658924974412362481e-03
5.822115399579893581e-04
-4.602900623876962291e-03
-9.453882834456455581e-03
-1.143399779312792575e-02
-1.178505685561854685e-02
-8.502679058762773259e-03
-3.356252720864388254e-03
1.308959210713574791e-03
4.695848031321238000e-03
5.252258843708038430e-03
4.468419967926160613e-03
4.573137242512560936e-03
5.774125035191878669e-03
5.333125280140226313e-03
3.206886975147622745e-03
2.201480811941502330e-03
3.856931711530129595e-03
2.049780599213423850e-03
-6.671385603102910657e-04
-3.119106791230427927e-03
-3.967240656516756239e-03
-4.286628228335238530e-03
-5.874972337098200922e-03
-7.427730507834193543e-03
-7.738855725060668836e-03
-4.327520651768145162e-03
2.996281922659264040e-04
1.995085117684050179e-03
2.280332550234464260e-03
3.905851304255527571e-03
4.884287678068425370e-03
5.648219058086545452e-03
4.614029168129953062e-03
3.362748958430604018e-03
2.670167214293748311e-03
2.661311582790587462e-03
1.138051008926009187e-03
-2.660993340567164367e-06
-2.080905245719745413e-03
-2.449025821408280009e-03
-2.412897665503105100e-03
-2.795164075986850214e-03
-4.231118022480517306e-03
-6.400051485993933816e-03
-8.328880751662054091e-03
-4.733077842278049854e-03
1.005905156313860373e-03
4.306485216324184781e-03
4.713625055153846700e-03
2.374566906685532473e-03
1.534348326650047337e-03
1.825798203687882103e-03
3.905605067569526290e-03
4.565711864926103036e-03
2.835330440528657878e-03
3.187093823493665403e-03
3.032345223280333551e-03
2.344664617182946019e-03
4.686623007096092381e-04
-2.490829967308515799e-03
-4.127059496602027491e-03
-3.683490809158998253e-03
-5.550722345021899193e-03
-8.576527598373431122e-03
-8.350337077831351817e-03
-4.681342201052708131e-03
-7.893561806301571356e-05
2.525389569440930019e-03
4.494281603587205534e-03
4.755171455932092305e-03
6.346474873400429623e-03
5.723278842307510245e-03
2.360439713976235105e-03
1.951134352638212669e-03
2.214684282062322034e-03
2.054575589593818103e-03
3.910437681552984601e-05
-1.011506004844988250e-03
7.984756667925654861e-04
1.569953791084172795e-03
-1.359601991859715232e-03
-6.200907710806715864e-03
-9.298362663794570646e-03
-8.329706763618242513e-03
-5.662644280538722992e-03
-3.018830482284641601e-03
9.586340228568738207e-04
5.809339641228187037e-03
6.190113634845446737e-03
3.913640883436075510e-03
2.137317471704040534e-03
2.299959019660079412e-03
2.589267577228563256e-03
3.125966494901554187e-03
3.371188220211691986e-03
3.046919490902766283e-03
1.229430173545891306e-03
7.865412972271651655e-04
-1.526554923795089098e-03
-2.845010355498527564e-03
-2.876893147938836253e-03
-2.974473658330546808e-03
-3.529952859470714046e-03
-5.342263077527709819e-03
-8.394976814665885273e-03
-8.349465722209663959e-03
-2.810051390516540154e-03
2.254729677542227639e-03
3.330183233003749989e-03
4.983498866596687907e-03
5.808941688762061031e-03
6.348006807387894176e-03
7.248247967312859349e-03
7.732671643978913587e-03
7.432212750134111617e-03
5.935560197022633766e-03
-2.495413120367179043e-04
-5.319478520178559829e-03
-6.820100797723030808e-03
-7.458521721587485151e-03
-7.304211940048173542e-03
-7.286033720981684864e-03
-6.133807688733544823e-03
-5.108472662871637107e-03
-4.499081558537011173e-03
-1.499268479453855956e-03
1.688743995509220342e-03
5.615161618303672608e-03
8.068839133520621168e-03
8.329316229069900004e-03
5.166112667021448973e-03
2.015197772942466364e-03
2.241239755527759617e-03
3.339018098521584141e-03
1.363265711243584434e-03
7.037255796424576101e-04
1.282521025093239127e-03
-5.628771996918052446e-05
-3.882051191485084811e-03
-1.749974739159466334e-03
-1.665412343536813809e-03
-4.417647468694648437e-03
-6.162320686492809424e-03
-7.417384602588682034e-03
-7.873454065418396611e-03
-4.872238800220290295e-03
2.312180985530856627e-03
5.898139616120265209e-03
4.839508656244327287e-03
2.519647513989025246e-03
2.767935742309570162e-03
5.268243806946482435e-03
4.480285969576396250e-03
2.450549959281394120e-03
8.757495690472024731e-04
7.999036178155285830e-04
2.468083486181361485e-03
1.521230202886178929e-03
4.522258197898489616e-04
-2.309542266684914697e-04
-3.212403269860291625e-03
-5.200680384604255621e-03
-5.616239606233971310e-03
-6.737648143362289649e-03
-7.901264943531570439e-03
-6.419668264516389597e-03
-9.463960295297414553e-04
5.308073753629499042e-03
6.697837030168618359e-03
4.739253432334769242e-03
2.450404711771843064e-03
2.965257528613797922e-03
5.099773102338082606e-03
3.804758072178933501e-03
5.415525572451036253e-04
9.967815538526067585e-04
1.662969596970993291e-03
1.293508636579980423e-03
-1.519628523316972249e-04
-1.645442805892897986e-03
-2.296561043801482755e-03
-2.559718925552612306e-03
-5.901248773257004865e-03
-8.415882379318038314e-03
-7.215557171206272297e-03
-3.177552256412094402e-03
7.285998824993452153e-04
3.397712282691599511e-03
3.440460537670509897e-03
3.746830383023396025e-03
2.622101056638633399e-03
1.861833802766223959e-03
2.469589922482488733e-03
4.345465500278459028e-03
5.062830464748835704e-03
1.548216438735390294e-03
1.683237654796812879e-03
2.340637800510497312e-03
7.657413409434180691e-05
-1.837644572634428847e-03
-3.015727373639911276e-03
-4.724045967117489891e-03
-7.736320623883611095e-03
-9.581698003526498142e-03
-8.053632182297071340e-03
-3.045238706464786001e-03
3.288887039373260181e-03
5.604875367130337897e-03
5.272488786528630941e-03
4.867318407967989070e-03
3.884318496699477440e-03
3.304717639057235933e-03
2.384408426396729310e-03
6.347637141468904891e-04
1.180232124246127084e-03
1.913450355385220517e-03
1.149576173091222588e-03
2.310934275669926125e-04
-5.783905266930600662e-04
8.186676498599123296e-04
-3.293960847050208043e-04
-1.877552897857598380e-03
-4.386276971039773480e-03
-8.672468726654688695e-03
-1.107578230411003853e-02
-6.664319072393061309e-03
-3.802901084606785144e-04
2.867952173447901008e-03
4.752539104547812317e-03
5.576045893643256576e-03
6.239767013816073515e-03
5.178653307693154018e-03
4.302470643852753310e-03
2.581585536787443878e-03
7.763217997248466305e-04
1.593227171625059444e-03
1.605485423580901502e-03
2.663529521365421088e-04
-2.306304239695771980e-04
-2.784402016364107176e-04
-1.164769588215902596e-03
-5.212839905805209846e-03
-9.211466827251595102e-03
-8.530319964149090176e-03
-6.886126348099626607e-03
-5.514911493331197886e-03
-8.943135955062062915e-04
3.491591175714450854e-03
6.136782175518476837e-03
5.663887255949306282e-03
5.536904346417455963e-03
4.739131803954366347e-03
3.410356851561521189e-03
3.758136949497324544e-03
4.720394365574719087e-03
6.245971647321132796e-03
7.173195937578910608e-03
3.722569749810860761e-03
-4.377701554507558261e-03
-1.005369006907073232e-02
-1.122319863030106848e-02
-8.946232653034420085e-03
-7.106739971482690238e-03
-6.608925679502749076e-03
-5.836840602374220206e-03
-4.021050366804680351e-03
-3.363463130015996498e-05
5.912115235913409372e-03
7.508789481154500879e-03
7.590142329375259948e-03
7.123798715635488998e-03
6.568007367798290794e-03
4.945388264705363746e-03
3.805513688923298134e-03
1.886770979734911976e-03
1.598967973594860568e-04
-1.668871251160310588e-03
-8.680313705738411552e-04
-1.276145462040990334e-03
-2.906765836825159471e-03
-4.219856453644530055e-03
-4.243627031955091167e-03
-4.852839952144850227e-03
-8.627316755217252775e-03
-1.015482283872732455e-02
-4.429703961301378022e-03
2.301913956064049593e-03
5.953333198364371692e-03
6.868665079701983221e-03
5.835497028341680818e-03
3.458027925350409381e-03
2.736683200274610869e-03
2.496743831262821216e-03
3.181721512128991326e-03
4.259990857199023526e-03
3.924642395141122835e-03
2.307499460138386343e-03
-7.958301230002101439e-04
-3.163350931082157657e-03
-2.265315799598028364e-03
-3.791980983637606179e-03
-4.853615192505646332e-03
-3.733792350949090202e-03
-4.917249399712597495e-03
-7.795182764894372993e-03
-5.904426728490656633e-03
-1.126259740441039759e-03
2.101042145758919271e-03
4.090914040036452634e-03
5.467223828637895501e-03
4.706711735488228188e-03
3.770433982735414431e-03
4.583313744337252742e-03
4.602340343268295636e-03
3.070564075684132591e-03
1.630097640211251257e-03
1.124751585825103060e-03
-2.205166062902202322e-04
-9.882495828097701343e-04
-8.267325122388409150e-04
-2.724768280320684875e-03
-4.606769921927270778e-03
-7.410245267552769202e-03
-7.908337651631102902e-03
-6.643389493919055373e-03
-3.048180831828255308e-03
2.730544536659242766e-04
4.092794155611746004e-03
5.831831054901142654e-03
3.967643358892792953e-03
1.377144679056333584e-03
1.966245914821688600e-03
5.472906542197817498e-03
4.257497035991741549e-03
3.291171122681011904e-03
2.154017518774778168e-03
2.215296684657045313e-03
1.304196544054719766e-03
-1.545357890064154131e-03
-3.484921426833794637e-03
-3.939433152947425555e-03
-3.982573798139345950e-03
-4.799444722483437592e-03
-7.068859222564423742e-03
-6.992871595276135138e-03
-2.859900568763177903e-03
1.133735842206912581e-03
2.655879494953401060e-03
4.582579299983286295e-03
4.760961902624752905e-03
3.167678071908721759e-03
2.813045287973635952e-03
2.560937668226654241e-03
3.837597741670781097e-03
3.306103219057703740e-03
9.558010733716308660e-04
2.604449062995424415e-04
-3.586123569053057260e-04
4.119181236405386123e-04
-1.146958135219745996e-03
-4.774033119227753114e-03
-6.067221919590044983e-03
-6.701556737878744223e-03
-7.866123401232542889e-03
-6.451553978343028614e-03
-2.440771568561219101e-04
5.503803199087511921e-03
7.370515782894224502e-03
7.110547210859675255e-03
7.830337591799782504e-03
7.114630860250614058e-03
2.517246228962862018e-03
-2.946100534538309990e-03
-5.980725149347940368e-03
-6.364038302784335611e-03
-3.733337281377899480e-03
1.811555126442014694e-03
3.001718449716687508e-03
2.037616324501076090e-03
1.439368239221195051e-03
3.892185491551062486e-04
-2.213236937967824440e-03
-6.070466164298187091e-03
-5.214214647793612156e-03
-2.198086567725491321e-03
-7.773489735080952884e-04
1.103962671603194064e-03
3.676175657690040725e-03
2.894484836609757285e-03
1.722691072207553024e-03
6.661578735169021610e-04
2.192043693117922288e-03
2.334345195437047878e-03
1.069609956902806136e-03
3.022826608682748420e-05
-2.377052523708701889e-04
2.020739069507975459e-03
3.215910716421760667e-03
2.357076854407357414e-03
4.514199388591435278e-04
-2.386171663384033335e-03
-5.857176058552385559e-03
-7.948189459620249447e-03
-7.827953972543922473e-03
-6.764913980479901265e-03
-2.945606433810081526e-03
1.801301129077260543e-03
5.043121511873581084e-03
6.780499810261124416e-03
5.617764799087825341e-03
3.480970273121695730e-03
3.013919377764104606e-03
2.690283365033103048e-03
1.542239860085607706e-03
9.952407765685753870e-04
-1.612063927436804876e-04
7.981042302235277427e-04
4.757172361226683598e-04
-8.693232532443815989e-04
-1.290921484040269233e-03
-1.872779562300565682e-03
-2.139049955262619079e-03
-5.843549170917236926e-03
-8.452052403638323982e-03
-6.906600885961457562e-03
-1.459338268597987296e-03
3.557645448763393104e-03
4.909664034383577798e-03
3.957027730251945832e-03
1.759057162282528630e-03
4.351279351491967907e-04
8.651527786040723832e-04
2.223469947751561312e-03
2.431117633430178969e-03
3.646499191314220203e-03
2.195487643553342434e-03
1.545413156185836655e-03
2.546427662473136656e-03
2.067393478919045315e-03
-5.839321842955021505e-04
-2.582012031951036284e-03
-5.353928866939217449e-03
-6.635965400763506328e-03
-7.028731225818036013e-03
-6.638064408120397664e-03
-2.483203512858770442e-03
1.425943192060628948e-03
2.165753699668136224e-03
2.922208371550595336e-03
3.211252070179440327e-03
3.443930217146332160e-03
2.320514076694836763e-03
2.162838555767284451e-03
3.415584083212048084e-03
3.424539952150107772e-03
3.000302163655824399e-03
3.678373147789959496e-03
1.473288681506310701e-03
-9.017777320239948966e-04
-1.955001843348837427e-03
-2.774419399087674123e-03
-4.267498828672165387e-03
-6.386703264537345673e-03
-7.511532269825879106e-03
-7.343697403343566604e-03
-3.094352617348185026e-03
1.659625608158291164e-03
4.747983204983726065e-03
3.410096697732107815e-03
2.319862406530240090e-04
9.960892092966849333e-04
3.529935375703837936e-03
4.562687952654441610e-03
5.669492078549976354e-03
4.876637231065543941e-03
3.376940975788796703e-03
1.110596575496355150e-03
-1.547198292423894407e-03
-1.790767185216343964e-03
-1.084722279767863160e-03
-3.472581449971173361e-03
-4.578945368586933608e-03
-4.112947315080456995e-03
-6.931282785827272593e-03
-8.541668930759379816e-03
-3.041365310676583718e-03
2.531127738742864394e-03
1.764656776110465038e-03
2.899247160834038991e-03
5.007455911905234550e-03
3.931189061828509190e-03
4.172451553119177828e-03
4.693553410600015408e-03
5.322815966434440993e-03
2.482000684933882012e-03
2.494385636955333927e-05
9.165146366550118320e-05
-5.426992566395952115e-04
-1.146028145604347914e-03
-3.271519346765571195e-03
-5.098688688141513048e-03
-4.931709977221596444e-03
-5.158610539701782502e-03
-5.075298459204296772e-03
-3.936991545317576613e-03
-1.267184561461035842e-03
2.830017521187080682e-03
6.440509487464243094e-03
6.897738366332182951e-03
3.519847285445992357e-03
3.482303122560397556e-04
6.487017364252760203e-04
3.856805856159654933e-03
3.136002489480065568e-03
-3.176330165361214517e-03
-5.309083020424846741e-03
-2.346809309265071499e-03
8.272373235542703797e-04
2.081116504022273179e-03
2.801290708405506681e-03
2.673429625283826839e-04
-4.106232802143854402e-03
-4.310536556098421013e-03
-3.323728880600441710e-03
-4.567809471775102423e-03
-1.842799823714354754e-03
2.203404682996939340e-03
4.460392293085114861e-03
5.008242291178847082e-03
1.770012197953471818e-03
4.230170256182361893e-04
-1.627354853305138481e-03
-1.364237498083363531e-03
-3.838458786638712173e-04
1.820982077807859617e-03
4.812364246627527826e-03
6.145410459602291577e-03
2.292075368220910549e-03
-2.193531826162254793e-03
-3.095818543510017989e-04
4.683155755123569186e-04
-1.965133657679867581e-03
-5.250725947655207268e-03
-7.898338726638946469e-03
-8.978867782717224119e-03
-5.378744668180278007e-03
4.124055888635037685e-04
1.664438812311957137e-03
8.216677590537507271e-04
2.773791521153867734e-03
4.770107576139189301e-03
6.781824914444228337e-03
7.066354269225630022e-03
4.144173669797001844e-03
6.114870809111835372e-04
8.538911109687583392e-04
2.050664239443199862e-03
1.662009787798419697e-03
-4.218735453695679916e-04
-2.629619596488734414e-03
-3.373118161101571789e-03
-4.086834822339379010e-03
-6.471607749199149648e-03
-8.979460918880194029e-03
-7.270559134566732112e-03
-2.762465125589519659e-03
1.480964769264971146e-03
3.787674927829185433e-03
4.473451103880385880e-03
3.993662594146954112e-03
2.471035641776217571e-03
3.192374556334926904e-03
4.969856141238251923e-03
5.188459466782381277e-03
3.314730073643356277e-03
1.665295490178349963e-03
1.905740666489034703e-03
-1.245049306829400834e-04
-2.800218572006396827e-03
-2.509113156799332948e-03
-2.638521194488066286e-03
-3.948249370509448672e-03
-5.169967123483858694e-03
-6.509273129230046251e-03
-7.202331810163071363e-03
-3.534660296059857418e-03
-1.400836641777432063e-04
1.584730612178934621e-03
3.771176331287773905e-03
6.112656607229542856e-03
5.239608898746687948e-03
4.472503565280275782e-03
3.894338998370557459e-03
3.091908173095638066e-03
5.444414577070503213e-04
3.405174362294395400e-04
1.045791258837712239e-03
-4.729196741190517346e-04
-1.407093115952136233e-03
-2.149775482299023672e-03
-1.096025114382728153e-03
-2.783271819438641430e-04
-4.137903212954792756e-03
-7.160022360243737012e-03
-6.690099438203964133e-03
-3.699270497568350399e-03
-6.549114191068401529e-04
1.673723383484640751e-03
4.355258711655676969e-03
4.941903016675435432e-03
2.186046467331091443e-03
1.063563994214818554e-03
2.540930179263563467e-03
2.958234721924177246e-03
1.198402029781160498e-03
1.434277698184505730e-03
3.978623940548142550e-03
2.392650920976596273e-03
-9.388934732395454218e-04
-2.576181306625396385e-03
-7.563956071794312834e-04
2.027434896574326767e-03
7.187095147043695044e-04
-2.981924310122732128e-03
-5.794968562469172968e-03
-7.586344274731449469e-03
-6.787828525561191012e-03
-5.283200301896513913e-03
-4.144762208693432079e-03
-1.661613373236489177e-03
1.759998558746480972e-03
7.241360920843344789e-03
9.173133960031448417e-03
7.406651845518756778e-03
5.715920755649115531e-03
4.466836449908052724e-03
3.515433029477721145e-03
3.433111803755220775e-03
2.617731128874212828e-03
-9.851088146208102352e-05
-3.449959387762219741e-03
-6.314197491053575965e-03
-9.070728535507787543e-03
-1.099483878403382034e-02
-1.208232651134227495e-02
-6.792496598197819702e-03
1.298148034963343255e-03
6.809290129278761268e-03
8.035781027339448934e-03
4.795104636835259559e-03
2.379604953262104677e-03
3.607729689348044850e-03
4.695344646198212728e-03
3.183576449803458396e-03
1.142815129427680095e-03
1.361030277251123804e-03
3.689510511693366943e-03
1.238841486069891442e-03
-1.907273342434338175e-03
-1.510828610613859039e-03
-2.625066665259161245e-03
-3.864165238423149414e-03
-5.937230646850921723e-03
-7.520342971282564098e-03
-7.085319532470164827e-03
-3.358976569654175456e-03
7.028315433954069116e-04
2.787639090835622620e-03
3.501574082983368794e-03
4.371247459759642663e-03
3.862163959749596257e-03
2.554184574952719691e-03
2.521504377302322564e-03
4.885094928949026624e-03
2.791583320179295228e-03
4.885355887396854863e-04
5.127845872028291823e-04
2.936267580759086004e-03
2.783268585471369936e-03
-2.175260095489714701e-03
-5.915591951047125159e-03
-4.983656671668250902e-03
-4.894536704407891937e-03
-7.004460894855762954e-03
-7.441614426901476016e-03
-3.976199490686643800e-03
1.072446436398037401e-03
4.791329149913674777e-03
5.796410352463556709e-03
4.828574752218638480e-03
1.841030504421149825e-03
4.129375819941012889e-04
3.317295214801129627e-03
5.344544111738212117e-03
3.679036810816605808e-03
4.971586980161749568e-04
1.143881720508452618e-03
4.110278408606135667e-04
-1.733172423100465525e-03
-8.928564623965039304e-04
-1.658253371276036548e-03
-2.944630740113760373e-03
-6.374466912992381856e-03
-8.488895440048115776e-03
-6.543343810209692815e-03
-1.714424077393610166e-03
1.504288501055636110e-03
2.158436073494992766e-03
2.820378945416758890e-03
3.624807771063281222e-03
5.612733877536722066e-03
5.074691742301481664e-03
1.324343667726376756e-03
5.064064484874279979e-05
1.262210786669818851e-03
1.883666860898454290e-03
2.932818068940075667e-03
2.051985926616378773e-03
3.845740094070564542e-04
-2.296573800743531481e-03
-3.915920676608971793e-03
-2.831770338318585767e-03
-3.016457889952595291e-03
-7.643176098350227925e-03
-1.008295325879338643e-02
-5.810224185848425309e-03
1.485430156287315378e-03
5.991143245362361494e-03
6.776336307462669899e-03
4.573754218224861980e-03
3.140334977701153812e-03
2.532702123040815340e-03
2.610099311032467850e-03
2.115733525181269850e-03
1.577817690794009039e-03
3.009401495122296551e-03
1.829823973055863485e-03
-1.069588738739173355e-03
-1.448309057549674716e-03
-8.580565839928374315e-04
-2.356880582190554446e-03
-4.698944414091988167e-03
-4.766808727954742475e-03
-7.942026862164032475e-03
-7.046501881334512468e-03
-1.419199006472110936e-03
1.245174774934916951e-03
3.044038706820704175e-03
5.173084710761227320e-03
5.472143777734821482e-03
5.279831595716829619e-03
4.999217759785279207e-03
2.565728685912568256e-03
9.212797413809116313e-04
-5.299451754713683203e-04
-2.713666721666975739e-03
-2.607480868843815597e-03
-2.999807865515375250e-03
-2.717432431452389101e-03
-4.337017452838150093e-04
3.200723324703946392e-03
2.663294504967561767e-03
-2.671973056879092812e-03
-7.311842716752831386e-03
-5.441660910139239221e-03
2.664741980123774227e-03
8.353553475436099884e-03
6.184777188685291159e-03
3.078250284404206470e-05
-4.708635922996593295e-03
-6.451116657418017389e-03
-5.604967821494334992e-03
-1.673503648155992649e-03
2.772639417692499865e-03
5.143019757075350737e-03
6.333389043623232663e-03
5.078336912440915493e-03
2.376689949283787399e-03
1.495312999412367044e-03
2.024363394970140739e-03
9.534861994666305211e-04
-1.215001747799638893e-03
-5.186575385204214572e-03
-8.593419093855792640e-03
-8.734331347359843706e-03
-4.555385082001045180e-03
-1.227841099758113143e-03
1.902310354560894038e-03
4.288283229404943331e-03
5.241854494859587120e-03
3.313741620007177365e-03
-5.106423312550268344e-04
8.082997598862644610e-05
3.599471005598359804e-03
1.821255051093659608e-03
-7.168684903440315814e-05
1.557634167698773069e-03
3.770377423744168330e-03
2.704144639680474728e-03
1.515641985547881015e-03
-1.359876073065834513e-03
-4.570545618453292561e-03
-6.281987253017052783e-03
-8.444882304260168185e-03
-7.943225966348419625e-03
-3.463262660587639648e-03
2.363911140386627027e-03
4.325914470740295850e-03
3.162105378451090468e-03
2.804141882164912312e-03
4.456503634245301791e-04
1.638212622581960379e-03
4.567102968591544611e-03
