8.573955135945573666e-03
7.438798564583381720e-03
6.281556695866154401e-03
5.102783024643915873e-03
3.903119796180097145e-03
2.683302199515333331e-03
1.444161429431215209e-03
1.866264666575773927e-04
-1.088275420370330869e-03
-2.379419566654957137e-03
-3.685586326739944373e-03
-5.005464826911974925e-03
-6.337658204072804148e-03
-7.680690172334667803e-03
-9.033012891226129340e-03
-1.039301609438354063e-02
-1.175903730109637869e-02
-1.312937293755140136e-02
-1.450229031605632102e-02
-1.587604017447167074e-02
-1.724886971422271917e-02
-1.861903581367557736e-02
-1.998481833464461205e-02
-2.134453318637616337e-02
-2.269654503426780934e-02
-2.403927938281104001e-02
-2.537123395729756412e-02
-2.669098899723678503e-02
-2.799721649601274315e-02
-2.928868810460120292e-02
-3.056428163174268117e-02
-3.182298595900989041e-02
-3.306390441318120266e-02
-3.428625633927261107e-02
-3.548937703869976812e-02
-3.667271597032713271e-02
-3.783583322760070144e-02
-3.897839439617126894e-02
-4.010016386947934386e-02
-4.120099665895549795e-02
-4.228082893452626834e-02
-4.333966737243889061e-02
-4.437757757278387727e-02
-4.539467155264700210e-02
-4.639109475800709537e-02
-4.736701267083635175e-02
-4.832259730030109141e-02
-4.925801369477497693e-02
-5.017340680115352919e-02
-5.106888885992877380e-02
-5.194452759540563180e-02
-5.280033525197396632e-02
-5.363625892526055483e-02
-5.445217209481004877e-02
-5.524786772249638822e-02
-5.602305288666822869e-02
-5.677734518244362261e-02
-5.751027086972879121e-02
-5.822126483254978085e-02
-5.890967249331659911e-02
-5.957475338266148002e-02
-6.021568667119959334e-02
-6.083157829927274274e-02
-6.142146977795676782e-02
-6.198434849390795087e-02
-6.251915929713791620e-02
-6.302481729833478430e-02
-6.350022160757846923e-02
-6.394426986542427194e-02
-6.435587325535209458e-02
-6.473397186651423663e-02
-6.507755012684139639e-02
-6.538565200337866090e-02
-6.565739585834801106e-02
-6.589198859629909200e-02
-6.608873904726594861e-02
-6.624707012643674120e-02
-6.636652979419611909e-02
-6.644680060734291238e-02
-6.648770763465851330e-02
-6.648922466259646336e-02
-6.645147852616364870e-02
-6.637475163093353725e-02
-6.625948249452910666e-02
-6.610626434665799189e-02
-6.591584176365368475e-02
-6.568910546306239162e-02
-6.542708525666698915e-02
-6.513094131325999903e-02
-6.480195382476076904e-02
-6.444151125804686853e-02
-6.405109732846683834e-02
-6.363227695342320300e-02
-6.318668130717598752e-02
-6.271599226827219431e-02
-6.222192639769379141e-02
-6.170621883195534507e-02
-6.117060716859708952e-02
-6.061681562453149347e-02
-6.004653977115349817e-02
-5.946143191661454330e-02
-5.886308743841549979e-02
-5.825303224699253379e-02
-5.763271152227428251e-02
-5.700347978384838477e-02
-5.636659264173272260e-02
-5.572320005132983672e-02
-5.507434131644414060e-02
-5.442094187066245231e-02
-5.376381179396948207e-02
-5.310364609904851679e-02
-5.244102671348796485e-02
-5.177642614254795994e-02
-5.111021260524347548e-02
-5.044265667163763678e-02
-4.977393921631047963e-02
-4.910416056723594658e-02
-4.843335056224901125e-02
-4.776147948948339383e-02
-4.708846962037907535e-02
-4.641420713528791181e-02
-4.573855429758492963e-02
-4.506136167876362980e-02
-4.438248015583892703e-02
-4.370177254678435375e-02
-4.301912473961515271e-02
-4.233445609840332663e-02
-4.164772888447321186e-02
-4.095895676154132775e-02
-4.026821208367836746e-02
-3.957563202065537272e-02
-3.888142329262475605e-02
-3.818586552327068312e-02
-3.748931321147638829e-02
-3.679219626818071992e-02
-3.609501905261727067e-02
-3.539835808470917500e-02
-3.470285844198927466e-02
-3.400922886803253720e-02
-3.331823568567948701e-02
-3.263069569839200518e-02
-3.194746812497166466e-02
-3.126944582471713474e-02
-3.059754572478401782e-02
-2.993269882835371612e-02
-2.927583995656036706e-02
-2.862789715359308554e-02
-2.798978118546928406e-02
-2.736237518360828611e-02
-2.674652456966460437e-02
-2.614302741430736196e-02
-2.555262532207671841e-02
-2.497599507019907655e-02
-2.441374105060850272e-02
-2.386638861787778940e-02
-2.333437844652979515e-02
-2.281806183776070515e-02
-2.231769721409819496e-02
-2.183344768551879339e-02
-2.136537981677828421e-02
-2.091346341825883054e-02
-2.047757251999797121e-02
-2.005748738842505485e-02
-1.965289752380894664e-02
-1.926340566164527063e-02
-1.888853261535607814e-02
-1.852772294362225319e-02
-1.818035129134593780e-02
-1.784572924513998932e-02
-1.752311272818715335e-02
-1.721170980675884241e-02
-1.691068868655306104e-02
-1.661918592639331088e-02
-1.633631463419974242e-02
-1.606117258380462473e-02
-1.579285027734452299e-02
-1.553043864602050156e-02
-1.527303649783496448e-02
-1.501975751229843448e-02
-1.476973676758817737e-02
-1.452213676246482017e-02
-1.427615286984217947e-02
-1.403101815916846240e-02
-1.378600761983964432e-02
-1.354044172896303432e-02
-1.329368936329658468e-02
-1.304517010451836448e-02
-1.279435586711528787e-02
-1.254077204802332875e-02
-1.228399798917991989e-02
-1.202366696081328019e-02
-1.175946572537061099e-02
-1.149113357262572174e-02
-1.121846097906914821e-02
-1.094128794195309458e-02
-1.065950205916810223e-02
-1.037303625680873614e-02
-1.008186639568419730e-02
-9.786008755792705016e-03
-9.485517379687669060e-03
-9.180481322696665281e-03
-8.871021847272907851e-03
-8.557289739041641294e-03
-8.239462526175809001e-03
-7.917741766514697910e-03
-7.592350414019520370e-03
-7.263530239982493759e-03
-6.931539390477042643e-03
-6.596649982725479554e-03
-6.259145739037378850e-03
-5.919319758394475835e-03
-5.577472373616013980e-03
-5.233909092947657514e-03
-4.888938590987226829e-03
-4.542870644516744730e-03
-4.196014287919643503e-03
-3.848675912367475159e-03
-3.501157411642589340e-03
-3.153754373006774272e-03
-2.806754308597691084e-03
-2.460434864261269814e-03
-2.115062180133569104e-03
-1.770889151950183222e-03
-1.428153829026460693e-03
-1.087077896993207671e-03
-7.478651882504404194e-04
-4.107003401337864330e-04
-7.574752915609877222e-05
2.568505833447022775e-04
5.869737876462123236e-04
9.145250297732152684e-04
1.239430925661324633e-03
1.561641980469214179e-03
1.881132616450117067e-03
2.197900843160340185e-03
2.511967622141424682e-03
2.823375948388612798e-03
3.132189565312663068e-03
3.438491334925843253e-03
3.742381308269607243e-03
4.043974366047171400e-03
4.343397660214460936e-03
4.640787628522336124e-03
4.936286767829683314e-03
5.230040179605697538e-03
5.522191804840592688e-03
5.812880532830407704e-03
6.102236206390941262e-03
6.390375460471050401e-03
6.677397518371503554e-03
6.963380080091095999e-03
7.248375252768617279e-03
7.532405598735640757e-03
7.815460411063639493e-03
8.097492288964483823e-03
8.378414046742011997e-03
8.658095912793532800e-03
8.936363280605144274e-03
9.212994942578173890e-03
9.487721858828348023e-03
9.760226524336612641e-03
1.003014293172347846e-02
1.029705714672914628e-02
1.056050866912381508e-02
1.081999236505127270e-02
1.107496107009646458e-02
1.132482889015764410e-02
1.156897516345853361e-02
1.180674892699766672e-02
1.203747415115626572e-02
1.226045532337635170e-02
1.247498358507515351e-02
1.268034327278340888e-02
1.287581880541499753e-02
1.306070182157890655e-02
1.323429844257722338e-02
1.339593672318387108e-02
1.354497407727162789e-02
1.368080460531279768e-02
1.380286622337065054e-02
1.391064751016360228e-02
1.400369430420919659e-02
1.408161575837259781e-02
1.414408991151747987e-02
1.419086865162341553e-02
1.422178197584432653e-02
1.423674160669911003e-02
1.423574381915546257e-02
1.421887137927559282e-02
1.418629464115653792e-02
1.413827190356522177e-02
1.407514876257090139e-02
1.399735661479681315e-02
1.390541030567939672e-02
1.379990490253234919e-02
1.368151168424308270e-02
1.355097339627896712e-02
1.340909876385479663e-02
1.325675637991332104e-02
1.309486799670748353e-02
1.292440131679322909e-02
1.274636240462541023e-02
1.256178774635029541e-02
1.237173608708350483e-02
1.217728018638615170e-02
1.197949843242829444e-02
1.177946657189639194e-02
1.157824963072067413e-02
1.137689404229348666e-02
1.117642006752374122e-02
1.097781467607141653e-02
1.078202487672551974e-02
1.058995161895852355e-02
1.040244424648207808e-02
1.022029569929516768e-02
1.004423835199909007e-02
9.874940592134350686e-03
9.713004179090935566e-03
9.558962237330118072e-03
9.413278146601438204e-03
9.276345041932121047e-03
9.148486117777732823e-03
9.029955582227962990e-03
8.920940194753652908e-03
8.821561532404587763e-03
8.731878717989589866e-03
8.651891561302721412e-03
8.581544190532136920e-03
8.520728982362791790e-03
8.469290761369666076e-03
8.427031164474730468e-03
8.393713129881550522e-03
8.369065428459769584e-03
8.352787176801846139e-03
8.344552208799656257e-03
8.344013271321561523e-03
8.350806042936562840e-03
8.364552796979488405e-03
8.384865785364266702e-03
8.411350264892822684e-03
8.443607093487136978e-03
8.481234995519138301e-03
8.523832307716311049e-03
8.570998357518377561e-03
8.622334402571835837e-03
8.677444197361956074e-03
8.735934116579991207e-03
8.797413038920866984e-03
8.861491850623093650e-03
8.927782725525031104e-03
8.995898132819904816e-03
9.065449724083733674e-03
9.136047159247262517e-03
9.207296917106507286e-03
9.278801029517615498e-03
9.350155901671529726e-03
9.420951288004056692e-03
9.490769527995998947e-03
9.559184949574084378e-03
9.625763594892765979e-03
9.690063232885319164e-03
9.751633740777358728e-03
9.810017833337998303e-03
9.864752280172859808e-03
9.915369473618415586e-03
9.961399384889501468e-03
1.000237189772731558e-02
1.003781948751336292e-02
1.006728030390519057e-02
1.009030150007712151e-02
1.010644282833644478e-02
1.011528039571097000e-02
1.011641056598060195e-02
1.010945395366602030e-02
1.009405940654349576e-02
1.006990795026583077e-02
1.003671650395593536e-02
9.994241404611595159e-03
9.942281641087227437e-03
9.880681756186414366e-03
9.809334212281336021e-03
9.728181333225661281e-03
9.637216697755633318e-03
9.536485908064110811e-03
9.426086737165044471e-03
9.306168626290916776e-03
9.176931444970407026e-03
9.038623673293250116e-03
8.891539855761253913e-03
8.736017392898262970e-03
8.572432676214696706e-03
8.401196700931394187e-03
8.222750085359279565e-03
8.037557666054141389e-03
7.846102709440506973e-03
7.648880788283835171e-03
7.446393440225413350e-03
7.239141736917893179e-03
7.027619798467486280e-03
6.812308473966990213e-03
6.593669088347881013e-03
6.372137586971487848e-03
6.148119040157303331e-03
5.921982669720235112e-03
5.694057473688458014e-03
5.464628502578068592e-03
5.233933919360830161e-03
5.002162866959179027e-03
4.769454206980677617e-03
4.535896169282819732e-03
4.301526952187028838e-03
4.066336274133035972e-03
3.830267831394701394e-03
3.593222714875460126e-03
3.355063707547963504e-03
3.115620375772177632e-03
2.874694952272805002e-03
2.632068919308437095e-03
2.387510106686822810e-03
2.140780319488587609e-03
1.891643300739710622e-03
1.639872959504274329e-03
1.385261689725518063e-03
1.127628656137263756e-03
8.668279102455669904e-04
6.027561925397275158e-04
3.353602622769106265e-04
6.464370714159977673e-05
-2.093269911479123005e-04
-4.864171939269178744e-04
-7.664198078188714288e-04
-1.049051926660153622e-03
-1.333952632708216342e-03
-1.620681934700114084e-03
-1.908720888901048940e-03
-2.197472964385264148e-03
-2.486266630192220887e-03
-2.774359194969728409e-03
-3.060941761202088090e-03
-3.345145398546404102e-03
-3.626048388870222686e-03
-3.902684356997591225e-03
-4.174051371108303612e-03
-4.439121765518722930e-03
-4.696852626549993803e-03
-4.946196724708007940e-03
-5.186113852880679283e-03
-5.415582304372769558e-03
-5.633610353972754586e-03
-5.839247601177744405e-03
-6.031596022970997679e-03
-6.209820567130784619e-03
-6.373159063195301191e-03
-6.520931440129191549e-03
-6.652548020555094400e-03
-6.767516786553356631e-03
-6.865449543206903968e-03
-6.946066859246388323e-03
-7.009201716982398425e-03
-7.054801756934392203e-03
-7.082930343190278581e-03
-7.093766105071986315e-03
-7.087601065200340583e-03
-7.064837559954821253e-03
-7.025983772215183693e-03
-6.971648090698905412e-03
-6.902532330562007740e-03
-6.819423874727470816e-03
-6.723186955828099748e-03
-6.614753138625361316e-03
-6.495111178235375704e-03
-6.365296297889681126e-03
-6.226379171449362288e-03
-6.079454806953515054e-03
-5.925631271617737630e-03
-5.766018629346437302e-03
-5.601718117656367610e-03
-5.433811760810708900e-03
-5.263352533984156159e-03
-5.091355144501776529e-03
-4.918787673537034291e-03
-4.746564085906969030e-03
-4.575537648709680771e-03
-4.406495416812089908e-03
-4.240153744624750726e-03
-4.077154865945441589e-03
-3.918064548085927953e-03
-3.763370853100939106e-03
-3.613483907430427907e-03
-3.468736662464179041e-03
-3.329386586483053245e-03
-3.195618235865409565e-03
-3.067546555870586528e-03
-2.945220819494910429e-03
-2.828629112920943035e-03
-2.717703325167755701e-03
-2.612324383422251050e-03
-2.512327745316211489e-03
-2.417508910001932819e-03
-2.327629008620899463e-03
-2.242420212410889836e-03
-2.161590913250165721e-03
-2.084830615206529139e-03
-2.011814404805494904e-03
-1.942206968660159386e-03
-1.875666086517660666e-03
-1.811845619608954501e-03
-1.750397943488573834e-03
-1.690975799556984583e-03
-1.633233570682413862e-03
-1.576828102549923585e-03
-1.521418963077453366e-03
-1.466668268162557879e-03
-1.412240202959850902e-03
-1.357800199439436256e-03
-1.303013901803858803e-03
-1.247546029713030415e-03
-1.191059151410201172e-03
-1.133212620478896322e-03
-1.073661613488090033e-03
-1.012056393724751696e-03
-9.480418769166300752e-04
-8.812577290776419910e-04
-8.113387916760193266e-04
-7.379161437678141960e-04
-6.606186695498438141e-04
-5.790752870026280108e-04
-4.929177548136688680e-04
-4.017841034870300626e-04
-3.053226654807397029e-04
-2.031966324827062071e-04
-9.508917110276440029e-05
1.929108213914104491e-05
1.402041462292271605e-04
2.678725699045163733e-04
4.024751470059096271e-04
5.441406370537519048e-04
6.929415469470155426e-04
8.488881883814477104e-04
1.011923059003725376e-03
1.181915772410760748e-03
1.358658570786994276e-03
1.541862633075743267e-03
1.731155349238730663e-03
1.926078428778253693e-03
2.126087217817688394e-03
2.330551101462570267e-03
2.538755253475028471e-03
2.749903594020330043e-03
2.963123075761013581e-03
3.177469235416859657e-03
3.391933074192522105e-03
3.605449159957239014e-03
3.816904964232402560e-03
4.025151148778873152e-03
4.229012974755697908e-03
4.427302470280250653e-03
4.618831327754451509e-03
4.802424291273564745e-03
4.976932945437659468e-03
5.141249638805073588e-03
5.294321340335536065e-03
5.435163265623455323e-03
5.562872029644799592e-03
5.676638135540789873e-03
5.775757597146059449e-03
5.859642494032970758e-03
5.927830294283579528e-03
5.979991728334900676e-03
6.015937096147830863e-03
6.035620941132585279e-03
6.039144873691073244e-03
6.026758515597391286e-03
5.998858531373366457e-03
5.955985673527918779e-03
5.898819869423263008e-03
5.828173411036755708e-03
5.744982279244191178e-03
5.650295625951524611e-03
5.545263707611549145e-03
5.431124230928423800e-03
5.309187390404577524e-03
5.180819842158342764e-03
5.047427662999455847e-03
4.910438574881651440e-03
4.771283842830167932e-03
4.631379855955259500e-03
4.492109790749729790e-03
4.354805584531380551e-03
4.220730521542039385e-03
4.091062628107404106e-03
3.966879178422390989e-03
3.849142398724044942e-03
3.738686741137971052e-03
3.636207865141524199e-03
3.542253499036733359e-03
3.457216310100176809e-03
3.381328890054466178e-03
3.314660925327500042e-03
3.257118657837142217e-03
3.208446663709865060e-03
3.168231869398164223e-03
3.135909782214461265e-03
3.110772915964002492e-03
3.091981189379521770e-03
3.078574247429558767e-03
3.069485500268427213e-03
3.063557710644747648e-03
3.059559897334863856e-03
3.056205326550519904e-03
3.052170248769370004e-03
3.046113405010928039e-03
3.036695662070690218e-03
3.022599685694181068e-03
3.002549385767207864e-03
2.975328815533116473e-03
2.939800275057510414e-03
2.894921362791415351e-03
2.839760702115591562e-03
2.773512218067767949e-03
2.695507598888367048e-03
2.605226964318598914e-03
2.502307412026697972e-03
2.386549451498651796e-03
2.257921146060164804e-03
2.116559977391789960e-03
1.962772346261241682e-03
1.797030765136390902e-03
1.619968682222652561e-03
1.432373157163157945e-03
1.235175375276864303e-03
1.029439207838058010e-03
8.163478593596943354e-04
5.971889587941465235e-04
3.733381266928163084e-04
1.462413166336242116e-04
-8.260378387859213141e-05
-3.116671979065145366e-04
-5.394064981590173790e-04
-7.642868652317498339e-04
-9.848011290065209530e-04
-1.199489480814163638e-03
-1.406958553604264030e-03
-1.605899707654303470e-03
-1.795106262227200329e-03
-1.973489410360985789e-03
-2.140092636229131567e-03
-2.294104380466282112e-03
-2.434868945862588528e-03
-2.561895317108651201e-03
-2.674863903451253893e-03
-2.773631067917172247e-03
-2.858231475227444775e-03
-2.928878063060447699e-03
-2.985959799022977826e-03
-3.030037150907533179e-03
-3.061835439781842184e-03
-3.082235980994030376e-03
-3.092265353037106784e-03
-3.093082706793661395e-03
-3.085965431889985122e-03
-3.072293354477857036e-03
-3.053531510012411597e-03
-3.031211921489657818e-03
-3.006914439163886101e-03
-2.982246959212988147e-03
-2.958825226296492392e-03
-2.938252502244086302e-03
-2.922099311602489088e-03
-2.911883552306738197e-03
-2.909051187389767937e-03
-2.914957714866265714e-03
-2.930850690741628860e-03
-2.957853514638404246e-03
-2.996950655230406352e-03
-3.048974482262205299e-03
-3.114593836058880683e-03
-3.194304559984939302e-03
-3.288422043169632412e-03
-3.397075855784599269e-03
-3.520206578255402879e-03
-3.657564792209161853e-03
-3.808712403606474752e-03
-3.973026097178334985e-03
-4.149702965771362960e-03
-4.337768288825909896e-03
-4.536085348686919212e-03
-4.743367079966868266e-03
-4.958189640599674000e-03
-5.179007503055370158e-03
-5.404170044198890015e-03
-5.631939363932786553e-03
-5.860509232296971446e-03
-6.088024839924988107e-03
-6.312603210375718546e-03
-6.532353967444342810e-03
-6.745400311414939329e-03
-6.949899855053402915e-03
-7.144065187151669820e-03
-7.326183851148380943e-03
-7.494637537685768479e-03
-7.647920270813968364e-03
-7.784655433537377572e-03
-7.903611284951428395e-03
-8.003714909952337753e-03
-8.084064495629511571e-03
-8.143939597610219336e-03
-8.182809468561308766e-03
-8.200339232894577821e-03
-8.196393850776964238e-03
-8.171039890367529437e-03
-8.124545016523463531e-03
-8.057375171220583152e-03
-7.970189584465742216e-03
-7.863833627018276470e-03
-7.739329523939446169e-03
-7.597865099626453442e-03
-7.440780629386835321e-03
-7.269554067325875897e-03
-7.085784689888163443e-03
-6.891175402555840476e-03
-6.687513969418040598e-03
-6.476653279513710539e-03
-6.260490941172702772e-03
-6.040948486006135487e-03
-5.819950365761411559e-03
-5.599403025557257892e-03
-5.381174209449043899e-03
-5.167072950582873685e-03
-4.958830291553010909e-03
-4.758081061887706707e-03
-4.566346844640739068e-03
-4.385020471321932761e-03
-4.215352060267746857e-03
-4.058436886538829662e-03
-3.915205150394487389e-03
-3.786413829800113363e-03
-3.672640638556586099e-03
-3.574280152766906322e-03
-3.491542185262567696e-03
-3.424452351871952287e-03
-3.372854814433145273e-03
-3.336417229602885257e-03
-3.314637669265754847e-03
-3.306853575075588934e-03
-3.312252463329964577e-03
-3.329884281225194576e-03
-3.358675260892994043e-03
-3.397443027907447611e-03
-3.444912724303925491e-03
-3.499733987555377849e-03
-3.560498500593894944e-03
-3.625757950773535274e-03
-3.694041992968714536e-03
-3.763876060278371037e-03
-3.833798811369698665e-03
-3.902378881747098262e-03
-3.968230845786882913e-03
-4.030030041761585927e-03
-4.086526159475228209e-03
-4.136555379806852728e-03
-4.179050947043157563e-03
-4.213052034592380292e-03
-4.237710767035683668e-03
-4.252297427322527558e-03
-4.256203706168247211e-03
-4.248944034961526887e-03
-4.230155031258052770e-03
-4.199593164624117886e-03
-4.157130579783040354e-03
-4.102749324219076218e-03
-4.036534033083674297e-03
-3.958663283291534614e-03
-3.869399750418365397e-03
-3.769079382970953827e-03
-3.658099916497195136e-03
-3.536908685053690923e-03
-3.405990255317359067e-03
-3.265853954387156095e-03
-3.117021565437917609e-03
-2.960015383977400091e-03
-2.795346954649513722e-03
-2.623506628083398500e-03
-2.444954149921350125e-03
-2.260110467082705916e-03
-2.069350828871269980e-03
-1.872999471122681206e-03
-1.671325843204605945e-03
-1.464542545192515800e-03
-1.252804889967550333e-03
-1.036212274975697057e-03
-8.148111673845683661e-04
-5.885997514725718662e-04
-3.575341966905709037e-04
-1.215362624320551552e-04
1.194977446812376249e-04
3.656869360773951712e-04
6.171548091582809269e-04
8.740175345705031426e-04
1.136371849413695583e-03
1.404282653556379991e-03
1.677770607296415282e-03
1.956800025543622198e-03
2.241267341460758452e-03
2.530990336431443791e-03
2.825698370755657263e-03
3.125023946823360377e-03
3.428495754266038670e-03
3.735533359195277771e-03
4.045443759868939601e-03
4.357419841100614900e-03
4.670540940104827253e-03
4.983775621112016170e-03
5.295986601609731573e-03
5.605937840431471884e-03
5.912303687954837891e-03
6.213680204632945209e-03
6.508598353540389660e-03
6.795538985372383788e-03
7.072949396520984700e-03
7.339261315486579271e-03
7.592909870759621642e-03
7.832353597112486424e-03
8.056094844587653042e-03
8.262700479031557035e-03
8.450822486103109349e-03
8.619218128231449436e-03
8.766769397898744112e-03
8.892501335390243927e-03
8.995599042812611051e-03
9.075422909247224043e-03
9.131521918215822903e-03
9.163644656749471082e-03
9.171747939719768206e-03
9.156002714413425878e-03
9.116797179621959069e-03
9.054737023214695993e-03
8.970642640645230467e-03
8.865543314687735973e-03
8.740668458302659760e-03
8.597435902197799601e-03
8.437437440453934498e-03
8.262421659243887606e-03
8.074274382038068923e-03
7.874996968400140018e-03
7.666682645079342558e-03
7.451491294753091917e-03
7.231622963938035345e-03
7.009290533364822412e-03
6.786691960666480471e-03
6.565982402284504908e-03
6.349246676569459541e-03
6.138472479971839035e-03
5.935524765757119355e-03
5.742121630965836207e-03
5.559812085402710859e-03
5.389956050155910242e-03
5.233707019944449507e-03
5.091997436171790542e-03
4.965527192255729527e-03
4.854755307483446351e-03
4.759895067993480736e-03
4.680912639487176501e-03
4.617529200729258293e-03
4.569226552979971726e-03
4.535256197416027632e-03
4.514651712334387390e-03
4.506244308001238624e-03
4.508681242771947137e-03
4.520446942735852069e-03
4.539886356278329677e-03
4.565230413513160328e-03
4.594623022950996075e-03
4.626149291124015926e-03
4.657864521724615174e-03
4.687823575030719038e-03
4.714110141960346778e-03
4.734865452233636383e-03
4.748316026665627861e-03
4.752800068147308710e-03
4.746792076135171630e-03
4.728925290296750322e-03
4.698011680341711120e-03
4.653059146778880904e-03
4.593285735749262633e-03
4.518130641348045394e-03
4.427261790818013548e-03
4.320580036333004394e-03
4.198219764890886302e-03
4.060546091832808666e-03
3.908148654772568807e-03
3.741831935780438097e-03
3.562602604319224219e-03
3.371653938472115621e-03
3.170347563984762113e-03
2.960192880232555626e-03
2.742824480392437245e-03
2.519977879716570491e-03
2.293464075310828153e-03
2.065143209660864378e-03
1.836897822498528366e-03
1.610606054065306372e-03
1.388115264034501172e-03
1.171216438810987210e-03
9.616197257740032164e-04
7.609315003296098379e-04
5.706333260838890266e-04
3.920629702029312740e-04
2.263977862456984381e-04
7.464073575591733615e-05
-6.239086547442189695e-05
-1.840738066066640677e-04
-2.899844661245078821e-04
-3.799013787308276038e-04
-4.538049315959873445e-04
-5.118742284199669134e-04
-5.544812973363798074e-04
-5.821827562050757620e-04
-5.957091910108215649e-04
-5.959524004106428637e-04
-5.839509031141705423e-04
-5.608738520834360714e-04
-5.280037972038502218e-04
-4.867184732454352147e-04
-4.384720033413799334e-04
-3.847758509990371499e-04
-3.271797684618196018e-04
-2.672530307154737409e-04
-2.065663005622149690e-04
-1.466742653045518857e-04
-8.909935370735139431e-05
-3.531669424631717134e-05
1.325956206032435018e-05
5.528842165012417533e-05
8.951260031599783229e-05
1.147674989200900909e-04
1.299885294808693760e-04
1.342168626905930245e-04
1.266036358185894362e-04
1.064127305443921076e-04
7.302223239143210002e-05
2.592470742039167943e-05
-3.527350114655783815e-05
-1.108538295228396773e-04
-2.009876697198486077e-04
-3.057390249638383098e-04
-4.250674232189706123e-04
-5.588309272854124782e-04
-7.067891441538118108e-04
-8.686060128579895867e-04
-1.043852284803632128e-03
-1.232007570671101110e-03
-1.432461934210866542e-03
-1.644517059069672401e-03
-1.867386883893047255e-03
-2.100197763287894957e-03
-2.341988238540848241e-03
-2.591708532256691271e-03
-2.848219944212030969e-03
-3.110294177822279030e-03
-3.376612931623025875e-03
-3.645767825059762542e-03
-3.916260909344765687e-03
-4.186505941452507186e-03
-4.454830772703267591e-03
-4.719480923338314517e-03
-4.978624603801069110e-03
-5.230359240162921197e-03
-5.472719804558231690e-03
-5.703689070372108816e-03
-5.921209736120077415e-03
-6.123198549639849095e-03
-6.307562397375563942e-03
-6.472216286188578298e-03
-6.615103158328343273e-03
-6.734215358447375940e-03
-6.827617504250245092e-03
-6.893470455060715305e-03
-6.930056174103539288e-03
-6.935803036674967684e-03
-6.909311222871799586e-03
-6.849377672488835694e-03
-6.755020280335092414e-03
-6.625500804626785652e-03
-6.460345908726830913e-03
-6.259365984251693410e-03
-6.022671222139888356e-03
-5.750684381485507944e-03
-5.444150062828779536e-03
-5.104139886552739799e-03
-4.732053310342034143e-03
-4.329613857280097122e-03
-3.898860569285367630e-03
-3.442134475884260723e-03
-2.962060097418115542e-03
-2.461522067466761620e-03
-1.943636945221472161e-03
-1.411720472666131050e-03
-8.692506187129426555e-04
-3.198267902886770529e-04
2.328741834523169701e-04
7.851449081897889874e-04
1.333296296680667754e-03
1.873707757881946283e-03
2.402877990303041705e-03
2.917475513232999172e-03
3.414388165957100030e-03
3.890770559963128376e-03
4.344088864529899348e-03
4.772161866352567401e-03
5.173197668935227561e-03
5.545825153667803195e-03
5.889119587499343396e-03
6.202621776866592933e-03
6.486350226451086283e-03
6.740805881223606993e-03
6.966969252086202546e-03
7.166289637350084334e-03
7.340666469041424655e-03
7.492423007607866385e-03
7.624272425350461097e-03
7.739276855394011494e-03
7.840799801479100828e-03
7.932452642303161605e-03
8.018036017070030372e-03
8.101476959531240737e-03
8.186762786660179911e-03
8.277872871184404485e-03
8.378709303251755114e-03
8.493027840130881745e-03
8.624370180779990930e-03
8.775998944580703717e-03
8.950836407431479388e-03
9.151408299112645875e-03
9.379793709538508661e-03
9.637582111858507272e-03
9.925838476546414504e-03
1.024507720543697299e-02
1.059524559508863602e-02
1.097571726636480983e-02
1.138529590314378212e-02
1.182222953074657523e-02
1.228423500791492144e-02
1.276853285864729994e-02
1.327189178491754856e-02
1.379068224682971494e-02
1.432093839376627833e-02
1.485842737876822556e-02
1.539872483006995453e-02
1.593729525311542508e-02
1.646957602789694483e-02
1.699106350155058301e-02
1.749739957865733761e-02
1.798445720905371067e-02
1.844842336409661943e-02
1.888587764291819668e-02
1.929386513435811523e-02
1.966996206787914592e-02
2.001233287657800883e-02
2.031977739773560554e-02
2.059176722346356750e-02
2.082847044973895612e-02
2.103076393688619802e-02
2.120023276135833343e-02
2.133915672718932760e-02
2.145048384754618537e-02
2.153779123882632041e-02
2.160523392794592296e-02
2.165748230723720316e-02
2.169964938963765688e-02
2.173720916105479142e-02
2.177590737655913863e-02
2.182166652730252107e-02
2.188048676482121091e-02
2.195834486395857252e-02
2.206109300816838648e-02
2.219435961350311320e-02
2.236345425919887553e-02
2.257327875778862222e-02
2.282824636509025659e-02
2.313221097486722541e-02
2.348840807707453654e-02
2.389940897710183046e-02
2.436708950978093424e-02
2.489261438582460878e-02
2.547643789764840461e-02
2.611832138449279861e-02
2.681736757237565202e-02
2.757207159343874961e-02
2.838038803243671249e-02
2.923981312571677371e-02
3.014748070340891525e-02
3.110027031529264893e-02
3.209492552210255895e-02
3.312818017716884916e-02
3.419689015917869168e-02
3.529816783710274658e-02
3.642951632424269032e-02
3.758896053121522918e-02
3.877517186030102203e-02
3.998758352925883136e-02
4.122649326703601430e-02
4.249315040433662705e-02
4.378982465303451338e-02
4.511985376720299007e-02
4.648766778727350668e-02
4.789878784011198515e-02
4.935979787737323349e-02
5.087828808349232484e-02
5.246276910474669680e-02
5.412255693035706444e-02
5.586762863166284954e-02
5.770844971534644374e-02
5.965577442193720908e-02
6.172042093814178454e-02
6.391302380823732365e-02
6.624376658218995850e-02
6.872209803535223038e-02
7.135643590207189912e-02
7.415386246081535904e-02
7.711981646074585195e-02
8.025778644143261031e-02
8.356901045979532594e-02
8.705218770813716311e-02
9.070320707862851439e-02
9.451489828411367700e-02
9.847681059282520355e-02
1.025750242397590467e-01
1.067919991861757539e-01
1.111064657702196951e-01
1.154933609554680829e-01
1.199238137588517494e-01
1.243651825427007362e-01
1.287811463447408877e-01
1.331318517163621040e-01
1.373741156879187131e-01
1.414616847671142652e-01
1.453455489896929020e-01
1.489743092800732138e-01
1.522945954856166073e-01
1.552515316684071056e-01
1.577892444853266074e-01
1.598514096959501307e-01
1.613818311001251615e-01
1.623250455311941454e-01
1.626269473126547849e-01
1.622354246011476764e-01
1.611009999880733956e-01
1.591774673556599906e-01
1.564225168373239716e-01
1.527983396118269555e-01
1.482722043428481018e-01
1.428169973357039935e-01
1.364117185172601943e-01
1.290419259705991861e-01
1.207001223231743692e-01
1.113860765586045382e-01
1.011070758613685228e-01
8.987810281459933381e-02
7.772193410617139753e-02
6.466915778203467802e-02
5.075810724153767550e-02
3.603471117651754763e-02
2.055225957984375962e-02
4.371087196096406537e-03
-1.244182321397760242e-02
-2.981331436552390329e-02
-4.766460023886812114e-02
-6.591187870864023690e-02
-8.446700467026142800e-02
-1.032382164970323812e-01
-1.221309080424156507e-01
-1.410484373580272177e-01
-1.598929632114780286e-01
-1.785662999493965453e-01
-1.969707807177837888e-01
-2.150101192871843314e-01
-2.325902603893557075e-01
-2.496202087475751785e-01
-2.660128270977250020e-01
-2.816855940462898999e-01
-2.965613128545482313e-01
-3.105687631969348828e-01
-3.236432883441681119e-01
-3.357273111007233468e-01
-3.467707728467419592e-01
-3.567314911100287200e-01
-3.655754317932577990e-01
-3.732768935291452816e-01
-3.798186027592911351e-01
-3.851917192460364014e-01
-3.893957527799121743e-01
-3.924383930508036911e-01
-3.943352556374405404e-01
-3.951095482328771946e-01
-3.947916622312619972e-01
-3.934186955225186244e-01
-3.910339132301444698e-01
-3.876861539663537526e-01
-3.834291896008933942e-01
-3.783210471429937494e-01
-3.724233017064512152e-01
-3.658003496994287063e-01
-3.585186715149926151e-01
-3.506460930342420457e-01
-3.422510550371355986e-01
-3.334018994909245803e-01
-3.241661810235677010e-01
-3.146100117497377391e-01
-3.047974467235703977e-01
-2.947899167477125437e-01
-2.846457144328581323e-01
-2.744195387325637503e-01
-2.641621018854662939e-01
-2.539198021057290089e-01
-2.437344643712625603e-01
-2.336431504984970431e-01
-2.236780387682446303e-01
-2.138663725206384203e-01
-2.042304760644510220e-01
-1.947878353802068307e-01
-1.855512402824106011e-01
-1.765289839597781185e-01
-1.677251149682317533e-01
-1.591397363754157857e-01
-1.507693460611111425e-01
-1.426072117758312163e-01
-1.346437743116325469e-01
-1.268670718610993564e-01
-1.192631785711222026e-01
-1.118166503586684180e-01
-1.045109709940299503e-01
-9.732899191370324166e-02
-9.025335923808590344e-02
-8.326692213336525650e-02
-7.635311696388277780e-02
-6.949632215892123654e-02
-6.268217956673224900e-02
-5.589787848624318267e-02
-4.913239939567454889e-02
-4.237671504829654961e-02
-3.562394731936732034e-02
-2.886947898321621728e-02
-2.211102041614038810e-02
-1.534863166491744028e-02
-8.584701298702203734e-03
-1.823883817942758981e-03
4.927001730949186024e-03
1.165910888013713120e-02
1.836173317119132661e-02
2.502250984340043463e-02
3.162763568286468263e-02
3.816211040727274240e-02
4.460999297945771047e-02
5.095466803874863088e-02
5.717911771332735704e-02
6.326619410014532041e-02
6.919888790681011370e-02
7.496058875718417114e-02
8.053533329350885672e-02
8.590803710608789501e-02
9.106470736472292715e-02
9.599263310548705741e-02
1.006805506717586562e-01
1.051187825059581443e-01
1.092993476765933003e-01
1.132160432288981805e-01
1.168644959738741607e-01
1.202421848011951955e-01
1.233484340289463105e-01
1.261843788963277480e-01
1.287529046444950420e-01
1.310585609753271430e-01
1.331074542580469033e-01
1.349071198502103663e-01
1.364663774807614582e-01
1.377951724470118378e-01
1.389044058995921871e-01
1.398057573522325792e-01
1.405115026327989625e-01
1.410343304686599020e-01
1.413871607839679301e-01
1.415829676457981967e-01
1.416346097854834785e-01
1.415546710755696547e-01
1.413553133070261092e-01
1.410481433841307974e-01
1.406440965186565861e-01
1.401533366678302250e-01
1.395851755644556824e-01
1.389480105901419182e-01
1.382492820228410635e-01
1.374954494432569507e-01
1.366919870471730858e-01
1.358433970497604226e-01
1.349532402107477824e-01
1.340241821207662776e-01
1.330580538311985916e-01
1.320559250403074980e-01
1.310181879846163133e-01
1.299446499084667972e-01
1.288346321872687605e-01
1.276870738189713472e-01
1.265006372057659589e-01
1.252738140074360629e-01
1.240050291158159568e-01
1.226927408419647841e-01
1.213355353757461785e-01
1.199322139639848184e-01
1.184818713436830151e-01
1.169839641502621042e-01
1.154383684161766344e-01
1.138454252767348296e-01
1.122059743128411002e-01
1.105213743992423531e-01
1.087935119990577765e-01
1.070247969207444860e-01
1.052181462432251746e-01
1.033769568648782167e-01
1.015050676425105353e-01
9.960671206408434897e-02
9.768646259635378748e-02
9.574916813370155932e-02
9.379988574928234402e-02
9.184380833754812734e-02
8.988618966169871494e-02
8.793226820623223361e-02
8.598719141110973407e-02
8.405594160689622285e-02
8.214326524020364173e-02
8.025360649545076885e-02
7.839104654630206503e-02
7.655924945032038798e-02
7.476141562703678134e-02
7.300024353586061221e-02
7.127790024952571080e-02
6.959600118725810247e-02
6.795559927279737344e-02
6.635718353251257584e-02
6.480068699591300108e-02
6.328550355278016182e-02
6.181051331984403069e-02
6.037411591487178153e-02
5.897427089831091401e-02
5.760854448339050582e-02
5.627416166941666409e-02
5.496806269606855505e-02
5.368696279528283738e-02
5.242741408637308087e-02
5.118586862479745231e-02
4.995874127906429346e-02
4.874247154460570330e-02
4.753358326916202331e-02
4.632874127445223839e-02
4.512480389044268292e-02
4.391887077171679338e-02
4.270832528014215090e-02
4.149087074008323689e-02
4.026456026485991657e-02
3.902781979924209443e-02
3.777946411142020511e-02
3.651870580020052243e-02
3.524515721699739146e-02
3.395882573945013111e-02
3.266010231160074162e-02
3.134974404121310121e-02
3.002885114658077406e-02
2.869883888158223165e-02
2.736140512650594991e-02
2.601849437844346372e-02
2.467225874928338433e-02
2.332501692144421657e-02
2.197921179380321263e-02
2.063736765375995957e-02
1.930204757726155032e-02
1.797581182699033511e-02
1.666117814956931398e-02
1.536058423831011301e-02
1.407635332222531566e-02
1.281066322615666275e-02
1.156551933152006120e-02
1.034273184382407396e-02
9.143897704672308141e-03
7.970387062416615931e-03
6.823334685488219482e-03
5.703636153389052103e-03
4.611948691461414430e-03
3.548696621432366558e-03
2.514081034447263659e-03
1.508093421778595187e-03
5.305328022514498509e-04
-4.189739824930923642e-04
-1.340949377913241850e-03
-2.236040119552622045e-03
-3.104990634037779924e-03
-3.948615569611348478e-03
-4.767771758985643940e-03
-5.563330410452428133e-03
-6.336149833795215285e-03
-7.087049401393530172e-03
-7.816785178018138130e-03
-8.526027593359112103e-03
-9.215341524145747795e-03
-9.885169232851856794e-03
-1.053581631208310929e-02
-1.116744090637064070e-02
-1.178004631723271814e-02
-1.237347711406159949e-02
-1.294741879741062932e-02
-1.350140083797432902e-02
-1.403480312634802427e-02
-1.454686552781808695e-02
-1.503670044758037214e-02
-1.550330806912816710e-02
-1.594559403610736059e-02
-1.636238913575394083e-02
-1.675247062852440808e-02
-1.711458488781064310e-02
-1.744747092327958091e-02
-1.774988431627560342e-02
-1.802062122719473927e-02
-1.825854206495986995e-02
-1.846259430045769576e-02
-1.863183424633940363e-02
-1.876544729874307649e-02
-1.886276635960026926e-02
-1.892328818170362428e-02
-1.894668738309569431e-02
-1.893282796814035190e-02
-1.888177203683202854e-02
-1.879378580498171358e-02
-1.866934267040262427e-02
-1.850912340376767093e-02
-1.831401344290391545e-02
-1.808509738562654248e-02
-1.782365080501473881e-02
-1.753112948272270849e-02
-1.720915628188640981e-02
-1.685950588366347258e-02
-1.648408753722890516e-02
-1.608492622587003040e-02
-1.566414245055124110e-02
-1.522393096750155467e-02
-1.476653875652678832e-02
-1.429424253872933238e-02
-1.380932622725379068e-02
-1.331405849732456882e-02
-1.281067078763103127e-02
-1.230133616632007355e-02
-1.178814917227334613e-02
-1.127310701001751556e-02
-1.075809213718578565e-02
-1.024485664853957458e-02
-9.735008505294195230e-03
-9.229999834336807124e-03
-8.731117297060463078e-03
-8.239474697508875414e-03
-7.756007854913606579e-03
-7.281471794094821447e-03
-6.816440147931258388e-03
-6.361306841523621351e-03
-5.916289824884532131e-03
-5.481436988013075988e-03
-5.056633884422059508e-03
-4.641613280116097147e-03
-4.235966310396441052e-03
-3.839155058990882836e-03
-3.450526371112129509e-03
-3.069326676859759906e-03
-2.694717604281877260e-03
-2.325792160338879030e-03
-1.961591221487442912e-03
-1.601120176500871357e-03
-1.243365431695148344e-03
-8.873105843510290316e-04
-5.319520418014687859e-04
-1.763139181931380219e-04
1.805380254720194031e-04
5.394834821100748419e-04
9.013359912809162542e-04
1.266832666953772012e-03
1.636625430379666209e-03
2.011273822517236666e-03
2.391239427753803163e-03
2.776882019749772612e-03
3.168457355766611007e-03
3.566116675833445882e-03
3.969907926498293833e-03
4.379778487568686783e-03
4.795579511931388240e-03
5.217071700856877950e-03
5.643932361454004690e-03
6.075763771481396645e-03
6.512102503806595916e-03
6.952429670567443140e-03
7.396181897217070540e-03
7.842762841000931739e-03
8.291555070627001575e-03
8.741932127196861552e-03
9.193270509136357987e-03
9.644961478551428158e-03
1.009642244224122354e-02
1.054710781126574036e-02
1.099651905746057250e-02
1.144421382920826624e-02
1.188981406307207216e-02
1.233301287747884389e-02
1.277358012904878520e-02
1.321136664006856629e-02
1.364630694870818187e-02
1.407842049527602800e-02
1.450781129297576758e-02
1.493466609656097198e-02
1.535925099209428830e-02
1.578190651580210768e-02
1.620304138747689915e-02
1.662312487550291276e-02
1.704267799732661279e-02
1.746226360310276088e-02
1.788247554863386934e-02
1.830392703163362042e-02
1.872723841275280784e-02
1.915302459481314085e-02
1.958188221959713399e-02
2.001437683959304478e-02
2.045103027840336485e-02
2.089230841511348011e-02
2.133860954605368634e-02
2.179025357503841867e-02
2.224747215348525653e-02
2.271039996684912771e-02
2.317906732285429303e-02
2.365339421940367698e-02
2.413318594893760008e-02
2.461813030553366630e-02
2.510779658663738617e-02
2.560163631154471417e-02
2.609898577771510922e-02
2.659907031053089857e-02
2.710101034356662136e-02
2.760382913312751929e-02
2.810646205960950703e-02
2.860776745355762818e-02
2.910653869434735169e-02
2.960151758740962175e-02
3.009140866646355800e-02
3.057489436040750075e-02
3.105065070956221709e-02
3.151736346948914164e-02
3.197374446131221598e-02
3.241854775805804584e-02
3.285058559021399038e-02
3.326874370700093342e-02
3.367199596446802251e-02
3.405941797861733455e-02
3.443019949671008439e-02
3.478365550218221608e-02
3.511923570435896563e-02
3.543653237268040018e-02
3.573528637004734498e-02
3.601539126061273355e-02
3.627689548903239442e-02
3.652000250449765478e-02
3.674506885358680419e-02
3.695260023110561592e-02
3.714324561927073026e-02
3.731778952452682180e-02
3.747714246972715796e-02
3.762232969428091350e-02
3.775447842398870629e-02
3.787480386215941880e-02
3.798459395446354692e-02
3.808519323786167809e-02
3.817798601271626957e-02
3.826437897878599143e-02
3.834578369106549089e-02
3.842359901037697284e-02
3.849919373942887330e-02
3.857388977736147390e-02
3.864894598058460362e-02
3.872554296716575889e-02
3.880476895115530372e-02
3.888760691567844097e-02
3.897492327956299241e-02
3.906745819319079605e-02
3.916581744679389909e-02
3.927046630338250355e-02
3.938172518431452829e-02
3.949976717301764695e-02
3.962461755060142643e-02
3.975615517348317363e-02
3.989411564025604345e-02
4.003809630947763321e-02
4.018756296694372260e-02
4.034185801843421376e-02
4.050021006193757489e-02
4.066174477704400519e-02
4.082549678584065228e-02
4.099042242570382494e-02
4.115541317285027756e-02
4.131930950249552981e-02
4.148091503317211104e-02
4.163901068568059277e-02
4.179236861669161085e-02
4.193976585096460818e-02
4.207999729774840325e-02
4.221188801711563826e-02
4.233430454460311576e-02
4.244616525150241015e-02
4.254644935303298486e-02
4.263420472782610687e-02
4.270855426585036529e-02
4.276870080040448552e-02
4.281393052988880649e-02
4.284361495260462921e-02
4.285721121537057476e-02
4.285426108978925702e-02
4.283438840977551315e-02
4.279729525358176578e-02
4.274275687478149705e-02
4.267061538776448226e-02
4.258077256349052098e-02
4.247318165507905918e-02
4.234783855308346667e-02
4.220477237189417669e-02
4.204403563856501380e-02
4.186569428103671664e-02
4.166981753625214474e-02
4.145646796851010923e-02
4.122569187152514553e-02
4.097750994488950221e-02
4.071190870593378863e-02
4.042883254651886277e-02
4.012817669944779980e-02
3.980978114833704645e-02
3.947342560952250834e-02
3.911882564259062944e-02
3.874562992905918046e-02
3.835341886411190726e-02
3.794170436298753557e-02
3.750993088997680441e-02
3.705747783685880287e-02
3.658366301957322042e-02
3.608774751902865674e-02
3.556894146983676647e-02
3.502641091191401740e-02
3.445928568534698672e-02
3.386666805498531746e-02
3.324764210044726942e-02
3.260128373865465307e-02
3.192667123696041331e-02
3.122289602407251133e-02
3.048907373642342419e-02
2.972435539962028569e-02
2.892793853566761123e-02
2.809907800592428839e-02
2.723709670263983751e-02
2.634139570720051698e-02
2.541146391803510846e-02
2.444688700532650361e-02
2.344735569370917649e-02
2.241267317889293620e-02
2.134276160202987216e-02
2.023766757207869429e-02
1.909756666737533887e-02
1.792276682608425278e-02
1.671371069752135285e-02
1.547097681476408519e-02
1.419527967180617828e-02
1.288746865870890254e-02
1.154852591973993571e-02
1.017956307600351336e-02
8.781816950751185694e-03
7.356644274640875870e-03
5.905515461226527527e-03
4.430007456494868510e-03
2.931795772026349160e-03
1.412645852004305565e-03
-1.255963348922018146e-04
-1.681014206029507463e-03
-3.251630999436466891e-03
-4.835420607850178173e-03
-6.430318710907835175e-03
-8.034234140107544830e-03
-9.645060328514160758e-03
-1.126068679585635370e-02
-1.287901056904721536e-02
-1.449794741527133356e-02
-1.611544280998416026e-02
-1.772948254705647084e-02
-1.933810294856197487e-02
-2.093940053862327136e-02
-2.253154107767339417e-02
-2.411276793631605964e-02
-2.568140967705963978e-02
-2.723588685587450403e-02
-2.877471795521067618e-02
-3.029652435185427317e-02
-3.180003434861687628e-02
-3.328408619280975866e-02
-3.474763003291204272e-02
-3.618972884954572283e-02
-3.760955832628590234e-02
-3.900640559737412333e-02
-4.037966701759035382e-02
-4.172884485626631584e-02
-4.305354296582347695e-02
-4.435346149338950661e-02
-4.562839070464016350e-02
-4.687820395066645551e-02
-4.810284983013445037e-02
-4.930234366390479767e-02
-5.047675832632223664e-02
-5.162621457252263707e-02
-5.275087092714946663e-02
-5.385091338490378965e-02
-5.492654478148692454e-02
-5.597797420614458730e-02
-5.700540644515768307e-02
-5.800903165066557260e-02
-5.898901532774479539e-02
-5.994548873639846120e-02
-6.087853994509327682e-02
-6.178820554606988258e-02
-6.267446321893960226e-02
-6.353722517378446177e-02
-6.437633267339770704e-02
-6.519155168185053473e-02
-6.598256965523349726e-02
-6.674899359761944651e-02
-6.749034952335773718e-02
-6.820608312927074757e-02
-6.889556195023799345e-02
-6.955807878712853831e-02
-7.019285649242525127e-02
-7.079905413969295180e-02
-7.137577433957699446e-02
-7.192207183621870947e-02
-7.243696313479928983e-02
-7.291943716679478993e-02
-7.336846677287924001e-02
-7.378302092477646845e-02
-7.416207754421026699e-02
-7.450463678252246258e-02
-7.480973456304013114e-02
-7.507645610512816980e-02
-7.530394946533558453e-02
-7.549143876110987750e-02
-7.563823691908269642e-02
-7.574375783098914738e-02
-7.580752768429926958e-02
-7.582919529328083219e-02
-7.580854127669689468e-02
-7.574548611045059388e-02
-7.564009666316709457e-02
-7.549259118944276481e-02
-7.530334284701002689e-02
-7.507288146474325186e-02
-7.480189359039898789e-02
-7.449122087376665313e-02
-7.414185668231705606e-02
-7.375494096369834829e-02
-7.333175346404412209e-02
-7.287370532665415901e-02
-7.238232921826329158e-02
-7.185926801374950545e-02
-7.130626227667891115e-02
-7.072513658647068546e-02
-7.011778497170484403e-02
-6.948615554225194557e-02
-6.883223462772071477e-02
-6.815803052384855620e-02
-6.746555709184380578e-02
-6.675681746696016106e-02
-6.603378804479326236e-02
-6.529840292771955934e-02
-6.455253912320620124e-02
-6.379800262141351042e-02
-6.303651548703248508e-02
-6.226970421593108068e-02
-6.149908948867471858e-02
-6.072607744128691309e-02
-5.995195256135906620e-02
-5.917787217132151889e-02
-5.840486275014936113e-02
-5.763381802786306934e-02
-5.686549884075445954e-02
-5.610053471605220415e-02
-5.533942710365124390e-02
-5.458255431424199194e-02
-5.383017793107250371e-02
-5.308245062113989277e-02
-5.233942515560745246e-02
-5.160106448371574311e-02
-5.086725273535707553e-02
-5.013780695020744749e-02
-4.941248919477093937e-02
-4.869101897969376619e-02
-4.797308581880689593e-02
-4.725836155488236795e-02
-4.654651231390819627e-02
-4.583720987352279952e-02
-4.513014232653843327e-02
-4.442502367591188994e-02
-4.372160239789601305e-02
-4.301966875061567080e-02
-4.231906070451194046e-02
-4.161966828844139432e-02
-4.092143655270668451e-02
-4.022436681390158947e-02
-3.952851638290992564e-02
-3.883399668703598623e-02
-3.814096979660101111e-02
-3.744964353495685433e-02
-3.676026519588027064e-02
-3.607311410222553000e-02
-3.538849294367124587e-02
-3.470671826196638360e-02
-3.402811026160554309e-02
-3.335298199729809510e-02
-3.268162831672757201e-02
-3.201431476256332009e-02
-3.135126653160664328e-02
-3.069265793155339164e-02
-3.003860246554906910e-02
-2.938914369649909403e-02
-2.874424717778296945e-02
-2.810379370336774096e-02
-2.746757396215434438e-02
-2.683528478979007453e-02
-2.620652714776738543e-02
-2.558080593814738776e-02
-2.495753182348169757e-02
-2.433602489242060740e-02
-2.371552032745607302e-02
-2.309517607704724904e-02
-2.247408229861478854e-02
-2.185127271886231140e-02
-2.122573766300984294e-02
-2.059643851543404083e-02
-1.996232358253001091e-02
-1.932234512768364609e-02
-1.867547721932628565e-02
-1.802073425416870003e-02
-1.735718981451525936e-02
-1.668399557600517419e-02
-1.600039998859772300e-02
-1.530576649386470450e-02
-1.459959084409877261e-02
-1.388151729860812034e-02
-1.315135339579677314e-02
-1.240908299211098201e-02
-1.165487743930761731e-02
-1.088910451050945950e-02
-1.011233496477199553e-02
-9.325346504542491102e-03
-8.529125077228277840e-03
-7.724863363247635312e-03
-6.913956377129059500e-03
-6.097994169193360521e-03
-5.278751660353560825e-03
-4.458175623422806419e-03
-3.638368971451878039e-03
-2.821572487216267820e-03
-2.010144129834771573e-03
-1.206536246529107915e-03
-4.132708001904183536e-04
3.670870505215978008e-04
1.131956622710425043e-03
1.878770289166901237e-03
2.605002770479586741e-03
3.308200560210642922e-03
3.986011216805976191e-03
4.636212091952982353e-03
5.256738046351002412e-03
5.845707950392667676e-03
6.401449327190300922e-03
6.922521108237262959e-03
7.407733842293250451e-03
7.856167256951578776e-03
8.267184876645980104e-03
8.640445400559670572e-03
8.975910686918404241e-03
9.273850222748524635e-03
9.534841872099433097e-03
9.759768993934107156e-03
9.949813796245939035e-03
1.010644699001158817e-02
1.023141386662791349e-02
1.032671706441760581e-02
1.039459586573308371e-02
1.043750262897371640e-02
1.045807637882088109e-02
1.045911411500743786e-02
1.044353991516227230e-02
1.041437240820133371e-02
1.037469087732160317e-02
1.032760062157767923e-02
1.027619781659179325e-02
1.022353441005576478e-02
1.017258350126680824e-02
1.012620565862825187e-02
1.008711654733311300e-02
1.005785636830763483e-02
1.004076148489157355e-02
1.003793859135562044e-02
1.005124172191340128e-02
1.008225247133364214e-02
1.013226362890148717e-02
1.020226650247354171e-02
1.029294200449760305e-02
1.040465574081134506e-02
1.053745697572860268e-02
1.069108164287906754e-02
1.086495933967583823e-02
1.105822413729145096e-02
1.126972898779539205e-02
1.149806380649866233e-02
1.174157666325380441e-02
1.199839796239463713e-02
1.226646719727087984e-02
1.254356202750788775e-02
1.282732919816368354e-02
1.311531680482321514e-02
1.340500768220174652e-02
1.369385326437174734e-02
1.397930753374376778e-02
1.425886056567623322e-02
1.453007133173117235e-02
1.479059918683871613e-02
1.503823365268735536e-02
1.527092220504610437e-02
1.548679556796607112e-02
1.568419022648817260e-02
1.586166791957094313e-02
1.601803181606341331e-02
1.615233913467292726e-02
1.626391025296553688e-02
1.635233394156664077e-02
1.641746887916617145e-02
1.645944136228943630e-02
1.647863931919820238e-02
1.647570270014903429e-02
1.645151041758449728e-02
1.640716413405974780e-02
1.634396904464735512e-02
1.626341201795132585e-02
1.616713737328625070e-02
1.605692071562627582e-02
1.593464121333655961e-02
1.580225262563631633e-02
1.566175376284016998e-02
1.551515858751408711e-02
1.536446638207604118e-02
1.521163251716482236e-02
1.505854031926047790e-02
1.490697421812481327e-02
1.475859470423039263e-02
1.461491550492885656e-02
1.447728314098812620e-02
1.434685922816325912e-02
1.422460581060598118e-02
1.411127380760344302e-02
1.400739486478176470e-02
1.391327653363838568e-02
1.382900108700267812e-02
1.375442771498572823e-02
1.368919814136630893e-02
1.363274559515077061e-02
1.358430689333944841e-02
1.354293754105965336e-02
1.350752953608420903e-02
1.347683165177565069e-02
1.344947183009523144e-02
1.342398134894257078e-02
1.339882039717360876e-02
1.337240469886125625e-02
1.334313266731283927e-02
1.330941285123876140e-02
1.326969113292186114e-02
1.322247730127882638e-02
1.316637062797438792e-02
1.310008400184263684e-02
1.302246623445374625e-02
1.293252245174293831e-02
1.282943193965049508e-02
1.271256334184932626e-02
1.258148700405361219e-02
1.243598421431858433e-02
1.227605324498877437e-02
1.210191214347593539e-02
1.191399820065715438e-02
1.171296406193046528e-02
1.149967059339160672e-02
1.127517661861243865e-02
1.104072565256770076e-02
1.079772989526735401e-02
1.054775158915557086e-02
1.029248224050984158e-02
1.003371973535018523e-02
9.773343938502633554e-03
9.513290989470724740e-03
9.255526755991096144e-03
9.002019748746458924e-03
8.754713990684569874e-03
8.515502151475583259e-03
8.286199424379539491e-03
8.068518418336959042e-03
7.864045522477351377e-03
7.674219061950556149e-03
7.500309510039428369e-03
7.343402107560814164e-03
7.204382032566379775e-03
7.083922434791999588e-03
6.982475406083425706e-03
6.900266117705939131e-03
6.837290105545873464e-03
6.793313689680853702e-03
6.767877566962135494e-03
6.760303584450793810e-03
6.769704377503030224e-03
6.794995964547410547e-03
6.834912882331792110e-03
6.888025722379199738e-03
6.952760795732764940e-03
7.027421637376680789e-03
7.110211960945027505e-03
7.199259801979900411e-03
7.292642472651494553e-03
7.388411947787673975e-03
7.484620220244538741e-03
7.579344415990044506e-03
7.670711234960200797e-03
7.756920347978188413e-03
7.836266440484962459e-03
7.907159586103362434e-03
7.968143748487034952e-03
8.017913067237704763e-03
8.055325725739619774e-03
8.079415276092899792e-03
8.089399252225714862e-03
8.084684987033515652e-03
8.064872614542450621e-03
8.029755224468186625e-03
7.979316224738599445e-03
7.913723976741685040e-03
7.833323890298784023e-03
7.738628008048650288e-03
7.630302361159499273e-03
7.509152454491063548e-03
7.376106885419046570e-03
7.232199582867168512e-03
7.078550817380013793e-03
6.916347432913602308e-03
6.746822537848939406e-03
6.571235066991806990e-03
6.390849457572619213e-03
6.206915804803580898e-03
6.020650843345527747e-03
5.833219980165399096e-03
5.645720725325497485e-03
5.459167713133120277e-03
5.274479559460564133e-03
5.092467773481277118e-03
4.913827808616111521e-03
4.739132419632842430e-03
4.568827413542494650e-03
4.403229767503254351e-03
4.242528215974475034e-03
4.086786109853123364e-03
3.935946617128881046e-03
3.789840086511470345e-03
3.648193360443948222e-03
3.510640899593818476e-03
3.376737554283769371e-03
3.245972614214005358e-03
3.117784972289940146e-03
2.991579092580348188e-03
2.866741387963338012e-03
2.742656895776857204e-03
2.618725781381312217e-03
2.494379451153456301e-03
2.369095939334256527e-03
2.242414268132388987e-03
2.113947612290508794e-03
1.983394865396314807e-03
1.850550552843430174e-03
1.715312800422712789e-03
1.577689213734898878e-03
1.437800597713744096e-03
1.295882370692712140e-03
1.152283676446837386e-03
1.007464163084192867e-03
8.619884679999860423e-04
7.165184672674751194e-04
5.718034853285344820e-04
4.286685036446265425e-04
2.880006181087282706e-04
1.507339304084050864e-04
1.783316296657570322e-05
-1.097237628795549576e-04
-2.309639138957201860e-04
-3.449379701617276135e-04
-4.507389868183631423e-04
-5.475209447555407427e-04
-6.345167677850870351e-04
-7.110555232127987579e-04
-7.765784953222696274e-04
-8.306538073801411409e-04
-8.729893440092381012e-04
-9.034437391113956523e-04
-9.220351699083914783e-04
-9.289478061272222207e-04
-9.245357719963819519e-04
-9.093244464073693863e-04
-8.840091072959236100e-04
-8.494508408054655827e-04
-8.066697230526619989e-04
-7.568353625617258405e-04
-7.012548690961037910e-04
-6.413584340009917959e-04
-5.786825827892318717e-04
-5.148514549827298576e-04
-4.515563025487395721e-04
-3.905334985957499019e-04
-3.335413473739127534e-04
-2.823360184493342389e-04
-2.386469844460176973e-04
-2.041522563312518580e-04
-1.804538646074593192e-04
-1.690539041898616375e-04
-1.713314747758721711e-04
-1.885209264168088441e-04
-2.216917379429467010e-04
-2.717303276938256087e-04
-3.393240662803284537e-04
-4.249478314905637483e-04
-5.288532225646781944e-04
-6.510607208388272853e-04
-7.913548372583913875e-04
-9.492825577929092694e-04
-1.124154907450108151e-03
-1.315051739359191299e-03
-1.520829832926971553e-03
-1.740134058386031421e-03
-1.971411603146832562e-03
-2.212928974857554347e-03
-2.462791705423753030e-03
-2.718966367918070753e-03
-2.979304728154344006e-03
-3.241569785845983907e-03
-3.503463104017946663e-03
-3.762653338373844487e-03
-4.016805374697263696e-03
-4.263609845792886051e-03
-4.500812502506468596e-03
-4.726242992267368388e-03
-4.937842494059319076e-03
-5.133691114934028563e-03
-5.312032929353741918e-03
-5.471298938337107974e-03
-5.610127847510780648e-03
-5.727384202597359322e-03
-5.822173663045055424e-03
-5.893855266669767792e-03
-5.942050368413305875e-03
-5.966648264566801370e-03
-5.967808404188324096e-03
-5.945959071713529005e-03
-5.901792576857440610e-03
-5.836257070738961640e-03
-5.750545104986212568e-03
-5.646079008625624548e-03
-5.524493335624663590e-03
-5.387614620870439033e-03
-5.237438691478553746e-03
-5.076105898653569121e-03
-4.905874526240415999e-03
-4.729092772415250528e-03
-4.548169716760036216e-03
-4.365545597657360423e-03
-4.183661885400064007e-03
-4.004931392519670182e-03
-3.831708947132366535e-03
-3.666263010885832067e-03
-3.510748561053772619e-03
-3.367181568826098544e-03
-3.237415479245912050e-03
-3.123119934920501415e-03
-3.025761923818624105e-03
-2.946589767096747560e-03
-2.886619947279912488e-03
-2.846626937207962383e-03
-2.827136325137559296e-03
-2.828421042888351524e-03
-2.850500841436591579e-03
-2.893144915767136005e-03
-2.955877694589173921e-03
-3.037987521064653904e-03
-3.138538227119160029e-03
-3.256383286419093585e-03
-3.390182365978295677e-03
-3.538420029960836349e-03
-3.699426285147646831e-03
-3.871398618606203008e-03
-4.052425310274549233e-03
-4.240509606518384073e-03
-4.433594420309116407e-03
-4.629587239825249181e-03
-4.826384974063059781e-03
-5.021898243514950726e-03
-5.214074939479037066e-03
-5.400922690699504376e-03
-5.580529971111474093e-03
-5.751085670196297295e-03
-5.910896814759284898e-03
-6.058404260770577747e-03
-6.192196305032975079e-03
-6.311019955066755893e-03
-6.413789878794699806e-03
-6.499594992875755602e-03
-6.567702544634492802e-03
-6.617559947747622857e-03
-6.648794201557420465e-03
-6.661209148952759382e-03
-6.654780627092389197e-03
-6.629649693065797073e-03
-6.586114106811391880e-03
-6.524618216958892949e-03
-6.445741532235819277e-03
-6.350186250579735632e-03
-6.238763753242153147e-03
-6.112380591075028055e-03
-5.972024082373994167e-03
-5.818747743334334172e-03
-5.653656825455461755e-03
-5.477894163271105482e-03
-5.292626496258347711e-03
-5.099031493242961628e-03
-4.898285735009137373e-03
-4.691553630363214968e-03
-4.479977408630126702e-03
-4.264668396605773501e-03
-4.046699566253917843e-03
-3.827099412894059693e-03
-3.606847128990477852e-03
-3.386869024168034578e-03
-3.168036298804325409e-03
-2.951163906838821186e-03
-2.737010572331690945e-03
-2.526279744095725338e-03
-2.319621463456027471e-03
-2.117634804197875576e-03
-1.920870939190676705e-03
-1.729836622361256935e-03
-1.544997859512819635e-03
-1.366783653338803951e-03
-1.195589702940218560e-03
-1.031781793038642628e-03
-8.756988449366443633e-04
-7.276554130387443862e-04
-5.879435933162915559e-04
-4.568342555708726081e-04
-3.345775009601733739e-04
-2.214022630197015238e-04
-1.175151289188798191e-04
-2.309827024461100599e-05
6.169334868836380721e-05
1.367355824800656162e-04
2.019393095749440680e-04
2.572552758696750475e-04
3.026793753224010677e-04
3.382581922659253209e-04
3.640947549897031619e-04
3.803542276213330345e-04
3.872694841940592858e-04
3.851462556939861683e-04
3.743678075803723825e-04
3.553988254242027175e-04
3.287884618039758075e-04
2.951723144771972252e-04
2.552732290552665959e-04
2.099007644056554247e-04
1.599492044509506587e-04
1.063940743348030409e-04
5.028705175752611615e-05
-7.250693118042685073e-06
-6.503679681042770304e-05
-1.218375749663085653e-04
-1.763794075912722566e-04
-2.273615672707820590e-04
-2.734702709642065259e-04
-3.133939623729264934e-04
-3.458395303491327405e-04
-3.695492569468300189e-04
-3.833183186868211866e-04
-3.860125539578432774e-04
-3.765862367154770157e-04
-3.540995992110727137e-04
-3.177357404681393658e-04
-2.668167410482418281e-04
-2.008186344000043315e-04
-1.193850090874564373e-04
-2.233891542970418642e-05
9.030713316903200946e-05
2.183433176929222553e-04
3.613570079173044291e-04
5.187297693444696415e-04
6.896370079981713501e-04
8.730503895035390122e-04
1.067743083762442849e-03
1.272297882656404054e-03
1.485118071456603987e-03
1.704441073500692627e-03
1.928354709844259940e-03
2.154815996737848970e-03
2.381672279153091310e-03
2.606684313676806922e-03
2.827551286547303876e-03
3.041937267275837947e-03
3.247498861709244896e-03
3.441913657512476760e-03
3.622909110074554184e-03
3.788291507169458394e-03
3.935974571615881434e-03
4.064007273991725698e-03
4.170600585594017723e-03
4.254152637658660877e-03
4.313272001853475646e-03
4.346798634583161000e-03
4.353822268697410923e-03
4.333697934385409394e-03
4.286058236329680360e-03
4.210822382475100552e-03
4.108201572087038025e-03
3.978700713887822933e-03
3.823116423934591092e-03
3.642531173718160150e-03
3.438303754409586643e-03
3.212056039005927420e-03
2.965656223991208068e-03
2.701198671417284324e-03
2.420980653270421359e-03
2.127476228110410008e-03
1.823307657188039587e-03
1.511214642737684997e-03
1.194021748590231224e-03
8.746045413585249199e-04
5.558548311124458406e-04
2.406454791073477865e-04
-6.820476105128549487e-05
-3.679658561641945989e-04
-6.560301611549725510e-04
-9.299446541057721904e-04
-1.187441147275725487e-03
-1.426464278580187681e-03
-1.645196836504403317e-03
-1.842081951014859715e-03
-2.015841934527398596e-03
-2.165493488085338310e-03
-2.290358997758876105e-03
-2.390073850018189453e-03
-2.464589601475872683e-03
-2.514172882571913837e-03
-2.539400214633794495e-03
-2.541148597765148162e-03
-2.520582172137388055e-03
-2.479134923322702608e-03
-2.418489916337905089e-03
-2.340555099400058736e-03
-2.247436199341059510e-03
-2.141406927053169252e-03
-2.024877013331892895e-03
-1.900358403982846953e-03
-1.770430221370172764e-03
-1.637702849401988193e-03
-1.504781735484820573e-03
-1.374231333314418230e-03
-1.248539722872785834e-03
-1.130084487535762796e-03
-1.021100160907896862e-03
-9.236478094399553718e-04
-8.395871469927973117e-04
-7.705515980316891269e-04
-7.179266723605299064e-04
-6.828318389372503528e-04
-6.661062445467046860e-04
-6.682985600580386865e-04
-6.896609406530379181e-04
-7.301473375347476572e-04
-7.894160293033221712e-04
-8.668364774099176486e-04
-9.615002706871960802e-04
-1.072236116734031578e-03
-1.197628681707954904e-03
-1.336040887847535219e-03
-1.485639452186438220e-03
-1.644423232125000970e-03
-1.810254080719576279e-03
-1.980889596404197730e-03
-2.154017409557840157e-03
-2.327290530093372063e-03
-2.498363153118922028e-03
-2.664926425456531304e-03
-2.824743736724529258e-03
-2.975684870013553095e-03
-3.115758563956497543e-03
-3.243143046958630975e-03
-3.356214087637622145e-03
-3.453570005978462074e-03
-3.534053429436873322e-03
-3.596769314666321739e-03
-3.641099071136951870e-03
-3.666710511316821023e-03
-3.673563359728942296e-03
-3.661910406709207536e-03
-3.632294056104045776e-03
-3.585538461741867057e-03
-3.522737262089415452e-03
-3.445237053277820823e-03
-3.354616906700561788e-03
-3.252664086162142688e-03
-3.141346399067090293e-03
-3.022781577939786732e-03
-2.899204001012188441e-03
-2.772929377471903059e-03
-2.646317909182386088e-03
-2.521736400926028170e-03
-2.401519902687797303e-03
-2.287933491117439492e-03
-2.183134785646115208e-03
-2.089137707404150474e-03
-2.007778152175221202e-03
-1.940681957035298322e-03
-1.889235825580002325e-03
-1.854561674519684695e-03
-1.837494701890398513e-03
-1.838565751558104066e-03
-1.857988087879905046e-03
-1.895648940761602728e-03
-1.951106032169308427e-03
-2.023589079737465012e-03
-2.112006362420072725e-03
-2.214956376408455749e-03
-2.330744395094682710e-03
-2.457403670862814016e-03
-2.592721189210949080e-03
-2.734267418230734194e-03
-2.879429752602743336e-03
-3.025449160399799713e-03
-3.169459520889419610e-03
-3.308529003957953046e-03
-3.439702997960651393e-03
-3.560047798652900101e-03
-3.666694461945381976e-03
-3.756882163651333387e-03
-3.828000375215345578e-03
-3.877629114975409460e-03
-3.903576693500660725e-03
-3.903914333732099763e-03
-3.877007078675404755e-03
-3.821540481418802399e-03
-3.736542605062741478e-03
-3.621400960035533589e-03
-3.475874031106375613e-03
-3.300097191297235964e-03
-3.094582813788132169e-03
-2.860214654548425255e-03
-2.598236486393316110e-03
-2.310235084410246480e-03
-1.998117726874223780e-03
-1.664084750277745233e-03
-1.310597415613698122e-03
-9.403416403155254568e-04
-5.561880713960363218e-04
-1.611491999387521846e-04
2.416657050927089212e-04
6.490972864552009862e-04
1.057983425795154531e-03
1.465206727318240504e-03
1.867741054538203183e-03
2.262696431678175215e-03
2.647361592818183850e-03
3.019243360798683478e-03
3.376102204214057739e-03
3.715983319265090019e-03
4.037242629740888690e-03
4.338567320311231303e-03
4.618990411095463995e-03
4.877899106475525222e-03
5.115036681000620367e-03
5.330498032001523313e-03
5.524718656584660416e-03
5.698457436826596251e-03
5.852773261269665107e-03
5.988996165910432865e-03
6.108693181515749589e-03
6.213629792650815671e-03
6.305727369474009233e-03
6.387017577486407693e-03
6.459594448566241369e-03
6.525565038320098495e-03
6.586999719169856979e-03
6.645882882005812661e-03
6.704065051147661131e-03
6.763217386087733152e-03
6.824789486842985572e-03
6.889971401058405179e-03
6.959660525218292794e-03
7.034434284880868027e-03
7.114529093864559867e-03
7.199826225285289004e-03
7.289844920707235464e-03
7.383743101612234155e-03
7.480325744051157834e-03
7.578060959410340414e-03
7.675103654303095171e-03
7.769326472359313999e-03
7.858357503650496151e-03
7.939624311499476547e-03
8.010403466050636592e-03
8.067874905691127183e-03
8.109179998869902803e-03
8.131482413301201195e-03
8.132030707131308531e-03
8.108221360445663425e-03
8.057661171226771293e-03
7.978227722479074024e-03
7.868126823879653328e-03
7.725945592664088500e-03
7.550700226166333524e-03
7.341877307257748883e-03
7.099467642078881313e-03
6.823991893636117967e-03
6.516517312687143855e-03
6.178664952173893929e-03
5.812606984892736486e-03
5.421053945084150158e-03
5.007231693867030681e-03
4.574848502073980763e-03
4.128052453916434064e-03
3.671379700060124242e-03
3.209694300707242442e-03
2.748120529141646028e-03
2.291968663661104067e-03
1.846655430118086761e-03
1.417620494730174440e-03
1.010240260246971682e-03
6.297406376172171071e-04
2.811102566776451728e-04
-3.098432858464995410e-05
-3.022797538144223113e-04
-5.289919549384970157e-04
-7.078855907606734560e-04
-8.363353831176943698e-04
-9.123782001159658293e-04
-9.347547462476590331e-04
-9.029397893264209116e-04
-8.171601977096089276e-04
-6.784002322179753276e-04
-4.883936650216993275e-04
-2.496027066588978743e-04
3.481623690071912090e-05
3.610595702469432530e-04
7.247356905755904244e-04
1.120935479484439770e-03
1.544313088455815655e-03
1.989175669676515774e-03
2.449580742847505977e-03
2.919439393485162657e-03
3.392623676081468146e-03
3.863076240095979132e-03
4.324920303342550190e-03
4.772567903095438838e-03
5.200824468592717305e-03
5.604987726968218772e-03
5.980939051529336574e-03
6.325225415337420130e-03
6.635130305275505763e-03
6.908732105985435600e-03
7.144948685206383744e-03
7.343567061557076774e-03
7.505257429953183720e-03
7.631571019847746898e-03
7.724921517187637379e-03
7.788550092747031396e-03
7.826474505957655911e-03
7.843422914799736897e-03
7.844753343885804697e-03
7.836360090046378887e-03
7.824568606313087038e-03
7.816020562794276372e-03
7.817551132903572536e-03
7.836060673307139804e-03
7.878383057914479723e-03
7.951153056096430319e-03
8.060675232515497959e-03
8.212796910854750637e-03
8.412787567378520598e-03
8.665226990386154862e-03
8.973904571559637722e-03
9.341731651980060905e-03
9.770668875104526752e-03
1.026167013540464114e-02
1.081464439738990049e-02
1.142843648059112954e-02
1.210082740217580111e-02
1.282855457364510954e-02
1.360735189743965227e-02
1.443200917870641510e-02
1.529645011411139011e-02
1.619382773319786792e-02
1.711663564479175281e-02
1.805683336430373778e-02
1.900598347833982668e-02
1.995539825817570570e-02
2.089629312176916748e-02
2.181994409964181300e-02
2.271784646604428290e-02
2.358187149936695134e-02
2.440441831932217004e-02
2.517855794714580348e-02
2.589816664517963565e-02
2.655804600477031097e-02
2.715402716813815343e-02
2.768305701824211665e-02
2.814326448813673706e-02
2.853400550846810907e-02
2.885588534145052536e-02
2.911075770906693810e-02
2.930170042461379895e-02
2.943296776849109106e-02
2.950992020433677171e-02
2.953893261103392523e-02
2.952728263599712147e-02
2.948302116769388470e-02
2.941482727272668948e-02
2.933185038514643864e-02
2.924354282726007032e-02
2.915948597838087172e-02
2.908921361236270486e-02
2.904203598509122464e-02
2.902686842303286996e-02
2.905206804033656082e-02
2.912528222733669347e-02
2.925331231650567243e-02
2.944199558467667024e-02
2.969610847684513166e-02
3.001929362497908482e-02
3.041401264040970512e-02
3.088152628301297359e-02
3.142190315819685942e-02
3.203405728651376183e-02
3.271581452127172301e-02
3.346400704518271568e-02
3.427459462239430127e-02
3.514281067994154406e-02
3.606333060580594468e-02
3.703045924721196092e-02
3.803833392801880819e-02
3.908113896581999480e-02
4.015332717884910474e-02
4.124984363482037120e-02
4.236634656086789991e-02
4.349942030026512224e-02
4.464677497712175175e-02
4.580742782381846956e-02
4.698186096482432489e-02
4.817215103661484643e-02
4.938206603263219086e-02
5.061712554064958652e-02
5.188462077396236577e-02
5.319359159400539883e-02
5.455475851559250106e-02
5.598040820750821434e-02
5.748423192671755361e-02
5.908111738335914548e-02
6.078689507726622865e-02
6.261804133099031777e-02
6.459134111974645931e-02
6.672351442051266401e-02
6.903081100761099265e-02
7.152857916909850788e-02
7.423081464586701872e-02
7.714969685046466075e-02
8.029511955094556508e-02
8.367422430998237848e-02
8.729094468285308883e-02
9.114556965249774600e-02
9.523433488803773050e-02
9.954905018705546837e-02
1.040767713393161292e-01
1.087995241036699839e-01
1.136940878058420451e-01
1.187318450539494169e-01
1.238787035820333171e-01
1.290950950208617498e-01
1.343360547333991017e-01
1.395513854228723205e-01
1.446859062993950118e-01
1.496797880611219211e-01
1.544689728588982958e-01
1.589856770490456761e-01
1.631589730916148673e-01
1.669154456756652694e-01
1.701799160019658586e-01
1.728762267735530211e-01
1.749280793132642342e-01
1.762599133117044581e-01
1.767978186953242936e-01
1.764704682035376226e-01
1.752100588417731530e-01
1.729532497331680296e-01
1.696420836997667436e-01
1.652248796445357493e-01
1.596570830236553329e-01
1.529020618405936838e-01
1.449318361420430246e-01
1.357277294451197103e-01
1.252809315939972246e-01
1.135929633357324331e-01
1.006760341488191074e-01
8.655328605383780238e-02
7.125891760891057969e-02
5.483818387565495694e-02
3.734726969916672690e-02
1.885303520405781641e-02
-5.673656563478289647e-04
-2.082699112201618838e-02
-4.182973806305942399e-02
-6.347108299277705312e-02
-8.563893008018645669e-02
-1.082145573619316542e-01
-1.310736506125236567e-01
-1.540874132507551453e-01
-1.771237394014197886e-01
-2.000484363736520221e-01
-2.227264819443825206e-01
-2.450233013937969384e-01
-2.668060486938012565e-01
-2.879448763072156026e-01
-3.083141777469968203e-01
-3.277937878731789767e-01
-3.462701260639264311e-01
-3.636372679492685944e-01
-3.797979327331247879e-01
-3.946643739937152340e-01
-4.081591631066973647e-01
-4.202158558636185925e-01
-4.307795345253207508e-01
-4.398072190380979407e-01
-4.472681430527689073e-01
-4.531438921636220529e-01
-4.574284034430515233e-01
-4.601278275520947481e-01
-4.612602560980542110e-01
-4.608553191478373390e-01
-4.589536592135176063e-01
-4.556062902794876246e-01
-4.508738485194062617e-01
-4.448257491739531777e-01
-4.375392601715726859e-01
-4.290985051754366286e-01
-4.195934100470178896e-01
-4.091186071173349426e-01
-3.977723118953465087e-01
-3.856551873269842279e-01
-3.728692103962605309e-01
-3.595165556736932277e-01
-3.456985101935367566e-01
-3.315144329587581540e-01
-3.170607717997727670e-01
-3.024301492407722169e-01
-2.877105278229019070e-01
-2.729844640832452818e-01
-2.583284588056752318e-01
-2.438124098302661413e-01
-2.294991719312607370e-01
-2.154442269216590433e-01
-2.016954651116840969e-01
-1.882930779510100516e-01
-1.752695599147814642e-01
-1.626498161363160722e-01
-1.504513708816672679e-01
-1.386846707090617914e-01
-1.273534745360569431e-01
-1.164553221718757220e-01
-1.059820716456925244e-01
-9.592049496272908593e-02
-8.625292127100966932e-02
-7.695791613317970459e-02
-6.801098509176406459e-02
-5.938528994543895018e-02
-5.105236612158664533e-02
-4.298282970389699642e-02
-3.514706352676245232e-02
-2.751587200579235643e-02
-2.006109539136589209e-02
-1.275617488991631285e-02
-5.576661233557052288e-03
1.499339673140405969e-03
8.490789151101676632e-03
1.541341009972499107e-02
2.227945595942246865e-02
2.909755553249523605e-02
3.587263370105058663e-02
4.260590692770924170e-02
4.929495103994465527e-02
5.593383769141624384e-02
6.251333498623842799e-02
6.902116673049145390e-02
7.544232384653928869e-02
8.175942091794197175e-02
8.795309016354903309e-02
9.400240475181424749e-02
9.988532326517016169e-02
1.055791464814241354e-01
1.110609783403610357e-01
1.163081825377888512e-01
1.212988268172968537e-01
1.260121072389645269e-01
1.304287455511543847e-01
1.345313529670062735e-01
1.383047549645139429e-01
1.417362720236867712e-01
1.448159524649681174e-01
1.475367542979535151e-01
1.498946740572892344e-01
1.518888214255562086e-01
1.535214396465885978e-01
1.547978724774916603e-01
1.557264794613677228e-01
1.563185020033469042e-01
1.565878837759469289e-01
1.565510495633904708e-01
1.562266471877165885e-01
1.556352578415171328e-01
1.547990805303133266e-01
1.537415965886689828e-01
1.524872205028990624e-01
1.510609434751382374e-01
1.494879758105208400e-01
1.477933943573047637e-01
1.460018009468339317e-01
1.441369974249610275e-01
1.422216823459722390e-01
1.402771740637889508e-01
1.383231642120318072e-01
1.363775050702865088e-01
1.344560335652017213e-01
1.325724339300853316e-01
1.307381403964469890e-01
1.289622804322878846e-01
1.272516583151844793e-01
1.256107783140421597e-01
1.240419059323779188e-01
1.225451649857911413e-01
1.211186678155545260e-01
1.197586752967868540e-01
1.184597830476857294e-01
1.172151297467699249e-01
1.160166230874524751e-01
1.148551789476053436e-01
1.137209691179050380e-01
1.126036728486554950e-01
1.114927274891046732e-01
1.103775738982506749e-01
1.092478922282856951e-01
1.080938241626070717e-01
1.069061779193321710e-01
1.056766129021111805e-01
1.043978011348624946e-01
1.030635632265635149e-01
1.016689772446487811e-01
1.002104591744610029e-01
9.868581443877329218e-02
9.709426025739527344e-02
9.543641947710691797e-02
9.371428665897842125e-02
9.193116802803735776e-02
9.009159712445351242e-02
8.820122837952645845e-02
8.626671139424582635e-02
8.429554873096854750e-02
8.229594050055137611e-02
8.027661900741765721e-02
7.824667691615677656e-02
7.621539230605028914e-02
7.419205409771181814e-02
7.218579121824517109e-02
7.020540862812775507e-02
6.825923316549808995e-02
6.635497188070238472e-02
6.449958536169275725e-02
6.269917802335481238e-02
6.095890697617979692e-02
5.928291089155780791e-02
5.767425970096024673e-02
5.613492553349935799e-02
5.466577496314661139e-02
5.326658220549276845e-02
5.193606258576086848e-02
5.067192502235575574e-02
4.947094222863989560e-02
4.832903680613819669e-02
4.724138117131906900e-02
4.620250920739269601e-02
4.520643719033913543e-02
4.424679143205310222e-02
4.331694014714311536e-02
4.241012685324648673e-02
4.151960283840943483e-02
4.063875605579755218e-02
3.976123420025187011e-02
3.888105971093068491e-02
3.799273479760954114e-02
3.709133448753081097e-02
3.617258644116172484e-02
3.523293626773008752e-02
3.426959727758876334e-02
3.328058430171837445e-02
3.226473114334031667e-02
3.122169180439348518e-02
3.015192574013515411e-02
2.905666782718611604e-02
2.793788399244884202e-02
2.679821370037747952e-02
2.564090057004189682e-02
2.446971276892542790e-02
2.328885497890292866e-02
2.210287381967424372e-02
2.091655860795723840e-02
1.973483946438177664e-02
1.856268486719307720e-02
1.740500045083542488e-02
1.626653113639046910e-02
1.515176835752992703e-02
1.406486398482244098e-02
1.300955252077031811e-02
1.198908288471611794e-02
1.100616083220536980e-02
1.006290300389408449e-02
9.160803175596273981e-03
8.300711164256431920e-03
7.482824540684555187e-03
6.706693029638523089e-03
5.971235329217613325e-03
5.274767804235936178e-03
4.615044202116581722e-03
3.989305575076988047e-03
3.394339241469588805e-03
2.826545508813842807e-03
2.282010759556270859e-03
1.756585498242082318e-03
1.245965767372234252e-03
7.457763078070984639e-04
2.516540343053473268e-04
-2.406697652535910682e-04
-7.352900146077278850e-04
-1.236052670178032281e-03
-1.746484957926939781e-03
-2.269732249379184837e-03
-2.808502573716920806e-03
-3.365019659298747016e-03
-3.940985268349074012e-03
-4.537551153241965035e-03
-5.155301079222318096e-03
-5.794242980233185215e-03
-6.453811316022258979e-03
-7.132879157999088594e-03
-7.829779852436449805e-03
-8.542337495806438113e-03
-9.267905616594077772e-03
-1.000341319162839984e-02
-1.074541705443572519e-02
-1.149015960213987247e-02
-1.223363074250748833e-02
-1.297163285645466617e-02
-1.369984766932924071e-02
-1.441390379636013110e-02
-1.510944373849614115e-02
-1.578218939492276318e-02
-1.642800482670107171e-02
-1.704295530306975878e-02
-1.762336179888699533e-02
-1.816585010475479586e-02
-1.866739396565023426e-02
-1.912535163120990603e-02
-1.953749529256183434e-02
-1.990203329111545766e-02
-2.021762489050342101e-02
-2.048338761381265916e-02
-2.069889723008409496e-02
-2.086418070464144542e-02
-2.097970245014460500e-02
-2.104634426132471689e-02
-2.106537962512257736e-02
-2.103844290349962676e-02
-2.096749429313473842e-02
-2.085478106614011354e-02
-2.070279608425500129e-02
-2.051423434493521852e-02
-2.029194824796744581e-02
-2.003890258204106545e-02
-1.975812979621495089e-02
-1.945268645292685603e-02
-1.912561146374243751e-02
-1.877988676842939908e-02
-1.841840093604605461e-02
-1.804391621330185894e-02
-1.765903939737206371e-02
-1.726619682881809503e-02
-1.686761373298456199e-02
-1.646529794239423236e-02
-1.606102811065200989e-02
-1.565634640665166527e-02
-1.525255540985042714e-02
-1.485071911902981733e-02
-1.445166780126085071e-02
-1.405600629148448001e-02
-1.366412533340831056e-02
-1.327621566668512817e-02
-1.289228431636592342e-02
-1.251217264015879946e-02
-1.213557570851425335e-02
-1.176206254707969946e-02
-1.139109670418870374e-02
-1.102205673959436721e-02
-1.065425630455636881e-02
-1.028696335248127126e-02
-9.919418185822008113e-03
-9.550850025295161416e-03
-9.180492010935141847e-03
-8.807594141404364099e-03
-8.431434382482335538e-03
-8.051327688879103550e-03
-7.666632921811032501e-03
-7.276757746179955515e-03
-6.881161520104862178e-03
-6.479356378462819595e-03
-6.070906600289282737e-03
-5.655426492204548676e-03
-5.232577002725657782e-03
-4.802061277499231756e-03
-4.363619423643161355e-03
-3.917022731587616914e-03
-3.462067619832639737e-03
-2.998569508318700474e-03
-2.526356942526424097e-03
-2.045266086073791768e-03
-1.555135896207847975e-03
-1.055803994845350754e-03
-5.471035659381222761e-04
-2.886114089296211953e-05
4.991044446410186630e-04
1.036981952577077084e-03
1.584966584991924412e-03
2.143257697630797723e-03
2.712055501916085624e-03
3.291556792637592450e-03
3.881949884400830771e-03
4.483408888275810036e-03
5.096087496763744736e-03
5.720112393509163909e-03
6.355576576028975321e-03
7.002532686308545265e-03
7.660986600091160628e-03
8.330891395465641128e-03
9.012141950798144632e-03
9.704570332515543782e-03
1.040794204779842483e-02
1.112195324619723487e-02
1.184622908361505217e-02
1.258032327926996742e-02
1.332371887917936475e-02
1.407583021922952614e-02
1.483600608763065674e-02
1.560353411692761740e-02
1.637764620711627123e-02
1.715752500534754865e-02
1.794231114803428867e-02
1.873111131618927783e-02
1.952300686863960022e-02
2.031706283135453761e-02
2.111233714848012588e-02
2.190788991134061739e-02
2.270279248335530659e-02
2.349613626842646935e-02
2.428704097596840611e-02
2.507466220660275330e-02
2.585819827951548258e-02
2.663689610918559478e-02
2.741005595127391642e-02
2.817703513660421363e-02
2.893725052066732292e-02
2.969017981150023217e-02
3.043536160133565593e-02
3.117239433648143210e-02
3.190093399544421948e-02
3.262069081428589645e-02
3.333142501478867509e-02
3.403294172416440611e-02
3.472508521571269352e-02
3.540773252901823626e-02
3.608078677264163481e-02
3.674417023532974835e-02
3.739781746356984210e-02
3.804166846877800323e-02
3.867566226558211140e-02
3.929973095284635537e-02
3.991379434530933912e-02
4.051775542641574551e-02
4.111149669135720497e-02
4.169487743049423573e-02
4.226773209193290110e-02
4.282986975980710570e-02
4.338107469951456296e-02
4.392110798193948895e-02
4.444971022793312715e-02
4.496660533953532324e-02
4.547150509977379573e-02
4.596411465413280384e-02
4.644413854528291197e-02
4.691128730122731683e-02
4.736528436940266873e-02
4.780587318778509176e-02
4.823282426210732249e-02
4.864594200259807905e-02
4.904507116366484815e-02
4.943010267401908714e-02
4.980097873474665510e-02
5.015769691652630785e-02
5.050031322939674272e-02
5.082894400344589031e-02
5.114376649606180991e-02
5.144501806537951638e-02
5.173299394322303929e-02
5.200804355292284326e-02
5.227056543016024570e-02
5.252100081004996979e-02
5.275982590495165159e-02
5.298754290539515327e-02
5.320467003087223784e-02
5.341173063408078542e-02
5.360924161063930493e-02
5.379770133288257206e-02
5.397757727325525057e-02
5.414929357762997275e-02
5.431321888068140619e-02
5.446965454812953411e-02
5.461882357291176354e-02
5.476086043837488648e-02
5.489580204383059242e-02
5.502358009649134518e-02
5.514401502062970389e-02
5.525681153485922925e-02
5.536155610704787677e-02
5.545771635144835371e-02
5.554464249799458825e-02
5.562157089549744915e-02
5.568762955275059073e-02
5.574184571604307026e-02
5.578315543960419426e-02
5.581041494265995967e-02
5.582241363952415020e-02
5.581788866812876365e-02
5.579554073185265944e-02
5.575405095613956974e-02
5.569209855584743990e-02
5.560837889820155477e-02
5.550162183504789987e-02
5.537060987499207998e-02
5.521419592454545472e-02
5.503132028429939121e-02
5.482102659493453406e-02
5.458247641426628577e-02
5.431496215280232770e-02
5.401791820377135900e-02
5.369092991219515804e-02
5.333374030769583857e-02
5.294625436451894790e-02
5.252854069294381201e-02
5.208083065114273852e-02
5.160351476197667236e-02
5.109713649428403170e-02
5.056238348107869318e-02
5.000007622814543057e-02
4.941115452361048016e-02
4.879666172025292487e-02
4.815772712856165871e-02
4.749554674531007714e-02
4.681136262849069224e-02
4.610644135026596702e-02
4.538205169237724546e-02
4.463944206926715591e-02
4.387981798315594706e-02
4.310432001460146045e-02
4.231400258964657102e-02
4.150981390595623322e-02
4.069257740251451538e-02
3.986297509509252601e-02
3.902153308243546531e-02
3.816860952528639689e-02
3.730438530136816200e-02
3.642885748457133643e-02
3.554183592931050434e-02
3.464294287064342837e-02
3.373161576798616029e-02
3.280711334019979081e-02
3.186852468686294376e-02
3.091478152624508799e-02
2.994467330967666083e-02
2.895686496075369071e-02
2.794991713015368764e-02
2.692230859934827830e-02
2.587246050776221412e-02
2.479876217117520446e-02
2.369959792676577109e-02
2.257337478135515788e-02
2.141855039070155939e-02
2.023366089797983686e-02
1.901734825173623591e-02
1.776838663126953030e-02
1.648570751497362152e-02
1.516842301357782842e-02
1.381584710490091523e-02
1.242751453550355011e-02
1.100319697418656283e-02
9.542916156801061964e-03
8.046953961063063251e-03
6.515859070977199526e-03
4.950450281118616569e-03
3.351816225410925686e-03
1.721311699725811689e-03
6.055047422661641234e-05
-1.628605281164168537e-03
-3.344058745269619035e-03
-5.083495169454110840e-03
-6.844401391829565279e-03
-8.624087819996149873e-03
-1.041971255776627699e-02
-1.222830737585724539e-02
-1.404680511505732032e-02
-1.587206808482153134e-02
-1.770091705911747484e-02
-1.953016049124111156e-02
-2.135662356715745808e-02
-2.317717656981383573e-02
-2.498876220562929948e-02
-2.678842157165165286e-02
-2.857331827765889620e-02
-3.034076059868212258e-02
-3.208822117366508936e-02
-3.381335409071783982e-02
-3.551400913216640198e-02
-3.718824302939783416e-02
-3.883432757550542291e-02
-4.045075466452596746e-02
-4.203623803443578416e-02
-4.358971194432605112e-02
-4.511032671920271742e-02
-4.659744138160566707e-02
-4.805061355040901594e-02
-4.946958676892095064e-02
-5.085427555876666228e-02
-5.220474849493519226e-02
-5.352120951836745327e-02
-5.480397801403619207e-02
-5.605346778274458014e-02
-5.727016542658574377e-02
-5.845460845173406500e-02
-5.960736346664891744e-02
-6.072900482539440870e-02
-6.182009405772593419e-02
-6.288116046522729263e-02
-6.391268310086255233e-02
-6.491507440829699660e-02
-6.588866589079361846e-02
-6.683369586578219446e-02
-6.775029953100487889e-02
-6.863850149883200802e-02
-6.949821080200617451e-02
-7.032921849672801873e-02
-7.113119779464953385e-02
-7.190370667897177936e-02
-7.264619304589273185e-02
-7.335800201387081276e-02
-7.403838546902498374e-02
-7.468651354481363469e-02
-7.530148774050886284e-02
-7.588235558002345837e-02
-7.642812646241038677e-02
-7.693778844984468235e-02
-7.741032561362692910e-02
-7.784473575680622703e-02
-7.824004818273130879e-02
-7.859534115115662800e-02
-7.890975880855669033e-02
-7.918252729539418389e-02
-7.941296974715021662e-02
-7.960052004672692194e-02
-7.974473504164043824e-02
-7.984530508502683810e-02
-7.990206280477347989e-02
-7.991498988803422132e-02
-7.988422183327548165e-02
-7.981005075769564971e-02
-7.969292610282024958e-02
-7.953345331165842524e-02
-7.933239054133696400e-02
-7.909064357715944737e-02
-7.880925893232559876e-02
-7.848941538994480549e-02
-7.813241405499986303e-02
-7.773966725467662542e-02
-7.731268628240062224e-02
-7.685306846287882909e-02
-7.636248346715299173e-02
-7.584265936648994233e-02
-7.529536841650118217e-02
-7.472241295229913038e-02
-7.412561154264805940e-02
-7.350678559787587885e-02
-7.286774662531761426e-02
-7.221028422586661666e-02
-7.153615508396528322e-02
-7.084707301842969873e-02
-7.014470013345486255e-02
-6.943063921493956847e-02
-6.870642738642054881e-02
-6.797353101747902193e-02
-6.723334182995913122e-02
-6.648717432459255727e-02
-6.573626433316968887e-02
-6.498176865075387665e-02
-6.422476565987178532e-02
-6.346625688459037185e-02
-6.270716925860771174e-02
-6.194835804633333498e-02
-6.119061022332053512e-02
-6.043464823886370019e-02
-5.968113386216906263e-02
-5.893067224001764109e-02
-5.818381581907350331e-02
-5.744106803008153239e-02
-5.670288676156776120e-02
-5.596968741995937691e-02
-5.524184542601394410e-02
-5.451969825536064074e-02
-5.380354684890843037e-02
-5.309365648542149069e-02
-5.239025701737210633e-02
-5.169354249034261578e-02
-5.100367024867676763e-02
-5.032075955365895858e-02
-4.964488977879120968e-02
-4.897609829870698539e-02
-4.831437808774229764e-02
-4.765967522084404301e-02
-4.701188602974210040e-02
-4.637085547357195497e-02
-4.573637500386261434e-02
-4.510818077894473282e-02
-4.448595248722910650e-02
-4.386931277221844949e-02
-4.325782729225136070e-02
-4.265100567859252817e-02
-4.204830336382182898e-02
-4.144912435161813430e-02
-4.085282498447398436e-02
-4.025871860033245625e-02
-3.966608124340763319e-02
-3.907415833572434882e-02
-3.848217223803528791e-02
-3.788933067458358922e-02
-3.729483579785534964e-02
-3.669789399126972829e-02
-3.609772609414934469e-02
-3.549357808045350282e-02
-3.488473175445780394e-02
-3.427051558912337648e-02
-3.365031536498260673e-02
-3.302358445265397152e-02
-3.238985357779605029e-02
-3.174873994861211746e-02
-3.109995532678347385e-02
-3.044331320378427033e-02
-2.977873472871246652e-02
-2.910625325946596467e-02
-2.842601747989369210e-02
-2.773829301600799421e-02
-2.704346239975770338e-02
-2.634202333641620306e-02
-2.563458531857356476e-02
-2.492186455296225775e-02
-2.420467726744772105e-02
-2.348393143111264167e-02
-2.276061701754793221e-02
-2.203579487443965354e-02
-2.131058441897592387e-02
-2.058615030366398729e-02
-1.986368820276248823e-02
-1.914440997100067335e-02
-1.842952837753778633e-02
-1.772024165791515407e-02
-1.701771812074787810e-02
-1.632308099920949315e-02
-1.563739388836436067e-02
-1.496164695814963287e-02
-1.429674408970253718e-02
-1.364349127708308802e-02
-1.300258639997764823e-02
-1.237461058285933661e-02
-1.176002131265355306e-02
-1.115914734269529696e-02
-1.057218557149055063e-02
-9.999200014792899299e-03
-9.440122631475365497e-03
-8.894756407462961131e-03
-8.362780324411614105e-03
-7.843756355727560595e-03
-7.337138192296934446e-03
-6.842281855732197313e-03
-6.358457703743561340e-03
-5.884863932259114250e-03
-5.420641198013722087e-03
-4.964888181364712945e-03
-4.516677849863167879e-03
-4.075074201150850027e-03
-3.639149061875348971e-03
-3.207998895769055385e-03
-2.780761224757052463e-03
-2.356630343666160816e-03
-1.934872213377011397e-03
-1.514838175306260516e-03
-1.095977322051407826e-03
-6.778472769396688734e-04
-2.601231766740467739e-04
1.573951638206149578e-04
5.747781738439621934e-04
9.919636028074474074e-04
1.408755716688515425e-03
1.824826724486134808e-03
2.239720433660551211e-03
2.652858013030670852e-03
3.063545837821953725e-03
3.470985282038107928e-03
3.874284351463354922e-03
4.272470894857682312e-03
4.664507309480960852e-03
5.049306373436359026e-03
5.425748130963302905e-03
5.792697356348462320e-03
6.149021572928633529e-03
6.493609198179631573e-03
6.825387597902693101e-03
7.143340661218869347e-03
7.446525727402744654e-03
7.734089606163330015e-03
8.005283457138646572e-03
8.259476146394986382e-03
8.496166031997025997e-03
8.714991039336917461e-03
8.915736719284146627e-03
9.098342221079256179e-03
9.262904084789429573e-03
9.409677928531758398e-03
9.539077783115327766e-03
9.651673236635838898e-03
9.748184432370509203e-03
9.829474917040880236e-03
9.896542467384946209e-03
9.950508109522481631e-03
9.992603438799299923e-03
1.002415641701435815e-02
1.004657587917407412e-02
1.006133500341507662e-02
1.006995395444700708e-02
1.007398191752583924e-02
1.007497890363154812e-02
1.007449741624973430e-02
1.007406439561433359e-02
1.007516364128529206e-02
1.007921884589582824e-02
1.008757770168764410e-02
1.010149704540497760e-02
1.012212936272306567e-02
1.015051074779911404e-02
1.018755056898671199e-02
1.023402292785180988e-02
1.029055988803486039e-02
1.035764662946072300e-02
1.043561853567172119e-02
1.052466023307215004e-02
1.062480653769574609e-02
1.073594515826468108e-02
1.085782130577385603e-02
1.099004387513219730e-02
1.113209308412896857e-02
1.128332958568568738e-02
1.144300473808696102e-02
1.161027187768117787e-02
1.178419843023634402e-02
1.196377870535236115e-02
1.214794702350035713e-02
1.233559112779127054e-02
1.252556565924662323e-02
1.271670539833587299e-02
1.290783816922425921e-02
1.309779723821381629e-02
1.328543306103342411e-02
1.346962427291233631e-02
1.364928758505951426e-02
1.382338676014805041e-02
1.399094052152902341e-02
1.415102924996135617e-02
1.430280043485618845e-02
1.444547307436793750e-02
1.457834076759636360e-02
1.470077369598140650e-02
1.481221949264577287e-02
1.491220310311011828e-02
1.500032571260188213e-02
1.507626279078840871e-02
1.513976143810921195e-02
1.519063717213924372e-02
1.522877019395998781e-02
1.525410129045141894e-02
1.526662750481993375e-02
1.526639788399940072e-02
1.525350910536482293e-02
1.522810129547958607e-02
1.519035411941759180e-02
1.514048329901282290e-02
1.507873747276453937e-02
1.500539563786076891e-02
1.492076512433094040e-02
1.482518010307081087e-02
1.471900077706879764e-02
1.460261317426818015e-02
1.447642943238807225e-02
1.434088867574793112e-02
1.419645833177351352e-02
1.404363587964639094e-02
1.388295087884286981e-02
1.371496724106707060e-02
1.354028559243658850e-02
1.335954561925506087e-02
1.317342827349037536e-02
1.298265782497715938e-02
1.278800343554459956e-02
1.259028025143034933e-02
1.239034991764837064e-02
1.218912036372126265e-02
1.198754474766073469e-02
1.178661957653200781e-02
1.158738182267180818e-02
1.139090507012711743e-02
1.119829458488024940e-02
1.101068134819483020e-02
1.082921511624938479e-02
1.065505642401390861e-02
1.048936761128432468e-02
1.033330297344808683e-02
1.018799810415054949e-02
1.005455864414346416e-02
9.934048419774146876e-03
9.827477191267215001e-03
9.735788136805211684e-03
9.659845317468914241e-03
9.600421167320079274e-03
9.558184345892353773e-03
9.533688044014970719e-03
9.527358959247840542e-03
9.539487134913022734e-03
9.570216851310498971e-03
9.619538750610194186e-03
9.687283295211740128e-03
9.773115757146720942e-03
9.876532844031704270e-03
9.996861087733937418e-03
1.013325703775427335e-02
1.028470944977832868e-02
1.045004336505610601e-02
1.062792607859621569e-02
1.081687510138944208e-02
1.101526798037526234e-02
1.122135399075282688e-02
1.143326753123161642e-02
1.164904306775092595e-02
1.186663153524514930e-02
1.208391806910091328e-02
1.229874080749742728e-02
1.250891054536599351e-02
1.271223107739215610e-02
1.290652000461130905e-02
1.308962967989683694e-02
1.325946807253243660e-02
1.341401931779960012e-02
1.355136372002069267e-02
1.366969691528053567e-02
1.376734801001824708e-02
1.384279647859594335e-02
1.389468747136554834e-02
1.392184554402893515e-02
1.392328644674270012e-02
1.389822699989640142e-02
1.384609280012496536e-02
1.376652370773345790e-02
1.365937705130893659e-02
1.352472850160628751e-02
1.336287059439260523e-02
1.317430897372725423e-02
1.295975636441735676e-02
1.272012435314020043e-02
1.245651306695442009e-02
1.217019894153627095e-02
1.186262066569497738e-02
1.153536353127317463e-02
1.119014240214634762e-02
1.082878348906409979e-02
1.045320508180332120e-02
1.006539766728106917e-02
9.667403470832881124e-03
9.261295815123686548e-03
8.849158498690600297e-03
8.433065487494501369e-03
8.015061058880066161e-03
7.597140686675352486e-03
7.181232943033897566e-03
6.769182502279627069e-03
6.362734489652567722e-03
5.963520355655526663e-03
5.573045474827656789e-03
5.192678319875796908e-03
4.823641626910822773e-03
4.467005438169562720e-03
4.123682124801005509e-03
3.794423347562040239e-03
3.479818976402875193e-03
3.180297913789647147e-03
2.896130749042242960e-03
2.627434189030857913e-03
2.374177070873432008e-03
2.136187937396870091e-03
1.913163920579594819e-03
1.704680881095814015e-03
1.510204466214576944e-03
1.329102077085049689e-03
1.160655474522764635e-03
1.004073774517398859e-03
8.585067952322904825e-04
7.230583859177867152e-04
5.967996709080825241e-04
4.787819386251129729e-04
3.680491064108025456e-04
2.636495257279791314e-04
1.646470036035062171e-04
7.013094774254081303e-05
-2.077450825803213896e-05
-1.089024258585640924e-04
-1.950361940082920103e-04
-2.799038396456964158e-04
-3.641736016758438839e-04
-4.484506700024844055e-04
-5.332752343489014423e-04
-6.191216617407909991e-04
-7.063988722725650588e-04
-7.954517098585468056e-04
-8.865633533752773250e-04
-9.799586278274993647e-04
-1.075808044273483246e-03
-1.174232525886876894e-03
-1.275308673069056823e-03
-1.379074422190647558e-03
-1.485535016219216358e-03
-1.594669089471779325e-03
-1.706434728287365039e-03
-1.820775508772587599e-03
-1.937626199616656122e-03
-2.056918197670482007e-03
-2.178584464857184332e-03
-2.302563960737349577e-03
-2.428805475116973134e-03
-2.557270741376527386e-03
-2.687936853544549420e-03
-2.820797908171402118e-03
-2.955865891316388546e-03
-3.093170762424982210e-03
-3.232759825932095266e-03
-3.374696309146834380e-03
-3.519057292845599681e-03
-3.665930999487491439e-03
-3.815413496111603325e-03
-3.967604941458724790e-03
-4.122605392757975121e-03
-4.280510337223886359e-03
-4.441405964100728770e-03
-4.605364415429928117e-03
-4.772438919563665172e-03
-4.942659103471148604e-03
-5.116026513913638288e-03
-5.292510363196516535e-03
-5.472043707942371611e-03
-5.654520108442882831e-03
-5.839790818934550466e-03
-6.027662548544445581e-03
-6.217895957247187959e-03
-6.410204781784207759e-03
-6.604255758698976755e-03
-6.799669300142361858e-03
-6.996020904458541412e-03
-7.192843272056915170e-03
-7.389629197265056709e-03
-7.585835109414952766e-03
-7.780885254072367717e-03
-7.974176457600937531e-03
-8.165083398987745683e-03
-8.352964268692890035e-03
-8.537166840784982114e-03
-8.717034739525316225e-03
-8.891913866662002133e-03
-9.061158947487017376e-03
-9.224139955710759786e-03
-9.380248425110081570e-03
-9.528903516399891624e-03
-9.669557765627901855e-03
-9.801702447769140153e-03
-9.924872392414584715e-03
-1.003865026730122421e-02
-1.014267018853768840e-02
-1.023662069948847071e-02
-1.032024697699332472e-02
-1.039335229287513887e-02
-1.045579872029175732e-02
-1.050750704212434668e-02
-1.054845588169315250e-02
-1.057868014143789441e-02
-1.059826861968685315e-02
-1.060736099339623477e-02
-1.060614422616179726e-02
-1.059484836823529168e-02
-1.057374183147350745e-02
-1.054312630746156651e-02
-1.050333130442408433e-02
-1.045470850353960590e-02
-1.039762594455132493e-02
-1.033246214165634870e-02
-1.025960024087865449e-02
-1.017942232514374747e-02
-1.009230396602704347e-02
-9.998609051546744619e-03
-9.898685027570885628e-03
-9.792858557068030365e-03
-9.681431759534979073e-03
-9.564679012663392446e-03
-9.442844407612449587e-03
-9.316139811141462349e-03
-9.184743649095694282e-03
-9.048800403998252459e-03
-8.908420841190976477e-03
-8.763682845433969429e-03
-8.614632985267071594e-03
-8.461288762957694387e-03
-8.303641402648683986e-03
-8.141659172058083802e-03
-7.975291225785562793e-03
-7.804471870748423343e-03
-7.629125217223382133e-03
-7.449170053694727234e-03
-7.264524851107175690e-03
-7.075112985763150515e-03
-6.880867884919841110e-03
-6.681738157447069705e-03
-6.477692527597935131e-03
-6.268724592336212889e-03
-6.054857188080845463e-03
-5.836146353973401327e-03
-5.612684924372707447e-03
-5.384605520117984913e-03
-5.152083060324771230e-03
-4.915336592711711493e-03
-4.674630516861719154e-03
-4.430275156307691628e-03
-4.182626621246239400e-03
-3.932086067546966719e-03
-3.679098226567013852e-03
-3.424149267650703279e-03
-3.167764114590508519e-03
-2.910503160542886759e-03
-2.652958477450870038e-03
-2.395749495400605489e-03
-2.139518278320175042e-03
-1.884924496825732309e-03
-1.632640056721582165e-03
-1.383343554844851907e-03
-1.137714548472644211e-03
-8.964278870507183484e-04
-6.601479635517047131e-04
-4.295231622631339331e-04
-2.051803417684349882e-04
1.228037686237856138e-05
2.222904967177023305e-04
4.243177038090082081e-04
6.178699741787042335e-04
8.024992652661276692e-04
9.778046440569994422e-04
1.143435056249177996e-03
1.299091443969647335e-03
1.444528314215876453e-03
1.579554793817358575e-03
1.704035092041848330e-03
1.817888447501104891e-03
1.921088624544231268e-03
2.013662855351805274e-03
2.095690367915629699e-03
2.167300569303283811e-03
2.228670786208994045e-03
2.280023781558027877e-03
2.321624964159403354e-03
2.353779370040371896e-03
2.376828555445013869e-03
2.391147372034582545e-03
2.397140719013644491e-03
2.395240269106864266e-03
2.385901266141140543e-03
2.369599431205542204e-03
2.346827964683804307e-03
2.318094717748549107e-03
2.283919591985837660e-03
2.244832091065963355e-03
2.201369114316261213e-03
2.154072908073696464e-03
2.103489283294951787e-03
2.050166000279535043e-03
1.994651370083369395e-03
1.937493007793721165e-03
1.879236685862050588e-03
1.820425347313625640e-03
1.761598142910563445e-03
1.703289512326268624e-03
1.646028235738405043e-03
1.590336476886620824e-03
1.536728762100195243e-03
1.485710804416203248e-03
1.437778143413968217e-03
1.393414616849686935e-03
1.353090701498863707e-03
1.317261528474291147e-03
1.286364669894124457e-03
1.260817772075569073e-03
1.241015830099319187e-03
1.227328357150484720e-03
1.220096235564498838e-03
1.219628475516698661e-03
1.226198791633087599e-03
1.240042096296291481e-03
1.261350946222378070e-03
1.290272036339423951e-03
1.326902719885464854e-03
1.371287742339198906e-03
1.423416160214975449e-03
1.483218559868766271e-03
1.550564678086927906e-03
1.625261459747704340e-03
1.707051652323081630e-03
1.795613008235954827e-03
1.890558064337590459e-03
1.991434796733952944e-03
2.097727934811513973e-03
2.208861071621673333e-03
2.324199668075383526e-03
2.443054879399741454e-03
2.564688200311914489e-03
2.688316988431119561e-03
2.813120812953291174e-03
2.938248577111928633e-03
3.062826301308625883e-03
3.185965650653661829e-03
3.306772977540386668e-03
3.424358821598795250e-03
3.537847816736372324e-03
3.646388784535314290e-03
3.749164985481212835e-03
3.845404339360725468e-03
3.934389438540413994e-03
4.015467289906196266e-03
4.088058625017789577e-03
4.151666545415571251e-03
4.205884449505191761e-03
4.250403047854292397e-03
4.285016370693177541e-03
4.309626652812370562e-03
4.324247945392591282e-03
4.329008373178111317e-03
4.324151003179217342e-03
4.310033308030892900e-03
4.287124964852840649e-03
4.256004248924403523e-03
4.217352857699628067e-03
4.171949237078861200e-03
4.120660488225304750e-03
4.064432872575764015e-03
4.004281034987444525e-03
3.941276129970521826e-03
3.876532838843159672e-03
3.811195489191740796e-03
3.746423569780386962e-03
3.683376646118029663e-03
3.623198999818502946e-03
3.567004122509233582e-03
3.515859285972504876e-03
3.470770453713404279e-03
3.432667711347859880e-03
3.402391365309064518e-03
3.380679066063015450e-03
3.368153966880707041e-03
3.365314355859201807e-03
3.372524585785050683e-03
3.390007769554000388e-03
3.417840150479705633e-03
3.455947357931521240e-03
3.504102610695292337e-03
3.561926913410297466e-03
3.628891280391007262e-03
3.704320915781042674e-03
3.787401465302500225e-03
3.877187136599635937e-03
3.972610665813126538e-03
4.072494943002805470e-03
4.175566313487574788e-03
4.280469228850837006e-03
4.385782093295262536e-03
4.490034155283591927e-03
4.591723187576174890e-03
4.689333722360949225e-03
4.781355575719149591e-03
4.866302498855443366e-03
4.942730548722969186e-03
5.009256055778977916e-03
5.064572862939006534e-03
5.107468695457631144e-03
5.136840252312489634e-03
5.151707041296488092e-03
5.151223565094151073e-03
5.134689812485576654e-03
5.101559850669898540e-03
5.051448448413362914e-03
4.984135522991077309e-03
4.899568505539925005e-03
4.797862453611959586e-03
4.679298048359497968e-03
4.544317389570966606e-03
4.393517697406356184e-03
4.227642998531219720e-03
4.047573933623439466e-03
3.854315833050378764e-03
3.648985216813633876e-03
3.432794923836174957e-03
3.207038076768861396e-03
2.973071110548139093e-03
2.732296110290687551e-03
2.486142706793148093e-03
2.236049761004011479e-03
1.983447199160456517e-03
1.729738121006965494e-03
1.476281415976253520e-03
1.224375268594776181e-03
9.752417097575182296e-04
7.300124266984873512e-04
4.897160070898606658e-04
2.552667736993062065e-04
2.745543720067397312e-05
-1.930583983369293802e-04
-4.057517583234124584e-04
-6.102417299910789517e-04
-8.062868711947985103e-04
-9.937865050500681481e-04
-1.172777949258427353e-03
-1.343431725335422116e-03
-1.506044943655809962e-03
-1.661032769862144307e-03
-1.808918233846886370e-03
-1.950320523690037043e-03
-2.085941940153187516e-03
-2.216553646679894542e-03
-2.342980576445903747e-03
-2.466085539874514690e-03
-2.586752862420445276e-03
-2.705871810259741130e-03
-2.824319983188626482e-03
-2.942946941662953880e-03
-3.062558261804567555e-03
-3.183900359778276973e-03
-3.307646172518394125e-03
-3.434381938151556679e-03
-3.564595299294864763e-03
-3.698664851673433979e-03
-3.836851312528970215e-03
-3.979290413238818075e-03
-4.125987628528101324e-03
-4.276814799905484174e-03
-4.431508716998279127e-03
-4.589671685026827826e-03
-4.750774036503349097e-03
-4.914158593156252482e-03
-5.079046996517516330e-03
-5.244547831692272788e-03
-5.409666423890268847e-03
-5.573316178754124384e-03
-5.734331357193898221e-03
-5.891481003470629661e-03
-6.043483977198838009e-03
-6.189024817259441980e-03
-6.326770197072142249e-03
-6.455385833646494834e-03
-6.573553515291799022e-03
-6.679988093770810112e-03
-6.773454255615713425e-03
-6.852782667530459698e-03
-6.916885506673317238e-03
-6.964770962111665846e-03
-6.995556683519360899e-03
-7.008481846696975118e-03
-7.002917778973822074e-03
-6.978376899236956275e-03
-6.934519953760757971e-03
-6.871161345440447710e-03
-6.788272527954709173e-03
-6.685983415422821520e-03
-6.564581798158809767e-03
-6.424510692666042175e-03
-6.266363702979893535e-03
-6.090878531648575948e-03
-5.898928490223697037e-03
-5.691512398798299205e-03
-5.469742847475645743e-03
-5.234832993823782844e-03
-4.988082180476277605e-03
-4.730860321897472145e-03
-4.464591566683845207e-03
-4.190737303348450460e-03
-3.910778813642944857e-03
-3.626199748161207121e-03
-3.338468781627995218e-03
-3.049022605052228562e-03
-2.759249563547265353e-03
-2.470474150966675206e-03
-2.183942649117994947e-03
-1.900810057261134375e-03
-1.622128594571633489e-03
-1.348837827887690993e-03
-1.081756767342452723e-03
-8.215778552484329306e-04
-5.688631769325441009e-04
-3.240427754873271031e-04
-8.741518824644130530e-05
1.408498391311080976e-04
3.607064771122358670e-04
5.722257705596902645e-04
7.755866416921475357e-04
9.710651303009757524e-04
1.159021871866076827e-03
1.339888101482317575e-03
1.514150474535534262e-03
1.682334894230959419e-03
1.844989692612839915e-03
2.002668360947535298e-03
2.155912286166000898e-03
2.305233698272948859e-03
2.451099202315559691e-03
2.593914235702697926e-03
2.734008754295035298e-03
2.871624416090719310e-03
3.006903582514248215e-03
3.139880379622053252e-03
3.270474057600042134e-03
3.398484798400986610e-03
3.523592227149816188e-03
3.645356632917731016e-03
3.763223004247225837e-03
3.876527880343594301e-03
3.984508969847584507e-03
4.086317446865360588e-03
4.181032867528233603e-03
4.267680312618109609e-03
4.345249750391281043e-03
4.412717155508991129e-03
4.469067163261776672e-03
4.513316756932313559e-03
4.544539664565435018e-03
4.561891057819776954e-03
4.564631983751349896e-03
4.552153200514550899e-03
4.523997850200289599e-03
4.479882470705595296e-03
4.419716044740162712e-03
4.343616425114230073e-03
4.251923875431371826e-03
4.145211404919356933e-03
4.024291410536434861e-03
3.890218481988417035e-03
3.744288181238314851e-03
3.588031479927343299e-03
3.423204945908699028e-03
3.251776686425443454e-03
3.075908009181446429e-03
2.897931036642404680e-03
2.720322568624559175e-03
2.545674405624026061e-03
2.376660601487082854e-03
2.216001962174125959e-03
2.066428454605909269e-03
1.930640174739997172e-03
1.811267283644095710e-03
1.710829678169730524e-03
1.631697148946931923e-03
1.576050662586089357e-03
1.545845431472059155e-03
1.542776566475981834e-03
1.568247928555017859e-03
1.623344891434821448e-03
1.708811441135443246e-03
1.825032361997174944e-03
1.972020787102387717e-03
2.149411570110619681e-03
2.356460758290802003e-03
2.592051344884686078e-03
2.854705334897466879e-03
3.142602168817280883e-03
3.453603207657912535e-03
3.785282233794218416e-03
4.134961384931924375e-03
4.499752159009932050e-03
4.876600755264619107e-03
5.262337289300243227e-03
5.653727863830683951e-03
6.047528777552738273e-03
6.440542002299689574e-03
6.829670796235436450e-03
7.211974577677600536e-03
7.584722079308727459e-03
7.945441754437818777e-03
8.291968435352108785e-03
8.622485341544992854e-03
8.935560577787396430e-03
9.230177231544662783e-03
9.505756527345154278e-03
9.762173352501905127e-03
9.999763720830407571e-03
1.021932378781775785e-02
1.042210035193289266e-02
1.060977272981323410e-02
1.078442614366111919e-02
1.094851696433060163e-02
1.110483022216039381e-02
1.125642998166129227e-02
1.140660338472888023e-02
1.155879917951617430e-02
1.171656184789179010e-02
1.188346236353569202e-02
1.206302685591975100e-02
1.225866442344244328e-02
1.247359548538961097e-02
1.271078203599402753e-02
1.297286111242354663e-02
1.326208278366293805e-02
1.358025405524052216e-02
1.392868980027496713e-02
1.430817187844080074e-02
1.471891740409170604e-02
1.516055697177801434e-02
1.563212356005122192e-02
1.613205258420756169e-02
1.665819333241561409e-02
1.720783196378236971e-02
1.777772587365797005e-02
1.836414903555451741e-02
1.896294784907063408e-02
1.956960670697681023e-02
2.017932218809728381e-02
2.078708487279616948e-02
2.138776732974499717e-02
2.197621679410561440e-02
2.254735093963921091e-02
2.309625511582453009e-02
2.361827911345808911e-02
2.410913175299984890e-02
2.456497138435417490e-02
2.498249063203171125e-02
2.535899357174863089e-02
2.569246377497810471e-02
2.598162167336748318e-02
2.622596997245443817e-02
2.642582603697983881e-02
2.658234022575403296e-02
2.669749963202920628e-02
2.677411682479365757e-02
2.681580354798513213e-02
2.682692944754137485e-02
2.681256641228705814e-02
2.677841922144920048e-02
2.673074362754488884e-02
2.667625315557015098e-02
2.662201631581580588e-02
2.657534591814973701e-02
2.654368260354882797e-02
2.653447470409103087e-02
2.655505686394351444e-02
2.661252976801176812e-02
2.671364345897023901e-02
2.686468666652317566e-02
2.707138455219764220e-02
2.733880717812273153e-02
2.767129089560413369e-02
2.807237452962531993e-02
2.854475215484687453e-02
2.909024389419732556e-02
2.970978580481252115e-02
3.040343961425528638e-02
3.117042269877670635e-02
3.200915833234866531e-02
3.291734571073622051e-02
3.389204882709091760e-02
3.492980306245672961e-02
3.602673761863783852e-02
3.717871188700912904e-02
3.838146306548591985e-02
3.963076239091269104e-02
4.092257676267118532e-02
4.225323241076427844e-02
4.361957717637349879e-02
4.501913758065495541e-02
4.645026687211532834e-02
4.791228033873073250e-02
4.940557421685490280e-02
5.093172455641429425e-02
5.249356266395897169e-02
5.409522401397906521e-02
5.574216795494810195e-02
5.744116580344569428e-02
5.920025550775930706e-02
6.102866152192554239e-02
6.293667911470189613e-02
6.493552306710434485e-02
6.703714108836059116e-02
6.925399324992644046e-02
7.159879912259216328e-02
7.408425526002598849e-02
7.672272602348886861e-02
7.952591158163989371e-02
8.250449746142111962e-02
8.566779048221402626e-02
8.902334643319630147e-02
9.257659540185991798e-02
9.633047069863960588e-02
1.002850478329595646e-01
1.044372000511749193e-01
1.087802769591110358e-01
1.133038127375803339e-01
1.179932702800287614e-01
1.228298273442466337e-01
1.277902104632638314e-01
1.328465817418322537e-01
1.379664832682670483e-01
1.431128430269924534e-01
1.482440456503391624e-01
1.533140702548498324e-01
1.582726969899641289e-01
1.630657826386105180e-01
1.676356050230494998e-01
1.719212745790973107e-01
1.758592106040347269e-01
1.793836787375835407e-01
1.824273850247102868e-01
1.849221210968185480e-01
1.867994541011242238e-01
1.879914540380485666e-01
1.884314504188100703e-01
1.880548096832739546e-01
1.867997239250865915e-01
1.846080013928437513e-01
1.814258485689993206e-01
1.772046337214961131e-01
1.719016215948167281e-01
1.654806691505006089e-01
1.579128723837526227e-01
1.491771547834970790e-01
1.392607884235826099e-01
1.281598394118599049e-01
1.158795302510629843e-01
1.024345124680614283e-01
8.784904402422959169e-02
7.215706712362339459e-02
5.540218327277766225e-02
3.763752359388120028e-02
1.892551389825377142e-02
-6.624647715371373251e-04
-2.104651804883787489e-02
-4.213877899109763625e-02
-6.384404301346159605e-02
-8.606049083195017879e-02
-1.086804921459187945e-01
-1.315914818175789314e-01
-1.546768989413943030e-01
-1.778171785724154685e-01
-2.008907850547830831e-01
-2.237752752526001865e-01
-2.463483793914989228e-01
-2.684890871701197113e-01
-2.900787263577345176e-01
-3.110020214047031772e-01
-3.311481195422852908e-01
-3.504115724619396022e-01
-3.686932619244337461e-01
-3.859012584975827775e-01
-4.019516034466866228e-01
-4.167690047721371305e-01
-4.302874393643096873e-01
-4.424506546570312615e-01
-4.532125642191418557e-01
-4.625375333372001019e-01
-4.704005517693862770e-01
-4.767872925521324801e-01
-4.816940571453187658e-01
-4.851276085084505474e-01
-4.871048953176557172e-01
-4.876526717525376808e-01
-4.868070187294001316e-01
-4.846127736167253897e-01
-4.811228764507897715e-01
-4.763976419818297114e-01
-4.705039674313531428e-01
-4.635144866556678012e-01
-4.555066821148045508e-01
-4.465619662398560563e-01
-4.367647442246349043e-01
-4.262014701014553708e-01
-4.149597080219162293e-01
-4.031272105968390362e-01
-3.907910252636831450e-01
-3.780366393788043844e-01
-3.649471740431599609e-01
-3.516026356879082826e-01
-3.380792336261834730e-01
-3.244487705344957784e-01
-3.107781118138947529e-01
-2.971287386076396086e-01
-2.835563878722410225e-01
-2.701107817189079552e-01
-2.568354468873602636e-01
-2.437676239361226960e-01
-2.309382644932624074e-01
-2.183721137543032653e-01
-2.060878741560700500e-01
-1.940984451757949980e-01
-1.824112332586967089e-01
-1.710285249155384379e-01
-1.599479154918341806e-01
-1.491627851918324588e-01
-1.386628137850553222e-01
-1.284345248594657152e-01
-1.184618505216424450e-01
-1.087267071450202377e-01
-9.920957294795960946e-02
-8.989005860829511751e-02
-8.074746216319469982e-02
-7.176130011697164079e-02
-6.291180735977960903e-02
-5.418039890758807875e-02
-4.555008756998692176e-02
-3.700585240869103121e-02
-2.853495357860288614e-02
-2.012719047943541464e-02
-1.177510077484199974e-02
-3.474099120747457629e-03
4.777444771142239956e-03
1.297818794874899991e-02
2.112385428792429298e-02
2.920733030684726297e-02
3.721881326748376073e-02
4.514600760113307576e-02
5.297436469387417635e-02
6.068736070834040291e-02
6.826680661116150961e-02
7.569318413280774760e-02
8.294600130092609491e-02
9.000416078438100431e-02
9.684633436043518784e-02
1.034513370939532106e-01
1.097984947044123583e-01
1.158679980412749000e-01
1.216412388208308742e-01
1.271011214629194641e-01
1.322323461856291515e-01
1.370216593093380453e-01
1.414580671568785031e-01
1.455330107460969247e-01
1.492404993519400869e-01
1.525772014150000855e-01
1.555424924109906071e-01
1.581384595425670558e-01
1.603698643662754275e-01
1.622440648505521499e-01
1.637708988890882178e-01
1.649625322670178196e-01
1.658332742205995136e-01
1.663993644189540044e-01
1.666787353075573352e-01
1.666907545440265148e-01
1.664559520071117182e-01
1.659957361922190511e-01
1.653321048273375948e-01
1.644873545852878205e-01
1.634837944638097285e-01
1.623434675275671479e-01
1.610878851324775707e-01
1.597377775610774320e-01
1.583128646808414641e-01
1.568316497595924619e-01
1.553112389555298400e-01
1.537671887907999524e-01
1.522133830831249035e-01
1.506619404892473313e-01
1.491231530795909255e-01
1.476054560627422796e-01
1.461154280332757904e-01
1.446578207189219145e-01
1.432356167565918825e-01
1.418501135575425121e-01
1.405010308574438926e-01
1.391866394174311183e-01
1.379039079386449040e-01
1.366486649934644526e-01
1.354157727328759997e-01
1.341993088504391529e-01
1.329927534959771396e-01
1.317891777181155188e-01
1.305814300987535870e-01
1.293623183148930322e-01
1.281247827672082618e-01
1.268620594546280844e-01
1.255678296586952569e-01
1.242363542010340854e-01
1.228625905684625902e-01
1.214422913619886135e-01
1.199720830869617921e-01
1.184495245261587976e-01
1.168731443771328232e-01
1.152424583636819655e-01
1.135579661604192020e-01
1.118211288741595838e-01
1.100343283686625317e-01
1.082008097349945464e-01
1.063246085786737766e-01
1.044104649934154694e-01
1.024637263611122562e-01
1.004902411745356994e-01
9.849624604006539108e-02
9.648824839038139256e-02
9.447290719189894992e-02
9.245691390779434138e-02
9.044687593248479374e-02
8.844920469321679302e-02
8.647001036839985222e-02
8.451500487679425300e-02
8.258941483451691379e-02
8.069790569807740177e-02
7.884451832316449749e-02
7.703261853878459742e-02
7.526486047121454248e-02
7.354316381838313377e-02
7.186870504018828820e-02
7.024192228172389252e-02
6.866253352280085598e-02
6.712956720032306479e-02
6.564140431525959662e-02
6.419583099214323796e-02
6.279010018924183201e-02
6.142100103125235772e-02
6.008493439557459348e-02
5.877799311429600382e-02
5.749604512496921116e-02
5.623481805207033307e-02
5.498998349261245699e-02
5.375723951309718807e-02
5.253238993751966485e-02
5.131141901902360608e-02
5.009056021975009931e-02
4.886635812680687613e-02
4.763572254710925213e-02
4.639597396053059958e-02
4.514487988783180694e-02
4.388068168418625403e-02
4.260211172299842308e-02
4.130840092678453312e-02
3.999927673251937876e-02
3.867495193079968641e-02
3.733610505988439743e-02
3.598385276240197855e-02
3.461971508930402480e-02
3.324557453810228491e-02
3.186362987458216112e-02
3.047634587588007871e-02
2.908640004248172137e-02
2.769662728877728131e-02
2.630996392397248751e-02
2.492939201848342126e-02
2.355788507125506151e-02
2.219835610751177274e-02
2.085360905204554360e-02
1.952629425953388703e-02
1.821886893657171519e-02
1.693356294149366698e-02
