1.454594572650563279e-02
1.454936477329048065e-02
1.455278384562200787e-02
1.455620294336447927e-02
1.455962206638214060e-02
1.456304121453923239e-02
1.456646038769997611e-02
1.456987958572858281e-02
1.457329880848925834e-02
1.457671805584620159e-02
1.458013732766359934e-02
1.458355662380563314e-02
1.458697594413647068e-02
1.459039528852026750e-02
1.459381465682116005e-02
1.459723404890326398e-02
1.460065346463068278e-02
1.460407290386750781e-02
1.460749236647782175e-02
1.461091185232569339e-02
1.461433136127518635e-02
1.461775089319034861e-02
1.462117044793520733e-02
1.462459002537377754e-02
1.462800962537006561e-02
1.463142924778805011e-02
1.463484889249169751e-02
1.463826855934496560e-02
1.464168824821179653e-02
1.464510795895612554e-02
1.464852769144188091e-02
1.465194744553298921e-02
1.465536722109337525e-02
1.465878701798695692e-02
1.466220683607764343e-02
1.466562667522932836e-02
1.466904653530588451e-02
1.467246641617116903e-02
1.467588631768902176e-02
1.467930623972328076e-02
1.468272618213777546e-02
1.468614614479633353e-02
1.468956612756277570e-02
1.469298613030091231e-02
1.469640615287454155e-02
1.469982619514744598e-02
1.470324625698340125e-02
1.470666633824617431e-02
1.471008643879952692e-02
1.471350655850720349e-02
1.471692669723293281e-02
1.472034685484043329e-02
1.472376703119341462e-02
1.472718722615557613e-02
1.473060743959059109e-02
1.473402767136212932e-02
1.473744792133385023e-02
1.474086818936939589e-02
1.474428847533239793e-02
1.474770877908647068e-02
1.475112910049521629e-02
1.475454943942222479e-02
1.475796979573106883e-02
1.476139016928529682e-02
1.476481055994843285e-02
1.476823096758398887e-02
1.477165139205545777e-02
1.477507183322632200e-02
1.477849229096004496e-02
1.478191276512007615e-02
1.478533325556985294e-02
1.478875376217280921e-02
1.479217428479236672e-02
1.479559482329192641e-02
1.479901537753488400e-02
1.480243594738462308e-02
1.480585653270451336e-02
1.480927713335791242e-02
1.481269774920817260e-02
1.481611838011862026e-02
1.481953902595256264e-02
1.482295968657330008e-02
1.482638036184411208e-02
1.482980105162827120e-02
1.483322175578902224e-02
1.483664247418958228e-02
1.484006320669315447e-02
1.484348395316293506e-02
1.484690471346210815e-02
1.485032548745383700e-02
1.485374627500126929e-02
1.485716707596753186e-02
1.486058789021573769e-02
1.486400871760899280e-02
1.486742955801039455e-02
1.487085041128301775e-02
1.487427127728991640e-02
1.487769215589412365e-02
1.488111304695865882e-02
1.488453395034652557e-02
1.488795486592071025e-02
1.489137579354418532e-02
1.489479673307989548e-02
1.489821768439077501e-02
1.490163864733972873e-02
1.490505962178964583e-02
1.490848060760339294e-02
1.491190160464380896e-02
1.491532261277371020e-02
1.491874363185589566e-02
1.492216466175315392e-02
1.492558570232825621e-02
1.492900675344395120e-02
1.493242781496297369e-02
1.493584888674803594e-02
1.493926996866183111e-02
1.494269106056703503e-02
1.494611216232630095e-02
1.494953327380227175e-02
1.495295439485756078e-02
1.495637552535475714e-02
1.495979666515643083e-02
1.496321781412513451e-02
1.496663897212339653e-02
1.497006013901372792e-02
1.497348131465861543e-02
1.497690249892052149e-02
1.498032369166189121e-02
1.498374489274514540e-02
1.498716610203267886e-02
1.499058731938686731e-02
1.499400854467006217e-02
1.499742977774460445e-02
1.500085101847280222e-02
1.500427226671692885e-02
1.500769352233924728e-02
1.501111478520200486e-02
1.501453605516742985e-02
1.501795733209772971e-02
1.502137861585508410e-02
1.502479990630165366e-02
1.502822120329957468e-02
1.503164250671096443e-02
1.503506381639790716e-02
1.503848513222246809e-02
1.504190645404669159e-02
1.504532778173260296e-02
1.504874911514220148e-02
1.505217045413746561e-02
1.505559179858035300e-02
1.505901314833279526e-02
1.506243450325669801e-02
1.506585586321395991e-02
1.506927722806645185e-02
1.507269859767603783e-02
1.507611997190455577e-02
1.507954135061382282e-02
1.508296273366562662e-02
1.508638412092172879e-02
1.508980551224386318e-02
1.509322690749373419e-02
1.509664830653302536e-02
1.510006970922339944e-02
1.510349111542649142e-02
1.510691252500390679e-02
1.511033393781722328e-02
1.511375535372799263e-02
1.511717677259774399e-02
1.512059819428798919e-02
1.512401961866021750e-02
1.512744104557588350e-02
1.513086247489642093e-02
1.513428390648324275e-02
1.513770534019773933e-02
1.514112677590127680e-02
1.514454821345518482e-02
1.514796965272076530e-02
1.515139109355929763e-02
1.515481253583203687e-02
1.515823397940021383e-02
1.516165542412503675e-02
1.516507686986769306e-02
1.516849831648934763e-02
1.517191976385114105e-02
1.517534121181418443e-02
1.517876266023956630e-02
1.518218410898835094e-02
1.518560555792157138e-02
1.518902700690023637e-02
1.519244845578532517e-02
1.519586990443779449e-02
1.519929135271857676e-02
1.520271280048858704e-02
1.520613424760871614e-02
1.520955569393982361e-02
1.521297713934274473e-02
1.521639858367828356e-02
1.521982002680721292e-02
1.522324146859026055e-02
1.522666290888812814e-02
1.523008434756148444e-02
1.523350578447096870e-02
1.523692721947719070e-02
1.524034865244072723e-02
1.524377008322212214e-02
1.524719151168188631e-02
1.525061293768051156e-02
1.525403436107845151e-02
1.525745578173612685e-02
1.526087719951392703e-02
1.526429861427222416e-02
1.526772002587136259e-02
1.527114143417166066e-02
1.527456283903340546e-02
1.527798424031685115e-02
1.528140563788221717e-02
1.528482703158969003e-02
1.528824842129942498e-02
1.529166980687155127e-02
1.529509118816616345e-02
1.529851256504331618e-02
1.530193393736303115e-02
1.530535530498530923e-02
1.530877666777011661e-02
1.531219802557738652e-02
1.531561937826702614e-02
1.531904072569891494e-02
1.532246206773291153e-02
1.532588340422884679e-02
1.532930473504651864e-02
1.533272606004569896e-02
1.533614737908613884e-02
1.533956869202755466e-02
1.534298999872962810e-02
1.534641129905199922e-02
1.534983259285427337e-02
1.535325387999603337e-02
1.535667516033682560e-02
1.536009643373616347e-02
1.536351770005352051e-02
1.536693895914834074e-02
1.537036021088003870e-02
1.537378145510800119e-02
1.537720269169159416e-02
1.538062392049015584e-02
1.538404514136298799e-02
1.538746635416936293e-02
1.539088755876852517e-02
1.539430875501968977e-02
1.539772994278204056e-02
1.540115112191472665e-02
1.540457229227685555e-02
1.540799345372750352e-02
1.541141460612571214e-02
1.541483574933048134e-02
1.541825688320077985e-02
1.542167800759554515e-02
1.542509912237367831e-02
1.542852022739404569e-02
1.543194132251548417e-02
1.543536240759679247e-02
1.543878348249673807e-02
1.544220454707404509e-02
1.544562560118740123e-02
1.544904664469546295e-02
1.545246767745684334e-02
1.545588869933011908e-02
1.545930971017382867e-02
1.546273070984647939e-02
1.546615169820654036e-02
1.546957267511243732e-02
1.547299364042255265e-02
1.547641459399523751e-02
1.547983553568879796e-02
1.548325646536150707e-02
1.548667738287161193e-02
1.549009828807732317e-02
1.549351918083681501e-02
1.549694006100822349e-02
1.550036092844965345e-02
1.550378178301917674e-02
1.550720262457482533e-02
1.551062345297459996e-02
1.551404426807646321e-02
1.551746506973835336e-02
1.552088585781817576e-02
1.552430663217379582e-02
1.552772739266304776e-02
1.553114813914373456e-02
1.553456887147361930e-02
1.553798958951042343e-02
1.554141029311183024e-02
1.554483098213548659e-02
1.554825165643900636e-02
1.555167231587996184e-02
1.555509296031589057e-02
1.555851358960429025e-02
1.556193420360261342e-02
1.556535480216827277e-02
1.556877538515864801e-02
1.557219595243108066e-02
1.557561650384288454e-02
1.557903703925133006e-02
1.558245755851365641e-02
1.558587806148706463e-02
1.558929854802871239e-02
1.559271901799570877e-02
1.559613947124513164e-02
1.559955990763403286e-02
1.560298032701943650e-02
1.560640072925833198e-02
1.560982111420766705e-02
1.561324148172435478e-02
1.561666183166526660e-02
1.562008216388724099e-02
1.562350247824707654e-02
1.562692277460153017e-02
1.563034305280732936e-02
1.563376331272117031e-02
1.563718355419971631e-02
1.564060377709960634e-02
1.564402398127744467e-02
1.564744416658978704e-02
1.565086433289316140e-02
1.565428448004406101e-02
1.565770460789894791e-02
1.566112471631423211e-02
1.566454480514628544e-02
1.566796487425143117e-02
1.567138492348596132e-02
1.567480495270611937e-02
1.567822496176810715e-02
1.568164495052807791e-02
1.568506491884213289e-02
1.568848486656631777e-02
1.569190479355663664e-02
1.569532469966904847e-02
1.569874458475948448e-02
1.570216444868383771e-02
1.570558429129797345e-02
1.570900411245771539e-02
1.571242391201883512e-02
1.571584368983706265e-02
1.571926344576808979e-02
1.572268317966756326e-02
1.572610289139109510e-02
1.572952258079424875e-02
1.573294224773254257e-02
1.573636189206144981e-02
1.573978151363640207e-02
1.574320111231279282e-02
1.574662068794597039e-02
1.575004024039123457e-02
1.575345976950384003e-02
1.575687927513898939e-02
1.576029875715184714e-02
1.576371821539753956e-02
1.576713764973115134e-02
1.577055706000772897e-02
1.577397644608227387e-02
1.577739580780975273e-02
1.578081514504510105e-02
1.578423445764321267e-02
1.578765374545894329e-02
1.579107300834710695e-02
1.579449224616248301e-02
1.579791145875980574e-02
1.580133064599377468e-02
1.580474980771905819e-02
1.580816894379028642e-02
1.581158805406204099e-02
1.581500713838888267e-02
1.581842619662533755e-02
1.582184522862588316e-02
1.582526423424494497e-02
1.582868321333691028e-02
1.583210216575612131e-02
1.583552109135687516e-02
1.583893998999342037e-02
1.584235886151996731e-02
1.584577770579068817e-02
1.584919652265971701e-02
1.585261531198115664e-02
1.585603407360907519e-02
1.585945280739749566e-02
1.586287151320038211e-02
1.586629019087166734e-02
1.586970884026523906e-02
1.587312746123495030e-02
1.587654605363461591e-02
1.587996461731801257e-02
1.588338315213886839e-02
1.588680165795085947e-02
1.589022013460761676e-02
1.589363858196272961e-02
1.589705699986973531e-02
1.590047538818213299e-02
1.590389374675337322e-02
1.590731207543686493e-02
1.591073037408597193e-02
1.591414864255401296e-02
1.591756688069426509e-02
1.592098508835997420e-02
1.592440326540433757e-02
1.592782141168049351e-02
1.593123952704153870e-02
1.593465761134054900e-02
1.593807566443054824e-02
1.594149368616451859e-02
1.594491167639539714e-02
1.594832963497609321e-02
1.595174756175947103e-02
1.595516545659833932e-02
1.595858331934547555e-02
1.596200114985361213e-02
1.596541894797544325e-02
1.596883671356362500e-02
1.597225444647076831e-02
1.597567214654943210e-02
1.597908981365213366e-02
1.598250744763135209e-02
1.598592504833952488e-02
1.598934261562904788e-02
1.599276014935228224e-02
1.599617764936153361e-02
1.599959511550905211e-02
1.600301254764705666e-02
1.600642994562772800e-02
1.600984730930319830e-02
1.601326463852555115e-02
1.601668193314682853e-02
1.602009919301903076e-02
1.602351641799410267e-02
1.602693360792394744e-02
1.603035076266041969e-02
1.603376788205532547e-02
1.603718496596043611e-02
1.604060201422748827e-02
1.604401902670818739e-02
1.604743600325419378e-02
1.605085294371711574e-02
1.605426984794850950e-02
1.605768671579989315e-02
1.606110354712274660e-02
1.606452034176850466e-02
1.606793709958855704e-02
1.607135382043425528e-02
1.607477050415691278e-02
1.607818715060779780e-02
1.608160375963813699e-02
1.608502033109911189e-02
1.608843686484185201e-02
1.609185336071744868e-02
1.609526981857694813e-02
1.609868623827135151e-02
1.610210261965162870e-02
1.610551896256870452e-02
1.610893526687345520e-02
1.611235153241671186e-02
1.611576775904927442e-02
1.611918394662189072e-02
1.612260009498524965e-02
1.612601620398999847e-02
1.612943227348674277e-02
1.613284830332604655e-02
1.613626429335841828e-02
1.613968024343431784e-02
1.614309615340415657e-02
1.614651202311830069e-02
1.614992785242706438e-02
1.615334364118071672e-02
1.615675938922948168e-02
1.616017509642353814e-02
1.616359076261301986e-02
1.616700638764801551e-02
1.617042197137857212e-02
1.617383751365468469e-02
1.617725301432629270e-02
1.618066847324328358e-02
1.618408389025551009e-02
1.618749926521279373e-02
1.619091459796491092e-02
1.619432988836159298e-02
1.619774513625251572e-02
1.620116034148731329e-02
1.620457550391557824e-02
1.620799062338687535e-02
1.621140569975072082e-02
1.621482073285658229e-02
1.621823572255386842e-02
1.622165066869193581e-02
1.622506557112009945e-02
1.622848042968763269e-02
1.623189524424375335e-02
1.623531001463764459e-02
1.623872474071846178e-02
1.624213942233532909e-02
1.624555405933732558e-02
1.624896865157348866e-02
1.625238319889281413e-02
1.625579770114425615e-02
1.625921215817673418e-02
1.626262656983912258e-02
1.626604093598024367e-02
1.626945525644887466e-02
1.627286953109373727e-02
1.627628375976350461e-02
1.627969794230680126e-02
1.628311207857220666e-02
1.628652616840824130e-02
1.628994021166338749e-02
1.629335420818607896e-02
1.629676815782470783e-02
1.630018206042763151e-02
1.630359591584315884e-02
1.630700972391956050e-02
1.631042348450506899e-02
1.631383719744787519e-02
1.631725086259612836e-02
1.632066447979792917e-02
1.632407804890134012e-02
1.632749156975437863e-02
1.633090504220502046e-02
1.633431846610119975e-02
1.633773184129080208e-02
1.634114516762166444e-02
1.634455844494157178e-02
1.634797167309826396e-02
1.635138485193943919e-02
1.635479798131274712e-02
1.635821106106579576e-02
1.636162409104614107e-02
1.636503707110129394e-02
1.636845000107872358e-02
1.637186288082585067e-02
1.637527571019004730e-02
1.637868848901864391e-02
1.638210121715892240e-02
1.638551389445810566e-02
1.638892652076337844e-02
1.639233909592188385e-02
1.639575161978071294e-02
1.639916409218692209e-02
1.640257651298752256e-02
1.640598888202947359e-02
1.640940119915967541e-02
1.641281346422499357e-02
1.641622567707224506e-02
1.641963783754818787e-02
1.642304994549954184e-02
1.642646200077298863e-02
1.642987400321515440e-02
1.643328595267260980e-02
1.643669784899188385e-02
1.644010969201947434e-02
1.644352148160182700e-02
1.644693321758533555e-02
1.645034489981633818e-02
1.645375652814113146e-02
1.645716810240597031e-02
1.646057962245705414e-02
1.646399108814054421e-02
1.646740249930255667e-02
1.647081385578915910e-02
1.647422515744637744e-02
1.647763640412017519e-02
1.648104759565647073e-02
1.648445873190114083e-02
1.648786981270000326e-02
1.649128083789883764e-02
1.649469180734337154e-02
1.649810272087929783e-02
1.650151357835226082e-02
1.650492437960785971e-02
1.650833512449164861e-02
1.651174581284913651e-02
1.651515644452579076e-02
1.651856701936703364e-02
1.652197753721823884e-02
1.652538799792474533e-02
1.652879840133185049e-02
1.653220874728481699e-02
1.653561903562885196e-02
1.653902926620912442e-02
1.654243943887075824e-02
1.654584955345882874e-02
1.654925960981836960e-02
1.655266960779437288e-02
1.655607954723178898e-02
1.655948942797554058e-02
1.656289924987049481e-02
1.656630901276147025e-02
1.656971871649325079e-02
1.657312836091057520e-02
1.657653794585815105e-02
1.657994747118064771e-02
1.658335693672268601e-02
1.658676634232884167e-02
1.659017568784365917e-02
1.659358497311164138e-02
1.659699419797724604e-02
1.660040336228488927e-02
1.660381246587893864e-02
1.660722150860372004e-02
1.661063049030350736e-02
1.661403941082253977e-02
1.661744827000501828e-02
1.662085706769510923e-02
1.662426580373693730e-02
1.662767447797458206e-02
1.663108309025206760e-02
1.663449164041338676e-02
1.663790012830247342e-02
1.664130855376321980e-02
1.664471691663947997e-02
1.664812521677506291e-02
1.665153345401373594e-02
1.665494162819923518e-02
1.665834973917524470e-02
1.666175778678540692e-02
1.666516577087332612e-02
1.666857369128254066e-02
1.667198154785654723e-02
1.667538934043878360e-02
1.667879706887264238e-02
1.668220473300146764e-02
1.668561233266856528e-02
1.668901986771718568e-02
1.669242733799052372e-02
1.669583474333172571e-02
1.669924208358389978e-02
1.670264935859011243e-02
1.670605656819337814e-02
1.670946371223666627e-02
1.671287079056289759e-02
1.671627780301494781e-02
1.671968474943565444e-02
1.672309162966780297e-02
1.672649844355414417e-02
1.672990519093738027e-02
1.673331187166017184e-02
1.673671848556512395e-02
1.674012503249479658e-02
1.674353151229171152e-02
1.674693792479833854e-02
1.675034426985711269e-02
1.675375054731042396e-02
1.675715675700062759e-02
1.676056289877003377e-02
1.676396897246090409e-02
1.676737497791546197e-02
1.677078091497588574e-02
1.677418678348432252e-02
1.677759258328287081e-02
1.678099831421357713e-02
1.678440397611843590e-02
1.678780956883939995e-02
1.679121509221837352e-02
1.679462054609721228e-02
1.679802593031772678e-02
1.680143124472167557e-02
1.680483648915078246e-02
1.680824166344671577e-02
1.681164676745110220e-02
1.681505180100553026e-02
1.681845676395156419e-02
1.682186165613071271e-02
1.682526647738443945e-02
1.682867122755416292e-02
1.683207590648124613e-02
1.683548051400701392e-02
1.683888504997275298e-02
1.684228951421970141e-02
1.684569390658905222e-02
1.684909822692196024e-02
1.685250247505953175e-02
1.685590665084281056e-02
1.685931075411278846e-02
1.686271478471042598e-02
1.686611874247664206e-02
1.686952262725231050e-02
1.687292643887827043e-02
1.687633017719532974e-02
1.687973384204424776e-02
1.688313743326574565e-02
1.688654095070049946e-02
1.688994439418914362e-02
1.689334776357226744e-02
1.689675105869042557e-02
1.690015427938412057e-02
1.690355742549381340e-02
1.690696049685990257e-02
1.691036349332274147e-02
1.691376641472264880e-02
1.691716926089990511e-02
1.692057203169473542e-02
1.692397472694732660e-02
1.692737734649783082e-02
1.693077989018636209e-02
1.693418235785298931e-02
1.693758474933773628e-02
1.694098706448057823e-02
1.694438930312146263e-02
1.694779146510029533e-02
1.695119355025694052e-02
1.695459555843122426e-02
1.695799748946295177e-02
1.696139934319189010e-02
1.696480111945776470e-02
1.696820281810025935e-02
1.697160443895900234e-02
1.697500598187357337e-02
1.697840744668351748e-02
1.698180883322835885e-02
1.698521014134757312e-02
1.698861137088061510e-02
1.699201252166690490e-02
1.699541359354580713e-02
1.699881458635665171e-02
1.700221549993871997e-02
1.700561633413126550e-02
1.700901708877350024e-02
1.701241776370459452e-02
1.701581835876366661e-02
1.701921887378978621e-02
1.702261930862198486e-02
1.702601966309924900e-02
1.702941993706052343e-02
1.703282013034471132e-02
1.703622024279069155e-02
1.703962027423730485e-02
1.704302022452334683e-02
1.704642009348757148e-02
1.704981988096868420e-02
1.705321958680534877e-02
1.705661921083619081e-02
1.706001875289977696e-02
1.706341821283462873e-02
1.706681759047923644e-02
1.707021688567205570e-02
1.707361609825149354e-02
1.707701522805592231e-02
1.708041427492368314e-02
1.708381323869308938e-02
1.708721211920241276e-02
1.709061091628987297e-02
1.709400962979365154e-02
1.709740825955188837e-02
1.710080680540268169e-02
1.710420526718410550e-02
1.710760364473418865e-02
1.711100193789091492e-02
1.711440014649222990e-02
1.711779827037603757e-02
1.712119630938020026e-02
1.712459426334256296e-02
1.712799213210092902e-02
1.713138991549304976e-02
1.713478761335663833e-02
1.713818522552935930e-02
1.714158275184883215e-02
1.714498019215265207e-02
1.714837754627837607e-02
1.715177481406351609e-02
1.715517199534555282e-02
1.715856908996193572e-02
1.716196609775007612e-02
1.716536301854734367e-02
1.716875985219107684e-02
1.717215659851857937e-02
1.717555325736712379e-02
1.717894982857395836e-02
1.718234631197628620e-02
1.718574270741126883e-02
1.718913901471602959e-02
1.719253523372765019e-02
1.719593136428317764e-02
1.719932740621963121e-02
1.720272335937398506e-02
1.720611922358318904e-02
1.720951499868415488e-02
1.721291068451376652e-02
1.721630628090886281e-02
1.721970178770624443e-02
1.722309720474266351e-02
1.722649253185483745e-02
1.722988776887944204e-02
1.723328291565310449e-02
1.723667797201242080e-02
1.724007293779396266e-02
1.724346781283426014e-02
1.724686259696981902e-02
1.725025729003711386e-02
1.725365189187258452e-02
1.725704640231264311e-02
1.726044082119367051e-02
1.726383514835201638e-02
1.726722938362399568e-02
1.727062352684587479e-02
1.727401757785389583e-02
1.727741153648428007e-02
1.728080540257321412e-02
1.728419917595683253e-02
1.728759285647123861e-02
1.729098644395250101e-02
1.729437993823665018e-02
1.729777333915968190e-02
1.730116664655757114e-02
1.730455986026625467e-02
1.730795298012163461e-02
1.731134600595957140e-02
1.731473893761587696e-02
1.731813177492634928e-02
1.732152451772674476e-02
1.732491716585279201e-02
1.732830971914019191e-02
1.733170217742461411e-02
1.733509454054168661e-02
1.733848680832700967e-02
1.734187898061615926e-02
1.734527105724467666e-02
1.734866303804807192e-02
1.735205492286182039e-02
1.735544671152135232e-02
1.735883840386206675e-02
1.736222999971932801e-02
1.736562149892847615e-02
1.736901290132483039e-02
1.737240420674367181e-02
1.737579541502023983e-02
1.737918652598974267e-02
1.738257753948736078e-02
1.738596845534823646e-02
1.738935927340748422e-02
1.739274999350019432e-02
1.739614061546143273e-02
1.739953113912622376e-02
1.740292156432956053e-02
1.740631189090640144e-02
1.740970211869167020e-02
1.741309224752026624e-02
1.741648227722706124e-02
1.741987220764689218e-02
1.742326203861455786e-02
1.742665176996482240e-02
1.743004140153242565e-02
1.743343093315206926e-02
1.743682036465840982e-02
1.744020969588605877e-02
1.744359892666959289e-02
1.744698805684355425e-02
1.745037708624244330e-02
1.745376601470074659e-02
1.745715484205292642e-02
1.746054356813340688e-02
1.746393219277656353e-02
1.746732071581673373e-02
1.747070913708822365e-02
1.747409745642529780e-02
1.747748567366217212e-02
1.748087378863302788e-02
1.748426180117200468e-02
1.748764971111321093e-02
1.749103751829072378e-02
1.749442522253857185e-02
1.749781282369075944e-02
1.750120032158124228e-02
1.750458771604393449e-02
1.750797500691272934e-02
1.751136219402148544e-02
1.751474927720401628e-02
1.751813625629410065e-02
1.752152313112548265e-02
1.752490990153187864e-02
1.752829656734697719e-02
1.753168312840443915e-02
1.753506958453788719e-02
1.753845593558090582e-02
1.754184218136703791e-02
1.754522832172979163e-02
1.754861435650264395e-02
1.755200028551903713e-02
1.755538610861238913e-02
1.755877182561607630e-02
1.756215743636344723e-02
1.756554294068782621e-02
1.756892833842250284e-02
1.757231362940073552e-02
1.757569881345575485e-02
1.757908389042075678e-02
1.758246886012890600e-02
1.758585372241332559e-02
1.758923847710711433e-02
1.759262312404332937e-02
1.759600766305500011e-02
1.759939209397512472e-02
1.760277641663667014e-02
1.760616063087257557e-02
1.760954473651574204e-02
1.761292873339902199e-02
1.761631262135525053e-02
1.761969640021723502e-02
1.762308006981775504e-02
1.762646362998954858e-02
1.762984708056530500e-02
1.763323042137766514e-02
1.763661365225922817e-02
1.763999677304255859e-02
1.764337978356019312e-02
1.764676268364464423e-02
1.765014547312838966e-02
1.765352815184386207e-02
1.765691071962345940e-02
1.766029317629954840e-02
1.766367552170445068e-02
1.766705775567046013e-02
1.767043987802984287e-02
1.767382188861481296e-02
1.767720378725753591e-02
1.768058557379014600e-02
1.768396724804474282e-02
1.768734880985339125e-02
1.769073025904812496e-02
1.769411159546093945e-02
1.769749281892379553e-02
1.770087392926861583e-02
1.770425492632728831e-02
1.770763580993165581e-02
1.771101657991354036e-02
1.771439723610472930e-02
1.771777777833697526e-02
1.772115820644199619e-02
1.772453852025147533e-02
1.772791871959706472e-02
1.773129880431038863e-02
1.773467877422305050e-02
1.773805862916662951e-02
1.774143836897265972e-02
1.774481799347264396e-02
1.774819750249805039e-02
1.775157689588030205e-02
1.775495617345079769e-02
1.775833533504090136e-02
1.776171438048195633e-02
1.776509330960527461e-02
1.776847212224214045e-02
1.777185081822381385e-02
1.777522939738152702e-02
1.777860785954649137e-02
1.778198620454988707e-02
1.778536443222285962e-02
1.778874254239651634e-02
1.779212053490194373e-02
1.779549840957020401e-02
1.779887616623232124e-02
1.780225380471928479e-02
1.780563132486204583e-02
1.780900872649152436e-02
1.781238600943859524e-02
1.781576317353409517e-02
1.781914021860881922e-02
1.782251714449352431e-02
1.782589395101892918e-02
1.782927063801572135e-02
1.783264720531456404e-02
1.783602365274609275e-02
1.783939998014090478e-02
1.784277618732956275e-02
1.784615227414259805e-02
1.784952824041052821e-02
1.785290408596382564e-02
1.785627981063292458e-02
1.785965541424822112e-02
1.786303089664008706e-02
1.786640625763887338e-02
1.786978149707489291e-02
1.787315661477842030e-02
1.787653161057969203e-02
1.787990648430889604e-02
1.788328123579617512e-02
1.788665586487163742e-02
1.789003037136534940e-02
1.789340475510735329e-02
1.789677901592765658e-02
1.790015315365623555e-02
1.790352716812303874e-02
1.790690105915798344e-02
1.791027482659095227e-02
1.791364847025179660e-02
1.791702198997032619e-02
1.792039538557632650e-02
1.792376865689954829e-02
1.792714180376971805e-02
1.793051482601653451e-02
1.793388772346965823e-02
1.793726049595871508e-02
1.794063314331329276e-02
1.794400566536296510e-02
1.794737806193726776e-02
1.795075033286569477e-02
1.795412247797770894e-02
1.795749449710274184e-02
1.796086639007018690e-02
1.796423815670940977e-02
1.796760979684973794e-02
1.797098131032047116e-02
1.797435269695086060e-02
1.797772395657010538e-02
1.798109508900738382e-02
1.798446609409182911e-02
1.798783697165253284e-02
1.799120772151856229e-02
1.799457834351895352e-02
1.799794883748270791e-02
1.800131920323878865e-02
1.800468944061613813e-02
1.800805954944368140e-02
1.801142952955030879e-02
1.801479938076487944e-02
1.801816910291621429e-02
1.802153869583310655e-02
1.802490815934432514e-02
1.802827749327860080e-02
1.803164669746461918e-02
1.803501577173103471e-02
1.803838471590647405e-02
1.804175352981953265e-02
1.804512221329877472e-02
1.804849076617272285e-02
1.805185918826985106e-02
1.805522747941860906e-02
1.805859563944741883e-02
1.806196366818467111e-02
1.806533156545872196e-02
1.806869933109789272e-02
1.807206696493047701e-02
1.807543446678473720e-02
1.807880183648889749e-02
1.808216907387114741e-02
1.808553617875963831e-02
1.808890315098248339e-02
1.809226999036775418e-02
1.809563669674349104e-02
1.809900326993768918e-02
1.810236970977831608e-02
1.810573601609329411e-02
1.810910218871050054e-02
1.811246822745777446e-02
1.811583413216292029e-02
1.811919990265371469e-02
1.812256553875789267e-02
1.812593104030315802e-02
1.812929640711718332e-02
1.813266163902759256e-02
1.813602673586197159e-02
1.813939169744787500e-02
1.814275652361281924e-02
1.814612121418428953e-02
1.814948576898973293e-02
1.815285018785656179e-02
1.815621447061216420e-02
1.815957861708388313e-02
1.816294262709901644e-02
1.816630650048482384e-02
1.816967023706851994e-02
1.817303383667727770e-02
1.817639729913824234e-02
1.817976062427852091e-02
1.818312381192518229e-02
1.818648686190525374e-02
1.818984977404573128e-02
1.819321254817357972e-02
1.819657518411573263e-02
1.819993768169908890e-02
1.820330004075051272e-02
1.820666226109683358e-02
1.821002434256484628e-02
1.821338628498129705e-02
1.821674808817288355e-02
1.822010975196626872e-02
1.822347127618808085e-02
1.822683266066491350e-02
1.823019390522332556e-02
1.823355500968984813e-02
1.823691597389097765e-02
1.824027679765317586e-02
1.824363748080286979e-02
1.824699802316644484e-02
1.825035842457025173e-02
1.825371868484059953e-02
1.825707880380375570e-02
1.826043878128594256e-02
1.826379861711333735e-02
1.826715831111209304e-02
1.827051786310832440e-02
1.827387727292811501e-02
1.827723654039751719e-02
1.828059566534255206e-02
1.828395464758920605e-02
1.828731348696342393e-02
1.829067218329112274e-02
1.829403073639818134e-02
1.829738914611044390e-02
1.830074741225370949e-02
1.830410553465373208e-02
1.830746351313623094e-02
1.831082134752688023e-02
1.831417903765131944e-02
1.831753658333515680e-02
1.832089398440395547e-02
1.832425124068324043e-02
1.832760835199850197e-02
1.833096531817519914e-02
1.833432213903874591e-02
1.833767881441452849e-02
1.834103534412788450e-02
1.834439172800412035e-02
1.834774796586851123e-02
1.835110405754629068e-02
1.835446000286266102e-02
1.835781580164277949e-02
1.836117145371176165e-02
1.836452695889467454e-02
1.836788231701654700e-02
1.837123752790237666e-02
1.837459259137712644e-02
1.837794750726571419e-02
1.838130227539302303e-02
1.838465689558389793e-02
1.838801136766315611e-02
1.839136569145557315e-02
1.839471986678587953e-02
1.839807389347876410e-02
1.840142777135888447e-02
1.840478150025087051e-02
1.840813507997932433e-02
1.841148851036881681e-02
1.841484179124387721e-02
1.841819492242899661e-02
1.842154790374862794e-02
1.842490073502716860e-02
1.842825341608898132e-02
1.843160594675840105e-02
1.843495832685972113e-02
1.843831055621718978e-02
1.844166263465499625e-02
1.844501456199729161e-02
1.844836633806819573e-02
1.845171796269177988e-02
1.845506943569208413e-02
1.845842075689310344e-02
1.846177192611878071e-02
1.846512294319302069e-02
1.846847380793970039e-02
1.847182452018265864e-02
1.847517507974569609e-02
1.847852548645256485e-02
1.848187574012697884e-02
1.848522584059262772e-02
1.848857578767315255e-02
1.849192558119214930e-02
1.849527522097316884e-02
1.849862470683971347e-02
1.850197403861523690e-02
1.850532321612314429e-02
1.850867223918678875e-02
1.851202110762948522e-02
1.851536982127450701e-02
1.851871837994508233e-02
1.852206678346439081e-02
1.852541503165556699e-02
1.852876312434170725e-02
1.853211106134587671e-02
1.853545884249109543e-02
1.853880646760033835e-02
1.854215393649654917e-02
1.854550124900261956e-02
1.854884840494139611e-02
1.855219540413567333e-02
1.855554224640819372e-02
1.855888893158165812e-02
1.856223545947872922e-02
1.856558182992202807e-02
1.856892804273412023e-02
1.857227409773751572e-02
1.857561999475466907e-02
1.857896573360799317e-02
1.858231131411985926e-02
1.858565673611259697e-02
1.858900199940850817e-02
1.859234710382985656e-02
1.859569204919884339e-02
1.859903683533763175e-02
1.860238146206833268e-02
1.860572592921300519e-02
1.860907023659368401e-02
1.861241438403236567e-02
1.861575837135100858e-02
1.861910219837150174e-02
1.862244586491570292e-02
1.862578937080542479e-02
1.862913271586242800e-02
1.863247589990842806e-02
1.863581892276509888e-02
1.863916178425406578e-02
1.864250448419690898e-02
1.864584702241517053e-02
1.864918939873035433e-02
1.865253161296391918e-02
1.865587366493726487e-02
1.865921555447174959e-02
1.866255728138868294e-02
1.866589884550931902e-02
1.866924024665485987e-02
1.867258148464647285e-02
1.867592255930527329e-02
1.867926347045234178e-02
1.868260421790871387e-02
1.868594480149538689e-02
1.868928522103331658e-02
1.869262547634342048e-02
1.869596556724656758e-02
1.869930549356356789e-02
1.870264525511518283e-02
1.870598485172213915e-02
1.870932428320511154e-02
1.871266354938472612e-02
1.871600265008156391e-02
1.871934158511616084e-02
1.872268035430899730e-02
1.872601895748050860e-02
1.872935739445108494e-02
1.873269566504106448e-02
1.873603376907073681e-02
1.873937170636033600e-02
1.874270947673004756e-02
1.874604708000000494e-02
1.874938451599029304e-02
1.875272178452094471e-02
1.875605888541194768e-02
1.875939581848325155e-02
1.876273258355476078e-02
1.876606918044633129e-02
1.876940560897777041e-02
1.877274186896884384e-02
1.877607796023928605e-02
1.877941388260877947e-02
1.878274963589694410e-02
1.878608521992334440e-02
1.878942063450748934e-02
1.879275587946884277e-02
1.879609095462682344e-02
1.879942585980080849e-02
1.880276059481012646e-02
1.880609515947406774e-02
1.880942955361186719e-02
1.881276377704272501e-02
1.881609782958579974e-02
1.881943171106020482e-02
1.882276542128501207e-02
1.882609896007924472e-02
1.882943232726188437e-02
1.883276552265186407e-02
1.883609854606806827e-02
1.883943139732931898e-02
1.884276407625439659e-02
1.884609658266203983e-02
1.884942891637093887e-02
1.885276107719973879e-02
1.885609306496703261e-02
1.885942487949135091e-02
1.886275652059118263e-02
1.886608798808496815e-02
1.886941928179109926e-02
1.887275040152791919e-02
1.887608134711370525e-02
1.887941211836668270e-02
1.888274271510503519e-02
1.888607313714688735e-02
1.888940338431029098e-02
1.889273345641324237e-02
1.889606335327369963e-02
1.889939307470956883e-02
1.890272262053871444e-02
1.890605199057895577e-02
1.890938118464806014e-02
1.891271020256374627e-02
1.891603904414366696e-02
1.891936770920542299e-02
1.892269619756655266e-02
1.892602450904453532e-02
1.892935264345678784e-02
1.893268060062066119e-02
1.893600838035346123e-02
1.893933598247243139e-02
1.894266340679475261e-02
1.894599065313755035e-02
1.894931772131788761e-02
1.895264461115278229e-02
1.895597132245920025e-02
1.895929785505404488e-02
1.896262420875415716e-02
1.896595038337632599e-02
1.896927637873729519e-02
1.897260219465376693e-02
1.897592783094239136e-02
1.897925328741977349e-02
1.898257856390245940e-02
1.898590366020693615e-02
1.898922857614962836e-02
1.899255331154690515e-02
1.899587786621508706e-02
1.899920223997044605e-02
1.900252643262920552e-02
1.900585044400752988e-02
1.900917427392154538e-02
1.901249792218731582e-02
1.901582138862084950e-02
1.901914467303809225e-02
1.902246777525494828e-02
1.902579069508727322e-02
1.902911343235086719e-02
1.903243598686147481e-02
1.903575835843477823e-02
1.903908054688640411e-02
1.904240255203192358e-02
1.904572437368685922e-02
1.904904601166667114e-02
1.905236746578676393e-02
1.905568873586249365e-02
1.905900982170915040e-02
1.906233072314196531e-02
1.906565143997610706e-02
1.906897197202669578e-02
1.907229231910880299e-02
1.907561248103744125e-02
1.907893245762756415e-02
1.908225224869406975e-02
1.908557185405180753e-02
1.908889127351557150e-02
1.909221050690008969e-02
1.909552955402002775e-02
1.909884841468999228e-02
1.910216708872453442e-02
1.910548557593814284e-02
1.910880387614524722e-02
1.911212198916021829e-02
1.911543991479736429e-02
1.911875765287093798e-02
1.912207520319512966e-02
1.912539256558406717e-02
1.912870973985182632e-02
1.913202672581241007e-02
1.913534352327976237e-02
1.913866013206777517e-02
1.914197655199027792e-02
1.914529278286102379e-02
1.914860882449370694e-02
1.915192467670194867e-02
1.915524033929931480e-02
1.915855581209930519e-02
1.916187109491535034e-02
1.916518618756083217e-02
1.916850108984907708e-02
1.917181580159335944e-02
1.917513032260689462e-02
1.917844465270283558e-02
1.918175879169427625e-02
1.918507273939424468e-02
1.918838649561571338e-02
1.919170006017159244e-02
1.919501343287471212e-02
1.919832661353784026e-02
1.920163960197369610e-02
1.920495239799492951e-02
1.920826500141412443e-02
1.921157741204381625e-02
1.921488962969647787e-02
1.921820165418451284e-02
1.922151348532024837e-02
1.922482512291596307e-02
1.922813656678388008e-02
1.923144781673615314e-02
1.923475887258485617e-02
1.923806973414200414e-02
1.924138040121954607e-02
1.924469087362937203e-02
1.924800115118330615e-02
1.925131123369310318e-02
1.925462112097045195e-02
1.925793081282697189e-02
1.926124030907422000e-02
1.926454960952368387e-02
1.926785871398677824e-02
1.927116762227485888e-02
1.927447633419921216e-02
1.927778484957104466e-02
1.928109316820150396e-02
1.928440128990167868e-02
1.928770921448257417e-02
1.929101694175511944e-02
1.929432447153018107e-02
1.929763180361854930e-02
1.930093893783096232e-02
1.930424587397810282e-02
1.930755261187058758e-02
1.931085915131896397e-02
1.931416549213371345e-02
1.931747163412525156e-02
1.932077757710391752e-02
1.932408332087999503e-02
1.932738886526370187e-02
1.933069421006518296e-02
1.933399935509450690e-02
1.933730430016168331e-02
1.934060904507664200e-02
1.934391358964924340e-02
1.934721793368927162e-02
1.935052207700644136e-02
1.935382601941040143e-02
1.935712976071072081e-02
1.936043330071690605e-02
1.936373663923839430e-02
1.936703977608455682e-02
1.937034271106468156e-02
1.937364544398799057e-02
1.937694797466364346e-02
1.938025030290073045e-02
1.938355242850827928e-02
1.938685435129524834e-02
1.939015607107051620e-02
1.939345758764288510e-02
1.939675890082109833e-02
1.940006001041381933e-02
1.940336091622963874e-02
1.940666161807707082e-02
1.940996211576455355e-02
1.941326240910043813e-02
1.941656249789300293e-02
1.941986238195044998e-02
1.942316206108089457e-02
1.942646153509238610e-02
1.942976080379290454e-02
1.943305986699037438e-02
1.943635872449264723e-02
1.943965737610750186e-02
1.944295582164265457e-02
1.944625406090575229e-02
1.944955209370435867e-02
1.945284991984596798e-02
1.945614753913800163e-02
1.945944495138779429e-02
1.946274215640260083e-02
1.946603915398959286e-02
1.946933594395586914e-02
1.947263252610844514e-02
1.947592890025425655e-02
1.947922506620015579e-02
1.948252102375291894e-02
1.948581677271923884e-02
1.948911231290572851e-02
1.949240764411892812e-02
1.949570276616528763e-02
1.949899767885117374e-02
1.950229238198288376e-02
1.950558687536663519e-02
1.950888115880857268e-02
1.951217523211475763e-02
1.951546909509117508e-02
1.951876274754371990e-02
1.952205618927819672e-02
1.952534942010032692e-02
1.952864243981574863e-02
1.953193524823002361e-02
1.953522784514864427e-02
1.953852023037701627e-02
1.954181240372046546e-02
1.954510436498423792e-02
1.954839611397350685e-02
1.955168765049336566e-02
1.955497897434883489e-02
1.955827008534485878e-02
1.956156098328629481e-02
1.956485166797792760e-02
1.956814213922445853e-02
1.957143239683052302e-02
1.957472244060068367e-02
1.957801227033941285e-02
1.958130188585110315e-02
1.958459128694006041e-02
1.958788047341051414e-02
1.959116944506661406e-02
1.959445820171241276e-02
1.959774674315187606e-02
1.960103506918889349e-02
1.960432317962728169e-02
1.960761107427078098e-02
1.961089875292305190e-02
1.961418621538768212e-02
1.961747346146816909e-02
1.962076049096792354e-02
1.962404730369028336e-02
1.962733389943849965e-02
1.963062027801574377e-02
1.963390643922508644e-02
1.963719238286951510e-02
1.964047810875193395e-02
1.964376361667517085e-02
1.964704890644197385e-02
1.965033397785501124e-02
1.965361883071685759e-02
1.965690346483001116e-02
1.966018787999686615e-02
1.966347207601972305e-02
1.966675605270078869e-02
1.967003980984219011e-02
1.967332334724598147e-02
1.967660666471412675e-02
1.967988976204848930e-02
1.968317263905083186e-02
1.968645529552282697e-02
1.968973773126606389e-02
1.969301994608203474e-02
1.969630193977213103e-02
1.969958371213763673e-02
1.970286526297975252e-02
1.970614659209958194e-02
1.970942769929814181e-02
1.971270858437634138e-02
1.971598924713500664e-02
1.971926968737488378e-02
1.972254990489662879e-02
1.972582989950081092e-02
1.972910967098792309e-02
1.973238921915836455e-02
1.973566854381244781e-02
1.973894764475039865e-02
1.974222652177234569e-02
1.974550517467831695e-02
1.974878360326823984e-02
1.975206180734193420e-02
1.975533978669914009e-02
1.975861754113950042e-02
1.976189507046255747e-02
1.976517237446774947e-02
1.976844945295441747e-02
1.977172630572180539e-02
1.977500293256908084e-02
1.977827933329531773e-02
1.978155550769948937e-02
1.978483145558047537e-02
1.978810717673706171e-02
1.979138267096795800e-02
1.979465793807178020e-02
1.979793297784704018e-02
1.980120779009215265e-02
1.980448237460543520e-02
1.980775673118510827e-02
1.981103085962930554e-02
1.981430475973605665e-02
1.981757843130329752e-02
1.982085187412887389e-02
1.982412508801054477e-02
1.982739807274596852e-02
1.983067082813271681e-02
1.983394335396825719e-02
1.983721565004994622e-02
1.984048771617503981e-02
1.984375955214068982e-02
1.984703115774395094e-02
1.985030253278178766e-02
1.985357367705106388e-02
1.985684459034854285e-02
1.986011527247089070e-02
1.986338572321467988e-02
1.986665594237637875e-02
1.986992592975236199e-02
1.987319568513891410e-02
1.987646520833222935e-02
1.987973449912840140e-02
1.988300355732340596e-02
1.988627238271311812e-02
1.988954097509330887e-02
1.989280933425964862e-02
1.989607746000771754e-02
1.989934535213300215e-02
1.990261301043087447e-02
1.990588043469660937e-02
1.990914762472537416e-02
1.991241458031225986e-02
1.991568130125225683e-02
1.991894778734025137e-02
1.992221403837101876e-02
1.992548005413923018e-02
1.992874583443944927e-02
1.993201137906613213e-02
1.993527668781363768e-02
1.993854176047621732e-02
1.994180659684802182e-02
1.994507119672310480e-02
1.994833555989542276e-02
1.995159968615881421e-02
1.995486357530701360e-02
1.995812722713366863e-02
1.996139064143231945e-02
1.996465381799640559e-02
1.996791675661926252e-02
1.997117945709413200e-02
1.997444191921414480e-02
1.997770414277232759e-02
1.998096612756160295e-02
1.998422787337478246e-02
1.998748938000456665e-02
1.999075064724356934e-02
1.999401167488430026e-02
1.999727246271916850e-02
2.000053301054047911e-02
2.000379331814042261e-02
2.000705338531107158e-02
2.001031321184439798e-02
2.001357279753227664e-02
2.001683214216647133e-02
2.002009124553864525e-02
2.002335010744035401e-02
2.002660872766304917e-02
2.002986710599807818e-02
2.003312524223668442e-02
2.003638313617001412e-02
2.003964078758909903e-02
2.004289819628484945e-02
2.004615536204806467e-02
2.004941228466946071e-02
2.005266896393965645e-02
2.005592539964916321e-02
2.005918159158839170e-02
2.006243753954764855e-02
2.006569324331712242e-02
2.006894870268689443e-02
2.007220391744694160e-02
2.007545888738713688e-02
2.007871361229725954e-02
2.008196809196696742e-02
2.008522232618581427e-02
2.008847631474323242e-02
2.009173005742856399e-02
2.009498355403104355e-02
2.009823680433979118e-02
2.010148980814383673e-02
2.010474256523211989e-02
2.010799507539346581e-02
2.011124733841660253e-02
2.011449935409015052e-02
2.011775112220262618e-02
2.012100264254243140e-02
2.012425391489787441e-02
2.012750493905716628e-02
2.013075571480842443e-02
2.013400624193966218e-02
2.013725652023878529e-02
2.014050654949359545e-02
2.014375632949178679e-02
2.014700586002093549e-02
2.015025514086851710e-02
2.015350417182190310e-02
2.015675295266834699e-02
2.016000148319500515e-02
2.016324976318892986e-02
2.016649779243705892e-02
2.016974557072623644e-02
2.017299309784320940e-02
2.017624037357462416e-02
2.017948739770701605e-02
2.018273417002680245e-02
2.018598069032029318e-02
2.018922695837370093e-02
2.019247297397313082e-02
2.019571873690457001e-02
2.019896424695390158e-02
2.020220950390690801e-02
2.020545450754926767e-02
2.020869925766655140e-02
2.021194375404420512e-02
2.021518799646756029e-02
2.021843198472184772e-02
2.022167571859219415e-02
2.022491919786362571e-02
2.022816242232106793e-02
2.023140539174933528e-02
2.023464810593313470e-02
2.023789056465706213e-02
2.024113276770561284e-02
2.024437471486317808e-02
2.024761640591404496e-02
2.025085784064239655e-02
2.025409901883230140e-02
2.025733994026773094e-02
2.026058060473254901e-02
2.026382101201050154e-02
2.026706116188521645e-02
2.027030105414020372e-02
2.027354068855887273e-02
2.027678006492452181e-02
2.028001918302033482e-02
2.028325804262937765e-02
2.028649664353459822e-02
2.028973498551883345e-02
2.029297306836481268e-02
2.029621089185516813e-02
2.029944845577242446e-02
2.030268575989899529e-02
2.030592280401719019e-02
2.030915958790921461e-02
2.031239611135717341e-02
2.031563237414307430e-02
2.031886837604881743e-02
2.032210411685618501e-02
2.032533959634685514e-02
2.032857481430238797e-02
2.033180977050424304e-02
2.033504446473377233e-02
2.033827889677220987e-02
2.034151306640067519e-02
2.034474697340017679e-02
2.034798061755162257e-02
2.035121399863580594e-02
2.035444711643340926e-02
2.035767997072501084e-02
2.036091256129107449e-02
2.036414488791195299e-02
2.036737695036788115e-02
2.037060874843898625e-02
2.037384028190529842e-02
2.037707155054674715e-02
2.038030255414315442e-02
2.038353329247423115e-02
2.038676376531959808e-02
2.038999397245876838e-02
2.039322391367114420e-02
2.039645358873601322e-02
2.039968299743255553e-02
2.040291213953983329e-02
2.040614101483680110e-02
2.040936962310230599e-02
2.041259796411508051e-02
2.041582603765374274e-02
2.041905384349679969e-02
2.042228138142263005e-02
2.042550865120950493e-02
2.042873565263558441e-02
2.043196238547891411e-02
2.043518884951743553e-02
2.043841504452896876e-02
2.044164097029122287e-02
2.044486662658179243e-02
2.044809201317817141e-02
2.045131712985774272e-02
2.045454197639777483e-02
2.045776655257543208e-02
2.046099085816777824e-02
2.046421489295175908e-02
2.046743865670420590e-02
2.047066214920183549e-02
2.047388537022123978e-02
2.047710831953889615e-02
2.048033099693117795e-02
2.048355340217434747e-02
2.048677553504455948e-02
2.048999739531785769e-02
2.049321898277016440e-02
2.049644029717730132e-02
2.049966133831497214e-02
2.050288210595877653e-02
2.050610259988420309e-02
2.050932281986662942e-02
2.051254276568133250e-02
2.051576243710348524e-02
2.051898183390816338e-02
2.052220095587032472e-02
2.052541980276481604e-02
2.052863837436636613e-02
2.053185667044959278e-02
2.053507469078901665e-02
2.053829243515904041e-02
2.054150990333395571e-02
2.054472709508796055e-02
2.054794401019514882e-02
2.055116064842951035e-02
2.055437700956492739e-02
2.055759309337517118e-02
2.056080889963390890e-02
2.056402442811470013e-02
2.056723967859100388e-02
2.057045465083618199e-02
2.057366934462348182e-02
2.057688375972604317e-02
2.058009789591689481e-02
2.058331175296896146e-02
2.058652533065507759e-02
2.058973862874797708e-02
2.059295164702029321e-02
2.059616438524456208e-02
2.059937684319322268e-02
2.060258902063860295e-02
2.060580091735293023e-02
2.060901253310831044e-02
2.061222386767673845e-02
2.061543492083010853e-02
2.061864569234021435e-02
2.062185618197872466e-02
2.062506638951719026e-02
2.062827631472705439e-02
2.063148595737965968e-02
2.063469531724622386e-02
2.063790439409785363e-02
2.064111318770553774e-02
2.064432169784014351e-02
2.064752992427243070e-02
2.065073786677305151e-02
2.065394552511256449e-02
2.065715289906141713e-02
2.066035998838994595e-02
2.066356679286838333e-02
2.066677331226685760e-02
2.066997954635538606e-02
2.067318549490386806e-02
2.067639115768210231e-02
2.067959653445980081e-02
2.068280162500657493e-02
2.068600642909193196e-02
2.068921094648526471e-02
2.069241517695586188e-02
2.069561912027289771e-02
2.069882277620544581e-02
2.070202614452246875e-02
2.070522922499281812e-02
2.070843201738523792e-02
2.071163452146837156e-02
2.071483673701075834e-02
2.071803866378084391e-02
2.072124030154696636e-02
2.072444165007735276e-02
2.072764270914012955e-02
2.073084347850333992e-02
2.073404395793492644e-02
2.073724414720271372e-02
2.074044404607440842e-02
2.074364365431761656e-02
2.074684297169983663e-02
2.075004199798845261e-02
2.075324073295074442e-02
2.075643917635388441e-02
2.075963732796494085e-02
2.076283518755088139e-02
2.076603275487856962e-02
2.076923002971476848e-02
2.077242701182613338e-02
2.077562370097921565e-02
2.077882009694047641e-02
2.078201619947628309e-02
2.078521200835289212e-02
2.078840752333645930e-02
2.079160274419304330e-02
2.079479767068861257e-02
2.079799230258902454e-02
2.080118663966003950e-02
2.080438068166730672e-02
2.080757442837638180e-02
2.081076787955271970e-02
2.081396103496166439e-02
2.081715389436846267e-02
2.082034645753825727e-02
2.082353872423609031e-02
2.082673069422691023e-02
2.082992236727557872e-02
2.083311374314684994e-02
2.083630482160537395e-02
2.083949560241569673e-02
2.084268608534225672e-02
2.084587627014938827e-02
2.084906615660132509e-02
2.085225574446219685e-02
2.085544503349604645e-02
2.085863402346681272e-02
2.086182271413832695e-02
2.086501110527431979e-02
2.086819919663842129e-02
2.087138698799418518e-02
2.087457447910505068e-02
2.087776166973435640e-02
2.088094855964536464e-02
2.088413514860125095e-02
2.088732143636509025e-02
2.089050742269985342e-02
2.089369310736841068e-02
2.089687849013352125e-02
2.090006357075785762e-02
2.090324834900398818e-02
2.090643282463437724e-02
2.090961699741141627e-02
2.091280086709741345e-02
2.091598443345456249e-02
2.091916769624494257e-02
2.092235065523053578e-02
2.092553331017324089e-02
2.092871566083486998e-02
2.093189770697713101e-02
2.093507944836163134e-02
2.093826088474989508e-02
2.094144201590334917e-02
2.094462284158332341e-02
2.094780336155102271e-02
2.095098357556753749e-02
2.095416348339385754e-02
2.095734308479087898e-02
2.096052237951940081e-02
2.096370136734012138e-02
2.096688004801362804e-02
2.097005842130041098e-02
2.097323648696087714e-02
2.097641424475533631e-02
2.097959169444399072e-02
2.098276883578695934e-02
2.098594566854427440e-02
2.098912219247588834e-02
2.099229840734164604e-02
2.099547431290130911e-02
2.099864990891454203e-02
2.100182519514091559e-02
2.100500017133992078e-02
2.100817483727095147e-02
2.101134919269329396e-02
2.101452323736615474e-02
2.101769697104865706e-02
2.102087039349984088e-02
2.102404350447866638e-02
2.102721630374400352e-02
2.103038879105464595e-02
2.103356096616927975e-02
2.103673282884649387e-02
2.103990437884476969e-02
2.104307561592249839e-02
2.104624653983797750e-02
2.104941715034942470e-02
2.105258744721498140e-02
2.105575743019270918e-02
2.105892709904057594e-02
2.106209645351644552e-02
2.106526549337809154e-02
2.106843421838319741e-02
2.107160262828934247e-02
2.107477072285401237e-02
2.107793850183459911e-02
2.108110596498843567e-02
2.108427311207276833e-02
2.108743994284477744e-02
2.109060645706153578e-02
2.109377265448001554e-02
2.109693853485708828e-02
2.110010409794953190e-02
2.110326934351404796e-02
2.110643427130724087e-02
2.110959888108562485e-02
2.111276317260563432e-02
2.111592714562361695e-02
2.111909079989581980e-02
2.112225413517838588e-02
2.112541715122735753e-02
2.112857984779867651e-02
2.113174222464820826e-02
2.113490428153173145e-02
2.113806601820494152e-02
2.114122743442344715e-02
2.114438852994278070e-02
2.114754930451838780e-02
2.115070975790561691e-02
2.115386988985972980e-02
2.115702970013591186e-02
2.116018918848924790e-02
2.116334835467473946e-02
2.116650719844729092e-02
2.116966571956171994e-02
2.117282391777277131e-02
2.117598179283509269e-02
2.117913934450324498e-02
2.118229657253171971e-02
2.118545347667494250e-02
2.118861005668725220e-02
2.119176631232290095e-02
2.119492224333605762e-02
2.119807784948081822e-02
2.120123313051119202e-02
2.120438808618110849e-02
2.120754271624443119e-02
2.121069702045494040e-02
2.121385099856631928e-02
2.121700465033216770e-02
2.122015797550598840e-02
2.122331097384120083e-02
2.122646364509113079e-02
2.122961598900899652e-02
2.123276800534794687e-02
2.123591969386103354e-02
2.123907105430122497e-02
2.124222208642140980e-02
2.124537278997441075e-02
2.124852316471298116e-02
2.125167321038979457e-02
2.125482292675744470e-02
2.125797231356844202e-02
2.126112137057521723e-02
2.126427009753010730e-02
2.126741849418536945e-02
2.127056656029318454e-02
2.127371429560565366e-02
2.127686169987480849e-02
2.128000877285260092e-02
2.128315551429089264e-02
2.128630192394146553e-02
2.128944800155602168e-02
2.129259374688620074e-02
2.129573915968355213e-02
2.129888423969953162e-02
2.130202898668552558e-02
2.130517340039285792e-02
2.130831748057277972e-02
2.131146122697647610e-02
2.131460463935506630e-02
2.131774771745957933e-02
2.132089046104098176e-02
2.132403286985014995e-02
2.132717494363787006e-02
2.133031668215485191e-02
2.133345808515174288e-02
2.133659915237912791e-02
2.133973988358752946e-02
2.134288027852739369e-02
2.134602033694909043e-02
2.134916005860291316e-02
2.135229944323909293e-02
2.135543849060777058e-02
2.135857720045902450e-02
2.136171557254287409e-02
2.136485360660925550e-02
2.136799130240802855e-02
2.137112865968900099e-02
2.137426567820190776e-02
2.137740235769641090e-02
2.138053869792209960e-02
2.138367469862850409e-02
2.138681035956509213e-02
2.138994568048124476e-02
2.139308066112627013e-02
2.139621530124938623e-02
2.139934960059973815e-02
2.140248355892638774e-02
2.140561717597832744e-02
2.140875045150444911e-02
2.141188338525358212e-02
2.141501597697448300e-02
2.141814822641583543e-02
2.142128013332623634e-02
2.142441169745419940e-02
2.142754291854817930e-02
2.143067379635658562e-02
2.143380433062773080e-02
2.143693452110983014e-02
2.144006436755103995e-02
2.144319386969945757e-02
2.144632302730309706e-02
2.144945184010991698e-02
2.145258030786780651e-02
2.145570843032458194e-02
2.145883620722800061e-02
2.146196363832575393e-02
2.146509072336546739e-02
2.146821746209467974e-02
2.147134385426084299e-02
2.147446989961133978e-02
2.147759559789349723e-02
2.148072094885457306e-02
2.148384595224174520e-02
2.148697060780213955e-02
2.149009491528282301e-02
2.149321887443077922e-02
2.149634248499291203e-02
2.149946574671602814e-02
2.150258865934685445e-02
2.150571122263206583e-02
2.150883343631828162e-02
2.151195530015205179e-02
2.151507681387984303e-02
2.151819797724805264e-02
2.152131879000299813e-02
2.152443925189092069e-02
2.152755936265800946e-02
2.153067912205038417e-02
2.153379852981410908e-02
2.153691758569518250e-02
2.154003628943954030e-02
2.154315464079306630e-02
2.154627263950158883e-02
2.154939028531088416e-02
2.155250757796666264e-02
2.155562451721458259e-02
2.155874110280022599e-02
2.156185733446910890e-02
2.156497321196668149e-02
2.156808873503834184e-02
2.157120390342942215e-02
2.157431871688517827e-02
2.157743317515081402e-02
2.158054727797145342e-02
2.158366102509215803e-02
2.158677441625792698e-02
2.158988745121369693e-02
2.159300012970433863e-02
2.159611245147465691e-02
2.159922441626938028e-02
2.160233602383317131e-02
2.160544727391064054e-02
2.160855816624633954e-02
2.161166870058474701e-02
2.161477887667028960e-02
2.161788869424732806e-02
2.162099815306016068e-02
2.162410725285302329e-02
2.162721599337009276e-02
2.163032437435550084e-02
2.163343239555334113e-02
2.163654005670765518e-02
2.163964735756242555e-02
2.164275429786158972e-02
2.164586087734903311e-02
2.164896709576856482e-02
2.165207295286392455e-02
2.165517844837877570e-02
2.165828358205671572e-02
2.166138835364128309e-02
2.166449276287597120e-02
2.166759680950421096e-02
2.167070049326935699e-02
2.167380381391471877e-02
2.167690677118354683e-02
2.168000936481902924e-02
2.168311159456429507e-02
2.168621346016240056e-02
2.168931496135634296e-02
2.169241609788906053e-02
2.169551686950344296e-02
2.169861727594230710e-02
2.170171731694842468e-02
2.170481699226449457e-02
2.170791630163317401e-02
2.171101524479707168e-02
2.171411382149873379e-02
2.171721203148063717e-02
2.172030987448521355e-02
2.172340735025486344e-02
2.172650445853193182e-02
2.172960119905870818e-02
2.173269757157739526e-02
2.173579357583011948e-02
2.173888921155894827e-02
2.174198447850589355e-02
2.174507937641291175e-02
2.174817390502190376e-02
2.175126806407472538e-02
2.175436185331318731e-02
2.175745527247904473e-02
2.176054832131400774e-02
2.176364099955972742e-02
2.176673330695779937e-02
2.176982524324976367e-02
2.177291680817709102e-02
2.177600800148118271e-02
2.177909882290337065e-02
2.178218927218493126e-02
2.178527934906709929e-02
2.178836905329105053e-02
2.179145838459790180e-02
2.179454734272870398e-02
2.179763592742446979e-02
2.180072413842616685e-02
2.180381197547471769e-02
2.180689943831102054e-02
2.180998652667590770e-02
2.181307324031015599e-02
2.181615957895447280e-02
2.181924554234951005e-02
2.182233113023585025e-02
2.182541634235403427e-02
2.182850117844453708e-02
2.183158563824778159e-02
2.183466972150413521e-02
2.183775342795389596e-02
2.184083675733730634e-02
2.184391970939454294e-02
2.184700228386574419e-02
2.185008448049102076e-02
2.185316629901043126e-02
2.185624773916399616e-02
2.185932880069169429e-02
2.186240948333345244e-02
2.186548978682915922e-02
2.186856971091868940e-02
2.187164925534186566e-02
2.187472841983845867e-02
2.187780720414816971e-02
2.188088560801063412e-02
2.188396363116546645e-02
2.188704127335224306e-02
2.189011853431049870e-02
2.189319541377970219e-02
2.189627191149927377e-02
2.189934802720858512e-02
2.190242376064695587e-02
2.190549911155366403e-02
2.190857407966793208e-02
2.191164866472894435e-02
2.191472286647583659e-02
2.191779668464769598e-02
2.192087011898354726e-02
2.192394316922236311e-02
2.192701583510307806e-02
2.193008811636456071e-02
2.193316001274562763e-02
2.193623152398503293e-02
2.193930264982147868e-02
2.194237338999360451e-02
2.194544374424001534e-02
2.194851371229929182e-02
2.195158329390995214e-02
2.195465248881047632e-02
2.195772129673928194e-02
2.196078971743474148e-02
2.196385775063517537e-02
2.196692539607887976e-02
2.196999265350411609e-02
2.197305952264909379e-02
2.197612600325197021e-02
2.197919209505085764e-02
2.198225779778382322e-02
2.198532311118889943e-02
2.198838803500408404e-02
2.199145256896730891e-02
2.199451671281645385e-02
2.199758046628935357e-02
2.200064382912378380e-02
2.200370680105748211e-02
2.200676938182814790e-02
2.200983157117343547e-02
2.201289336883098177e-02
2.201595477453838906e-02
2.201901578803318327e-02
2.202207640905285563e-02
2.202513663733483840e-02
2.202819647261651873e-02
2.203125591463523519e-02
2.203431496312827781e-02
2.203737361783287413e-02
2.204043187848621702e-02
2.204348974482543688e-02
2.204654721658759128e-02
2.204960429350969267e-02
2.205266097532867717e-02
2.205571726178143580e-02
2.205877315260480059e-02
2.206182864753556891e-02
2.206488374631050686e-02
2.206793844866632159e-02
2.207099275433968555e-02
2.207404666306722607e-02
2.207710017458553928e-02
2.208015328863118659e-02
2.208320600494067046e-02
2.208625832325044822e-02
2.208931024329694251e-02
2.209236176481651701e-02
2.209541288754549374e-02
2.209846361122013575e-02
2.210151393557668528e-02
2.210456386035133947e-02
2.210761338528025380e-02
2.211066251009953867e-02
2.211371123454528367e-02
2.211675955835351939e-02
2.211980748126023480e-02
2.212285500300137375e-02
2.212590212331286277e-02
2.212894884193057285e-02
2.213199515859031602e-02
2.213504107302785573e-02
2.213808658497891033e-02
2.214113169417917040e-02
2.214417640036429533e-02
2.214722070326988548e-02
2.215026460263148575e-02
2.215330809818459937e-02
2.215635118966467060e-02
2.215939387680712636e-02
2.216243615934735192e-02
2.216547803702068747e-02
2.216851950956241421e-02
2.217156057670778557e-02
2.217460123819199949e-02
2.217764149375020880e-02
2.218068134311752121e-02
2.218372078602897854e-02
2.218675982221956708e-02
2.218979845142423843e-02
2.219283667337791296e-02
2.219587448781545902e-02
2.219891189447169288e-02
2.220194889308139963e-02
2.220498548337933309e-02
2.220802166510020548e-02
2.221105743797870125e-02
2.221409280174944934e-02
2.221712775614703358e-02
2.222016230090600661e-02
2.222319643576086898e-02
2.222623016044606922e-02
2.222926347469603853e-02
2.223229637824519073e-02
2.223532887082790149e-02
2.223836095217850833e-02
2.224139262203129325e-02
2.224442388012050700e-02
2.224745472618034139e-02
2.225048515994495005e-02
2.225351518114843455e-02
2.225654478952484097e-02
2.225957398480817376e-02
2.226260276673242347e-02
2.226563113503156680e-02
2.226865908943955266e-02
2.227168662969028837e-02
2.227471375551765692e-02
2.227774046665550317e-02
2.228076676283764074e-02
2.228379264379784161e-02
2.228681810926985349e-02
2.228984315898738244e-02
2.229286779268408250e-02
2.229589201009356952e-02
2.229891581094943162e-02
2.230193919498520139e-02
2.230496216193438366e-02
2.230798471153043125e-02
2.231100684350674490e-02
2.231402855759669762e-02
2.231704985353362425e-02
2.232007073105082146e-02
2.232309118988154428e-02
2.232611122975902002e-02
2.232913085041642390e-02
2.233215005158687913e-02
2.233516883300349504e-02
2.233818719439934278e-02
2.234120513550746923e-02
2.234422265606089350e-02
2.234723975579258268e-02
2.235025643443545526e-02
2.235327269172239159e-02
2.235628852738624425e-02
2.235930394115983808e-02
2.236231893277595972e-02
2.236533350196733341e-02
2.236834764846663132e-02
2.237136137200649785e-02
2.237437467231953928e-02
2.237738754913832367e-02
2.238040000219539138e-02
2.238341203122326192e-02
2.238642363595443399e-02
2.238943481612136466e-02
2.239244557145647282e-02
2.239545590169214270e-02
2.239846580656072034e-02
2.240147528579452402e-02
2.240448433912585122e-02
2.240749296628695084e-02
2.241050116701005790e-02
2.241350894102736926e-02
2.241651628807104710e-02
2.241952320787320499e-02
2.242252970016593225e-02
2.242553576468129042e-02
2.242854140115131678e-02
2.243154660930802777e-02
2.243455138888341902e-02
2.243755573960943758e-02
2.244055966121799237e-02
2.244356315344096797e-02
2.244656621601021432e-02
2.244956884865754315e-02
2.245257105111474194e-02
2.245557282311357733e-02
2.245857416438579515e-02
2.246157507466313430e-02
2.246457555367730938e-02
2.246757560115999683e-02
2.247057521684285228e-02
2.247357440045751054e-02
2.247657315173554396e-02
2.247957147040848674e-02
2.248256935620783492e-02
2.248556680886504983e-02
2.248856382811158586e-02
2.249156041367888006e-02
2.249455656529833480e-02
2.249755228270131427e-02
2.250054756561914795e-02
2.250354241378314107e-02
2.250653682692457802e-02
2.250953080477471197e-02
2.251252434706476138e-02
2.251551745352591005e-02
2.251851012388931747e-02
2.252150235788609456e-02
2.252449415524730714e-02
2.252748551570398286e-02
2.253047643898712857e-02
2.253346692482771987e-02
2.253645697295668382e-02
2.253944658310491275e-02
2.254243575500326432e-02
2.254542448838256496e-02
2.254841278297359600e-02
2.255140063850710058e-02
2.255438805471379760e-02
2.255737503132438856e-02
2.256036156806955767e-02
2.256334766467994052e-02
2.256633332088616925e-02
2.256931853641883090e-02
2.257230331100847434e-02
2.257528764438561375e-02
2.257827153628072167e-02
2.258125498642424983e-02
2.258423799454661179e-02
2.258722056037818990e-02
2.259020268364933873e-02
2.259318436409036776e-02
2.259616560143156219e-02
2.259914639540318640e-02
2.260212674573549088e-02
2.260510665215872267e-02
2.260808611440309410e-02
2.261106513219879668e-02
2.261404370527599073e-02
2.261702183336480529e-02
2.261999951619533475e-02
2.262297675349765613e-02
2.262595354500183259e-02
2.262892989043790992e-02
2.263190578953588536e-02
2.263488124202572491e-02
2.263785624763737722e-02
2.264083080610077361e-02
2.264380491714580029e-02
2.264677858050229489e-02
2.264975179590008117e-02
2.265272456306894125e-02
2.265569688173863644e-02
2.265866875163888294e-02
2.266164017249936574e-02
2.266461114404973512e-02
2.266758166601959626e-02
2.267055173813854047e-02
2.267352136013611741e-02
2.267649053174186288e-02
2.267945925268526758e-02
2.268242752269578749e-02
2.268539534150284739e-02
2.268836270883585818e-02
2.269132962442419951e-02
2.269429608799723372e-02
2.269726209928430924e-02
2.270022765801477105e-02
2.270319276391793636e-02
2.270615741672309465e-02
2.270912161615950067e-02
2.271208536195636757e-02
2.271504865384289459e-02
2.271801149154824978e-02
2.272097387480157341e-02
2.272393580333197452e-02
2.272689727686854830e-02
2.272985829514037950e-02
2.273281885787653556e-02
2.273577896480606306e-02
2.273873861565799126e-02
2.274169781016131126e-02
2.274465654804498985e-02
2.274761482903797649e-02
2.275057265286921718e-02
2.275353001926763361e-02
2.275648692796210584e-02
2.275944337868151049e-02
2.276239937115469639e-02
2.276535490511049850e-02
2.276830998027772404e-02
2.277126459638516634e-02
2.277421875316160485e-02
2.277717245033578780e-02
2.278012568763643567e-02
2.278307846479224463e-02
2.278603078153191089e-02
2.278898263758413409e-02
2.279193403267760001e-02
2.279488496654099097e-02
2.279783543890297887e-02
2.280078544949223560e-02
2.280373499803740184e-02
2.280668408426708010e-02
2.280963270790986250e-02
2.281258086869432725e-02
2.281552856634905257e-02
2.281847580060257508e-02
2.282142257118340706e-02
2.282436887782002266e-02
2.282731472024088215e-02
2.283026009817441804e-02
2.283320501134903507e-02
2.283614945949312761e-02
2.283909344233507957e-02
2.284203695960326103e-02
2.284498001102603162e-02
2.284792259633172673e-02
2.285086471524866783e-02
2.285380636750515213e-02
2.285674755282946641e-02
2.285968827094985584e-02
2.286262852159453782e-02
2.286556830449171934e-02
2.286850761936956924e-02
2.287144646595624248e-02
2.287438484397988706e-02
2.287732275316865793e-02
2.288026019325069618e-02
2.288319716395411513e-02
2.288613366500700033e-02
2.288906969613741654e-02
2.289200525707340769e-02
2.289494034754298996e-02
2.289787496727416910e-02
2.290080911599492661e-02
2.290374279343324743e-02
2.290667599931709569e-02
2.290960873337441125e-02
2.291254099533310620e-02
2.291547278492106834e-02
2.291840410186616467e-02
2.292133494589624135e-02
2.292426531673913415e-02
2.292719521412265107e-02
2.293012463777459320e-02
2.293305358742274078e-02
2.293598206279486018e-02
2.293891006361869697e-02
2.294183758962198977e-02
2.294476464053246331e-02
2.294769121607782153e-02
2.295061731598573365e-02
2.295354293998385850e-02
2.295646808779984796e-02
2.295939275916132963e-02
2.296231695379590682e-02
2.296524067143116202e-02
2.296816391179467079e-02
2.297108667461398787e-02
2.297400895961666106e-02
2.297693076653021388e-02
2.297985209508214555e-02
2.298277294499992060e-02
2.298569331601098276e-02
2.298861320784275492e-02
2.299153262022265304e-02
2.299445155287807227e-02
2.299737000553639735e-02
2.300028797792501647e-02
2.300320546977130051e-02
2.300612248080260297e-02
2.300903901074629471e-02
2.301195505932972230e-02
2.301487062628022884e-02
2.301778571132512621e-02
2.302070031419171936e-02
2.302361443460730628e-02
2.302652807229916068e-02
2.302944122699453547e-02
2.303235389842066619e-02
2.303526608630478145e-02
2.303817779037407518e-02
2.304108901035572046e-02
2.304399974597687306e-02
2.304690999696469567e-02
2.304981976304634056e-02
2.305272904394895656e-02
2.305563783939969247e-02
2.305854614912566242e-02
2.306145397285397011e-02
2.306436131031170192e-02
2.306726816122592685e-02
2.307017452532367924e-02
2.307308040233197605e-02
2.307598579197783079e-02
2.307889069398823614e-02
2.308179510809015358e-02
2.308469903401052375e-02
2.308760247147626649e-02
2.309050542021428773e-02
2.309340787995147262e-02
2.309630985041468548e-02
2.309921133133077675e-02
2.310211232242657953e-02
2.310501282342891996e-02
2.310791283406462074e-02
2.311081235406049067e-02
2.311371138314331775e-02
2.311660992103986914e-02
2.311950796747691203e-02
2.312240552218119624e-02
2.312530258487945078e-02
2.312819915529840120e-02
2.313109523316475916e-02
2.313399081820521896e-02
2.313688591014645760e-02
2.313978050871512079e-02
2.314267461363786471e-02
2.314556822464133162e-02
2.314846134145213258e-02
2.315135396379688904e-02
2.315424609140223286e-02
2.315713772399479245e-02
2.316002886130116845e-02
2.316291950304797190e-02
2.316580964896179651e-02
2.316869929876923598e-02
2.317158845219687013e-02
2.317447710897128921e-02
2.317736526881906262e-02
2.318025293146675977e-02
2.318314009664095357e-02
2.318602676406822730e-02
2.318891293347517465e-02
2.319179860458840323e-02
2.319468377713450671e-02
2.319756845084007535e-02
2.320045262543169590e-02
2.320333630063594471e-02
2.320621947617938427e-02
2.320910215178857358e-02
2.321198432719004390e-02
2.321486600211033688e-02
2.321774717627598031e-02
2.322062784941349156e-02
2.322350802124937066e-02
2.322638769151011764e-02
2.322926685992223600e-02
2.323214552621222576e-02
2.323502369010659735e-02
2.323790135133183693e-02
2.324077850961444799e-02
2.324365516468091669e-02
2.324653131625770142e-02
2.324940696407125015e-02
2.325228210784799701e-02
2.325515674731437610e-02
2.325803088219680764e-02
2.326090451222170147e-02
2.326377763711545352e-02
2.326665025660445626e-02
2.326952237041507790e-02
2.327239397827367620e-02
2.327526507990658119e-02
2.327813567504010903e-02
2.328100576340056543e-02
2.328387534471424575e-02
2.328674441870743142e-02
2.328961298510639349e-02
2.329248104363740302e-02
2.329534859402672756e-02
2.329821563600064163e-02
2.330108216928542669e-02
2.330394819360739195e-02
2.330681370869284660e-02
2.330967871426809987e-02
2.331254321005945054e-02
2.331540719579320090e-02
2.331827067119562891e-02
2.332113363599301950e-02
2.332399608991167148e-02
2.332685803267788363e-02
2.332971946401794783e-02
2.333258038365814552e-02
2.333544079132474428e-02
2.333830068674401167e-02
2.334116006964220835e-02
2.334401893974558800e-02
2.334687729678039045e-02
2.334973514047284857e-02
2.335259247054918830e-02
2.335544928673563558e-02
2.335830558875840596e-02
2.336116137634373230e-02
2.336401664921783708e-02
2.336687140710692195e-02
2.336972564973719205e-02
2.337257937683482820e-02
2.337543258812600430e-02
2.337828528333689773e-02
2.338113746219370320e-02
2.338398912442260849e-02
2.338684026974980484e-02
2.338969089790148698e-02
2.339254100860384267e-02
2.339539060158306663e-02
2.339823967656534665e-02
2.340108823327686008e-02
2.340393627144378777e-02
2.340678379079232097e-02
2.340963079104864397e-02
2.341247727193892722e-02
2.341532323318934808e-02
2.341816867452608045e-02
2.342101359567530169e-02
2.342385799636317878e-02
2.342670187631587519e-02
2.342954523525954749e-02
2.343238807292034181e-02
2.343523038902440084e-02
2.343807218329787417e-02
2.344091345546690103e-02
2.344375420525761367e-02
2.344659443239615129e-02
2.344943413660867393e-02
2.345227331762136241e-02
2.345511197516040452e-02
2.345795010895199498e-02
2.346078771872232502e-02
2.346362480419758242e-02
2.346646136510393416e-02
2.346929740116755411e-02
2.347213291211463701e-02
2.347496789767135675e-02
2.347780235756389416e-02
2.348063629151841275e-02
2.348346969926108641e-02
2.348630258051809597e-02
2.348913493501561534e-02
2.349196676247982535e-02
2.349479806263690337e-02
2.349762883521302331e-02
2.350045907993433825e-02
2.350328879652701167e-02
2.350611798471720360e-02
2.350894664423109487e-02
2.351177477479487674e-02
2.351460237613472309e-02
2.351742944797681478e-02
2.352025599004735693e-02
2.352308200207256506e-02
2.352590748377866164e-02
2.352873243489187957e-02
2.353155685513846213e-02
2.353438074424467341e-02
2.353720410193678794e-02
2.354002692794108023e-02
2.354284922198383520e-02
2.354567098379134471e-02
2.354849221308991103e-02
2.355131290960584683e-02
2.355413307306545787e-02
2.355695270319504639e-02
2.355977179972092855e-02
2.356259036236942050e-02
2.356540839086684880e-02
2.356822588493953305e-02
2.357104284431380328e-02
2.357385926871601381e-02
2.357667515787251200e-02
2.357949051150964523e-02
2.358230532935377474e-02
2.358511961113125485e-02
2.358793335656843640e-02
2.359074656539168410e-02
2.359355923732739044e-02
2.359637137210194094e-02
2.359918296944172808e-02
2.360199402907315822e-02
2.360480455072265157e-02
2.360761453411662839e-02
2.361042397898152970e-02
2.361323288504380349e-02
2.361604125202989776e-02
2.361884907966626049e-02
2.362165636767933966e-02
2.362446311579560754e-02
2.362726932374152947e-02
2.363007499124356731e-02
2.363288011802819680e-02
2.363568470382189368e-02
2.363848874835113370e-02
2.364129225134239953e-02
2.364409521252216692e-02
2.364689763161694283e-02
2.364969950835323423e-02
2.365250084245755502e-02
2.365530163365642952e-02
2.365810188167640979e-02
2.366090158624406178e-02
2.366370074708594798e-02
2.366649936392866901e-02
2.366929743649882553e-02
2.367209496452302858e-02
2.367489194772788574e-02
2.367768838584001848e-02
2.368048427858604824e-02
2.368327962569262077e-02
2.368607442688638876e-02
2.368886868189400488e-02
2.369166239044211142e-02
2.369445555225736105e-02
2.369724816706641340e-02
2.370004023459592463e-02
2.370283175457255087e-02
2.370562272672296217e-02
2.370841315077384243e-02
2.371120302645187208e-02
2.371399235348374199e-02
2.371678113159615339e-02
2.371956936051584572e-02
2.372235703996957226e-02
2.372514416968411061e-02
2.372793074938624874e-02
2.373071677880278854e-02
2.373350225766053187e-02
2.373628718568629101e-02
2.373907156260690252e-02
2.374185538814918908e-02
2.374463866203999768e-02
2.374742138400618569e-02
2.375020355377462436e-02
2.375298517107220925e-02
2.375576623562586018e-02
2.375854674716251086e-02
2.376132670540910541e-02
2.376410611009261223e-02
2.376688496094001360e-02
2.376966325767828833e-02
2.377244100003442218e-02
2.377521818773540088e-02
2.377799482050822755e-02
2.378077089807993996e-02
2.378354642017759674e-02
2.378632138652827036e-02
2.378909579685905759e-02
2.379186965089705175e-02
2.379464294836934612e-02
2.379741568900306178e-02
2.380018787252533019e-02
2.380295949866328975e-02
2.380573056714407540e-02
2.380850107769482207e-02
2.381127103004268900e-02
2.381404042391484580e-02
2.381680925903847598e-02
2.381957753514078388e-02
2.382234525194899463e-02
2.382511240919034726e-02
2.382787900659210506e-02
2.383064504388154176e-02
2.383341052078594494e-02
2.383617543703258485e-02
2.383893979234875254e-02
2.384170358646174950e-02
2.384446681909888760e-02
2.384722948998750300e-02
2.384999159885492839e-02
2.385275314542851730e-02
2.385551412943563362e-02
2.385827455060366906e-02
2.386103440865999792e-02
2.386379370333201536e-02
2.386655243434711304e-02
2.386931060143269306e-02
2.387206820431616444e-02
2.387482524272494661e-02
2.387758171638646940e-02
2.388033762502816959e-02
2.388309296837748050e-02
2.388584774616184583e-02
2.388860195810871626e-02
2.389135560394555283e-02
2.389410868339981314e-02
2.389686119619897561e-02
2.389961314207051518e-02
2.390236452074192761e-02
2.390511533194071558e-02
2.390786557539437834e-02
2.391061525083040817e-02
2.391336435797630777e-02
2.391611289655959025e-02
2.391886086630777564e-02
2.392160826694841869e-02
2.392435509820909495e-02
2.392710135981740080e-02
2.392984705150092567e-02
2.393259217298726593e-02
2.393533672400404225e-02
2.393808070427888568e-02
2.394082411353943077e-02
2.394356695151331899e-02
2.394630921792818834e-02
2.394905091251169418e-02
2.395179203499149881e-02
2.395453258509526104e-02
2.395727256255064663e-02
2.396001196708532829e-02
2.396275079842698219e-02
2.396548905630330184e-02
2.396822674044197382e-02
2.397096385057067777e-02
2.397370038641710374e-02
2.397643634770893484e-02
2.397917173417386805e-02
2.398190654553959342e-02
2.398464078153379753e-02
2.398737444188419818e-02
2.399010752631851665e-02
2.399284003456449502e-02
2.399557196634986497e-02
2.399830332140234779e-02
2.400103409944967167e-02
2.400376430021958218e-02
2.400649392343985611e-02
2.400922296883826329e-02
2.401195143614257704e-02
2.401467932508057415e-02
2.401740663538002446e-02
2.402013336676870128e-02
2.402285951897436753e-02
2.402558509172478957e-02
2.402831008474773378e-02
2.403103449777097347e-02
2.403375833052230279e-02
2.403648158272954360e-02
2.403920425412052128e-02
2.404192634442307852e-02
2.404464785336507190e-02
2.404736878067435801e-02
2.405008912607879690e-02
2.405280888930624167e-02
2.405552807008456279e-02
2.405824666814163071e-02
2.406096468320530202e-02
2.406368211500341942e-02
2.406639896326382561e-02
2.406911522771436676e-02
2.407183090808289253e-02
2.407454600409725254e-02
2.407726051548528604e-02
2.407997444197484613e-02
2.408268778329381021e-02
2.408540053917004528e-02
2.408811270933143220e-02
2.409082429350586224e-02
2.409353529142123015e-02
2.409624570280543415e-02
2.409895552738636898e-02
2.410166476489192591e-02
2.410437341504998582e-02
2.410708147758845732e-02
2.410978895223524210e-02
2.411249583871824184e-02
2.411520213676537558e-02
2.411790784610455887e-02
2.412061296646371769e-02
2.412331749757077801e-02
2.412602143915366232e-02
2.412872479094030354e-02
2.413142755265864844e-02
2.413412972403664036e-02
2.413683130480221914e-02
2.413953229468333850e-02
2.414223269340796257e-02
2.414493250070406244e-02
2.414763171629961958e-02
2.415033033992262934e-02
2.415302837130108363e-02
2.415572581016296738e-02
2.415842265623627250e-02
2.416111890924898739e-02
2.416381456892911436e-02
2.416650963500466265e-02
2.416920410720366230e-02
2.417189798525415378e-02
2.417459126888418450e-02
2.417728395782182613e-02
2.417997605179517465e-02
2.418266755053233297e-02
2.418535845376142135e-02
2.418804876121056699e-02
2.419073847260790749e-02
2.419342758768157006e-02
2.419611610615968883e-02
2.419880402777040834e-02
2.420149135224186621e-02
2.420417807930219309e-02
2.420686420867949537e-02
2.420954974010186903e-02
2.421223467329740309e-02
2.421491900799417965e-02
2.421760274392027387e-02
2.422028588080373662e-02
2.422296841837260836e-02
2.422565035635492262e-02
2.422833169447870250e-02
2.423101243247194683e-02
2.423369257006263364e-02
2.423637210697873051e-02
2.423905104294817731e-02
2.424172937769889999e-02
2.424440711095881412e-02
2.424708424245582833e-02
2.424976077191785470e-02
2.425243669907279145e-02
2.425511202364852639e-02
2.425778674537293692e-02
2.426046086397390042e-02
2.426313437917929430e-02
2.426580729071700984e-02
2.426847959831492790e-02
2.427115130170092935e-02
2.427382240060289159e-02
2.427649289474868161e-02
2.427916278386616986e-02
2.428183206768320945e-02
2.428450074592765004e-02
2.428716881832731697e-02
2.428983628461002173e-02
2.429250314450358619e-02
2.429516939773583226e-02
2.429783504403457833e-02
2.430050008312763937e-02
2.430316451474283032e-02
2.430582833860793837e-02
2.430849155445071949e-02
2.431115416199892271e-02
2.431381616098026582e-02
2.431647755112246664e-02
2.431913833215321175e-02
2.432179850380018077e-02
2.432445806579102213e-02
2.432711701785335301e-02
2.432977535971475591e-02
2.433243309110280986e-02
2.433509021174510428e-02
2.433774672136920780e-02
2.434040261970267169e-02
2.434305790647302986e-02
2.434571258140780584e-02
2.434836664423451272e-02
2.435102009468064627e-02
2.435367293247367101e-02
2.435632515734102721e-02
2.435897676901014469e-02
2.436162776720844636e-02
2.436427815166334818e-02
2.436692792210224529e-02
2.436957707825252242e-02
2.437222561984154004e-02
2.437487354659663777e-02
2.437752085824514484e-02
2.438016755451435230e-02
2.438281363513151306e-02
2.438545909982383839e-02
2.438810394831850484e-02
2.439074818034265429e-02
2.439339179562342863e-02
2.439603479388794197e-02
2.439867717486329454e-02
2.440131893827656231e-02
2.440396008385481083e-02
2.440660061132507788e-02
2.440924052041436310e-02
2.441187981084964181e-02
2.441451848235788591e-02
2.441715653466603603e-02
2.441979396750099118e-02
2.442243078058960876e-02
2.442506697365871837e-02
2.442770254643513578e-02
2.443033749864566284e-02
2.443297183001705980e-02
2.443560554027605566e-02
2.443823862914935863e-02
2.444087109636364566e-02
2.444350294164556597e-02
2.444613416472174103e-02
2.444876476531877493e-02
2.445139474316325098e-02
2.445402409798171778e-02
2.445665282950072045e-02
2.445928093744677637e-02
2.446190842154638209e-02
2.446453528152599602e-02
2.446716151711204532e-02
2.446978712803092593e-02
2.447241211400902686e-02
2.447503647477270242e-02
2.447766021004829998e-02
2.448028331956214609e-02
2.448290580304055691e-02
2.448552766020983817e-02
2.448814889079624704e-02
2.449076949452601987e-02
2.449338947112535830e-02
2.449600882032042584e-02
2.449862754183736169e-02
2.450124563540225647e-02
2.450386310074114879e-02
2.450647993758003559e-02
2.450909614564487568e-02
2.451171172466159315e-02
2.451432667435608434e-02
2.451694099445421438e-02
2.451955468468181021e-02
2.452216774476466063e-02
2.452478017442852667e-02
2.452739197339913121e-02
2.453000314140215896e-02
2.453261367816324950e-02
2.453522358340799736e-02
2.453783285686195539e-02
2.454044149825064872e-02
2.454304950729957469e-02
2.454565688373419943e-02
2.454826362727995787e-02
2.455086973766225714e-02
2.455347521460647317e-02
2.455608005783795067e-02
2.455868426708198923e-02
2.456128784206383989e-02
2.456389078250869468e-02
2.456649308814170055e-02
2.456909475868797321e-02
2.457169579387258329e-02
2.457429619342058058e-02
2.457689595705698019e-02
2.457949508450676251e-02
2.458209357549484553e-02
2.458469142974609861e-02
2.458728864698535993e-02
2.458988522693741907e-02
2.459248116932702399e-02
2.459507647387885673e-02
2.459767114031755075e-02
2.460026516836769095e-02
2.460285855775378588e-02
2.460545130820029208e-02
2.460804341943162790e-02
2.461063489117215966e-02
2.461322572314619817e-02
2.461581591507801606e-02
2.461840546669185129e-02
2.462099437771188976e-02
2.462358264786226186e-02
2.462617027686704249e-02
2.462875726445025101e-02
2.463134361033585476e-02
2.463392931424777943e-02
2.463651437590990562e-02
2.463909879504606187e-02
2.464168257138003859e-02
2.464426570463559493e-02
2.464684819453644496e-02
2.464943004080626457e-02
2.465201124316867415e-02
2.465459180134725939e-02
2.465717171506554700e-02
2.465975098404699431e-02
2.466232960801501700e-02
2.466490758669298913e-02
2.466748491980421190e-02
2.467006160707195181e-02
2.467263764821943026e-02
2.467521304296982354e-02
2.467778779104624551e-02
2.468036189217175103e-02
2.468293534606933598e-02
2.468550815246194768e-02
2.468808031107248835e-02
2.469065182162380120e-02
2.469322268383866703e-02
2.469579289743981804e-02
2.469836246214993786e-02
2.470093137769165115e-02
2.470349964378750623e-02
2.470606726016001328e-02
2.470863422653162000e-02
2.471120054262472554e-02
2.471376620816165270e-02
2.471633122286465839e-02
2.471889558645593704e-02
2.472145929865762065e-02
2.472402235919177182e-02
2.472658476778037684e-02
2.472914652414536299e-02
2.473170762800860553e-02
2.473426807909191033e-02
2.473682787711701733e-02
2.473938702180560056e-02
2.474194551287927854e-02
2.474450335005959345e-02
2.474706053306801115e-02
2.474961706162592812e-02
2.475217293545468877e-02
2.475472815427556816e-02
2.475728271780977194e-02
2.475983662577841554e-02
2.476238987790255891e-02
2.476494247390318912e-02
2.476749441350124120e-02
2.477004569641759815e-02
2.477259632237307357e-02
2.477514629108842556e-02
2.477769560228437057e-02
2.478024425568156955e-02
2.478279225100062794e-02
2.478533958796208178e-02
2.478788626628641162e-02
2.479043228569402860e-02
2.479297764590528835e-02
2.479552234664049101e-02
2.479806638761986384e-02
2.480060976856357513e-02
2.480315248919173765e-02
2.480569454922439479e-02
2.480823594838153096e-02
2.481077668638306810e-02
2.481331676294887267e-02
2.481585617779874520e-02
2.481839493065242375e-02
2.482093302122958395e-02
2.482347044924984591e-02
2.482600721443277078e-02
2.482854331649784682e-02
2.483107875516450680e-02
2.483361353015209674e-02
2.483614764117988635e-02
2.483868108796707247e-02
2.484121387023276520e-02
2.484374598769599832e-02
2.484627744007574662e-02
2.484880822709091205e-02
2.485133834846030634e-02
2.485386780390266837e-02
2.485639659313667801e-02
2.485892471588096661e-02
2.486145217185411690e-02
2.486397896077464920e-02
2.486650508236100746e-02
2.486903053633157668e-02
2.487155532240466899e-02
2.487407944029853060e-02
2.487660288973133141e-02
2.487912567042115455e-02
2.488164778208600686e-02
2.488416922444381882e-02
2.488668999721244460e-02
2.488921010010964815e-02
2.489172953285310325e-02
2.489424829516042117e-02
2.489676638674913692e-02
2.489928380733672300e-02
2.490180055664057562e-02
2.490431663437800078e-02
2.490683204026622466e-02
2.490934677402240754e-02
2.491186083536364726e-02
2.491437422400695142e-02
2.491688693966925133e-02
2.491939898206739848e-02
2.492191035091816456e-02
2.492442104593825883e-02
2.492693106684433849e-02
2.492944041335299482e-02
2.493194908518074279e-02
2.493445708204402103e-02
2.493696440365917796e-02
2.493947104974249609e-02
2.494197702001017466e-02
2.494448231417834699e-02
2.494698693196307007e-02
2.494949087308031069e-02
2.495199413724595930e-02
2.495449672417582657e-02
2.495699863358563989e-02
2.495949986519105726e-02
2.496200041870768466e-02
2.496450029385105171e-02
2.496699949033662561e-02
2.496949800787979373e-02
2.497199584619587409e-02
2.497449300500010488e-02
2.497698948400766186e-02
2.497948528293365486e-02
2.498198040149312432e-02
2.498447483940104477e-02
2.498696859637232481e-02
2.498946167212180713e-02
2.499195406636425809e-02
2.499444577881437465e-02
2.499693680918679828e-02
2.499942715719609410e-02
2.500191682255673009e-02
2.500440580498310486e-02
2.500689410418955455e-02
2.500938171989034939e-02
2.501186865179967633e-02
2.501435489963164255e-02
2.501684046310026152e-02
2.501932534191947735e-02
2.502180953580316822e-02
2.502429304446511862e-02
2.502677586761901940e-02
2.502925800497849546e-02
2.503173945625711619e-02
2.503422022116838508e-02
2.503670029942572581e-02
2.503917969074247879e-02
2.504165839483190117e-02
2.504413641140718072e-02
2.504661374018142539e-02
2.504909038086768069e-02
2.505156633317892623e-02
2.505404159682808607e-02
2.505651617152800104e-02
2.505899005699144255e-02
2.506146325293111612e-02
2.506393575905965093e-02
2.506640757508959289e-02
2.506887870073341504e-02
2.507134913570351065e-02
2.507381887971219664e-02
2.507628793247172402e-02
2.507875629369425707e-02
2.508122396309187679e-02
2.508369094037660174e-02
2.508615722526039843e-02
2.508862281745515010e-02
2.509108771667265675e-02
2.509355192262463854e-02
2.509601543502274976e-02
2.509847825357857526e-02
2.510094037800363401e-02
2.510340180800936516e-02
2.510586254330713848e-02
2.510832258360826824e-02
2.511078192862398889e-02
2.511324057806547244e-02
2.511569853164380764e-02
2.511815578907001037e-02
2.512061235005502019e-02
2.512306821430971421e-02
2.512552338154488279e-02
2.512797785147124693e-02
2.513043162379945128e-02
2.513288469824004681e-02
2.513533707450351512e-02
2.513778875230027188e-02
2.514023973134065296e-02
2.514269001133491097e-02
2.514513959199321871e-02
2.514758847302565534e-02
2.515003665414219242e-02
2.515248413505272174e-02
2.515493091546706569e-02
2.515737699509498076e-02
2.515982237364615751e-02
2.516226705083022055e-02
2.516471102635670434e-02
2.516715429993507738e-02
2.516959687127475268e-02
2.517203874008508771e-02
2.517447990607537406e-02
2.517692036895482696e-02
2.517936012843259574e-02
2.518179918421776034e-02
2.518423753601933476e-02
2.518667518354625670e-02
2.518911212650738404e-02
2.519154836461149488e-02
2.519398389756729098e-02
2.519641872508340819e-02
2.519885284686841295e-02
2.520128626263079194e-02
2.520371897207894160e-02
2.520615097492116471e-02
2.520858227086567038e-02
2.521101285962059138e-02
2.521344274089398416e-02
2.521587191439382536e-02
2.521830037982802225e-02
2.522072813690441964e-02
2.522315518533078949e-02
2.522558152481485169e-02
2.522800715506424638e-02
2.523043207578653732e-02
2.523285628668923627e-02
2.523527978747977518e-02
2.523770257786553742e-02
2.524012465755383003e-02
2.524254602625189761e-02
2.524496668366691884e-02
2.524738662950599261e-02
2.524980586347613104e-02
2.525222438528427343e-02
2.525464219463727927e-02
2.525705929124192825e-02
2.525947567480492373e-02
2.526189134503290662e-02
2.526430630163242763e-02
2.526672054430997502e-02
2.526913407277196419e-02
2.527154688672473767e-02
2.527395898587457210e-02
2.527637036992767816e-02
2.527878103859019371e-02
2.528119099156816985e-02
2.528360022856760911e-02
2.528600874929445158e-02
2.528841655345457490e-02
2.529082364075378384e-02
2.529323001089779643e-02
2.529563566359225441e-02
2.529804059854274048e-02
2.530044481545476454e-02
2.530284831403376011e-02
2.530525109398508443e-02
2.530765315501404961e-02
2.531005449682589836e-02
2.531245511912581445e-02
2.531485502161890527e-02
2.531725420401020193e-02
2.531965266600466266e-02
2.532205040730717630e-02
2.532444742762256229e-02
2.532684372665558112e-02
2.532923930411093080e-02
2.533163415969326426e-02
2.533402829310716503e-02
2.533642170405714378e-02
2.533881439224765220e-02
2.534120635738308647e-02
2.534359759916778726e-02
2.534598811730601198e-02
2.534837791150194516e-02
2.535076698145969851e-02
2.535315532688330042e-02
2.535554294747672383e-02
2.535792984294387223e-02
2.536031601298857630e-02
2.536270145731460771e-02
2.536508617562568610e-02
2.536747016762547907e-02
2.536985343301758483e-02
2.537223597150553220e-02
2.537461778279278060e-02
2.537699886658273396e-02
2.537937922257875456e-02
2.538175885048415265e-02
2.538413775000218642e-02
2.538651592083605857e-02
2.538889336268890240e-02
2.539127007526378182e-02
2.539364605826370871e-02
2.539602131139163249e-02
2.539839583435043666e-02
2.540076962684293532e-02
2.540314268857187668e-02
2.540551501923995689e-02
2.540788661854983393e-02
2.541025748620411723e-02
2.541262762190535027e-02
2.541499702535601063e-02
2.541736569625849956e-02
2.541973363431515240e-02
2.542210083922823508e-02
2.542446731069996496e-02
2.542683304843247269e-02
2.542919805212782297e-02
2.543156232148800072e-02
2.543392585621492841e-02
2.543628865601045563e-02
2.543865072057636956e-02
2.544101204961440529e-02
2.544337264282623898e-02
2.544573249991349817e-02
2.544809162057775839e-02
2.545045000452053618e-02
2.545280765144328911e-02
2.545516456104742614e-02
2.545752073303432506e-02
2.545987616710530463e-02
2.546223086296162119e-02
2.546458482030448597e-02
2.546693803883507898e-02
2.546929051825451776e-02
2.547164225826386089e-02
2.547399325856412530e-02
2.547634351885628284e-02
2.547869303884126024e-02
2.548104181821994260e-02
2.548338985669314216e-02
2.548573715396162606e-02
2.548808370972611981e-02
2.549042952368731768e-02
2.549277459554585498e-02
2.549511892500230109e-02
2.549746251175717335e-02
2.549980535551094399e-02
2.550214745596405402e-02
2.550448881281689242e-02
2.550682942576979612e-02
2.550916929452307427e-02
2.551150841877699443e-02
2.551384679823179638e-02
2.551618443258767827e-02
2.551852132154478620e-02
2.552085746480323158e-02
2.552319286206307380e-02
2.552552751302431672e-02
2.552786141738692602e-02
2.553019457485080496e-02
2.553252698511581861e-02
2.553485864788177656e-02
2.553718956284845021e-02
2.553951972971557627e-02
2.554184914818284288e-02
2.554417781794988962e-02
2.554650573871632135e-02
2.554883291018168051e-02
2.555115933204545747e-02
2.555348500400707670e-02
2.555580992576593144e-02
2.555813409702135594e-02
2.556045751747266365e-02
2.556278018681913330e-02
2.556510210475999509e-02
2.556742327099446183e-02
2.556974368522170124e-02
2.557206334714084636e-02
2.557438225645097124e-02
2.557670041285110482e-02
2.557901781604023095e-02
2.558133446571729183e-02
2.558365036158119846e-02
2.558596550333083058e-02
2.558827989066503675e-02
2.559059352328262038e-02
2.559290640088233287e-02
2.559521852316289786e-02
2.559752988982299388e-02
2.559984050056127169e-02
2.560215035507632311e-02
2.560445945306669829e-02
2.560676779423091270e-02
2.560907537826744018e-02
2.561138220487472333e-02
2.561368827375116661e-02
2.561599358459515016e-02
2.561829813710502640e-02
2.562060193097913385e-02
2.562290496591578676e-02
2.562520724161329241e-02
2.562750875776993384e-02
2.562980951408396629e-02
2.563210951025363463e-02
2.563440874597714900e-02
2.563670722095269527e-02
2.563900493487844892e-02
2.564130188745256458e-02
2.564359807837317609e-02
2.564589350733837911e-02
2.564818817404624501e-02
2.565048207819482784e-02
2.565277521948216080e-02
2.565506759760625283e-02
2.565735921226509550e-02
2.565965006315663530e-02
2.566194014997878053e-02
2.566422947242940136e-02
2.566651803020632283e-02
2.566880582300732835e-02
2.567109285053017012e-02
2.567337911247257951e-02
2.567566460853225319e-02
2.567794933840687049e-02
2.568023330179408301e-02
2.568251649839152148e-02
2.568479892789680974e-02
2.568708059000754731e-02
2.568936148442131986e-02
2.569164161083569223e-02
2.569392096894821190e-02
2.569619955845641249e-02
2.569847737905779986e-02
2.570075443044987640e-02
2.570303071233012715e-02
2.570530622439599899e-02
2.570758096634491452e-02
2.570985493787427897e-02
2.571212813868148025e-02
2.571440056846388197e-02
2.571667222691883734e-02
2.571894311374368566e-02
2.572121322863576628e-02
2.572348257129240465e-02
2.572575114141090191e-02
2.572801893868853496e-02
2.573028596282256678e-02
2.573255221351023608e-02
2.573481769044878506e-02
2.573708239333544548e-02
2.573934632186742830e-02
2.574160947574194794e-02
2.574387185465620495e-02
2.574613345830737560e-02
2.574839428639261532e-02
2.575065433860905528e-02
2.575291361465383011e-02
2.575517211422403974e-02
2.575742983701676328e-02
2.575968678272905904e-02
2.576194295105797838e-02
2.576419834170057960e-02
2.576645295435388283e-02
2.576870678871488740e-02
2.577095984448060303e-02
2.577321212134800130e-02
2.577546361901403293e-02
2.577771433717564870e-02
2.577996427552979586e-02
2.578221343377339742e-02
2.578446181160334166e-02
2.578670940871650302e-02
2.578895622480974897e-02
2.579120225957992618e-02
2.579344751272386743e-02
2.579569198393841245e-02
2.579793567292038015e-02
2.580017857936658943e-02
2.580242070297383145e-02
2.580466204343889389e-02
2.580690260045857137e-02
2.580914237372964465e-02
2.581138136294888058e-02
2.581361956781304257e-02
2.581585698801888012e-02
2.581809362326313931e-02
2.582032947324253841e-02
2.582256453765379919e-02
2.582479881619362608e-02
2.582703230855870613e-02
2.582926501444572642e-02
2.583149693355136015e-02
2.583372806557228049e-02
2.583595841020516065e-02
2.583818796714667729e-02
2.584041673609349665e-02
2.584264471674228500e-02
2.584487190878969470e-02
2.584709831193237814e-02
2.584932392586699115e-02
2.585154875029020693e-02
2.585377278489871256e-02
2.585599602938921243e-02
2.585821848345841445e-02
2.586044014680302650e-02
2.586266101911974605e-02
2.586488110010527752e-02
2.586710038945631840e-02
2.586931888686955575e-02
2.587153659204166276e-02
2.587375350466931609e-02
2.587596962444915771e-02
2.587818495107783306e-02
2.588039948425197717e-02
2.588261322366821812e-02
2.588482616902317707e-02
2.588703832001346822e-02
2.588924967633571272e-02
2.589146023768652480e-02
2.589367000376250824e-02
2.589587897426025645e-02
2.589808714887635935e-02
2.590029452730740339e-02
2.590250110924996463e-02
2.590470689440060870e-02
2.590691188245589777e-02
2.590911607311240442e-02
2.591131946606670816e-02
2.591352206101538158e-02
2.591572385765500766e-02
2.591792485568217980e-02
2.592012505479349832e-02
2.592232445468557397e-02
2.592452305505501403e-02
2.592672085559841882e-02
2.592891785601238175e-02
2.593111405599349273e-02
2.593330945523835557e-02
2.593550405344358448e-02
2.593769785030580408e-02
2.593989084552163898e-02
2.594208303878772423e-02
2.594427442980068790e-02
2.594646501825718238e-02
2.594865480385387391e-02
2.595084378628743915e-02
2.595303196525453743e-02
2.595521934045184193e-02
2.595740591157602584e-02
2.595959167832379011e-02
2.596177664039183569e-02
2.596396079747686353e-02
2.596614414927557110e-02
2.596832669548465242e-02
2.597050843580079107e-02
2.597268936992067068e-02
2.597486949754098523e-02
2.597704881835843221e-02
2.597922733206972298e-02
2.598140503837156542e-02
2.598358193696067089e-02
2.598575802753375422e-02
2.598793330978753022e-02
2.599010778341874148e-02
2.599228144812413058e-02
2.599445430360044357e-02
2.599662634954442997e-02
2.599879758565285318e-02
2.600096801162249394e-02
2.600313762715015034e-02
2.600530643193262048e-02
2.600747442566670592e-02
2.600964160804924291e-02
2.601180797877708506e-02
2.601397353754711372e-02
2.601613828405623802e-02
2.601830221800138440e-02
2.602046533907950016e-02
2.602262764698753950e-02
2.602478914142247399e-02
2.602694982208130295e-02
2.602910968866104652e-02
2.603126874085871789e-02
2.603342697837134415e-02
2.603558440089594542e-02
2.603774100812955225e-02
2.603989679976922642e-02
2.604205177551202968e-02
2.604420593505505852e-02
2.604635927809543366e-02
2.604851180433027935e-02
2.605066351345675102e-02
2.605281440517201105e-02
2.605496447917322878e-02
2.605711373515759433e-02
2.605926217282230825e-02
2.606140979186457804e-02
2.606355659198161465e-02
2.606570257287065331e-02
2.606784773422896398e-02
2.606999207575384780e-02
2.607213559714261636e-02
2.607427829809260550e-02
2.607642017830117190e-02
2.607856123746569305e-02
2.608070147528358113e-02
2.608284089145228649e-02
2.608497948566929764e-02
2.608711725763213779e-02
2.608925420703835096e-02
2.609139033358550547e-02
2.609352563697116961e-02
2.609566011689293252e-02
2.609779377304840414e-02
2.609992660513520829e-02
2.610205861285098961e-02
2.610418979589341354e-02
2.610632015396017330e-02
2.610844968674897251e-02
2.611057839395752520e-02
2.611270627528358354e-02
2.611483333042492055e-02
2.611695955907931965e-02
2.611908496094460588e-02
2.612120953571863205e-02
2.612333328309925096e-02
2.612545620278431194e-02
2.612757829447168514e-02
2.612969955785926501e-02
2.613181999264494598e-02
2.613393959852665024e-02
2.613605837520232428e-02
2.613817632236995273e-02
2.614029343972754799e-02
2.614240972697313634e-02
2.614452518380475793e-02
2.614663980992047720e-02
2.614875360501836901e-02
2.615086656879653942e-02
2.615297870095311186e-02
2.615509000118622016e-02
2.615720046919402242e-02
2.615931010467470452e-02
2.616141890732646275e-02
2.616352687684751765e-02
2.616563401293612104e-02
2.616774031529055591e-02
2.616984578360911917e-02
2.617195041759012158e-02
2.617405421693190168e-02
2.617615718133282920e-02
2.617825931049129126e-02
2.618036060410568536e-02
2.618246106187443328e-02
2.618456068349597418e-02
2.618665946866877842e-02
2.618875741709133023e-02
2.619085452846213122e-02
2.619295080247970031e-02
2.619504623884259809e-02
2.619714083724939899e-02
2.619923459739870522e-02
2.620132751898916063e-02
2.620341960171942639e-02
2.620551084528819838e-02
2.620760124939421759e-02
2.620969081373626663e-02
2.621177953801315588e-02
2.621386742192372693e-02
2.621595446516683872e-02
2.621804066744139183e-02
2.622012602844630419e-02
2.622221054788051453e-02
2.622429422544297895e-02
2.622637706083266740e-02
2.622845905374859496e-02
2.623054020388980792e-02
2.623262051095538380e-02
2.623469997464442094e-02
2.623677859465604889e-02
2.623885637068942497e-02
2.624093330244375161e-02
2.624300938961825203e-02
2.624508463191219804e-02
2.624715902902490655e-02
2.624923258065572224e-02
2.625130528650402098e-02
2.625337714626922725e-02
2.625544815965080020e-02
2.625751832634824409e-02
2.625958764606109441e-02
2.626165611848890746e-02
2.626372374333125689e-02
2.626579052028774758e-02
2.626785644905801909e-02
2.626992152934174568e-02
2.627198576083865020e-02
2.627404914324850058e-02
2.627611167627109251e-02
2.627817335960628414e-02
2.628023419295397178e-02
2.628229417601408296e-02
2.628435330848659032e-02
2.628641159007148731e-02
2.628846902046878820e-02
2.629052559937854194e-02
2.629258132650084609e-02
2.629463620153583286e-02
2.629669022418365532e-02
2.629874339414449771e-02
2.630079571111856168e-02
2.630284717480608700e-02
2.630489778490735162e-02
2.630694754112266470e-02
2.630899644315236666e-02
2.631104449069684645e-02
2.631309168345654162e-02
2.631513802113192788e-02
2.631718350342351562e-02
2.631922813003184647e-02
2.632127190065750022e-02
2.632331481500111911e-02
2.632535687276337660e-02
2.632739807364498433e-02
2.632943841734670595e-02
2.633147790356935372e-02
2.633351653201377457e-02
2.633555430238085013e-02
2.633759121437149672e-02
2.633962726768667925e-02
2.634166246202741118e-02
2.634369679709474069e-02
2.634573027258976796e-02
2.634776288821363138e-02
2.634979464366750401e-02
2.635182553865257973e-02
2.635385557287008712e-02
2.635588474602128944e-02
2.635791305780750202e-02
2.635994050793009219e-02
2.636196709609047589e-02
2.636399282199012109e-02
2.636601768533053045e-02
2.636804168581325172e-02
2.637006482313985697e-02
2.637208709701195988e-02
2.637410850713118454e-02
2.637612905319920015e-02
2.637814873491771059e-02
2.638016755198846139e-02
2.638218550411321889e-02
2.638420259099378412e-02
2.638621881233199976e-02
2.638823416782974315e-02
2.639024865718893678e-02
2.639226228011154127e-02
2.639427503629953112e-02
2.639628692545493288e-02
2.639829794727982168e-02
2.640030810147631080e-02
2.640231738774653780e-02
2.640432580579267496e-02
2.640633335531693271e-02
2.640834003602155963e-02
2.641034584760883902e-02
2.641235078978109233e-02
2.641435486224066528e-02
2.641635806468993833e-02
2.641836039683134393e-02
2.642036185836734233e-02
2.642236244900043191e-02
2.642436216843314575e-02
2.642636101636806553e-02
2.642835899250781106e-02
2.643035609655502993e-02
2.643235232821241829e-02
2.643434768718273473e-02
2.643634217316877949e-02
2.643833578587339098e-02
2.644032852499945616e-02
2.644232039024992792e-02
2.644431138132781467e-02
2.644630149793617685e-02
2.644829073977810960e-02
2.645027910655674622e-02
2.645226659797526164e-02
2.645425321373689326e-02
2.645623895354492702e-02
2.645822381710270441e-02
2.646020780411361892e-02
2.646219091428108836e-02
2.646417314730858256e-02
2.646615450289960605e-02
2.646813498075770155e-02
2.647011458058643948e-02
2.647209330208944583e-02
2.647407114497037084e-02
2.647604810893288557e-02
2.647802419368071314e-02
2.647999939891762869e-02
2.648197372434744207e-02
2.648394716967400128e-02
2.648591973460119597e-02
2.648789141883295742e-02
2.648986222207326893e-02
2.649183214402616587e-02
2.649380118439570789e-02
2.649576934288598931e-02
2.649773661920114612e-02
2.649970301304535591e-02
2.650166852412284488e-02
2.650363315213789123e-02
2.650559689679481482e-02
2.650755975779795978e-02
2.650952173485170843e-02
2.651148282766048470e-02
2.651344303592873680e-02
2.651540235936094767e-02
2.651736079766163837e-02
2.651931835053535774e-02
2.652127501768667892e-02
2.652323079882021317e-02
2.652518569364062731e-02
2.652713970185262976e-02
2.652909282316099487e-02
2.653104505727051782e-02
2.653299640388603192e-02
2.653494686271242603e-02
2.653689643345464449e-02
2.653884511581768371e-02
2.654079290950656436e-02
2.654273981422633488e-02
2.654468582968209575e-02
2.654663095557898561e-02
2.654857519162218474e-02
2.655051853751691504e-02
2.655246099296845047e-02
2.655440255768208579e-02
2.655634323136315394e-02
2.655828301371704683e-02
2.656022190444922576e-02
2.656215990326520060e-02
2.656409700987053674e-02
2.656603322397084119e-02
2.656796854527175913e-02
2.656990297347897739e-02
2.657183650829823482e-02
2.657376914943530843e-02
2.657570089659601689e-02
2.657763174948622048e-02
2.657956170781184541e-02
2.658149077127884216e-02
2.658341893959321675e-02
2.658534621246104457e-02
2.658727258958845652e-02
2.658919807068163554e-02
2.659112265544681664e-02
2.659304634359027641e-02
2.659496913481833313e-02
2.659689102883736056e-02
2.659881202535377062e-02
2.660073212407402729e-02
2.660265132470465005e-02
2.660456962695222777e-02
2.660648703052340483e-02
2.660840353512487766e-02
2.661031914046340860e-02
2.661223384624581551e-02
2.661414765217895786e-02
2.661606055796975068e-02
2.661797256332515058e-02
2.661988366795216970e-02
2.662179387155786184e-02
2.662370317384930851e-02
2.662561157453364330e-02
2.662751907331805182e-02
2.662942566990977519e-02
2.663133136401611006e-02
2.663323615534439470e-02
2.663514004360200901e-02
2.663704302849637454e-02
2.663894510973499608e-02
2.664084628702542007e-02
2.664274656007523112e-02
2.664464592859206934e-02
2.664654439228361996e-02
2.664844195085763409e-02
2.665033860402192881e-02
2.665223435148437667e-02
2.665412919295289534e-02
2.665602312813544761e-02
2.665791615674003440e-02
2.665980827847470869e-02
2.666169949304759285e-02
2.666358980016683700e-02
2.666547919954065024e-02
2.666736769087728678e-02
2.666925527388505288e-02
2.667114194827229293e-02
2.667302771374740686e-02
2.667491257001882582e-02
2.667679651679503994e-02
2.667867955378459138e-02
2.668056168069607437e-02
2.668244289723814208e-02
2.668432320311952058e-02
2.668620259804897407e-02
2.668808108173530841e-02
2.668995865388736066e-02
2.669183531421402342e-02
2.669371106242423089e-02
2.669558589822697281e-02
2.669745982133126666e-02
2.669933283144618544e-02
2.670120492828086112e-02
2.670307611154448466e-02
2.670494638094630252e-02
2.670681573619559934e-02
2.670868417700171180e-02
2.671055170307402513e-02
2.671241831412197315e-02
2.671428400985505561e-02
2.671614878998282427e-02
2.671801265421487603e-02
2.671987560226088063e-02
2.672173763383056330e-02
2.672359874863371870e-02
2.672545894638019698e-02
2.672731822677990726e-02
2.672917658954280379e-02
2.673103403437889630e-02
2.673289056099823618e-02
2.673474616911093033e-02
2.673660085842712725e-02
2.673845462865703446e-02
2.674030747951093231e-02
2.674215941069914282e-02
2.674401042193201919e-02
2.674586051291995975e-02
2.674770968337343222e-02
2.674955793300294593e-02
2.675140526151909351e-02
2.675325166863252654e-02
2.675509715405395561e-02
2.675694171749413292e-02
2.675878535866386965e-02
2.676062807727400822e-02
2.676246987303543268e-02
2.676431074565908605e-02
2.676615069485597034e-02
2.676798972033715696e-02
2.676982782181377626e-02
2.677166499899700375e-02
2.677350125159808428e-02
2.677533657932831823e-02
2.677717098189907885e-02
2.677900445902178447e-02
2.678083701040789508e-02
2.678266863576892962e-02
2.678449933481645562e-02
2.678632910726207184e-02
2.678815795281744641e-02
2.678998587119428912e-02
2.679181286210436524e-02
2.679363892525948865e-02
2.679546406037154951e-02
2.679728826715247966e-02
2.679911154531425602e-02
2.680093389456891448e-02
2.680275531462856034e-02
2.680457580520534053e-02
2.680639536601147482e-02
2.680821399675923158e-02
2.681003169716092427e-02
2.681184846692891144e-02
2.681366430577561064e-02
2.681547921341350879e-02
2.681729318955512753e-02
2.681910623391303705e-02
2.682091834619984919e-02
2.682272952612822087e-02
2.682453977341088189e-02
2.682634908776061755e-02
2.682815746889029990e-02
2.682996491651284954e-02
2.683177143034123219e-02
2.683357701008848295e-02
2.683538165546769591e-02
2.683718536619202760e-02
2.683898814197468313e-02
2.684078998252891271e-02
2.684259088756802206e-02
2.684439085680538975e-02
2.684618988995447070e-02
2.684798798672876838e-02
2.684978514684185913e-02
2.685158137000738868e-02
2.685337665593904785e-02
2.685517100435057605e-02
2.685696441495575779e-02
2.685875688746845041e-02
2.686054842160255987e-02
2.686233901707205107e-02
2.686412867359094792e-02
2.686591739087331940e-02
2.686770516863326574e-02
2.686949200658493575e-02
2.687127790444255107e-02
2.687306286192040969e-02
2.687484687873285816e-02
2.687662995459429854e-02
2.687841208921918149e-02
2.688019328232202007e-02
2.688197353361736902e-02
2.688375284281983163e-02
2.688553120964407711e-02
2.688730863380484754e-02
2.688908511501695436e-02
2.689086065299525416e-02
2.689263524745465206e-02
2.689440889811010177e-02
2.689618160467660557e-02
2.689795336686921431e-02
2.689972418440305171e-02
2.690149405699330046e-02
2.690326298435519181e-02
2.690503096620402990e-02
2.690679800225519516e-02
2.690856409222413398e-02
2.691032923582635170e-02
2.691209343277742652e-02
2.691385668279299911e-02
2.691561898558876911e-02
2.691738034088050902e-02
2.691914074838404336e-02
2.692090020781526261e-02
2.692265871889011619e-02
2.692441628132464029e-02
2.692617289483494741e-02
2.692792855913722291e-02
2.692968327394771114e-02
2.693143703898272234e-02
2.693318985395861884e-02
2.693494171859180802e-02
2.693669263259878405e-02
2.693844259569610697e-02
2.694019160760038542e-02
2.694193966802828702e-02
2.694368677669653142e-02
2.694543293332191461e-02
2.694717813762127767e-02
2.694892238931152414e-02
2.695066568810962002e-02
2.695240803373260760e-02
2.695414942589760554e-02
2.695588986432179493e-02
2.695762934872241931e-02
2.695936787881681243e-02
2.696110545432235661e-02
2.696284207495649662e-02
2.696457774043673969e-02
2.696631245048066935e-02
2.696804620480594550e-02
2.696977900313029392e-02
2.697151084517152020e-02
2.697324173064747505e-02
2.697497165927608201e-02
2.697670063077533056e-02
2.697842864486326223e-02
2.698015570125796708e-02
2.698188179967761155e-02
2.698360693984042449e-02
2.698533112146472498e-02
2.698705434426890842e-02
2.698877660797144654e-02
2.699049791229086309e-02
2.699221825694573390e-02
2.699393764165470763e-02
2.699565606613649540e-02
2.699737353010986385e-02
2.699909003329364551e-02
2.700080557540673193e-02
2.700252015616807708e-02
2.700423377529671473e-02
2.700594643251174112e-02
2.700765812753231840e-02
2.700936886007770238e-02
2.701107862986721134e-02
2.701278743662023987e-02
2.701449528005624504e-02
2.701620215989473592e-02
2.701790807585527365e-02
2.701961302765749570e-02
2.702131701502110545e-02
2.702302003766588606e-02
2.702472209531168318e-02
2.702642318767841875e-02
2.702812331448609454e-02
2.702982247545477820e-02
2.703152067030461375e-02
2.703321789875579723e-02
2.703491416052859059e-02
2.703660945534333213e-02
2.703830378292041217e-02
2.703999714298027310e-02
2.704168953524343361e-02
2.704338095943047832e-02
2.704507141526206124e-02
2.704676090245890230e-02
2.704844942074178388e-02
2.705013696983155080e-02
2.705182354944911383e-02
2.705350915931545308e-02
2.705519379915161116e-02
2.705687746867869309e-02
2.705856016761788718e-02
2.706024189569044766e-02
2.706192265261769120e-02
2.706360243812101427e-02
2.706528125192189660e-02
2.706695909374188386e-02
2.706863596330258415e-02
2.707031186032565762e-02
2.707198678453283380e-02
2.707366073564590817e-02
2.707533371338673861e-02
2.707700571747726284e-02
2.707867674763948795e-02
2.708034680359548696e-02
2.708201588506739879e-02
2.708368399177742830e-02
2.708535112344785667e-02
2.708701727980104487e-02
2.708868246055942328e-02
2.709034666544549164e-02
2.709200989418181910e-02
2.709367214649105460e-02
2.709533342209590953e-02
2.709699372071916121e-02
2.709865304208367021e-02
2.710031138591237690e-02
2.710196875192827023e-02
2.710362513985439467e-02
2.710528054941388140e-02
2.710693498032994142e-02
2.710858843232586204e-02
2.711024090512498264e-02
2.711189239845071194e-02
2.711354291202654199e-02
2.711519244557603417e-02
2.711684099882282969e-02
2.711848857149063569e-02
2.712013516330322518e-02
2.712178077398443715e-02
2.712342540325816606e-02
2.712506905084838965e-02
2.712671171647916893e-02
2.712835339987464470e-02
2.712999410075900980e-02
2.713163381885652647e-02
2.713327255389154022e-02
2.713491030558845205e-02
2.713654707367172889e-02
2.713818285786591747e-02
2.713981765789564779e-02
2.714145147348564699e-02
2.714308430436071159e-02
2.714471615024573181e-02
2.714634701086566723e-02
2.714797688594557806e-02
2.714960577521060431e-02
2.715123367838597965e-02
2.715286059519700715e-02
2.715448652536905927e-02
2.715611146862757785e-02
2.715773542469806026e-02
2.715935839330605589e-02
2.716098037417719394e-02
2.716260136703716258e-02
2.716422137161170897e-02
2.716584038762666006e-02
2.716745841480792262e-02
2.716907545288147624e-02
2.717069150157337340e-02
2.717230656060974636e-02
2.717392062971680719e-02
2.717553370862084081e-02
2.717714579704822928e-02
2.717875689472542058e-02
2.718036700137894945e-02
2.718197611673542347e-02
2.718358424052153000e-02
2.718519137246403622e-02
2.718679751228976829e-02
2.718840265972562523e-02
2.719000681449856155e-02
2.719160997633558730e-02
2.719321214496379577e-02
2.719481332011036354e-02
2.719641350150252268e-02
2.719801268886757467e-02
2.719961088193292159e-02
2.720120808042603838e-02
2.720280428407447978e-02
2.720439949260586993e-02
2.720599370574791967e-02
2.720758692322842315e-02
2.720917914477524735e-02
2.721077037011634253e-02
2.721236059897971099e-02
2.721394983109344176e-02
2.721553806618569674e-02
2.721712530398472107e-02
2.721871154421884320e-02
2.722029678661646093e-02
2.722188103090605535e-02
2.722346427681619427e-02
2.722504652407553224e-02
2.722662777241282098e-02
2.722820802155689890e-02
2.722978727123671547e-02
2.723136552118128606e-02
2.723294277111972667e-02
2.723451902078124001e-02
2.723609426989511556e-02
2.723766851819072951e-02
2.723924176539751010e-02
2.724081401124495497e-02
2.724238525546266235e-02
2.724395549778028600e-02
2.724552473792755253e-02
2.724709297563426141e-02
2.724866021063026764e-02
2.725022644264549557e-02
2.725179167140994244e-02
2.725335589665366445e-02
2.725491911810678722e-02
2.725648133549950572e-02
2.725804254856208433e-02
2.725960275702487418e-02
2.726116196061829922e-02
2.726272015907288057e-02
2.726427735211923650e-02
2.726583353948807201e-02
2.726738872091015106e-02
2.726894289611633479e-02
2.727049606483757105e-02
2.727204822680488056e-02
2.727359938174938117e-02
2.727514952940227402e-02
2.727669866949485739e-02
2.727824680175851627e-02
2.727979392592472241e-02
2.728134004172503083e-02
2.728288514889107980e-02
2.728442924715457699e-02
2.728597233624731680e-02
2.728751441590115262e-02
2.728905548584801069e-02
2.729059554581989011e-02
2.729213459554888366e-02
2.729367263476718125e-02
2.729520966320704914e-02
2.729674568060085418e-02
2.729828068668106039e-02
2.729981468118022891e-02
2.730134766383099029e-02
2.730287963436605833e-02
2.730441059251821623e-02
2.730594053802032004e-02
2.730746947060531601e-02
2.730899739000626145e-02
2.731052429595629341e-02
2.731205018818863572e-02
2.731357506643657118e-02
2.731509893043347972e-02
2.731662177991281068e-02
2.731814361460810012e-02
2.731966443425295696e-02
2.732118423858110115e-02
2.732270302732633591e-02
2.732422080022254771e-02
2.732573755700369589e-02
2.732725329740382653e-02
2.732876802115706896e-02
2.733028172799763580e-02
2.733179441765982293e-02
2.733330608987802335e-02
2.733481674438669948e-02
2.733632638092038658e-02
2.733783499921369278e-02
2.733934259900130601e-02
2.734084918001799744e-02
2.734235474199864235e-02
2.734385928467819929e-02
2.734536280779169271e-02
2.734686531107423380e-02
2.734836679426100661e-02
2.734986725708726460e-02
2.735136669928834099e-02
2.735286512059966271e-02
2.735436252075674340e-02
2.735585889949517305e-02
2.735735425655062836e-02
2.735884859165887972e-02
2.736034190455576345e-02
2.736183419497719913e-02
2.736332546265918958e-02
2.736481570733782093e-02
2.736630492874927989e-02
2.736779312662983993e-02
2.736928030071586818e-02
2.737076645074382544e-02
2.737225157645025927e-02
2.737373567757177620e-02
2.737521875384506254e-02
2.737670080500688441e-02
2.737818183079409121e-02
2.737966183094362946e-02
2.738114080519250468e-02
2.738261875327779524e-02
2.738409567493665930e-02
2.738557156990633484e-02
2.738704643792412921e-02
2.738852027872743303e-02
2.738999309205372018e-02
2.739146487764054436e-02
2.739293563522553904e-02
2.739440536454642444e-02
2.739587406534100406e-02
2.739734173734716116e-02
2.739880838030286231e-02
2.740027399394614344e-02
2.740173857801513763e-02
2.740320213224807164e-02
2.740466465638326590e-02
2.740612615015912412e-02
2.740758661331411938e-02
2.740904604558680804e-02
2.741050444671584360e-02
2.741196181643995936e-02
2.741341815449797881e-02
2.741487346062879485e-02
2.741632773457138711e-02
2.741778097606481501e-02
2.741923318484821778e-02
2.742068436066081444e-02
2.742213450324191767e-02
2.742358361233092345e-02
2.742503168766729366e-02
2.742647872899056996e-02
2.742792473604037731e-02
2.742936970855642045e-02
2.743081364627846658e-02
2.743225654894635226e-02
2.743369841629998696e-02
2.743513924807937029e-02
2.743657904402459213e-02
2.743801780387581171e-02
2.743945552737328195e-02
2.744089221425734942e-02
2.744232786426845441e-02
2.744376247714712738e-02
2.744519605263397860e-02
2.744662859046968773e-02
2.744806009039502809e-02
2.744949055215084935e-02
2.745091997547808096e-02
2.745234836011772178e-02
2.745377570581082269e-02
2.745520201229851090e-02
2.745662727932197955e-02
2.745805150662251545e-02
2.745947469394148174e-02
2.746089684102031789e-02
2.746231794760056744e-02
2.746373801342383986e-02
2.746515703823181401e-02
2.746657502176626242e-02
2.746799196376904784e-02
2.746940786398209544e-02
2.747082272214742063e-02
2.747223653800711513e-02
2.747364931130335045e-02
2.747506104177836403e-02
2.747647172917446964e-02
2.747788137323407126e-02
2.747928997369966306e-02
2.748069753031381901e-02
2.748210404281921718e-02
2.748350951095862235e-02
2.748491393447486525e-02
2.748631731311085638e-02
2.748771964660957912e-02
2.748912093471408968e-02
2.749052117716752411e-02
2.749192037371308434e-02
2.749331852409405905e-02
2.749471562805380978e-02
2.749611168533576400e-02
2.749750669568341160e-02
2.749890065884031537e-02
2.750029357455012827e-02
2.750168544255657960e-02
2.750307626260346111e-02
2.750446603443463742e-02
2.750585475779403211e-02
2.750724243242564510e-02
2.750862905807353875e-02
2.751001463448186565e-02
2.751139916139483735e-02
2.751278263855673825e-02
2.751416506571191523e-02
2.751554644260481575e-02
2.751692676897997403e-02
2.751830604458201102e-02
2.751968426915562052e-02
2.752106144244558655e-02
2.752243756419676599e-02
2.752381263415410242e-02
2.752518665206262968e-02
2.752655961766746831e-02
2.752793153071382212e-02
2.752930239094696779e-02
2.753067219811225486e-02
2.753204095195511611e-02
2.753340865222104333e-02
2.753477529865560464e-02
2.753614089100444098e-02
2.753750542901326273e-02
2.753886891242785309e-02
2.754023134099408202e-02
2.754159271445791660e-02
2.754295303256542107e-02
2.754431229506274295e-02
2.754567050169610259e-02
2.754702765221179322e-02
2.754838374635619133e-02
2.754973878387574279e-02
2.755109276451697675e-02
2.755244568802648134e-02
2.755379755415093140e-02
2.755514836263706774e-02
2.755649811323171092e-02
2.755784680568174050e-02
2.755919443973409502e-02
2.756054101513576854e-02
2.756188653163383490e-02
2.756323098897543386e-02
2.756457438690777806e-02
2.756591672517814950e-02
2.756725800353388225e-02
2.756859822172237975e-02
2.756993737949111484e-02
2.757127547658762973e-02
2.757261251275951869e-02
2.757394848775444191e-02
2.757528340132014283e-02
2.757661725320444471e-02
2.757795004315523671e-02
2.757928177092046351e-02
2.758061243624816347e-02
2.758194203888646862e-02
2.758327057858358036e-02
2.758459805508777993e-02
2.758592446814741098e-02
2.758724981751086922e-02
2.758857410292663362e-02
2.758989732414324908e-02
2.759121948090935070e-02
2.759254057297366725e-02
2.759386060008499342e-02
2.759517956199218636e-02
2.759649745844418300e-02
2.759781428918998622e-02
2.759913005397866131e-02
2.760044475255935340e-02
2.760175838468128737e-02
2.760307095009376446e-02
2.760438244854616224e-02
2.760569287978793460e-02
2.760700224356860133e-02
2.760831053963774817e-02
2.760961776774503371e-02
2.761092392764018938e-02
2.761222901907301255e-02
2.761353304179335263e-02
2.761483599555114576e-02
2.761613788009640094e-02
2.761743869517918962e-02
2.761873844054964569e-02
2.762003711595797939e-02
2.762133472115447727e-02
2.762263125588951609e-02
2.762392671991353160e-02
2.762522111297703239e-02
2.762651443483059993e-02
2.762780668522488853e-02
2.762909786391061495e-02
2.763038797063856883e-02
2.763167700515961611e-02
2.763296496722469908e-02
2.763425185658482941e-02
2.763553767299109162e-02
2.763682241619462923e-02
2.763810608594666901e-02
2.763938868199851059e-02
2.764067020410152994e-02
2.764195065200715853e-02
2.764323002546689723e-02
2.764450832423232321e-02
2.764578554805505531e-02
2.764706169668676786e-02
2.764833676987919417e-02
2.764961076738413695e-02
2.765088368895345441e-02
2.765215553433907417e-02
2.765342630329296891e-02
2.765469599556717034e-02
2.765596461091377606e-02
2.765723214908494959e-02
2.765849860983292732e-02
2.765976399291000115e-02
2.766102829806852889e-02
2.766229152506092387e-02
2.766355367363969656e-02
2.766481474355742681e-02
2.766607473456676042e-02
2.766733364642039519e-02
2.766859147887108447e-02
2.766984823167163710e-02
2.767110390457492783e-02
2.767235849733389735e-02
2.767361200970156962e-02
2.767486444143102062e-02
2.767611579227537491e-02
2.767736606198783339e-02
2.767861525032164899e-02
2.767986335703013015e-02
2.768111038186665471e-02
2.768235632458463866e-02
2.768360118493755698e-02
2.768484496267893322e-02
2.768608765756236031e-02
2.768732926934150754e-02
2.768856979777010313e-02
2.768980924260194126e-02
2.769104760359088202e-02
2.769228488049084794e-02
2.769352107305582400e-02
2.769475618103987152e-02
2.769599020419711427e-02
2.769722314228172458e-02
2.769845499504792335e-02
2.769968576224999396e-02
2.770091544364226832e-02
2.770214403897913735e-02
2.770337154801503707e-02
2.770459797050445205e-02
2.770582330620192588e-02
2.770704755486204721e-02
2.770827071623945329e-02
2.770949279008884034e-02
2.771071377616496356e-02
2.771193367422264062e-02
2.771315248401672038e-02
2.771437020530210724e-02
2.771558683783373681e-02
2.771680238136658980e-02
2.771801683565571633e-02
2.771923020045621161e-02
2.772044247552322982e-02
2.772165366061199801e-02
2.772286375547780221e-02
2.772407275987599437e-02
2.772528067356198195e-02
2.772648749629121750e-02
2.772769322781920912e-02
2.772889786790152036e-02
2.773010141629378075e-02
2.773130387275168918e-02
2.773250523703097575e-02
2.773370550888740876e-02
2.773490468807681200e-02
2.773610277435506824e-02
2.773729976747810883e-02
2.773849566720192755e-02
2.773969047328256332e-02
2.774088418547609666e-02
2.774207680353865668e-02
2.774326832722642452e-02
2.774445875629562297e-02
2.774564809050249908e-02
2.774683632960335197e-02
2.774802347335451891e-02
2.774920952151238573e-02
2.775039447383340421e-02
2.775157833007406427e-02
2.775276108999090441e-02
2.775394275334051170e-02
2.775512331987952525e-02
2.775630278936463621e-02
2.775748116155258433e-02
2.775865843620016135e-02
2.775983461306422151e-02
2.776100969190166412e-02
2.776218367246944055e-02
2.776335655452455073e-02
2.776452833782405358e-02
2.776569902212505658e-02
2.776686860718471581e-02
2.776803709276024976e-02
2.776920447860894980e-02
2.777037076448816630e-02
2.777153595015528428e-02
2.777270003536770962e-02
2.777386301988288286e-02
2.777502490345830355e-02
2.777618568585151285e-02
2.777734536682012478e-02
2.777850394612178808e-02
2.777966142351420004e-02
