3.505867907894155873e-03
5.985441470017714184e-03
4.125732346882306743e-03
1.894399209427176725e-03
-5.985908682973706089e-04
-2.966165537593826000e-03
-2.391944043737341020e-03
-6.316773191242389465e-04
-2.319077071308825282e-03
-6.864990462373667633e-03
-9.667900582283396951e-03
-8.669866710483226102e-03
-4.813355090387527388e-03
7.009720533691782274e-04
5.490421674440628015e-03
1.025167763135626658e-02
9.898652117637912404e-03
3.011590750027591003e-03
-2.068827620037069943e-03
-3.269835383970383716e-03
-3.570768950390196435e-03
-4.756945202603754465e-04
2.541737201318033067e-03
4.127213911225488530e-03
3.065127846657998874e-03
1.182462461031582278e-03
4.555183748875305492e-04
2.702018211535860159e-04
-1.197604597072161794e-03
-2.855251560824900031e-03
-5.113774377972176745e-03
-5.917712568197009727e-03
-5.170046224654782814e-03
-3.362850147466317930e-03
-9.741498205191171690e-04
1.064904101461539672e-03
2.425347949855646400e-03
1.232201448689433741e-03
1.680970585241071697e-03
4.567052679332567026e-03
6.972908855594603730e-03
4.858161867427017964e-03
4.200177776044229129e-03
5.282680451440029991e-03
2.859057620488428784e-03
-1.473858753433530174e-03
-3.531274367257499630e-03
-2.168325714597509231e-03
-3.687794375000537014e-03
-7.787031593592835289e-03
-8.920464629857962138e-03
-7.889733226168335264e-03
-6.351252425312820492e-03
-1.022628673048482650e-03
3.793670116105652725e-03
4.283433745034375892e-03
4.427822750341422336e-03
5.610839982396716337e-03
5.078151085435816774e-03
3.554322037895363447e-03
3.250973598464312712e-03
1.759519655174961346e-03
1.391026213040779259e-04
6.327056561729334878e-04
1.029877747697627560e-03
2.154706896463712881e-03
1.470068596869139339e-03
-6.526121500005830321e-04
-3.666779596272522028e-03
-6.076286138588743967e-03
-7.105471510080882402e-03
-8.220679892840596428e-03
-7.485287436554980724e-03
-3.227557466318823655e-03
1.217688248542612896e-03
3.751084943451036061e-03
4.863883362903410716e-03
4.111683565801980446e-03
2.538454813804543603e-03
3.884241071168581527e-03
6.030399305091371960e-03
4.504831521288964191e-03
3.469474983279697416e-03
4.892592010551702168e-03
4.593548668787817042e-03
3.454144487483093418e-04
-3.986200161733523782e-03
-5.594995310306163754e-03
-5.461144242586856226e-03
-6.808896244756465141e-03
-8.074745278571212465e-03
-7.325961250822037377e-03
-5.158878322557810744e-03
-1.499413036751486190e-03
2.554493056478058903e-03
3.039950500337628564e-03
2.877295881327905820e-03
5.138423731743947155e-03
5.400785809097330761e-03
4.856132322110689667e-03
4.349800033242115678e-03
3.307556018791192251e-03
2.024372465518186476e-03
1.669336002581190250e-03
1.853347686571350751e-03
1.251998856954636419e-03
-5.486784508602375252e-04
-2.731523547307124558e-03
-4.148893016070292518e-03
-6.819575688876614201e-03
-7.985239671132108100e-03
-8.803830534824502729e-03
-6.721692492914476194e-03
-3.110254556462462711e-03
1.757072717539932567e-03
5.331601128663546012e-03
5.670194342763892718e-03
5.689270570477602401e-03
5.213170640703985136e-03
3.250509582896662746e-03
3.783651691484571714e-03
4.168336861869087299e-03
2.918806461131183503e-03
7.821484503919274005e-04
-3.175007117350119837e-04
-3.158963818455591045e-04
2.296991717111642329e-04
6.062240228125803007e-06
-3.038184895149466033e-03
-5.878712155454156839e-03
-6.811067651400012565e-03
-8.800449072031321998e-03
-8.797542153353321570e-03
-3.387326395053019343e-03
2.046434195412098582e-03
5.362881411013305753e-03
5.053808110416078102e-03
2.362461041288068178e-03
1.724767213871461653e-03
4.041039363391046163e-03
4.376012500464795778e-03
3.853842942467359915e-03
4.010165254159163764e-03
4.353353733238818531e-03
3.134700593335593144e-03
1.937420025884538897e-03
-7.178684555363380130e-04
-3.864098972478281335e-03
-4.834904807949035044e-03
-6.422303857922118629e-03
-9.541947132420762132e-03
-9.412781137452540942e-03
-5.780424329592677955e-03
-1.244713445335944926e-03
2.849013214813274440e-03
4.868840100389913543e-03
4.861656585905272873e-03
3.009853351925323786e-03
1.749893538742642272e-03
2.401609261270628258e-03
5.157710183983816275e-03
4.042553720525587056e-03
3.543416058482685028e-03
5.186774652566211036e-03
3.122939135159508509e-03
-1.517957586613990573e-03
-3.203085207037219880e-03
-3.117945537898661815e-03
-4.875483066854254671e-03
-4.733636542009550356e-03
-2.719862289976338922e-03
-2.010475599711440513e-03
-1.905226857009515318e-03
-7.250795157091615740e-04
-1.460574821587902168e-03
-3.081566843459652809e-03
-5.430622686338977372e-03
-4.201402192206230880e-03
9.587551969954238168e-04
6.279082924430716937e-03
7.817183345609719780e-03
7.396068899654054812e-03
7.253954957581057808e-03
6.529579648823041066e-03
3.094428503119664615e-03
-4.908104958668687776e-04
-1.542924836429939838e-03
1.041880859527868828e-05
-7.947969815290710852e-04
-4.942036597257708046e-03
-1.003086508290724523e-02
-1.225155604453318121e-02
-8.363648351090930202e-03
-2.106100978498336683e-03
1.594872179055670247e-03
3.175627607319414254e-03
4.911465412104844448e-03
3.575564224687220044e-03
1.563192693192722547e-03
1.384489727495173510e-03
5.349088272977303195e-03
6.709540312726215532e-03
5.224399691275683627e-03
5.941077930940662569e-03
4.251151407433094095e-03
-1.889152525663016433e-03
-3.855362172961614847e-03
-1.867755405437201630e-03
-3.600134255121294376e-03
-8.142159755432944873e-03
-9.801874824527994842e-03
-8.169276175118063768e-03
-6.284050342814765516e-03
-2.641117404234361921e-04
3.136799435899968475e-03
2.841749103577317914e-03
3.587162574059272850e-03
5.529607716509852069e-03
5.909122205057465091e-03
4.682235356160846344e-03
2.987486994890575440e-03
2.836331075484630794e-03
2.688872330992784099e-03
1.426502813290729098e-03
1.921547760446762918e-04
1.334308075661478797e-03
-5.818172228545998893e-04
-4.111529865047555340e-03
-4.579441116609660363e-03
-5.054878926731602544e-03
-6.121185082671876630e-03
-6.941235232871183734e-03
-6.480560850403621447e-03
-3.362583045938584685e-03
6.097018810253770384e-04
3.184283422435180578e-03
4.999204666884920698e-03
5.598015634093484773e-03
6.007388630272912644e-03
5.062856926736480218e-03
5.962416182102870006e-03
4.667815990281965442e-03
1.352318803479497268e-03
7.142622040190395229e-04
2.419157589642695414e-04
-3.057002768423503717e-03
-2.412990481329310884e-03
5.655932031946517280e-04
-2.259111418232796764e-03
-6.161356804227629581e-03
-8.341794566557453328e-03
-8.074516500137898442e-03
-5.638427570849479341e-03
-1.865041579107496340e-03
4.775391788939884591e-04
2.316066296535616680e-03
4.745350859912724102e-03
5.501005102716391600e-03
5.656847834491282069e-03
5.033680175984242382e-03
4.325887710372717729e-03
3.723480547981761896e-03
2.302091563863334529e-03
1.079922207603307028e-03
-1.772077301068891708e-04
-6.544892682362800449e-04
1.530613194196906661e-04
1.425912050998300307e-05
-2.514509677752522782e-03
-7.772134037792080216e-03
-1.132223483459708462e-02
-1.020561119757121618e-02
-4.620453594154989158e-03
8.496685621071095942e-04
3.937194296430153624e-03
5.590929458635683809e-03
4.770235589796405565e-03
2.547804351023130569e-03
1.637017070427479980e-03
2.869975577266537826e-03
5.494803843946155508e-03
3.968181645875015241e-03
1.384059722066614817e-03
2.461373278335834188e-03
3.636514024586033709e-03
1.164371108068878264e-03
-1.998139524169772595e-03
-3.803636977727386029e-03
-4.469911442638410323e-03
-3.870245349760043432e-03
-5.335481401471602048e-03
-6.643337301248484518e-03
-5.966241316638220583e-03
-3.704937995521431944e-03
9.807196326321820326e-05
2.542326821793924278e-03
3.652640518419675644e-03
3.005741598268117480e-03
2.002476540250753417e-03
2.174356099410077944e-03
4.408247178993160258e-03
5.580760707526230026e-03
3.894430924796146720e-03
3.608197496220893856e-03
2.835170798100076182e-03
8.758049213632968476e-04
-3.966533964479221374e-04
-1.557357494878982510e-03
-4.546972250715559244e-03
-7.012059807544753463e-03
-7.786827683923747134e-03
-6.885399534968823961e-03
-3.514822705416276519e-03
2.397515900028244010e-03
4.399953301804732098e-03
3.545053306264318860e-03
2.910759502243531554e-04
-4.290340082049358753e-03
-5.476023021711786017e-03
-7.021423253996601256e-04
5.235561846778050143e-03
8.259635216837988084e-03
7.597652360895410656e-03
6.848998075003527065e-03
5.594092461178795835e-03
1.539184074449976430e-03
2.936891379613883256e-04
-6.358231957593659528e-04
-4.351362642064402625e-03
-7.832402317800383693e-03
-8.176770289680565865e-03
-8.997595985264554563e-03
-6.683799422632727243e-03
-2.300928900359299097e-03
-5.276111363491297820e-04
1.779098495975794296e-03
4.126969611310024599e-03
4.357449271716727461e-03
2.903328542475066762e-03
4.148730390414707286e-03
5.279610052496635196e-03
4.516542654945551044e-03
2.943150552637510686e-03
5.404606830202666329e-04
9.228113786105838004e-04
2.954632529295016241e-03
1.515597770156324766e-04
-2.216948092848274911e-03
-3.747004685953619386e-03
-5.837304643490951253e-03
-8.476295846001293335e-03
-7.643745723263244835e-03
-4.313581223476090423e-03
-1.407617198152058893e-03
7.729764675260177714e-04
3.312843496628326782e-03
3.785163857887650918e-03
2.948890194302799563e-03
1.377537712964924804e-03
2.193188669193334855e-03
5.106702150863071457e-03
5.955042164342698972e-03
4.331654837546615282e-03
4.659293372774275972e-03
4.298576525439609490e-03
4.286367094201154059e-04
-2.305963848064866879e-03
-3.983759960716871419e-03
-5.267945028219540859e-03
-8.000818729961686401e-03
-9.697966095817909735e-03
-7.966772405369399943e-03
-4.625369444758643811e-03
-3.666805256829471838e-04
2.025864861027232636e-03
2.700027931885329996e-03
4.869975261764675385e-03
5.796639810623877183e-03
3.485775665975321749e-03
3.694183174268565045e-03
5.119889870108580536e-03
5.043887246775117204e-03
3.603526791165395041e-03
1.967156575725566899e-03
-5.552229059145204464e-04
-1.921495827550835211e-03
-2.073071361270396526e-03
-2.920192270659667695e-03
-3.903596579075531946e-03
-6.103853629270692208e-03
-9.183166250782017967e-03
-8.331934896136613741e-03
-3.275252459310263632e-03
2.024102602747672799e-03
3.929713628712880845e-03
3.999584354772542545e-03
4.391024930870066241e-03
4.183514888389307587e-03
1.652913841676350790e-03
1.585734302057774728e-03
3.675614304920439383e-03
2.673889673548086269e-03
1.209379371456644750e-03
3.691638455810518794e-03
4.572176565600293008e-03
1.023627135296043726e-03
-9.405421559555856258e-04
-1.707317342851387768e-03
-5.300280883699582356e-03
-6.241841997144703322e-03
-6.630967959844954150e-03
-8.048857857154192649e-03
-7.590169657189597789e-03
-3.512307665156128196e-03
1.093042726862128444e-03
3.779065239811690326e-03
5.474546034503055200e-03
6.346681761333113590e-03
5.174747149697340835e-03
4.372188241221141095e-03
2.805538744728369900e-03
8.248552371979351108e-04
1.941972195575489540e-03
3.526743773692025095e-03
3.223838590615127255e-03
4.897657593576958341e-04
-2.325835326406813092e-03
-3.628257633260376178e-03
-3.479862766053095323e-03
-3.436158543025864646e-03
-6.842966954036142427e-03
-1.013539550177600806e-02
-8.790177365399212336e-03
-2.673052950790678374e-03
4.102740583028060412e-03
6.823467382327873081e-03
6.720010190990025230e-03
4.237523377157999260e-03
2.225445900758022365e-03
2.570455726207496183e-03
4.052947654267770490e-03
4.329770058729711345e-03
3.141185702185978097e-03
2.776881290915937314e-03
1.983399892900167272e-03
-2.037072707146495888e-03
-4.455299045424161199e-03
-3.174824258442588212e-03
-2.478960542556025819e-03
-5.389354703709293808e-03
-7.554337097479627179e-03
-8.537666192617528876e-03
-6.785035776876406112e-03
-1.767842933782417213e-03
2.952592321188415685e-03
4.440846883448172286e-03
3.727415184181423133e-03
5.793343293073685389e-03
1.009689366969765932e-02
1.102276839220049827e-02
8.407641762479238154e-03
2.660146225363461785e-03
-3.704926012900710761e-03
-6.358882233983657699e-03
-6.163618500039041471e-03
-5.187648599510036665e-03
-2.725241808973758416e-03
-1.082885420820933232e-03
-1.757041393846647988e-03
-3.142125540661892379e-03
-5.567351459183004017e-03
-6.877637221371155594e-03
-3.054516600267097488e-03
1.547070939846049075e-03
5.625634535349598869e-03
6.338768750897735317e-03
4.321462300127591055e-03
1.993058499399059241e-03
2.478229130022373272e-03
4.259590699982741639e-03
3.922478947569971348e-03
5.826427898383878048e-04
3.192958783324162777e-04
1.842657410416012088e-03
1.544252244241772504e-03
5.328987500176443105e-04
-9.938461827443574592e-04
-3.579209876100445959e-03
-5.745037011907718448e-03
-6.573164029911725270e-03
-6.459366497471250197e-03
-5.431758536448263487e-03
-3.609960008525156007e-03
-2.968898873178826858e-04
2.042816636292582675e-03
2.955781799312430687e-03
1.542703359030262421e-03
3.002818265122324248e-03
5.038828640150790419e-03
5.321470870316635619e-03
4.990588726210061499e-03
2.852977175483032216e-03
1.791976915486017535e-03
2.516872073282430330e-03
3.419998716967297646e-03
8.946670795662440331e-04
-1.952592524784310364e-03
-4.442036981855037280e-03
-6.170310912829457019e-03
-7.609360754389062412e-03
-6.742121281867620615e-03
-6.842393504372542429e-03
-6.560318060229637128e-03
-2.830258090512611721e-03
3.163995537511210196e-03
6.582982897309315636e-03
7.152432703779629426e-03
5.026160572389520333e-03
2.906169149097665751e-03
3.438388745846493628e-03
4.169673123298498624e-03
2.430168489013685793e-03
2.355949235002720819e-03
3.148945064696444165e-03
1.989050574472599718e-03
-1.677123591169237676e-03
-2.455811961491250351e-03
-2.567979550358726222e-03
-2.981649662630551402e-03
-4.465319406446483820e-03
-7.424208713484189114e-03
-8.690409371658033844e-03
-6.863057616018527519e-03
-3.229572972117274263e-03
-9.824995384069344195e-05
3.306763316265870153e-03
6.402025817118318744e-03
6.616596912502163870e-03
4.867997164983054771e-03
4.175129740121476772e-03
4.766002887499014469e-03
5.294108087184656690e-03
2.992071969947615942e-03
-6.619036543239254541e-05
2.984603279922730021e-04
4.657879305939352488e-04
-1.813038247313566650e-03
-2.974512676910875345e-03
-4.462050818186864137e-03
-7.678712309743527566e-03
-1.031746862368751808e-02
-7.884397180481887701e-03
-1.788875374881916842e-03
2.021643485981618714e-03
2.814053408070965427e-03
4.138753701104102949e-03
4.962241162074635878e-03
3.770397158002874657e-03
9.953872400155910904e-04
9.871047749948728967e-04
2.545725068215819262e-03
3.647623763221228416e-03
3.277769888467177688e-03
3.112986808979160448e-03
3.870228314723361818e-03
1.504483863657618331e-03
-1.178222741843659672e-03
3.616381359330917185e-06
-2.039903101273432377e-03
-5.664496245001817212e-03
-8.565356595760407685e-03
-1.081930496233388800e-02
-8.014709644770632788e-03
-3.308266594483757171e-03
-1.176432101189154537e-03
2.794445577452814300e-03
6.633549994458339330e-03
6.850320222205717388e-03
5.131513275335779223e-03
4.664576855801323176e-03
4.176081636470849005e-03
3.571549196299237533e-03
3.476821186920654033e-03
1.732404226223003326e-03
2.680772404925761319e-04
5.365763061597435876e-04
-1.050714320573408866e-03
-2.886536516862551333e-03
-5.173885895922799953e-03
-8.084648195010745234e-03
-1.022718150293981838e-02
-9.560194974288730579e-03
-4.464472647816551849e-03
1.365469398837007922e-03
5.012239253085291370e-03
6.609109791840290550e-03
9.019901257166841949e-03
8.821989578392025813e-03
6.367691813143876861e-03
3.489309116197126907e-03
-2.299323468686133125e-03
-4.676736133592184104e-03
-3.002059048518791479e-03
-3.212338765018440110e-04
1.374768495893984900e-03
8.566182951085452024e-04
1.330457044300127969e-03
-3.851384271284552020e-04
-4.236910983402003041e-03
-5.862054816793163710e-03
-5.739801883110833697e-03
-6.139264278004829406e-03
-3.799369110384080272e-03
1.519304547458186390e-03
4.124867669158276476e-03
5.046966674868882952e-03
3.632093164863023707e-03
1.041694300156501343e-03
2.226579590032026941e-03
3.255719658882323501e-03
2.604699786826717746e-03
1.614019605988399608e-03
2.051626618271605758e-03
2.000203575888567613e-03
9.022907089388742218e-04
-2.754627023157947400e-04
-4.031689756078555968e-04
-6.167602666388659859e-04
-3.696704029071278680e-03
-8.108756303174714450e-03
-9.677719114263941616e-03
-6.164937821579537583e-03
-2.766315356993576287e-03
-1.593662935048962333e-03
1.669116163242283842e-03
5.694351989320496459e-03
7.613988411548209927e-03
5.291735976581848043e-03
1.886949341047521565e-03
9.615516034406678195e-04
1.897236098853275453e-03
2.945933208506998531e-03
4.743303389507355118e-03
4.824272411073744597e-03
1.602276331995477251e-03
-2.411361510503741597e-03
-3.336126657830452893e-03
-3.076792964690139472e-03
-3.661027849392191856e-03
-3.868243035062986744e-03
-5.018296355524210113e-03
-8.066687995654108975e-03
-9.026730258010725802e-03
-2.789885449212567946e-03
3.588966478876882450e-03
4.915567310065043112e-03
3.638497273689231953e-03
3.881636630434366977e-03
5.935778703141257953e-03
4.720555402845607110e-03
2.593407179090961509e-03
3.547482677762529499e-03
2.378773817501917982e-03
7.132323366194209813e-04
1.980521652073744671e-03
1.355311875395454361e-03
-1.869283163350756328e-03
-3.809738485388743535e-03
-5.286744245308985270e-03
-6.016103347326523521e-03
-7.500864274194191106e-03
-7.230584948764826221e-03
-3.719397790107915880e-03
1.502709221744847820e-03
3.114983031726753591e-03
3.893488263697114996e-03
2.639889497858524670e-03
4.220167007892181520e-04
1.627627295327850263e-03
4.187119306234910257e-03
5.058610003168725541e-03
4.344770326374188495e-03
4.377843629039097906e-03
4.080334689973063624e-03
1.569843007051209896e-03
-1.249486785814209015e-03
-6.528199090568300410e-04
-1.452936724495850623e-03
-4.317322252509047699e-03
-6.515244009439272177e-03
-7.856484665023444683e-03
-8.852713613663713496e-03
-6.443008876798181003e-03
-1.016550523579427823e-03
2.357414259636692305e-03
4.292095436368265418e-03
4.506110125664062292e-03
3.332365982357688577e-03
3.838196165341762299e-03
2.961343837381657032e-03
8.069915287087121858e-04
9.459148614173896324e-04
3.392606389694942381e-03
3.996126473451423050e-03
3.142916670962175515e-03
1.798416498682162135e-03
-4.647114372826529889e-04
-2.248340428567649832e-03
-1.839908806424475716e-03
-1.317988661771537715e-03
-3.487933593660890331e-03
-5.158295269173537000e-03
-5.222383183491947044e-03
-5.267545797364184441e-03
-5.764746329301479594e-03
-4.704430453241963822e-03
-1.577854144183781730e-03
6.221854488480806989e-04
2.247784436804916956e-03
4.993284511340400321e-03
8.825378446582425596e-03
9.680057334617837503e-03
8.915303904409968214e-03
7.663213656124921204e-03
5.462403944865696324e-03
1.490843800455642250e-03
-1.143673869290733145e-03
-3.315906170774378988e-03
-6.961490177797217786e-03
-9.866270322154679570e-03
-1.083558805168034246e-02
-1.166521544215306898e-02
-8.436682896868981027e-03
-1.284746508736829378e-03
2.848571839047965917e-03
4.085635685282750472e-03
5.018399268894015337e-03
5.349105432464261282e-03
5.076777835170102546e-03
5.244685573331049101e-03
4.877218963509327015e-03
4.024914083030690058e-03
2.542358457616846097e-03
1.770149955651288947e-03
5.757149427690071326e-04
9.500980406711792569e-05
-1.899397675481512239e-03
-1.828445258568925976e-03
-2.346872119726108215e-03
-5.007147069662542214e-03
-8.572359200176602606e-03
-1.038544293838879369e-02
-7.285911476832169185e-03
-1.262226599398147409e-03
4.351511693615949146e-03
5.470373653952365078e-03
4.413519033184060830e-03
2.104248691313989963e-03
2.174666828009251887e-03
2.102546226996089736e-03
3.883824913745316087e-03
6.246746170131837507e-03
5.263467355015804053e-03
6.105542512255880336e-03
3.371679372432998759e-03
-2.569333050549952278e-03
-3.577138306541680166e-03
-2.182622288206810361e-03
-3.634396978095547938e-03
-7.642608518241967089e-03
-1.019714567209198224e-02
-9.359608169043404438e-03
-5.261944509119334534e-03
-1.180972740158738737e-03
1.944421948400848737e-03
4.276153617344440744e-03
5.533557799325961035e-03
4.516810088420869160e-03
3.210004202064177699e-03
4.325755764314009356e-03
6.260334169844361009e-03
6.446010332729148334e-03
3.335570224008686108e-03
3.756426856119033839e-04
-3.915385130219347525e-04
-4.504645564116941466e-04
-1.592269308288905578e-03
-4.067641848552686762e-03
-4.588505795267651746e-03
-6.539635952353703950e-03
-8.069221860607728863e-03
-8.189940592876634659e-03
-5.256261963736410907e-03
-1.772394752481681456e-04
4.638061418096106094e-03
7.095591809102279150e-03
4.330396338611252130e-03
9.289752654215556807e-04
6.745323878550929173e-04
2.567922435178595676e-03
5.244547084967459728e-03
7.124570819038315676e-03
3.973376964391752038e-03
8.099630914535989497e-04
1.696255194515151627e-03
2.732661758220952114e-03
-4.467211221914581449e-04
-5.483593917637150442e-03
-6.634216816401485549e-03
-6.045065155107461237e-03
-6.416904732236637827e-03
-8.404270872003601414e-03
-7.410319197477752313e-03
-2.900650118999292468e-03
3.417510387997221930e-03
5.901669971447134552e-03
5.790675484724957557e-03
4.168080826947956515e-03
2.556474536752811021e-03
2.904279345814088364e-03
4.372315029449243273e-03
4.397294338525512686e-03
2.506782438593894644e-03
2.002541737832001702e-03
1.882468140990711499e-03
1.125441761602950438e-03
-2.259413230053823531e-04
-2.118008213114695813e-03
-5.081624934934944431e-03
-7.015301956798061615e-03
-9.279930315661476595e-03
-1.043886069034781656e-02
-5.954647822490409526e-03
5.119684382161341848e-04
3.497704670772244090e-03
4.570550587248873274e-03
4.682430722035052853e-03
3.998042054007857476e-03
3.404965687221771925e-03
4.653712983219177902e-03
4.093054563282603336e-03
3.348462575967037051e-03
3.373285271168121983e-03
2.930267699967414180e-03
1.197842013109278164e-03
-6.888075408866863990e-04
-9.928007380426537472e-04
-1.018669783463625397e-03
-2.042376651215403911e-03
-5.295290098709100161e-03
-1.073098792961989754e-02
-1.137241862727646213e-02
-7.348797195642136834e-03
-8.649275483582638882e-04
3.787346306994052603e-03
2.502626429112627792e-03
1.108691894265748448e-03
3.902884333975098138e-03
4.935991708106235790e-03
5.086273469445396281e-03
3.960661743687012015e-03
5.381700438323350384e-03
7.316514444699081902e-03
7.223473326867816888e-03
5.878872095017411738e-03
3.274260805704788668e-03
-1.820544434159465869e-03
-6.952358354699328565e-03
-1.069344865094654616e-02
-1.521785986660995418e-02
-1.606649133202534691e-02
-1.129883489033453592e-02
-3.939667071453938248e-03
2.127003395272955566e-03
6.562480919313560049e-03
9.649383477074420859e-03
7.382737316907341842e-03
5.635507605502860194e-03
5.489907571309900029e-03
5.511353281438763872e-03
5.554429107152038594e-03
3.863578393211289375e-03
2.419144662029083705e-03
1.457150215607598770e-03
5.549238256488129087e-04
-3.026362164005365167e-03
-4.858085907250809903e-03
-4.155180246687514671e-03
-2.839999657222210851e-03
-4.609911700726307231e-03
-7.753923376459788928e-03
-1.094559560978289846e-02
-8.208518872559656190e-03
-1.283479656977683757e-03
3.409882698740557966e-03
5.588899718725975907e-03
5.137441820201034230e-03
5.442704812558167050e-03
7.121302754514765264e-03
6.631987628419899229e-03
4.658920938408749567e-03
2.904027910346110124e-03
1.190006453030504133e-03
-8.538085037011556092e-04
-5.756417908061577538e-04
-1.289718048683866428e-03
-1.426900089995058324e-03
-4.700611509730777599e-04
-1.381389486815591539e-03
-7.234236597678708400e-03
-1.021941088517732028e-02
-8.427480834006668628e-03
-5.546670315162567991e-03
-2.021358740386383288e-03
3.255905802303595432e-03
6.366259909366839623e-03
4.907248241922341006e-03
3.620918405339034786e-03
4.001136988161589636e-03
4.739787546422844118e-03
4.007965349480191800e-03
3.268339133137805781e-03
3.005821936963290475e-03
2.888678988074622547e-03
2.696410582097216128e-03
-7.150051726522014574e-04
-3.782611911286680624e-03
-3.235895174223990187e-03
-3.556016089683292428e-03
-6.279260789798389066e-03
-8.613112800097780589e-03
-8.160424805066309947e-03
-4.292250404648195218e-03
-7.483000145623083105e-04
1.982434278996670317e-03
4.205445033998745155e-03
4.867903185631686051e-03
3.525214230380393186e-03
2.156511140453730956e-03
2.405098059753602718e-03
3.433041662515928794e-03
5.883661080424441511e-03
6.541048641304519733e-03
3.370269574800590761e-03
7.146493748240922636e-04
-7.620809959889096683e-04
-1.313979932415108073e-03
-3.012355498129782195e-03
-5.153080692617308979e-03
-7.601116404680439108e-03
-8.646111197477079555e-03
-7.746080550744713529e-03
-6.140970423597381066e-03
-3.809998554102209632e-03
2.344949547916392197e-03
6.884069503633127862e-03
5.117610114707980828e-03
2.546169353311712388e-03
1.414772605166862707e-03
3.445525855688438138e-03
6.929644682748867419e-03
7.945498927915840143e-03
7.533956361035809395e-03
8.352365655306000919e-03
7.214685661067679959e-03
-2.712187312413215050e-06
-6.433937511271701007e-03
-1.021842540465001288e-02
-1.295049411815697542e-02
-1.462415523754376397e-02
-1.163754546188199186e-02
-8.080599859166419374e-03
-4.144461789608864730e-03
2.796261286613144215e-03
6.566036024046858176e-03
7.117205930469330637e-03
7.299651465248419534e-03
7.953798193728529517e-03
6.517095290455929800e-03
4.333786681531149286e-03
4.816108636211900371e-03
4.898946664502140322e-03
2.980373248340589983e-03
-4.556972377571030385e-04
-1.602209623324690963e-03
-2.769567575425133880e-03
-3.820127091220431800e-03
-4.437313818951233238e-03
-4.566390480189208741e-03
-6.385613769747773387e-03
-9.111201884846943308e-03
-9.149355583468720896e-03
-4.832445377680231156e-03
-2.458678737817248544e-04
3.147242128544177221e-03
5.875297472399882912e-03
8.911084451019414196e-03
8.158321052810987850e-03
4.963927594412742041e-03
2.596123871272824381e-03
2.118912423830758389e-03
1.170562697136695585e-03
9.878885242526830660e-04
2.907444057903218158e-03
3.038615232052303307e-03
-1.920506348800677353e-03
-3.373477963339433557e-03
-2.168577399772607037e-03
-3.393576275641516267e-03
-5.679957786015865477e-03
-6.380442557346719182e-03
-6.598859770470915688e-03
-7.070975846498118306e-03
-4.202266052015951950e-03
1.833371619675671759e-03
4.637155708136519484e-03
5.301397616263135368e-03
3.999037424543338409e-03
3.171651272913143631e-03
4.616753028216933480e-03
5.816326176364123093e-03
5.578089743861956024e-03
3.731055236253063602e-03
2.199480777105914525e-03
2.829109392785653944e-04
-2.125880848092334338e-03
-2.999450916803931676e-03
-3.042656403308157190e-03
-4.304856330332181014e-03
-5.590679984502877967e-03
-7.640585187624367516e-03
-9.008621157204651717e-03
-5.912984374238415899e-03
7.364764239603466614e-04
4.714515497355208085e-03
3.924857449204739723e-03
3.891833759495758743e-03
3.399720884678238825e-03
2.717160381971110705e-03
4.043388098202385650e-03
4.633732117528865761e-03
3.969178534857669728e-03
2.690641275861186017e-03
3.674991523350306082e-03
3.959910696390530824e-03
7.111401195160607560e-04
-3.571973587983156943e-03
-5.614622357916685541e-03
-5.621286362630252727e-03
-5.887202913195123052e-03
-7.125472979832182287e-03
-8.919274730217719230e-03
-7.433316587855629334e-03
1.545692422492391048e-04
6.029068790093477029e-03
4.539852699700802109e-03
4.086703254911448410e-03
4.824903808090212978e-03
3.533302645322659342e-03
2.605252796839715480e-03
3.174475264522024463e-03
4.043740370259388782e-03
2.449198156713578833e-03
2.153136115648376231e-03
2.161986164360701120e-03
-2.097166386544461775e-04
-2.764053520354182308e-03
-3.135704981882756100e-03
-3.661574982015570329e-03
-5.571879433596813903e-03
-7.762721750919400650e-03
-8.014834586776686462e-03
-6.353767849994032373e-03
-1.853991942028091530e-03
3.533347899013876848e-03
5.727037210669840873e-03
5.212599719045258283e-03
4.125196363892550018e-03
2.878668830753853755e-03
3.510715395435083305e-03
4.183348427732933202e-03
4.064061372736557654e-03
4.092345681183507007e-03
3.936920132730568726e-03
2.619245122584020705e-03
-1.012652921010586109e-03
-3.382485827778548143e-03
-4.101839623870469527e-03
-6.410689373104783845e-03
-9.534263831516879076e-03
-1.035262138171347789e-02
-8.585384538881114802e-03
-5.116896515222896583e-03
1.351890188620568506e-03
7.270667000418594601e-03
8.037985634698421519e-03
7.292549752219146079e-03
8.200625143471739278e-03
7.493750117300974033e-03
5.990529589300218512e-03
1.270678662173539870e-03
-4.997934895257673434e-03
-7.968056595949627591e-03
-6.776551219377037819e-03
-3.923768256625989777e-03
6.858247228037975263e-04
3.953568054284317679e-03
3.865561515504410423e-03
2.855107934925067009e-03
1.855825444165760778e-03
-2.136374131237086648e-03
-6.449325131152672599e-03
-8.838033410206624224e-03
-4.894526001590866933e-03
-2.607746868505162624e-04
1.874222295432683783e-03
1.831425641859302927e-03
2.361020206385453998e-03
2.831637364472577682e-03
1.964873950706782623e-03
8.786864474939265132e-04
1.248827171200439772e-03
2.711973869911305651e-03
4.239910566139983364e-03
3.838437235459993616e-03
4.506879025052961535e-03
3.416493547155757815e-03
-1.055745791648005256e-03
-2.138630895523836815e-03
-1.738807728652111938e-03
-1.574244371236818013e-03
-5.906666314672502985e-03
-1.085015887940164216e-02
-1.230098225584010281e-02
-7.616763474506207249e-03
-5.065231426034750781e-04
2.923598484877533866e-03
4.834737663615571758e-03
5.870641867288418393e-03
6.969715630336568123e-03
7.517220665276996491e-03
4.874635949957789073e-03
3.069351167399691008e-03
3.026759151371724577e-03
2.420835806593690364e-03
1.022906654492739377e-03
-9.648486008357630081e-04
-1.979105864964610453e-03
-1.978724787929376540e-03
-3.039515659165419742e-03
-4.610371772488218618e-03
-5.333743613156661893e-03
-7.159367713379422189e-03
-6.950743465295640237e-03
-4.881715753850900986e-03
-1.241428619034628828e-03
2.941404165758512712e-03
4.508903035656280749e-03
4.259149057306309272e-03
4.335084902738914336e-03
4.241774800365697567e-03
4.802601803553963045e-03
4.490075759417983849e-03
3.085989159617635435e-03
1.990514814004570865e-03
8.732083107854094438e-04
8.903911859485700523e-04
2.754004546282376432e-04
-6.080379978609610353e-04
-1.994449434397020660e-03
-4.394233933257750586e-03
-6.290148514437684905e-03
-6.415089785540169058e-03
-7.103018279062665342e-03
-8.031961781979445394e-03
-4.093187117309265467e-03
2.391543372465983718e-03
5.928421596555857355e-03
5.616626920349272051e-03
3.757945094647915756e-03
3.094376910447877924e-03
3.590711410182993377e-03
4.714394069912093699e-03
6.041360193884516040e-03
2.526218608825977693e-03
-8.127871940493513580e-05
1.345231470001874994e-03
9.124261876488827961e-04
-7.144718821518072742e-04
-3.468539235765993184e-03
-5.731062980864620737e-03
-6.914298053791731631e-03
-7.759110070162985283e-03
-7.280584775662605861e-03
-4.754340455523953755e-03
-2.965266125731870741e-05
4.169445247243251836e-03
4.822522982567889124e-03
3.631434046882479894e-03
1.663020911191520970e-03
1.470670162790899127e-03
3.420650279637289792e-03
4.921046862165995815e-03
3.928929172080594841e-03
4.902802183356970607e-03
5.991968469757308867e-03
2.405827550612221321e-03
-2.432672786591151895e-03
-3.582208110413178954e-03
-3.262065903807002953e-03
-3.051848153377975485e-03
-4.181087569219464964e-03
-8.127788735281631094e-03
-1.020347480839351069e-02
-7.792278709395772732e-03
-3.560476202150038814e-03
2.314338410009454325e-03
6.024246222305114015e-03
5.911968287143758508e-03
5.504144801318821070e-03
5.560243900395145898e-03
3.143629939971998889e-03
2.446289737139614034e-03
3.645859496417512557e-03
3.822247503229737366e-03
4.287780600783577985e-03
2.357649767128730620e-03
-1.922781862199815592e-03
-3.473656025048162642e-03
-3.456344540347575794e-03
-4.986391068829234587e-03
-7.628767699257748766e-03
-8.763751355473092114e-03
-7.399616152114248634e-03
-3.565718065844202325e-03
3.051984318625764760e-04
4.246306853789320532e-03
5.247694750795075212e-03
3.951940025138833863e-03
3.722285295193646093e-03
2.846186971417933621e-03
4.136867352113591557e-03
4.398296541632942813e-03
2.663144443185977601e-03
3.399569225036639351e-03
2.481036183697766032e-03
1.672476779853565565e-04
-2.696295267474915509e-03
-3.899652167923871836e-03
-3.209395016640623211e-03
-3.574697783585769131e-03
-5.163981159826296075e-03
-5.356184102183206286e-03
