1.890509441002933555e-01
1.978032299164875496e-01
2.058913335854968552e-01
2.132982881812106879e-01
2.200134468965811996e-01
2.260325650352722204e-01
2.313577783615548278e-01
2.359974804336052168e-01
2.399661032980359154e-01
2.432838074810565465e-01
2.459760884942754078e-01
2.480733083788001780e-01
2.496101617836225528e-01
2.506250870672185882e-01
2.511596335468840868e-01
2.512577963121374602e-01
2.509653306934929717e-01
2.503290579542387095e-01
2.493961741319132286e-01
2.482135733215256879e-01
2.468271963084726350e-01
2.452814146499008030e-01
2.436184593399536025e-01
2.418779025281627970e-01
2.400961993841675135e-01
2.383062959361383348e-01
2.365373076969233823e-01
2.348142721803431754e-01
2.331579774113734516e-01
2.315848670779448726e-01
2.301070214163567496e-01
2.287322119545492638e-01
2.274640268557216183e-01
2.263020624392632629e-01
2.252421755289165661e-01
2.242767903761252735e-01
2.233952530284549765e-01
2.225842254816250976e-01
2.218281114716249003e-01
2.211095053704945912e-01
2.204096556498157389e-01
2.197089341544240237e-01
2.189873027447458709e-01
2.182247691099172549e-01
2.174018238991765883e-01
2.164998520897487011e-01
2.155015119096902743e-01
2.143910756212461799e-01
2.131547271970772039e-01
2.117808129522926464e-01
2.102600419984957114e-01
2.085856345232018627e-01
2.067534167638022669e-01
2.047618627253992296e-01
2.026120835200629078e-01
2.003077661014889266e-01
1.978550641421777945e-01
1.952624445059934211e-01
1.925404935910285387e-01
1.897016883250365604e-01
1.867601370274342421e-01
1.837312960654280403e-01
1.806316681845879235e-01
1.774784886306082776e-01
1.742894054128924231e-01
1.710821598666182330e-01
1.678742733184920011e-01
1.646827457525890659e-01
1.615237716885772057e-01
1.584124781417799444e-01
1.553626889412736412e-01
1.523867191985250891e-01
1.494952028059390592e-01
1.466969554813073173e-01
1.439988748644617234e-01
1.414058785282736319e-01
1.389208801177858610e-01
1.365448030463329299e-01
1.342766303902027114e-01
1.321134892648590520e-01
1.300507670557794759e-01
1.280822564872594882e-01
1.262003261383898567e-01
1.243961125314010790e-01
1.226597294887016160e-01
1.209804905725616886e-01
1.193471399937877236e-01
1.177480874170649394e-01
1.161716422710026009e-01
1.146062430270269744e-01
1.130406774682030102e-01
1.114642899622336619e-01
1.098671721556139930e-01
1.082403340192280711e-01
1.065758525763429859e-01
1.048669960401445445e-01
1.031083217375646788e-01
1.012957466468728251e-01
9.942659005502889336e-02
9.749958815173634386e-02
9.551488115571703241e-02
9.347397386499176064e-02
9.137967114394875134e-02
8.923599031632158118e-02
8.704805257109743399e-02
8.482195624179698912e-02
8.256463471036118440e-02
8.028370209210779207e-02
7.798728999055817845e-02
7.568387864453604563e-02
7.338212595105245151e-02
7.109069759803049449e-02
6.881810155260634221e-02
6.657253001266215386e-02
6.436171166603749105e-02
6.219277678603513104e-02
6.007213747254470937e-02
5.800538499402854015e-02
5.599720562580472183e-02
5.405131636279385254e-02
5.217042113289620947e-02
5.035618772632757811e-02
4.860924565469827013e-02
4.692920424738324797e-02
4.531469016819567736e-02
4.376340323899510776e-02
4.227218898138600939e-02
4.083712610512984370e-02
3.945362683629569794e-02
3.811654789515830227e-02
3.682030969145944077e-02
3.555902121990461157e-02
3.432660821808817403e-02
3.311694182266163022e-02
3.192396536327146012e-02
3.074181685271281869e-02
2.956494484533415956e-02
2.838821558509866880e-02
2.720700964846436629e-02
2.601730621465455848e-02
2.481575383028940956e-02
2.359972640408431604e-02
2.236736375312292288e-02
2.111759620687064798e-02
1.985015315281287926e-02
1.856555554465484995e-02
1.726509306239580252e-02
1.595078644009164173e-02
1.462533613524331401e-02
1.329205851515743303e-02
1.195481102871075174e-02
1.061790800158573557e-02
9.286028853419722034e-03
7.964120648629143331e-03
6.657296822002617930e-03
5.370734282213071760e-03
4.109570689820062073e-03
2.878803891362731113e-03
1.683195436613547794e-03
5.271798844566920371e-04
-5.852185478622608543e-04
-1.650460498757948648e-03
-2.665555909039482151e-03
-3.628117429546975393e-03
-4.536401875873205362e-03
-5.389339337618198091e-03
-6.186549481250528532e-03
-6.928344995969893706e-03
-7.615722369644206853e-03
-8.250340469519138950e-03
-8.834487358317016925e-03
-9.371036362531505806e-03
-9.863392163447127700e-03
-1.031542833401308951e-02
-1.073141735176883459e-02
-1.111595472056180374e-02
-1.147387848120346061e-02
-1.181018582840858387e-02
-1.212994827822354640e-02
-1.243822690181677938e-02
-1.273998926483764678e-02
-1.304002941889629251e-02
-1.334289234657124248e-02
-1.365280408823730564e-02
-1.397360872897736479e-02
-1.430871312276073108e-02
-1.466104022640786660e-02
-1.503299171773474739e-02
-1.542642029737518322e-02
-1.584261195338974512e-02
-1.628227820724145042e-02
-1.674555839531542342e-02
-1.723203164535445225e-02
-1.774073805239561805e-02
-1.827020854664511765e-02
-1.881850265161442298e-02
-1.938325327619118757e-02
-1.996171769625045000e-02
-2.055083353222766918e-02
-2.114727870382486843e-02
-2.174753414312378952e-02
-2.234794822010819845e-02
-2.294480158215642801e-02
-2.353437130804672192e-02
-2.411299326886165439e-02
-2.467712175077121234e-02
-2.522338522301561733e-02
-2.574863747419885163e-02
-2.625000338165940292e-02
-2.672491867035168764e-02
-2.717116306110426566e-02
-2.758688647410205419e-02
-2.797062807555301955e-02
-2.832132807166087840e-02
-2.863833218451664747e-02
-2.892138905251428332e-02
-2.917064076269620249e-02
-2.938660695827486138e-02
-2.957016300074203144e-02
-2.972251273647592493e-02
-2.984515656572557171e-02
-2.993985562582300586e-02
-3.000859270006956195e-02
-3.005353072928663299e-02
-3.007696984952053232e-02
-3.008130369737789869e-02
-3.006897578667351231e-02
-3.004243676981943612e-02
-3.000410333467674884e-02
-2.995631945339399804e-02
-2.990132060512367199e-02
-2.984120149935040600e-02
-2.977788774293460561e-02
-2.971311192297389214e-02
-2.964839433191353638e-02
-2.958502848971135413e-02
-2.952407166972064595e-02
-2.946634033731709498e-02
-2.941241046170694692e-02
-2.936262248791566068e-02
-2.931709067024918999e-02
-2.927571654654687744e-02
-2.923820604739814366e-02
-2.920408980387921224e-02
-2.917274612124413566e-02
-2.914342613147129224e-02
-2.911528056017970156e-02
-2.908738744301721593e-02
-2.905878027168920519e-02
-2.902847595690391524e-02
-2.899550203155551800e-02
-2.895892261957731459e-02
-2.891786266042737849e-02
-2.887152988360276729e-02
-2.881923426759974705e-02
-2.876040449474018615e-02
-2.869460119753327459e-02
-2.862152686688113762e-02
-2.854103215228965054e-02
-2.845311859297006835e-02
-2.835793769030669001e-02
-2.825578648016074598e-02
-2.814709974327072456e-02
-2.803243897914007438e-02
-2.791247844924225896e-02
-2.778798864040412861e-02
-2.765981736024742191e-02
-2.752886903908974628e-02
-2.739608253703798568e-02
-2.726240797172445676e-02
-2.712878285971486239e-02
-2.699610825251149912e-02
-2.686522514604837431e-02
-2.673689170810719662e-02
-2.661176171225944007e-02
-2.649036460021555670e-02
-2.637308749081912138e-02
-2.626015957021357941e-02
-2.615163905442127734e-02
-2.604740296517314702e-02
-2.594713996981139192e-02
-2.585034639505262924e-02
-2.575632549278119784e-02
-2.566419002189903459e-02
-2.557286802377641693e-02
-2.548111186624024693e-02
-2.538751022989068490e-02
-2.529050302790105884e-02
-2.518839896778819754e-02
-2.507939546386487792e-02
-2.496160064837547876e-02
-2.483305707783422384e-02
-2.469176680528722273e-02
-2.453571751082057883e-02
-2.436290913987004814e-02
-2.417138077654604200e-02
-2.395923732772611836e-02
-2.372467557176165601e-02
-2.346600920244275995e-02
-2.318169252414518933e-02
-2.287034242547663146e-02
-2.253075829295701077e-02
-2.216193961309834148e-02
-2.176310097744065322e-02
-2.133368424156648763e-02
-2.087336772759198003e-02
-2.038207230704634429e-02
-1.985996427621085011e-02
-1.930745487609579134e-02
-1.872519665511993350e-02
-1.811407661812748995e-02
-1.747520624502296033e-02
-1.680990848786491354e-02
-1.611970200094500413e-02
-1.540628283489143234e-02
-1.467150367801307344e-02
-1.391735105048703611e-02
-1.314592077203660149e-02
-1.235939198139664012e-02
-1.156000006436823900e-02
-1.075000893028408601e-02
-9.931682783134082593e-03
-9.107257971156921053e-03
-8.278915246203777389e-03
-7.448752751630270501e-03
-6.618760142468437663e-03
-5.790794008876287875e-03
-4.966555215365498974e-03
-4.147568183215184258e-03
-3.335162526699552051e-03
-2.530457220435231112e-03
-1.734347484998604227e-03
-9.474945683587178424e-04
-1.703186156468039947e-04
5.970053407194662659e-04
1.354548269419549944e-03
2.102624850301538801e-03
2.841788063041103627e-03
3.572820733773596127e-03
4.296724103143019328e-03
5.014703630499051969e-03
5.728152276521422323e-03
6.438631330562386706e-03
7.147849180659328165e-03
7.857638209790544434e-03
8.569930211340595974e-03
9.286730559151485515e-03
1.001009154977400110e-02
1.074208518698379668e-02
1.148477580015356408e-02
1.224019291709582680e-02
1.301030462112201525e-02
1.379699181515380013e-02
1.460202370857657458e-02
1.542703482576443172e-02
1.627350387428924683e-02
1.714273468366890943e-02
1.803583951841981892e-02
1.895372490998126214e-02
1.989708021025300699e-02
2.086636913063679225e-02
2.186182417199668271e-02
2.288344404252381017e-02
2.393099418349834903e-02
2.500401039526239585e-02
2.610180538540585182e-02
2.722347816131800644e-02
2.836792623540844091e-02
2.953386036740646842e-02
3.071982164433403190e-02
3.192420069546375583e-02
3.314525870576960631e-02
3.438115009892128704e-02
3.562994633028702951e-02
3.688966065650076814e-02
3.815827338010913117e-02
3.943375740821328940e-02
4.071410358071197305e-02
4.199734548712167476e-02
4.328158343441315670e-02
4.456500725286673820e-02
4.584591759482721518e-02
4.712274540126920597e-02
4.839406925301165119e-02
4.965863050124696282e-02
5.091534577314744958e-02
5.216331675813527802e-02
5.340183715446133322e-02
5.463039666737464634e-02
5.584868192220948657e-02
5.705657443406775275e-02
5.825414554362572800e-02
5.944164831200865473e-02
6.061950665404405164e-02
6.178830173544769266e-02
6.294875588798240496e-02
6.410171421259863722e-02
6.524812414543323946e-02
6.638901326874437070e-02
6.752546565575369419e-02
6.865859716262666390e-02
6.978952985307579349e-02
7.091936607260365677e-02
7.204916239951286716e-02
7.317990396096457628e-02
7.431247936370102836e-02
7.544765674374667719e-02
7.658606099748507812e-02
7.772815288847921555e-02
7.887421006295416981e-02
8.002431032296085378e-02
8.117831737938691061e-02
8.233586934667014301e-02
8.349637011193251912e-02
8.465898369429560033e-02
8.582263176669348292e-02
8.698599425084860282e-02
8.814751316878489951e-02
8.930539955261869445e-02
9.045764340818640559e-02
9.160202659350473453e-02
9.273613848546562177e-02
9.385739415956466380e-02
9.496305494694641525e-02
9.605025099473679662e-02
9.711600563015114485e-02
9.815726112577093099e-02
9.917090554741632424e-02
1.001538003921511877e-01
1.011028085822523043e-01
1.020148224082260829e-01
1.028867911569290861e-01
1.037157480272892646e-01
1.044988359192776939e-01
1.052333318228706183e-01
1.059166693751419225e-01
1.065464594659186193e-01
1.071205085359025755e-01
1.076368342528665201e-01
1.080936784762949882e-01
1.084895173068169544e-01
1.088230681469001121e-01
1.090932935796864733e-01
1.092994021836750512e-01
1.094408462299914508e-01
1.095173161908207377e-01
1.095287323688068221e-01
1.094752336850589036e-01
1.093571637779372496e-01
1.091750546742158851e-01
1.089296082647646935e-01
1.086216759412236971e-01
1.082522366008171061e-01
1.078223733423540054e-01
1.073332493482812428e-01
1.067860832015681272e-01
1.061821240266241362e-01
1.055226268295787473e-01
1.048088284969649203e-01
1.040419247000117647e-01
1.032230481017612778e-01
1.023532482700998808e-01
1.014334734895212253e-01
1.004645548480779943e-01
9.944719280891481383e-02
9.838194650290277288e-02
9.726922592674763779e-02
9.610928718171017626e-02
9.490223082102212937e-02
9.364800339318468669e-02
9.234640212432727868e-02
9.099708278612557433e-02
8.959957049177878774e-02
8.815327350984288046e-02
8.665749969826239130e-02
8.511147552180771403e-02
8.351436722119889855e-02
8.186530394165757174e-02
8.016340248955985959e-02
7.840779329932792696e-02
7.659764729164227071e-02
7.473220318767384573e-02
7.281079485715298560e-02
7.083287840087781895e-02
6.879805839079869423e-02
6.670611302988428692e-02
6.455701762068664917e-02
6.235096622917067621e-02
6.008839097155418973e-02
5.776997867796647423e-02
5.539668470492981056e-02
5.296974355632381309e-02
5.049067614001365167e-02
4.796129345829339141e-02
4.538369662990122955e-02
4.276027317747221196e-02
4.009368964341140928e-02
3.738688044433176316e-02
3.464303310621368731e-02
3.186557005984093360e-02
2.905812713396655617e-02
2.622452897204151714e-02
2.336876182108992353e-02
2.049494376944652890e-02
1.760729299768696438e-02
1.471009434467883924e-02
1.180766459861060623e-02
8.904317075492083206e-03
6.004325824490891819e-03
3.111890009422732962e-03
2.310988946470903535e-04
-2.634102043650926334e-03
-5.479943418880177212e-03
-8.302862275430493780e-03
-1.109953001996159816e-02
-1.386687750633704835e-02
-1.660211694501327606e-02
-1.930276033375369696e-02
-2.196663415371593459e-02
-2.459189010062769534e-02
-2.717701173530367650e-02
-2.972081683963979579e-02
-3.222245552149665543e-02
-3.468140403380814279e-02
-3.709745449828365238e-02
-3.947070046283199934e-02
-4.180151860759929311e-02
-4.409054693622423832e-02
-4.633865950917000209e-02
-4.854693833546875475e-02
-5.071664263428293101e-02
-5.284917586269849421e-02
-5.494605122298018562e-02
-5.700885583183763067e-02
-5.903921429527646259e-02
-6.103875209726860457e-02
-6.300905934126130314e-02
-6.495165538702431240e-02
-6.686795492286327913e-02
-6.875923589403268310e-02
-7.062660985139154746e-02
-7.247099500474737943e-02
-7.429309262843668271e-02
-7.609336691575196987e-02
-7.787202867747698709e-02
-7.962902323226761503e-02
-8.136402250648130940e-02
-8.307642155463726419e-02
-8.476533955703238754e-02
-8.642962536271708851e-02
-8.806786732936952578e-02
-8.967840746691871368e-02
-9.125935972548900044e-02
-9.280863198093354527e-02
-9.432395151305482395e-02
-9.580289370933277315e-02
-9.724291337661650214e-02
-9.864137834987908582e-02
-9.999560479419217218e-02
-1.013028937718798150e-01
-1.025605684722748767e-01
-1.037660116531659155e-01
-1.049167026134276148e-01
-1.060102531459768682e-01
-1.070444420491557524e-01
-1.080172475473256677e-01
-1.089268772095398213e-01
-1.097717949090823847e-01
-1.105507444040092074e-01
-1.112627691478645792e-01
-1.119072280109001116e-01
-1.124838067662163182e-01
-1.129925250985973767e-01
-1.134337389861203860e-01
-1.138081384567630472e-01
-1.141167407224703417e-01
-1.143608787566430945e-01
-1.145421856014330192e-01
-1.146625744534399277e-01
-1.147242149647905718e-01
-1.147295059645196402e-01
-1.146810451769834927e-01
-1.145815962192409387e-01
-1.144340534872678727e-01
-1.142414053863630152e-01
-1.140066964542650468e-01
-1.137329890112837444e-01
-1.134233247553200485e-01
-1.130806871326704433e-01
-1.127079647202207519e-01
-1.123079163851875700e-01
-1.118831387962588159e-01
-1.114360365181840395e-01
-1.109687953204019362e-01
-1.104833590754609879e-01
-1.099814105889471705e-01
-1.094643565552563258e-01
-1.089333169371004134e-01
-1.083891188710467135e-01
-1.078322952752140684e-01
-1.072630880045581797e-01
-1.066814556085196181e-01
-1.060870855748916597e-01
-1.054794107870291736e-01
-1.048576299312900667e-01
-1.042207315869974477e-01
-1.035675215247728737e-01
-1.028966528958732279e-01
-1.022066587354617667e-01
-1.014959863260664064e-01
-1.007630328310466783e-01
-1.000061817213783733e-01
-9.922383934940690042e-02
-9.841447111826413796e-02
-9.757663666980463668e-02
-9.670902361511629630e-02
-9.581047916208738913e-02
-9.488003929699548311e-02
-9.391695492983113958e-02
-9.292071465667366137e-02
-9.189106377051174668e-02
-9.082801931778108906e-02
-8.973188086533667729e-02
-8.860323674210783540e-02
-8.744296585502919772e-02
-8.625223500847610525e-02
-8.503249164547224681e-02
-8.378545229878514577e-02
-8.251308676320888436e-02
-8.121759830830584115e-02
-7.990140042472727855e-02
-7.856709011760633354e-02
-7.721741845366530965e-02
-7.585525873559476051e-02
-7.448357268627717187e-02
-7.310537535356920191e-02
-7.172369911588302727e-02
-7.034155750711040822e-02
-6.896190921454631306e-02
-6.758762297353992921e-02
-6.622144381910102795e-02
-6.486596123115710710e-02
-6.352357963135268903e-02
-6.219649167830441222e-02
-6.088665480281766490e-02
-5.959577121867706134e-02
-5.832527186948890247e-02
-5.707630434449281059e-02
-5.584972508365058236e-02
-5.464609583955049726e-02
-5.346568459589654682e-02
-5.230847072892509664e-02
-5.117415437650520843e-02
-5.006216982451649339e-02
-4.897170273592599266e-02
-4.790171085780610405e-02
-4.685094790301332773e-02
-4.581799019024429542e-02
-4.480126557019364214e-02
-4.379908428278314614e-02
-4.280967111365202582e-02
-4.183119843083508288e-02
-4.086181957639394707e-02
-3.989970203447811697e-02
-3.894305988444828753e-02
-3.799018499508179797e-02
-3.703947662060949608e-02
-3.608946877191090280e-02
-3.513885502687529722e-02
-3.418651046921927089e-02
-3.323151030260741018e-02
-3.227314501187289464e-02
-3.131093176029309949e-02
-3.034462194353540476e-02
-2.937420483537737589e-02
-2.839990720719804199e-02
-2.742218907800149721e-02
-2.644173559909052118e-02
-2.545944536937514574e-02
-2.447641525561812179e-02
-2.349392216175231335e-02
-2.251340195388354046e-02
-2.153642592788835089e-02
-2.056467528700053893e-02
-1.959991404347558377e-02
-1.864396073882944316e-02
-1.769865956688177269e-02
-1.676585128985446510e-02
-1.584734443071757551e-02
-1.494488730573254910e-02
-1.406014120520810914e-02
-1.319465530986680367e-02
-1.234984363424587381e-02
-1.152696439394007046e-02
-1.072710208282533391e-02
-9.951152564270423356e-03
-9.199811420392143418e-03
-8.473565594422719990e-03
-7.772688582151478752e-03
-7.097239162237162051e-03
-6.447063618664132349e-03
-5.821801457277992961e-03
-5.220894372403317614e-03
-4.643598377612833013e-03
-4.088998851680132607e-03
-3.556028127249858360e-03
-3.043485459980258163e-03
-2.550058834036537329e-03
-2.074348385212997515e-03
-1.614890848676417238e-03
-1.170184773642303543e-03
-7.387160258332196167e-04
-3.189829947977704076e-04
9.047875117910925472e-05
4.910728636300186857e-04
8.841200504759824013e-04
1.270837673954468110e-03
1.652321579113392872e-03
2.029530305626681391e-03
2.403272097841294228e-03
2.774194716491240262e-03
3.142778311489248175e-03
3.509331582192725535e-03
3.873991036381626250e-03
4.236723513244336319e-03
4.597331831589499158e-03
4.955463455430532058e-03
5.310622039788566624e-03
5.662181520056858326e-03
6.009402679114995635e-03
6.351451694829763316e-03
6.687420423494952124e-03
7.016348064277929709e-03
7.337243714168498882e-03
7.649109538543354299e-03
7.950964028934456862e-03
8.241864962812791087e-03
8.520931704064418563e-03
8.787366369437006608e-03
9.040473462296165150e-03
9.279677774417828540e-03
9.504539986908039015e-03
9.714769913226298237e-03
9.910237007471343548e-03
1.009097800166422303e-02
1.025720142514219800e-02
1.040928909668199960e-02
1.054779432217138255e-02
1.067343698848689099e-02
1.078709554682824243e-02
1.088979599603759167e-02
1.098269807597413751e-02
1.106707886264320963e-02
1.114431407975510768e-02
1.121585731094365199e-02
1.128321769930669231e-02
1.134793617362624650e-02
1.141156090253472692e-02
1.147562218861151138e-02
1.154160730465979452e-02
1.161093569036399792e-02
1.168493494403140959e-02
1.176481799628933955e-02
1.185166183431968223e-02
1.194638817638873397e-02
1.204974641460651412e-02
1.216229920117626109e-02
1.228441080833091170e-02
1.241623852437179210e-02
1.255772730517701330e-02
1.270860774586072238e-02
1.286839736510589360e-02
1.303640537218436063e-02
1.321174064238947454e-02
1.339332300347788156e-02
1.357989748390143678e-02
1.377005154372560637e-02
1.396223473565048195e-02
1.415478073534916573e-02
1.434593134733706289e-02
1.453386204432957976e-02
1.471670869035922140e-02
1.489259502286238018e-02
1.505966053345681593e-02
1.521608820600371496e-02
1.536013175233304912e-02
1.549014185340213262e-02
1.560459104952203330e-02
1.570209693234671591e-02
1.578144316057769267e-02
1.584159807911649648e-02
1.588173052524638820e-02
1.590122275217605019e-02
1.589968014704134028e-02
1.587693759186916201e-02
1.583306246425503910e-02
1.576835416166176562e-02
1.568334007865113122e-02
1.557876834957287564e-02
1.545559727608744084e-02
1.531498168757881168e-02
1.515825636464527421e-02
1.498691692410188125e-02
1.480259844154793898e-02
1.460705203114607588e-02
1.440211988922181045e-02
1.418970909962721447e-02
1.397176468817205169e-02
1.375024226989383751e-02
1.352708079364056334e-02
1.330417575018337344e-02
1.308335321967919393e-02
1.286634521604836101e-02
1.265476668067058025e-02
1.245009444086257397e-02
1.225364850876224480e-02
1.206657591438248939e-02
1.188983736710024636e-02
1.172419682584340504e-02
1.157021422987346282e-02
1.142824138003254927e-02
1.129842107444631837e-02
1.118068947355580281e-02
1.107478151622580745e-02
1.098023934776922068e-02
1.089642365807987935e-02
1.082252764688972253e-02
1.075759327256175027e-02
1.070052967922699091e-02
1.065013334519664123e-02
1.060510969998262019e-02
1.056409578067402967e-02
1.052568360783827373e-02
1.048844380833913528e-02
1.045094927102964942e-02
1.041179826036329505e-02
1.036963672014651512e-02
1.032317941788453951e-02
1.027122958646255191e-02
1.021269683413487256e-02
1.014661289602420031e-02
1.007214509598853419e-02
9.988607444842862240e-03
9.895469023806511069e-03
9.792359662301941201e-03
9.679072800396612206e-03
9.555565627962083614e-03
9.421956434048825088e-03
9.278519347254517505e-03
9.125676510997727739e-03
8.963987879334708864e-03
8.794138826598765085e-03
8.616925904173761142e-03
8.433240853815799146e-03
8.244053321292094810e-03
8.050392539143649828e-03
7.853328260308583414e-03
7.653951301327983382e-03
7.453354090846109857e-03
7.252611439224563791e-03
7.052761959138437349e-03
6.854790394705904608e-03
6.659611242628671671e-03
6.468053798375723688e-03
6.280848969461659721e-03
6.098618008246577994e-03
5.921863412709301930e-03
5.750961981028378939e-03
5.586160327877867822e-03
5.427572797627215444e-03
5.275181764929791697e-03
5.128840326742585207e-03
4.988277329107814080e-03
4.853104623777098996e-03
4.722826372221340836e-03
4.596850253229939169e-03
4.474500345029197232e-03
4.355031424320766550e-03
4.237644549025128791e-03
4.121503482715304680e-03
4.005751705350222777e-03
3.889529756610101471e-03
3.771992589800077320e-03
3.652326654780174535e-03
3.529766393638322612e-03
3.403609787438466577e-03
3.273232872369583740e-03
3.138102778796112054e-03
2.997789224029922921e-03
2.851974172593846942e-03
2.700459598680809460e-03
2.543173122940718504e-03
2.380171451451540150e-03
2.211641595873822374e-03
2.037899912992842920e-03
1.859388813928189183e-03
1.676671390991804058e-03
1.490423956585027387e-03
1.301426649619697069e-03
1.110552238408832717e-03
9.187533586666061982e-04
7.270483829879575326e-04
5.365061249154195501e-04
3.482297143746383586e-04
1.633398352532727988e-04
-1.704240085647357127e-05
-1.918125988956116505e-04
-3.599000487387747551e-04
-5.202841185811091056e-04
-6.720099887363165580e-04
-8.142033186328057927e-04
-9.460836352878572745e-04
-1.066976340746965662e-03
-1.176323032885434345e-03
-1.273690037353497964e-03
-1.358774953256771355e-03
-1.431411255720471112e-03
-1.491570809004509873e-03
-1.539364247626643896e-03
-1.575039241725874860e-03
-1.598976773478563316e-03
-1.611685246794640784e-03
-1.613792896150697664e-03
-1.606038385326276482e-03
-1.589259795497491648e-03
-1.564382249791864505e-03
-1.532404295950198607e-03
-1.494383424702871131e-03
-1.451420727606412761e-03
-1.404645142707675260e-03
-1.355197475633765922e-03
-1.304214464385554471e-03
-1.252813100115699558e-03
-1.202075523732030332e-03
-1.153034624427899625e-03
-1.106660600177970018e-03
-1.063848753001060861e-03
-1.025408658297851999e-03
-9.920548375395555306e-04
-9.643990883822932446e-04
-9.429445614922569085e-04
-9.280816611288095555e-04
-9.200858278909250423e-04
-9.191171703488587195e-04
-9.252220087711592132e-04
-9.383361860391976200e-04
-9.582901375637490086e-04
-9.848155803611573483e-04
-1.017553696472562382e-03
-1.056064683647775330e-03
-1.099838396808081519e-03
-1.148306020526379404e-03
-1.200852490518056160e-03
-1.256829446072683020e-03
-1.315568536458468609e-03
-1.376394751538891851e-03
-1.438639686164183218e-03
-1.501654380024503672e-03
-1.564821635601563662e-03
-1.627567505931076016e-03
-1.689371768941273777e-03
-1.749777414700810470e-03
-1.808398690656213333e-03
-1.864927687775365687e-03
-1.919139440721311920e-03
-1.970895418159974814e-03
-2.020145350017970437e-03
-2.066927292784501158e-03
-2.111366085113136962e-03
-2.153670074463530284e-03
-2.194126246539336057e-03
-2.233093832246271261e-03
-2.270996498728691543e-03
-2.308313344728588328e-03
-2.345568625753790930e-03
-2.383320654413719365e-03
-2.422149857634425026e-03
-2.462646334183856995e-03
-2.505397028685207340e-03
-2.550972760653940317e-03
-2.599915312282665824e-03
-2.652724850694830952e-03
-2.709847890470550198e-03
-2.771665902770046198e-03
-2.838484861706100631e-03
-2.910525941029621592e-03
-2.987917390079336977e-03
-3.070687869369018944e-03
-3.158761268697222405e-03
-3.251953193112181763e-03
-3.349969112431601739e-03
-3.452404293936602551e-03
-3.558745522594994500e-03
-3.668374527308235558e-03
-3.780573186884793411e-03
-3.894530405862571196e-03
-4.009350568546090482e-03
-4.124063505221987370e-03
-4.237635736177498315e-03
-4.348982987542369429e-03
-4.456983648072564662e-03
-4.560493113640684201e-03
-4.658358688558754748e-03
-4.749434942468188856e-03
-4.832599240654062572e-03
-4.906767214738680209e-03
-4.970907958829247873e-03
-5.024058779552365885e-03
-5.065339118142884664e-03
-5.093963629411609600e-03
-5.109254149371742111e-03
-5.110650304719581601e-03
-5.097718638994044524e-03
-5.070160148840901181e-03
-5.027816036110162659e-03
-4.970671639276103698e-03
-4.898858465413497530e-03
-4.812654195026635010e-03
-4.712480781904120238e-03
-4.598900559714483478e-03
-4.472610385292652077e-03
-4.334433909557771497e-03
-4.185312137453971876e-03
-4.026292281705846909e-03
-3.858515144316223330e-03
-3.683201144240257855e-03
-3.501635212158478189e-03
-3.315150747459534586e-03
-3.125112758696309539e-03
-2.932900602181505185e-03
-2.739890454532775167e-03
-2.547437718450488390e-03
-2.356859747617413067e-03
-2.169419023578677327e-03
-1.986307015179121505e-03
-1.808629044191134442e-03
-1.637390265861424308e-03
-1.473483152039547226e-03
-1.317676440044989209e-03
-1.170605820689758032e-03
-1.032766515106620184e-03
-9.045078454573229985e-04
-7.860299006954576083e-04
-6.773822785689025648e-04
-5.784650976640699858e-04
-4.890320976146309267e-04
-4.086958537327962525e-04
-3.369351203610628713e-04
-2.731041358116226151e-04
-2.164437625724193555e-04
-1.660943577138132001e-04
-1.211101348858890903e-04
-8.047489311956937830e-05
-4.311887379181006939e-05
-7.936385565193804516e-06
2.619586055610766197e-05
6.040004523893238275e-05
9.577849051842427636e-05
1.333951076019537611e-04
1.742572415896502037e-04
2.192983155284494918e-04
2.693614322462477176e-04
3.251842094490302315e-04
3.873851208859542062e-04
4.564515144802387095e-04
5.327294958145731155e-04
6.164158712164413689e-04
7.075522629022818312e-04
8.060215212512428793e-04
9.115465282116900483e-04
1.023691348573193714e-03
1.141864874802129204e-03
1.265326826526363621e-03
1.393196086422695580e-03
1.524461264586965360e-03
1.657993400137205454e-03
1.792560544282989672e-03
1.926844102479553528e-03
2.059456776079092357e-03
2.188961676670419468e-03
2.313892521645901507e-03
2.432774562754214283e-03
2.544145970044364973e-03
2.646579389270007753e-03
2.738703185372028375e-03
2.819222326502318372e-03
2.886938419659961213e-03
2.940768732927447754e-03
2.979763750461268939e-03
3.003123150562559719e-03
3.010209854489484180e-03
3.000561949941311923e-03
2.973902310848503677e-03
2.930145787678450561e-03
2.869403760020533458e-03
2.791986010224027561e-03
2.698399915131248321e-03
2.589346783595656860e-03
2.465715543073467107e-03
2.328573713726371855e-03
2.179155834567714743e-03
2.018849516383394455e-03
1.849179171172462546e-03
1.671787770168639466e-03
1.488416842830152676e-03
1.300884916451483476e-03
1.111064778347792400e-03
9.208598396998788575e-04
7.321799184640153573e-04
5.469167955931081510e-04
3.669199144755833672e-04
1.939724937625009573e-04
2.976852138358723423e-05
-1.241091873209966730e-04
-2.662094308611859207e-04
-3.952313238240051652e-04
-5.100409394865559496e-04
-6.096857064099134218e-04
-6.934063287413407169e-04
-7.606459998208563210e-04
-8.110568254277114196e-04
-8.445033207311611681e-04
-8.610629761480220095e-04
-8.610238261559472958e-04
-8.448790998904202485e-04
-8.133189588191783994e-04
-7.672195251926396771e-04
-7.076293093892052112e-04
-6.357531695143053396e-04
-5.529341603307789694e-04
-4.606334659234970555e-04
-3.604086772273069439e-04
-2.538908492981546412e-04
-1.427605596502467677e-04
-2.872339726015664429e-05
8.651483077698994550e-05
2.012727362483563960e-04
3.139174698721019304e-04
4.228880492486678140e-04
5.267174868581113402e-04
6.240533267841691248e-04
7.136764272053358876e-04
7.945175439398084608e-04
8.656717009005174615e-04
9.264098941433507230e-04
9.761880762611720858e-04
1.014653328896637481e-03
1.041647024790808441e-03
1.057205032661348316e-03
1.061554930302863534e-03
1.055110293612902166e-03
1.038462110693709169e-03
1.012367509133758068e-03
9.777360444871902902e-04
9.356135888117539812e-04
8.871641744392140148e-04
8.336501280778593152e-04
7.764106764701486163e-04
7.168395427224156591e-04
6.563616850434525734e-04
5.964096648726184427e-04
5.383999475030829982e-04
4.837095874254112378e-04
4.336536008568395335e-04
3.894633401183709618e-04
3.522662919191478221e-04
3.230675544945249100e-04
3.027332813244562062e-04
2.919763831602224064e-04
2.913446777269862063e-04
3.012116433667411889e-04
3.217699670060418797e-04
3.530279936945704823e-04
3.948090624159608891e-04
4.467537945048511067e-04
5.083252063471032593e-04
5.788166752926635940e-04
6.573625464411315868e-04
7.429512777509110792e-04
8.344408178003089038e-04
9.305760804234628272e-04
1.030008140032207626e-03
1.131314981652692094e-03
1.233023294045224559e-03
1.333631126865531587e-03
1.431631001201322294e-03
1.525533085095827661e-03
1.613888104449130072e-03
1.695309617743226242e-03
1.768495381086425356e-03
1.832247360135841677e-03
1.885490174700073284e-03
1.927287685695141259e-03
1.956857437613267019e-03
1.973582771769826633e-03
1.977022460155061345e-03
1.966917676129303905e-03
1.943196229753282270e-03
1.905973964887082168e-03
1.855553404577579141e-03
1.792419639843395671e-03
1.717233484446548065e-03
1.630822085585957679e-03
1.534167200379617972e-03
1.428391200123367956e-03
1.314741084270474626e-03
1.194570811850557534e-03
1.069322136869480314e-03
9.405043534935612383e-04
8.096732006035142802e-04
6.784092699800768579e-04
5.482961963315492000e-04
4.208991049266722463e-04
2.977434965551159257e-04
1.802949261398186767e-04
6.993976149786871818e-05
-3.203265933385723347e-05
-1.244462743745045421e-04
-2.062526886390874347e-04
-2.765435278865274304e-04
-3.345606336478923709e-04
-3.797039696650680277e-04
-4.115370588581578905e-04
-4.297900650317263045e-04
-4.343604847296947055e-04
-4.253113592031973456e-04
-4.028672171825401307e-04
-3.674078113076706094e-04
-3.194597542343521304e-04
-2.596862849500628607e-04
-1.888753977586599088e-04
-1.079263520629230141e-04
-1.783507527689002180e-05
8.032143379681643978e-05
1.854014468061031251e-04
2.962152133898091956e-04
4.115419089050571973e-04
5.301463816508557780e-04
6.507956499066123784e-04
7.722746693269903024e-04
8.934013008776751441e-04
1.013040270389045129e-03
1.130115814901695498e-03
1.243622959540160436e-03
1.352637222655878827e-03
1.456322743350339528e-03
1.553938625529872842e-03
1.644843623231087397e-03
1.728498996157172346e-03
1.804469705398967705e-03
1.872423854948109282e-03
1.932130683325701580e-03
1.983456996152937243e-03
2.026362248054842160e-03
2.060892507710647328e-03
2.087173382165786323e-03
2.105402166312372002e-03
2.115839337820147725e-03
2.118799655197715296e-03
2.114643002306890607e-03
2.103765259505608470e-03
2.086589336001590071e-03
2.063556621375195466e-03
2.035118918307965950e-03
2.001731104565017752e-03
1.963844640574639953e-03
1.921901952578985474e-03
1.876331922952586715e-03
1.827546428137019098e-03
1.775938016136588068e-03
1.721878740817127081e-03
1.665720070123437313e-03
1.607793916454215840e-03
1.548414606432732717e-03
1.487881820840768980e-03
1.426484294783939661e-03
1.364504160480767888e-03
1.302221843560329552e-03
1.239921216681162111e-03
1.177895019158863282e-03
1.116450183377973998e-03
1.055913037337100112e-03
9.966340991842692360e-04
9.389923521606640582e-04
8.833988043906126865e-04
8.302992092152106400e-04
7.801758163391249098e-04
7.335480167900229219e-04
6.909718100623593899e-04
6.530379949091646855e-04
6.203691279049345373e-04
5.936151202227710026e-04
5.734475860417430609e-04
5.605529330368365631e-04
5.556243379430615605e-04
5.593526192350322225e-04
5.724161340187685926e-04
5.954699463739564691e-04
6.291342926985995674e-04
6.739826751472773308e-04
7.305297103739699866e-04
7.992189310725274307e-04
8.804108911560791419e-04
9.743716120082725370e-04
1.081261742647041980e-03
1.201126593368231129e-03
1.333887258082368157e-03
1.479333091107687577e-03
1.637115603136565182e-03
1.806744102342910073e-03
1.987583010881227574e-03
2.178851238702832985e-03
2.379623535071111098e-03
2.588833794021591986e-03
2.805280534617044918e-03
3.027634436983850114e-03
3.254447929145130348e-03
3.484166732121202984e-03
3.715143210949360588e-03
3.945651464660428730e-03
4.173903917754662705e-03
4.398069293754344744e-03
4.616291695216555128e-03
4.826710563813205873e-03
5.027481234689924923e-03
5.216795811409570376e-03
5.392904150129120520e-03
5.554134522646980883e-03
5.698913769338713291e-03
5.825786736194138969e-03
5.933434497096856317e-03
6.020691279013720004e-03
6.086559796819167138e-03
6.130224676531799421e-03
6.151063882080440824e-03
6.148657956260280243e-03
6.122796870834622956e-03
6.073484431085299055e-03
6.000940100485820800e-03
5.905598270966828586e-03
5.788104930019994689e-03
5.649311747448599284e-03
5.490267706908387793e-03
5.312208319178650211e-03
5.116542574143016081e-03
4.904837780412592621e-03
4.678802593819208350e-03
4.440268279604814815e-03
4.191168651213156640e-03
3.933518776909945662e-03
3.669392793919575534e-03
3.400901189090808126e-03
3.130167731329631508e-03
2.859306436748877776e-03
2.590398819543701832e-03
2.325471736719525624e-03
2.066476000615057734e-03
1.815266256630676403e-03
1.573582123354331543e-03
1.343031009416493365e-03
1.125072664390906838e-03
9.210057431731109639e-04
7.319564473646130972e-04
5.588693677419201726e-04
4.025006731107257118e-04
2.634136860546968783e-04
1.419767742715561418e-04
3.836358140473212326e-05
-4.744436801620307122e-05
-1.156528610606561634e-04
-1.666480887679198887e-04
-2.009876746457550244e-04
-2.193898984089148448e-04
-2.227212653057817086e-04
-2.119825420606407220e-04
-1.882935739577146835e-04
-1.528770144315034845e-04
-1.070412752771867813e-04
-5.216283003243195316e-05
1.033183202635365218e-05
7.898433715031711959e-05
1.523224724131751846e-04
2.288780074547104733e-04
3.072039260952632808e-04
3.858909052720439119e-04
4.635829734346903113e-04
5.389920898593432387e-04
6.109115048464869953e-04
6.782278715034633591e-04
7.399318062212698532e-04
7.951270781263246020e-04
8.430381670158097664e-04
8.830162448160128706e-04
9.145434853483497013e-04
9.372358466349517284e-04
9.508442057647534945e-04
9.552539336215589523e-04
9.504829731168620453e-04
9.366786118121077365e-04
9.141127815376068940e-04
8.831761761256733470e-04
8.443711761729884259e-04
7.983038568537142738e-04
7.456750304104250516e-04
6.872704960173985122e-04
6.239507019807975612e-04
5.566398029149417217e-04
4.863144373052951178e-04
4.139920972120052266e-04
3.407194159191740085e-04
2.675604162072902780e-04
1.955848106512490120e-04
1.258565233368117212e-04
5.942246592135329850e-05
-2.698352622351896186e-06
-5.952519481512194403e-05
-1.101254963615534016e-04
-1.536241328244137042e-04
-1.892120814789602877e-04
-2.161543034968683747e-04
-2.337969057930862436e-04
-2.415735162200254385e-04
-2.390108020418970931e-04
-2.257331779256137381e-04
-2.014665564893513162e-04
-1.660412572976949956e-04
-1.193940005785984509e-04
-6.156900765860562179e-05
7.281921912220715161e-06
8.690013151244612712e-05
1.769218303621415906e-04
2.768806725819337967e-04
3.862112305964559037e-04
5.042532933204214168e-04
6.302570521845191369e-04
7.633890001005043001e-04
9.027386591642854808e-04
1.047325996486812979e-03
1.196109491182646527e-03
1.347994823015379083e-03
1.501844058801134326e-03
1.656485355458840172e-03
1.810723046583718630e-03
1.963347990778405334e-03
2.113148186540491410e-03
2.258919521425954789e-03
2.399476558129687645e-03
2.533663206450430336e-03
2.660363313969918431e-03
2.778510868205039640e-03
2.887099853759963509e-03
2.985193662799206279e-03
3.071933887325044386e-03
3.146548388799627789e-03
3.208358690363404594e-03
3.256786340703385439e-03
3.291358408201146800e-03
3.311711882302124325e-03
3.317597028298206047e-03
3.308879526047265457e-03
3.285541492787692926e-03
3.247681231849414325e-03
3.195511785507473574e-03
3.129358205812634349e-03
3.049653688593596899e-03
2.956934505766407959e-03
2.851833812408919450e-03
2.735074460705238381e-03
2.607460796789516991e-03
2.469869599017630608e-03
2.323240247665371572e-03
2.168564325292447054e-03
2.006874642415927383e-03
1.839233944427738502e-03
1.666723379663611043e-03
1.490430930269703337e-03
1.311439969577855684e-03
1.130818045007934893e-03
9.496060909760804846e-04
7.688081539690431922e-04
5.893818286827778212e-04
4.122295620473798963e-04
2.381908865772361535e-04
6.803571100457845016e-05
-9.754129458032299155e-05
-2.579250379893271734e-04
-4.125830583718225158e-04
-5.610673527367978329e-04
-7.030148671161752646e-04
-8.381466465866501151e-04
-9.662657184930561810e-04
-1.087253772079152829e-03
-1.201066638898677869e-03
-1.307728741078293322e-03
-1.407326555213189419e-03
-1.500001260882652225e-03
-1.585940673032577679e-03
-1.665370625053593737e-03
-1.738545968343698607e-03
-1.805741348869731961e-03
-1.867241914378682099e-03
-1.923334160710952426e-03
-1.974297058426246771e-03
-2.020393603820598658e-03
-2.061863029402641063e-03
-2.098913703931277411e-03
-2.131716964689450364e-03
-2.160401936757170693e-03
-2.185051469846686651e-03
-2.205699252694950669e-03
-2.222328200252311238e-03
-2.234870062641617066e-03
-2.243206413855384617e-03
-2.247170853703894192e-03
-2.246552521897943883e-03
-2.241100809831588284e-03
-2.230531211324610161e-03
-2.214532148487132705e-03
-2.192772793133974680e-03
-2.164911594181746172e-03
-2.130605472154328047e-03
-2.089519407836337370e-03
-2.041336485814464110e-03
-1.985767912769935851e-03
-1.922563001078340071e-03
-1.851518928574683639e-03
-1.772490005749080078e-03
-1.685396416505619737e-03
-1.590232080989510037e-03
-1.487071728172266807e-03
-1.376076800935587983e-03
-1.257500132278716563e-03
-1.131689386048900922e-03
-9.990890863535409512e-04
-8.602412054598264314e-04
-7.157842907267947599e-04
-5.664510421367188525e-04
-4.130644533043591519e-04
-2.565324846148121633e-04
-9.784125713004544636e-05
6.195293982396892559e-05
2.217329437768630136e-04
3.803310713024062820e-04
5.365404196519517072e-04
6.891269256268536770e-04
8.368421258788418231e-04
9.784362742245535007e-04
1.112671787598863054e-03
1.238336688925195574e-03
1.354257924559005731e-03
1.459314452447774092e-03
1.552449724976114314e-03
1.632683487492469577e-03
1.699122791790347222e-03
1.750971944643506251e-03
1.787541376614446790e-03
1.808255183689076034e-03
1.812657344161973079e-03
1.800416489638505951e-03
1.771329209363872465e-03
1.725321788465701296e-03
1.662450370142054589e-03
1.582899740335932774e-03
1.486980485525947297e-03
1.375124730067074424e-03
1.247880558818126144e-03
1.105905091706028747e-03
9.499565401927682938e-04
7.808851540224329797e-04
5.996233247196778790e-04
4.071749139119665056e-04
2.046040727504491600e-04
-6.976386372280966690e-06
-2.264168265777554150e-04
-4.525426885770522612e-04
-6.841663913348915160e-04
-9.200988804912484326e-04
-1.159160827985926574e-03
-1.400193247190433367e-03
-1.642067479995226167e-03
-1.883694403122977701e-03
-2.124032736616625859e-03
-2.362096403793804544e-03
-2.596960812766609811e-03
-2.827768180254530087e-03
-3.053731651128718718e-03
-3.274138295425555335e-03
-3.488351069829632306e-03
-3.695809595568011127e-03
-3.896029997892403764e-03
-4.088603659645282523e-03
-4.273195083654056370e-03
-4.449538930033033503e-03
-4.617436288893390917e-03
-4.776750279139668591e-03
-4.927401128696001428e-03
-5.069360781261334457e-03
-5.202647208306755006e-03
-5.327318460668595441e-03
-5.443466682531441191e-03
-5.551212040374148282e-03
-5.650696850499029034e-03
-5.742079836272314178e-03
-5.825530725509231456e-03
-5.901225166986210843e-03
-5.969340094066966952e-03
-6.030049604964430113e-03
-6.083521347461111686e-03
-6.129913489634888912e-03
-6.169372245403433042e-03
-6.202030068230159239e-03
-6.228004354836731704e-03
-6.247396728134839428e-03
-6.260292906246690305e-03
-6.266763092007566344e-03
-6.266862795170353821e-03
-6.260634054099612975e-03
-6.248107046841080633e-03
-6.229301985273004265e-03
-6.204231202398774979e-03
-6.172901358964148072e-03
-6.135315778451662198e-03
-6.091476786884411979e-03
-6.041387983284608743e-03
-5.985056335872064419e-03
-5.922494153354829205e-03
-5.853720774517455136e-03
-5.778763963084822958e-03
-5.697660977672452769e-03
-5.610459286121444178e-03
-5.517216895829705689e-03
-5.418002271245030664e-03
-5.312893847363719078e-03
-5.201979120158277230e-03
-5.085353403895881939e-03
-4.963118225926369496e-03
-4.835379393300420769e-03
-4.702244795074277638e-03
-4.563821915141237119e-03
-4.420215228804572419e-03
-4.271523486047771635e-03
-4.117836981214566781e-03
-3.959234827960417084e-03
-3.795782356831968202e-03
-3.627528663134151846e-03
-3.454504412151329293e-03
-3.276720030347954945e-03
-3.094164188733172262e-03
-2.906802757690886158e-03
-2.714578315816125464e-03
-2.517410190588870080e-03
-2.315195076003973874e-03
-2.107808264792523489e-03
-1.895105531155243930e-03
-1.676925627860742464e-03
-1.453093485918325895e-03
-1.223423994423752719e-03
-9.877262897871983294e-04
-7.458087009309813734e-04
-4.974841081894609395e-04
-2.425757137101291106e-04
1.907680245047807326e-05
2.876109365245653558e-04
5.631348378014423362e-04
8.457207740799468432e-04
1.135398666709917662e-03
1.432149811930736151e-03
1.735900964348407842e-03
2.046518818731017219e-03
2.363805079247190480e-03
2.687492212661722092e-03
3.017240010287538209e-03
3.352633000081901762e-03
3.693178818973887056e-03
4.038307739772359350e-03
4.387373217989872648e-03
4.739653693552986664e-03
5.094355531619519303e-03
5.450617219610539438e-03
5.807514658924481550e-03
6.164067776118031458e-03
6.519248139608368325e-03
6.871987574264574669e-03
7.221187728551953580e-03
7.565730412350716617e-03
7.904488666014543308e-03
8.236338235788400255e-03
8.560169377115817158e-03
8.874898806227488404e-03
9.179481554329578519e-03
9.472922522911837034e-03
9.754287529606194343e-03
1.002271368011833572e-02
1.027741879927559186e-02
1.051770967706196908e-02
1.074298902434532577e-02
1.095276091868412766e-02
1.114663457602072145e-02
1.132432638280952975e-02
1.148566002421397801e-02
1.163056464209566779e-02
1.175907104947690462e-02
1.187130588125811723e-02
1.196748392335843063e-02
1.204789844935526266e-02
1.211290989393298649e-02
1.216293292026013675e-02
1.219842211000722772e-02
1.221985652949524222e-02
1.222772338457545939e-02
1.222250116150690354e-02
1.220464250033917279e-02
1.217455721898064863e-02
1.213259573468042536e-02
1.207903347164708541e-02
1.201405643973162130e-02
1.193774847031028007e-02
1.185008036330887499e-02
1.175090141523646090e-02
1.163993357159941178e-02
1.151676847654569368e-02
1.138086767092195105e-02
1.123156614585885983e-02
1.106807932250985019e-02
1.088951361309488212e-02
1.069488051964527855e-02
1.048311418966454966e-02
1.025309231566600039e-02
1.000366014920135022e-02
9.733657327234634948e-03
9.441947214896780072e-03
9.127448301648232246e-03
8.789167131575235589e-03
8.426232228992887666e-03
8.037928508012579659e-03
7.623731438479497413e-03
7.183340311148325719e-03
6.716709968869631620e-03
6.224080217743066523e-03
5.706002247491468241e-03
5.163361421598035121e-03
4.597395792094713385e-03
4.009709684735118622e-03
3.402281887372853204e-03
2.777467823761938046e-03
2.137995528108395729e-03
1.486954979145198481e-03
8.277806346284850370e-04
1.642271395301427548e-04
-4.996618398962931248e-04
-1.159591373183149711e-03
-1.811059373148244571e-03
-2.449406605989266471e-03
-3.069872145967720949e-03
-3.667653472040553232e-03
-4.237970459304919377e-03
-4.776132348183443656e-03
-5.277606734069605239e-03
-5.738089444572862068e-03
-6.153574297598525880e-03
-6.520421393859093979e-03
-6.835422761729121471e-03
-7.095864212686924834e-03
-7.299582081081310708e-03
-7.445013785404549014e-03
-7.531241029593262887e-03
-7.558024620037546472e-03
-7.525829984177608706e-03
-7.435842541702785725e-03
-7.289972344430376179e-03
-7.090847398875695443e-03
-6.841795394905785498e-03
-6.546813677577147453e-03
-6.210527577331785218e-03
-5.838137304112054303e-03
-5.435353916834921757e-03
-5.008324980526802743e-03
-4.563550916328137051e-03
-4.107793030506108264e-03
-3.647974476366359128e-03
-3.191075657098688644e-03
-2.744025521914016975e-03
-2.313590583553073402e-03
-1.906263384716144847e-03
-1.528152226372328504e-03
-1.184874137073112883e-03
-8.814529570856362382e-04
-6.222244283093419839e-04
-4.107500558718623490e-04
-2.497415221661912466e-04
-1.409972163639495893e-04
-8.535234154472196694e-05
-8.264376327163746433e-05
-1.316906430072615933e-04
-2.302916508072385120e-04
-3.752392300893579702e-04
-5.623511680691568957e-04
-7.865192816157717814e-04
-1.041774965475473960e-03
-1.321370791104397365e-03
-1.617877281813214895e-03
-1.923293514122921717e-03
-2.229169921932676497e-03
-2.526741614806826425e-03
-2.807070089318769879e-03
-3.061191020630374578e-03
-3.280265769411816901e-03
-3.455734027149544134e-03
-3.579464935195504453e-03
-3.643904069875060492e-03
-3.642213577233125495e-03
-3.568402765304942281e-03
-3.417446691497537815e-03
-3.185390445223702707e-03
-2.869436896796988181e-03
-2.468015924381570039e-03
-1.980833554955845153e-03
-1.408899685076080415e-03
-7.545333884917728709e-04
-2.134526683448022128e-05
7.858034114421481040e-04
1.660864462317246078e-03
2.596688919929045040e-03
3.585134335342193487e-03
4.617191913134271845e-03
5.683131554929506113e-03
6.772662515697526822e-03
7.875107264785515676e-03
8.979585550498265026e-03
1.007520558754129887e-02
1.115125906175524172e-02
1.219741651945196320e-02
1.320391952991731115e-02
1.416176607721326627e-02
1.506288571144802531e-02
1.590030096961082828e-02
1.666827184538813289e-02
1.736242033973684623e-02
1.797983232950567736e-02
1.851913444739486728e-02
1.898054407383360440e-02
1.936589085661003309e-02
1.967860884897627144e-02
1.992369876924108760e-02
2.010766045807428626e-02
2.023839617335378149e-02
2.032508578378259059e-02
2.037803580915274054e-02
2.040850434077477737e-02
2.042850473722540236e-02
2.045059125027330268e-02
2.048763015663110365e-02
2.055256036381859081e-02
2.065814783312848804e-02
2.081673819393929301e-02
2.104001211763991547e-02
