-4.068687358210027610e-02
-4.028486461373693983e-02
-3.991474140285273392e-02
-3.957883215540543981e-02
-3.927886633706487857e-02
-3.901594485624616110e-02
-3.879051864941861216e-02
-3.860237616772195512e-02
-3.845064002435472084e-02
-3.833377289758057443e-02
-3.824959280388688654e-02
-3.819529757729834413e-02
-3.816749835536940860e-02
-3.816226168357986226e-02
-3.817515968996482156e-02
-3.820132782666204457e-02
-3.823552918463369449e-02
-3.827222498361861069e-02
-3.830564999347152444e-02
-3.832989176923901065e-02
-3.833897279697075916e-02
-3.832693441780157806e-02
-3.828792128148864049e-02
-3.821626516921748651e-02
-3.810656693555933977e-02
-3.795377550285917306e-02
-3.775326259622207442e-02
-3.750089230964902959e-02
-3.719308435302782351e-02
-3.682686998727929817e-02
-3.639993986160755535e-02
-3.591068305954930873e-02
-3.535821657254422518e-02
-3.474240485781758536e-02
-3.406386912168976600e-02
-3.332398606077664055e-02
-3.252487606956686733e-02
-3.166938102617716105e-02
-3.076103181402897041e-02
-2.980400608815316627e-02
-2.880307684837252538e-02
-2.776355245310584141e-02
-2.669120895628053144e-02
-2.559221562039890735e-02
-2.447305474640286069e-02
-2.334043690327251147e-02
-2.220121272903434126e-02
-2.106228265268490080e-02
-1.993050574572139549e-02
-1.881260900887446116e-02
-1.771509854274760931e-02
-1.664417379322586515e-02
-1.560564604150589327e-02
-1.460486248855302240e-02
-1.364663691809187354e-02
-1.273518808851080604e-02
-1.187408654522176948e-02
-1.106621084971053104e-02
-1.031371378469089252e-02
-9.617999016686994140e-03
-8.979708537889315861e-03
-8.398721084257513778e-03
-7.874161571960249309e-03
-7.404421412430011590e-03
-6.987189368490056597e-03
-6.619492351410507722e-03
-6.297745784190794324e-03
-6.017812608890039938e-03
-5.775070079547031492e-03
-5.564483319481473671e-03
-5.380684569943588146e-03
-5.218056873998650792e-03
-5.070820967391205525e-03
-4.933124077930126430e-03
-4.799129295008288699e-03
-4.663104146770481566e-03
-4.519507044307822033e-03
-4.363070358324511698e-03
-4.188878810331825991e-03
-3.992442090009592354e-03
-3.769760586856484887e-03
-3.517383338410346415e-03
-3.232457220765785205e-03
-2.912766782271905032e-03
-2.556764140613513019e-03
-2.163588551702065252e-03
-1.733075389529026376e-03
-1.265754458752043092e-03
-7.628378238222067835e-04
-2.261972596909829676e-04
3.416681868105752510e-04
9.376739170042410745e-04
1.558200223821856918e-03
2.199150462140465629e-03
2.856015968453026483e-03
3.523946917115824279e-03
4.197827689711751582e-03
4.872355656365782994e-03
5.542122170758560090e-03
6.201694447912123841e-03
6.845696952056343557e-03
7.468891189810496385e-03
8.066252524732010765e-03
8.633042910549610163e-03
9.164878347405197925e-03
9.657790130173728865e-03
1.010827891891365703e-02
1.051336090159883489e-02
1.087060532107144567e-02
1.117816281845663770e-02
1.143478433035509563e-02
1.163983023434946897e-02
1.179326977512367737e-02
1.189567083332902266e-02
1.194818030202133251e-02
1.195249545206257015e-02
1.191082691850371342e-02
1.182585395270274210e-02
1.170067273427053897e-02
1.153873874222709726e-02
1.134380407916267194e-02
1.111985095524186534e-02
1.087102244238493005e-02
1.060155155021565328e-02
1.031569000743203651e-02
1.001763782464996574e-02
9.711474902430350387e-03
9.401095771013407570e-03
9.090148495389355557e-03
8.781978767298035185e-03
8.479580132081734889e-03
8.185551070922959457e-03
7.902059702374069836e-03
7.630816550234413055e-03
7.373055823165646644e-03
7.129525463660885999e-03
6.900486061729957030e-03
6.685718640888867366e-03
6.484541086837325441e-03
6.295832822895435291e-03
6.118067380981552332e-03
5.949352145922265356e-03
5.787474664466295271e-03
5.629954610391845089e-03
5.474100460048969378e-03
5.317069988955005350e-03
5.155933386865382308e-03
4.987738069477479566e-03
4.809573867656992407e-03
4.618637570085729581e-03
4.412295760098093947e-03
4.188144741933949589e-03
3.944066660044743232e-03
3.678280688769559100e-03
3.389388605575861281e-03
3.076413776890829510e-03
2.738832954133316264e-03
2.376600439558211424e-03
1.990164084065083015e-03
1.580472824556578915e-03
1.148975652277523223e-03
6.976120504748567312e-04
2.287938800352046242e-04
-2.546208625377315037e-04
-7.493619934661465169e-04
-1.251788376644111071e-03
-1.757935760974850157e-03
-2.263570464041077604e-03
-2.764247932474454914e-03
-3.255375461333585071e-03
-3.732277980657933321e-03
-4.190265854134000816e-03
-4.624703650208766142e-03
-5.031078762966044969e-03
-5.405069000484918722e-03
-5.742607844324051046e-03
-6.039946488215166241e-03
-6.293711738051550875e-03
-6.500958696727272487e-03
-6.659217736241529809e-03
-6.766534792775992686e-03
-6.821504511241055502e-03
-6.823295678009913025e-03
-6.771668632289036018e-03
-6.666984358598851065e-03
-6.510205252614153365e-03
-6.302887407890462798e-03
-6.047164684788963220e-03
-5.745724819609092197e-03
-5.401777981844987225e-03
-5.019018152983167891e-03
-4.601578091334844467e-03
-4.153978456224853913e-03
-3.681071877367501737e-03
-3.187982838163706638e-03
-2.680044325918055047e-03
-2.162732040256742060e-03
-1.641597179511681409e-03
-1.122198769973321896e-03
-6.100365342558045252e-04
-1.104851506180058978e-04
3.712690879915517880e-04
8.302884953158503906e-04
1.261940230331054166e-03
1.661947798106850780e-03
2.026437203716937273e-03
2.351977215157019258e-03
2.635613273150346717e-03
2.874894621052547297e-03
3.067894562688576552e-03
3.213223562129793529e-03
3.310035168195410524e-03
3.358024815029059251e-03
3.357421735019516795e-03
3.308974165182055217e-03
3.213928253223130409e-03
3.074001043276710591e-03
2.891348081698486699e-03
2.668526176211953940e-03
2.408452014233713762e-03
2.114357230851301051e-03
1.789740631778766839e-03
1.438318274610349279e-03
1.063972264582796045e-03
6.706988383245027609e-04
2.625565270808689119e-04
-1.563848505820753399e-04
-5.820938478014108875e-04
-1.010624899783197500e-03
-1.438163260523955822e-03
-1.861066776805948538e-03
-2.275904002942303120e-03
-2.679488391052471923e-03
-3.068908127138897032e-03
-3.441551383507689306e-03
-3.795126839481647620e-03
-4.127679301272721597e-03
-4.437600423018576642e-03
-4.723634610684703319e-03
-4.984880188425321046e-03
-5.220785904802271657e-03
-5.431143133625557055e-03
-5.616073831139082977e-03
-5.776014887743149279e-03
-5.911698866146481747e-03
-6.024131826806416144e-03
-6.114568433226327121e-03
-6.184484877110813308e-03
-6.235549993694589239e-03
-6.269595066039626227e-03
-6.288582778391974167e-03
-6.294575642343771225e-03
-6.289704451183625311e-03
-6.276137075533347147e-03
-6.256048012575683714e-03
-6.231589065979213464e-03
-6.204861348991320101e-03
-6.177889030986305312e-03
-6.152595096011495047e-03
-6.130779254787790955e-03
-6.114098222664387031e-03
-6.104048488659522508e-03
-6.101951672322875747e-03
-6.108942628921104449e-03
-6.125960224913133863e-03
-6.153740861354803880e-03
-6.192814698100756500e-03
-6.243504535950181351e-03
-6.305927201547024095e-03
-6.379997518274204901e-03
-6.465434516439194298e-03
-6.561769900548421706e-03
-6.668358506246765093e-03
-6.784390640663069856e-03
-6.908906123940570729e-03
-7.040809721301155392e-03
-7.178887972105523797e-03
-7.321827022105036921e-03
-7.468231375450774291e-03
-7.616643255102383860e-03
-7.765562422012346235e-03
-7.913466220351881783e-03
-8.058829674994943612e-03
-8.200145303606055924e-03
-8.335942621461258153e-03
-8.464807014903484236e-03
-8.585397869209478519e-03
-8.696465718311592943e-03
-8.796868159516664856e-03
-8.885584553752486764e-03
-8.961729227898418762e-03
-9.024563070270746890e-03
-9.073503317872742141e-03
-9.108131493799145884e-03
-9.128199409793603600e-03
-9.133633081527191624e-03
-9.124534487971725644e-03
-9.101181190655166856e-03
-9.064023699218350799e-03
-9.013680639753064369e-03
-8.950931796129968018e-03
-8.876708927201649307e-03
-8.792084554597916560e-03
-8.698258743801215442e-03
-8.596544036474912734e-03
-8.488348676139017765e-03
-8.375158288013077532e-03
-8.258516226839920579e-03
-8.140002796673999688e-03
-8.021213621717534353e-03
-7.903737390440215838e-03
-7.789133280980072710e-03
-7.678908326968213703e-03
-7.574495038655636517e-03
-7.477229620457105999e-03
-7.388331070346138355e-03
-7.308881396052836939e-03
-7.239807366339437965e-03
-7.181864032008782386e-03
-7.135620340484992268e-03
-7.101446980405032305e-03
-7.079506773751268085e-03
-7.069747791961045712e-03
-7.071899361342960308e-03
-7.085471008095274754e-03
-7.109754539796155938e-03
-7.143829207622964805e-03
-7.186569994689217568e-03
-7.236658978941521575e-03
-7.292599618349374611e-03
-7.352733794837073081e-03
-7.415261516574228953e-03
-7.478262954300075871e-03
-7.539722574526525750e-03
-7.597555038170061489e-03
-7.649632519678822504e-03
-7.693812981837765998e-03
-7.727969109450271226e-03
-7.750017442205384827e-03
-7.757947292085802006e-03
-7.749848948151285936e-03
-7.723940795933597128e-03
-7.678594856068625234e-03
-7.612360459952679549e-03
-7.523985560909226579e-03
-7.412435435584180908e-03
-7.276908420357066330e-03
-7.116848356024078545e-03
-6.931953672868264825e-03
-6.722182821575421567e-03
-6.487756042491087810e-03
-6.229153408830187012e-03
-5.947109044026170632e-03
-5.642601840277541685e-03
-5.316842550979304291e-03
-4.971257670249127660e-03
-4.607470209281376745e-03
-4.227277768527213861e-03
-3.832628281874805865e-03
-3.425593785187541936e-03
-3.008342640123242394e-03
-2.583110630486665487e-03
-2.152171549549328818e-03
-1.717807721304068572e-03
-1.282280817100671204e-03
-8.478036496004533445e-04
-4.165133318370844236e-04
9.553739921813743681e-06
4.284847085423815856e-04
8.385104306521434965e-04
1.238022776171408693e-03
1.625588680209058643e-03
1.999960703952240963e-03
2.360084107191255578e-03
2.705100279629068377e-03
3.034346433600358574e-03
3.347351754395371838e-03
3.643829960868819311e-03
3.923668692159622100e-03
4.186915846053521767e-03
4.433763140266767239e-03
4.664527338889574298e-03
4.879629519357160487e-03
5.079572872822003989e-03
5.264919580338390907e-03
5.436267156854301084e-03
5.594224763423783463e-03
5.739390071999476289e-03
5.872327234642599723e-03
5.993546330927205547e-03
6.103484835513123263e-03
6.202491495820995453e-03
6.290812963676513381e-03
6.368583581408083713e-03
6.435818468714511048e-03
6.492410188157876974e-03
6.538129060465789656e-03
6.572627132416603013e-03
6.595445858320010679e-03
6.606027353187830971e-03
6.603728866619397453e-03
6.587840411493936336e-03
6.557605140517427759e-03
6.512242128784499241e-03
6.450970954657832268e-03
6.373037786872201745e-03
6.277742285347637230e-03
6.164464818380896612e-03
6.032693419417733613e-03
5.882049892897316286e-03
5.712314401017862600e-03
5.523448094203404005e-03
5.315613218361638082e-03
5.089190072584131794e-03
4.844790637506850989e-03
4.583268252758962782e-03
4.305723097693894656e-03
4.013503222184480745e-03
3.708201010931311790e-03
3.391644939477338888e-03
3.065886788163190400e-03
2.733184171158850595e-03
2.395978758968935005e-03
2.056870400084382863e-03
1.718587542224559893e-03
1.383954365737192225e-03
1.055855160584456181e-03
7.371964209562399933e-04
4.308673870801301353e-04
1.396996755785074890e-04
-1.335732558218007853e-04
-3.863562921324395212e-04
-6.162316090107445741e-04
-8.209957652048580643e-04
-9.986941834140500643e-04
-1.147652499506624305e-03
-1.266504072848011588e-03
-1.354213240545270929e-03
-1.410093735444114529e-03
-1.433821987072173834e-03
-1.425444915881831634e-03
-1.385382106318295854e-03
-1.314422222251634183e-03
-1.213713684904555324e-03
-1.084749637460688271e-03
-9.293475131514229021e-04
-7.496234381108175240e-04
-5.479618849014351346e-04
-3.269810992319842889e-04
-8.949474749705689470e-05
1.615294446043852273e-04
4.230134360742151731e-04
6.918142628745543865e-04
9.647702196134300828e-04
1.238747246064883425e-03
1.510684476981355657e-03
1.777638309560262194e-03
2.036824101887659347e-03
2.285654959034632335e-03
2.521776797692065059e-03
2.743099040100164220e-03
2.947820468684532891e-03
3.134449775370626301e-03
3.301820438371199165e-03
3.449099559853311889e-03
3.575790691991919193e-03
3.681730522467475779e-03
3.767079325110524006e-03
3.832305564945185945e-03
3.878164777192965283e-03
3.905673192987901832e-03
3.916076530024598101e-03
3.910814466815699247e-03
3.891481558739140045e-03
3.859785161047885223e-03
3.817501136312185551e-03
3.766428226992347712e-03
3.708341861963214761e-03
3.644948184421121888e-03
3.577839193213959781e-03
3.508449803221501320e-03
3.438017565050138866e-03
3.367545850880140218e-03
3.297771136804576470e-03
3.229135001077902255e-03
3.161761375942613757e-03
3.095439507472041996e-03
3.029612928202521024e-03
2.963374768814407492e-03
2.895469465912365887e-03
2.824300890370622791e-03
2.747946982485337253e-03
2.664180528750806094e-03
2.570495877526674054e-03
2.464141186218898362e-03
2.342155774301480416e-03
2.201411999989356851e-03
2.038660982235445621e-03
1.850581658026022357e-03
1.633832253168230079e-03
1.385103506744302928e-03
1.101172776592206646e-03
7.789583188901481794e-04
4.155728726067731463e-04
8.375734758361614671e-06
-4.449773857675436064e-04
-9.464874709015216403e-04
-1.497768918059429275e-03
-2.100010529444546609e-03
-2.753941326120633738e-03
-3.459801591606953292e-03
-4.217319664878018716e-03
-5.025694681412734219e-03
-5.883585554645826866e-03
-6.789106374182308883e-03
-7.739828103838016990e-03
-8.732786805868563915e-03
-9.764498046788383859e-03
-1.083097738525862219e-02
-1.192776673850605255e-02
-1.304996616632090115e-02
-1.419227079697929668e-02
-1.534901233225634959e-02
-1.651420475886928099e-02
-1.768159362138376628e-02
-1.884470848964186693e-02
-1.999691778720326385e-02
-2.113148565548727403e-02
-2.224163002109679280e-02
-2.332058149800944266e-02
-2.436164244573916712e-02
-2.535824558590469083e-02
-2.630401172783483274e-02
-2.719280606108881101e-02
-2.801879244974189720e-02
-2.877648544362171670e-02
-2.946079944247138524e-02
-3.006709470419419508e-02
-3.059121977739034937e-02
-3.102955012075538782e-02
-3.137902258512959702e-02
-3.163716555492801508e-02
-3.180212446939994358e-02
-3.187268258131169957e-02
-3.184827679580105875e-02
-3.172900852141877920e-02
-3.151564928016812456e-02
-3.120964111224130283e-02
-3.081309176691817905e-02
-3.032876455606738075e-02
-2.976006294002343094e-02
-2.911100988124610059e-02
-2.838622190538355600e-02
-2.759087815237355745e-02
-2.673068433700656610e-02
-2.581183187271223617e-02
-2.484095235236866150e-02
-2.382506757982340642e-02
-2.277153535359909692e-02
-2.168799143937000587e-02
-2.058228796115705792e-02
-1.946242867763377932e-02
-1.833650159507811336e-02
-1.721260934842816157e-02
-1.609879798622289304e-02
-1.500298467813224873e-02
-1.393288506135210124e-02
-1.289594073798231745e-02
-1.189924793958779640e-02
-1.094948778432089202e-02
-1.005285909612062094e-02
-9.215014532424684740e-03
-8.441000823008255882e-03
-7.735203883034760287e-03
-7.101299527045465583e-03
-6.542210695650302679e-03
-6.060071718076712882e-03
-5.656200398493248065e-03
-5.331078451389623107e-03
-5.084340793240614380e-03
-4.914774077812179669e-03
-4.820324896900813130e-03
-4.798117742869432815e-03
-4.844482787374928059e-03
-4.954993523435094298e-03
-5.124513999497775155e-03
-5.347255324218840554e-03
-5.616840931602074677e-03
-5.926380034695282427e-03
-6.268548449039701778e-03
-6.635675995243410855e-03
-7.019839235531649679e-03
-7.412958625942540729e-03
-7.806898786435759879e-03
-8.193570471671664246e-03
-8.565032997581890559e-03
-8.913595529954109961e-03
-9.231915862698107655e-03
-9.513095212772578260e-03
-9.750767572423669691e-03
-9.939182234279969955e-03
-1.007327819749632113e-02
-1.014874913188548375e-02
-1.016209780849186214e-02
-1.011067914516980068e-02
-9.992730889191591900e-03
-9.807391412792791641e-03
-9.554704217639769723e-03
-9.235608830890364510e-03
-8.851918112688782203e-03
-8.406282214495143165e-03
-7.902139666672696947e-03
-7.343656199837139513e-03
-6.735652203640678064e-03
-6.083519852435615057e-03
-5.393131349401793749e-03
-4.670739516422048494e-03
-3.922872575501934293e-03
-3.156224621491303742e-03
-2.377543723358732913e-03
-1.593519649380603599e-03
-8.106730421791535435e-04
-3.524792731988184917e-05
7.268904099624110254e-04
1.470350453466158546e-03
2.190300512542962125e-03
2.882544441594698647e-03
3.543585387363774441e-03
4.170676548248536744e-03
4.761857726768510372e-03
5.315977099028634627e-03
5.832697621151957529e-03
6.312487906466778681e-03
6.756597591190477252e-03
7.167017699443935415e-03
7.546426609244177852e-03
7.898122468547482539e-03
8.225943476197010093e-03
8.534177359042289385e-03
8.827461761221927494e-03
9.110677458005683044e-03
9.388836485239634294e-03
9.666967393878424936e-03
9.949999817891970466e-03
1.024265079239429152e-02
1.054931508933754959e-02
1.087396189137977871e-02
1.122003998408541668e-02
1.159039356678629416e-02
1.198719050990243104e-02
1.241186475751258379e-02
1.286507436569983391e-02
1.334667622667449344e-02
1.385571823246915628e-02
1.439044956819567761e-02
1.494834896733815248e-02
1.552617093403484833e-02
1.612000913996201878e-02
1.672537616293866963e-02
1.733729812304915865e-02
1.795042262069245290e-02
1.855913792651834801e-02
1.915770124449569026e-02
1.974037357837258103e-02
2.030155839359043535e-02
2.083594138876977003e-02
2.133862836061454701e-02
2.180527828584801972e-02
2.223222861540505996e-02
2.261660999121131721e-02
2.295644762722121382e-02
2.325074684226797334e-02
2.349956051230013554e-02
2.370403649427530943e-02
2.386644336567393665e-02
2.399017332331843805e-02
2.407972143519321664e-02
2.414064087990535137e-02
2.417947442773746639e-02
2.420366268697480769e-02
2.422143029314204402e-02
2.424165165207224290e-02
2.427369833765313442e-02
2.432727048738141801e-02
2.441221521561801402e-02
2.453833534159356039e-02
2.471519183970517786e-02
2.495190394490678920e-02
2.525695080476845003e-02
2.563797888834523989e-02
2.610161904356207707e-02
2.665331745234969865e-02
2.729718435182520997e-02
2.803586415749004246e-02
2.887043066178023032e-02
2.980031027744467834e-02
3.082323583102070108e-02
3.193523332118838876e-02
3.313064311815556995e-02
3.440217671906332930e-02
3.574100937048737409e-02
3.713690832962435878e-02
3.857839581881792462e-02
4.005294504612675471e-02
4.154720700363005031e-02
4.304726505160852423e-02
4.453891369573325515e-02
4.600795751109346826e-02
4.744052535442215557e-02
4.882339494458357715e-02
5.014432218937987101e-02
5.139236940735338738e-02
5.255822664584578613e-02
5.363451979253144181e-02
5.461609953681679369e-02
5.550030514230708950e-02
5.628719728482281526e-02
5.697975456203691058e-02
5.758402856320300051e-02
5.810925320412949069e-02
5.856790428878743543e-02
5.897570616304193686e-02
5.935158304700224874e-02
5.971755354630555596e-02
6.009856764196605527e-02
6.052228632177119455e-02
6.101880515313722747e-02
6.162032367405730765e-02
6.236076381250765105e-02
6.327534134539866684e-02
6.440009498157535373e-02
6.577137879114230978e-02
6.742532443834559075e-02
6.939728006461808041e-02
7.172123342225447673e-02
7.442922725794273719e-02
7.755077522976150384e-02
8.111228698412137339e-02
8.513651090845028580e-02
8.964200309553867208e-02
9.464263100399353257e-02
1.001471196601050051e-01
1.061586480754044132e-01
1.126745029022865746e-01
1.196857954896333315e-01
1.271772479847932680e-01
1.351270529938697895e-01
1.435068104852557647e-01
1.522815443201311347e-01
1.614098001253496950e-01
1.708438247713114366e-01
1.805298264220053239e-01
1.904083134437609959e-01
2.004145089309933014e-01
2.104788367992869447e-01
2.205274740175058035e-01
2.304829628552861054e-01
2.402648761733517935e-01
2.497905276374158823e-01
2.589757185143428675e-01
2.677355118938988254e-01
2.759850248723936250e-01
2.836402288955327533e-01
2.906187484423461975e-01
2.968406481088958770e-01
3.022291984297948431e-01
3.067116110666794904e-01
3.102197344216957586e-01
3.126907013420406889e-01
3.140675211653264354e-01
3.142996094087504577e-01
3.133432491206247783e-01
3.111619789328160524e-01
3.077269040324739358e-01
3.030169271084794946e-01
2.970188979867878776e-01
2.897276810831461158e-01
2.811461416343348785e-01
2.712850523745621856e-01
2.601629235089299996e-01
2.478057599728780425e-01
2.342467507655558168e-01
2.195258960544434756e-01
2.036895784593709957e-01
1.867900856204066373e-01
1.688850915926227436e-01
1.500371051041022863e-01
1.303128928579617984e-01
1.097828861733546046e-01
8.852057936677035221e-02
6.660192795696355528e-02
4.410475452173966832e-02
2.110816967354926799e-02
-2.307984885292514981e-03
-2.606366504298565992e-02
-5.007911913266620274e-02
-7.427534401285981747e-02
-9.857449874295505510e-02
-1.229002727044959109e-01
-1.471782061261778241e-01
-1.713359618534069928e-01
-1.953035482951848423e-01
-2.190134941533873891e-01
-2.424009766000210786e-01
-2.654039053796835024e-01
-2.879629658940223713e-01
-3.100216251716607641e-01
-3.315261051623190625e-01
-3.524253281767401047e-01
-3.726708397174839371e-01
-3.922167143024877234e-01
-4.110194498213702863e-01
-4.290378559908958889e-01
-4.462329425009807227e-01
-4.625678121466363368e-01
-4.780075639082311256e-01
-4.925192104095490464e-01
-5.060716138264809150e-01
-5.186354436741041907e-01
-5.301831590538987893e-01
-5.406890174207071853e-01
-5.501291111218844510e-01
-5.584814319706741248e-01
-5.657259636287889082e-01
-5.718448006156084951e-01
-5.768222919046194219e-01
-5.806452065323177703e-01
-5.833029178724173924e-01
-5.847876026074930733e-01
-5.850944499483285988e-01
-5.842218761883467559e-01
-5.821717393841107091e-01
-5.789495486564497639e-01
-5.745646624058415863e-01
-5.690304700836041896e-01
-5.623645518160776957e-01
-5.545888107100011011e-01
-5.457295728508639865e-01
-5.358176504863400025e-01
-5.248883643470680926e-01
-5.129815217914676095e-01
-5.001413481866939792e-01
-4.864163693987807457e-01
-4.718592444968525146e-01
-4.565265481291774230e-01
-4.404785034190728532e-01
-4.237786666200328289e-01
-4.064935659298689052e-01
-3.886922975916359824e-01
-3.704460832115815672e-01
-3.518277928443911406e-01
-3.329114392464959660e-01
-3.137716491338589653e-01
-2.944831177727916804e-01
-2.751200537262006307e-01
-2.557556207503303702e-01
-2.364613840022166125e-01
-2.173067678058635543e-01
-1.983585321311825134e-01
-1.796802746977127774e-01
-1.613319653656201391e-01
-1.433695190663047958e-01
-1.258444129575075898e-01
-1.088033529678539141e-01
-9.228799391226334692e-02
-7.633471701855872038e-02
-6.097446749765016855e-02
-4.623265406911274827e-02
-3.212911151862433284e-02
-1.867812634045177764e-02
-5.888524443893385606e-03
6.236180658752019101e-03
1.769758188091624315e-02
2.850211840512920092e-02
3.866076536760036653e-02
4.818867855237317366e-02
5.710479955576699268e-02
6.543142765471006428e-02
7.319376476166782053e-02
8.041944043549598131e-02
8.713802393441233418e-02
9.338053052983487368e-02
9.917892919854712219e-02
1.045656587018665151e-01
1.095731587505191090e-01
1.142334228100058274e-01
1.185775783105511016e-01
1.226354998850617689e-01
1.264354602693728291e-01
1.300038230871211342e-01
1.333647808252201306e-01
1.365401406721002131e-01
1.395491599377690073e-01
1.424084319343542071e-01
1.451318225690647057e-01
1.477304568391890893e-01
1.502127538065600176e-01
1.525845076084905716e-01
1.548490118569039176e-01
1.570072235181678433e-01
1.590579622623665701e-01
1.609981406885204469e-01
1.628230202471041832e-01
1.645264875767363244e-01
1.661013456701693480e-01
1.675396142416493983e-01
1.688328335389907009e-01
1.699723661283512322e-01
1.709496911663561936e-01
1.717566860114022875e-01
1.723858904946865556e-01
1.728307493617895485e-01
1.730858291799293458e-01
1.731470063109078472e-01
1.730116233042042206e-01
1.726786115748038530e-01
1.721485790676340055e-01
1.714238620755158538e-01
1.705085411986420885e-01
1.694084219579347073e-01
1.681309813725598845e-01
1.666852821149446273e-01
1.650818567899799694e-01
1.633325650848027888e-01
1.614504270478617776e-01
1.594494360855180093e-01
1.573443557036057761e-01
1.551505040699470983e-01
1.528835306911910941e-01
1.505591895471279640e-01
1.481931128340530091e-01
1.458005896930657519e-01
1.433963538564696494e-01
1.409943839431525014e-01
1.386077198991444714e-01
1.362482986641238847e-01
1.339268117053368512e-01
1.316525865780942828e-01
1.294334942963837609e-01
1.272758837376942731e-01
1.251845437055916777e-01
1.231626927840623192e-01
1.212119966898351359e-01
1.193326121808620244e-01
1.175232563162277172e-01
1.157812990852120361e-01
1.141028774408318902e-01
1.124830281065558740e-01
1.109158362273642007e-01
1.093945970571732346e-01
1.079119871969851652e-01
1.064602421235843338e-01
1.050313367057286451e-01
1.036171650267033173e-01
1.022097165477096475e-01
1.008012451890032413e-01
9.938442849391067313e-02
9.795251400963245203e-02
9.649945045220904849e-02
9.502000168766408517e-02
9.350984167180022288e-02
9.196562889090630077e-02
9.038505951873687660e-02
8.876689868571786823e-02
8.711098975618468410e-02
8.541824184171933898e-02
8.369059634895092969e-02
8.193097358807539810e-02
8.014320094251062288e-02
7.833192420693543823e-02
7.650250425231788776e-02
7.466090119967405681e-02
7.281354866207298548e-02
7.096722063625664212e-02
6.912889362171444063e-02
6.730560678632514782e-02
6.550432291014300634e-02
6.373179272398124540e-02
6.199442523988569348e-02
6.029816630147102896e-02
5.864838763353546341e-02
5.704978841061581624e-02
5.550631088643239591e-02
5.402107155473800243e-02
5.259630887842640240e-02
5.123334818856335737e-02
4.993258440134397402e-02
4.869348243167097995e-02
4.751459510832736766e-02
4.639359791642913566e-02
4.532733974922608516e-02
4.431190842023992327e-02
4.334270947967494569e-02
4.241455677611748881e-02
4.152177278980343639e-02
4.065829678847036888e-02
3.981779862228917999e-02
3.899379606677188387e-02
3.817977345721230986e-02
3.736929934782412532e-02
3.655614106309595934e-02
3.573437425251061589e-02
3.489848533123094537e-02
3.404346509102017942e-02
3.316489192651324996e-02
3.225900337183928990e-02
3.132275478048938966e-02
3.035386426828732415e-02
2.935084344365707087e-02
2.831301347190813555e-02
2.724050649448706007e-02
2.613425271336169975e-02
2.499595350517725204e-02
2.382804134481420963e-02
2.263362755186860628e-02
2.141643887567461907e-02
2.018074442346087446e-02
1.893127438951410640e-02
1.767313222095630645e-02
1.641170189576613911e-02
1.515255207079306728e-02
1.390133886843837943e-02
1.266370922901931609e-02
1.144520638797872671e-02
1.025117929526083056e-02
9.086697342652367768e-03
7.956471953721839033e-03
6.864786332015503090e-03
5.815434396711801832e-03
4.811669860882089762e-03
3.856166121061768096e-03
2.950987355334054249e-03
2.097571311806472032e-03
1.296723690972577826e-03
5.486239951335944876e-04
-1.471575315490823656e-04
-7.916324178014584817e-04
-1.386356708479815876e-03
-1.933384794622971170e-03
-2.435215525887583169e-03
-2.894731582568712235e-03
-3.315133517975591727e-03
-3.699869797093084407e-03
-4.052564193797074561e-03
-4.376941971363746894e-03
-4.676756262906069106e-03
-4.955715954788138602e-03
-5.217416523672696246e-03
-5.465274865386311222e-03
-5.702469403261195210e-03
-5.931886426633431637e-03
-6.156073511053431965e-03
-6.377200730204130204e-03
-6.597030231973393874e-03
-6.816894560264944239e-03
-7.037683987166946584e-03
-7.259842853757728434e-03
-7.483374743755107951e-03
-7.707856289014465047e-03
-7.932459126702985988e-03
-8.155979451506234143e-03
-8.376874363931564871e-03
-8.593304250630722299e-03
-8.803180221234984185e-03
-9.004215690229277688e-03
-9.193980852176351221e-03
-9.369959138133685667e-03
-9.529604500469811973e-03
-9.670398285865593538e-03
-9.789904709643379097e-03
-9.885823881165043889e-03
-9.956041397670317358e-03
-9.998673625963011916e-03
-1.001210776918085889e-02
-9.995036164698460276e-03
-9.946484168104056944e-03
-9.865831126689657282e-03
-9.752824208640780215e-03
-9.607584935902482859e-03
-9.430608191863233680e-03
-9.222754018934452638e-03
-8.985232366087931785e-03
-8.719581057907288893e-03
-8.427637543285959598e-03
-8.111505013471888292e-03
-7.773513515699633294e-03
-7.416176831568441728e-03
-7.042145928516862878e-03
-6.654159872611339725e-03
-6.254995141019371700e-03
-5.847414266303530873e-03
-5.434114634735864868e-03
-5.017678540559072572e-03
-4.600525241773900653e-03
-4.184865872571765996e-03
-3.772661984273202509e-03
-3.365588499296378634e-03
-2.965001660550171947e-03
-2.571912500602825235e-03
-2.186966277457441394e-03
-1.810428191982710322e-03
-1.442175664455830168e-03
-1.081697157341111448e-03
-7.280976696445482866e-04
-3.801107142339455510e-04
-3.611654279144308339e-05
3.058336507692096628e-04
6.479879707476295667e-04
9.928590893976830655e-04
1.343185035729884107e-03
1.701886181462841392e-03
2.072019122814099633e-03
2.456728220533053661e-03
2.859195540034212800e-03
3.282590030808256280e-03
3.730016710255150327e-03
4.204466570900837474e-03
4.708768152335252380e-03
5.245541269609341195e-03
5.817153804937528344e-03
6.425682098825959837e-03
7.072875464267042514e-03
7.760125436389425126e-03
8.488440063080689851e-03
9.258423655772585539e-03
1.007026222574319493e-02
1.092371487622397115e-02
1.181811101194377329e-02
1.275235352755407087e-02
1.372492774225784161e-02
1.473391608219015714e-02
1.577701812358034417e-02
1.685157557269256062e-02
1.795460198316680203e-02
1.908281658214128901e-02
2.023268165061656645e-02
2.140044310291453963e-02
2.258217348234608027e-02
2.377381675718414147e-02
2.497123431456648932e-02
2.617025147226150969e-02
2.736670389127713460e-02
2.855648322943964493e-02
2.973558136965495993e-02
3.090013270221911301e-02
3.204645384741051928e-02
3.317108040394095569e-02
3.427080008575147246e-02
3.534268197068834300e-02
3.638410151828173206e-02
3.739276105875761341e-02
3.836670547449531898e-02
3.930433301650963773e-02
4.020440102474583111e-02
4.106602679115123333e-02
4.188868337990125923e-02
4.267219065402775430e-02
4.341670170683257363e-02
4.412268492110957979e-02
4.479090193547111132e-02
4.542238191345451120e-02
4.601839246164800973e-02
4.658040769180027407e-02
4.711007393869557497e-02
4.760917351706722700e-02
4.807958719478548637e-02
4.852325574018669097e-02
4.894214125082371053e-02
4.933818867363148203e-02
4.971328818959473012e-02
5.006923878312678766e-02
5.040771368819298159e-02
5.073022803841186618e-02
5.103810926653232910e-02
5.133247061342093714e-02
5.161418795413171001e-02
5.188388045935673348e-02
5.214189525058438024e-02
5.238829622503575478e-02
5.262285727434937860e-02
5.284505986931019306e-02
5.305409508293153220e-02
5.324887006579617776e-02
5.342801884268062740e-02
5.358991725699419062e-02
5.373270190190723716e-02
5.385429278146434962e-02
5.395241939809329590e-02
5.402464986814627113e-02
5.406842274527921821e-02
5.408108107808529130e-02
5.405990832436072951e-02
5.400216550551242833e-02
5.390512927302090057e-02
5.376613026722563277e-02
5.358259124725547190e-02
5.335206459069490731e-02
5.307226858664822883e-02
5.274112199495920028e-02
5.235677649000038819e-02
5.191764644511263904e-02
5.142243579504628126e-02
5.087016156601312233e-02
5.026017361749355455e-02
4.959217037730600380e-02
4.886621050724213738e-02
4.808272008550745769e-02
4.724249531510620048e-02
4.634670072863489310e-02
4.539686283737812827e-02
4.439485925871167193e-02
4.334290346779122449e-02
4.224352543701889728e-02
4.109954831575320100e-02
3.991406139123199887e-02
3.869038973781618873e-02
3.743206100824952864e-02
3.614276959105734016e-02
3.482633872807137237e-02
3.348668115934311240e-02
3.212775864355086469e-02
3.075354088978871428e-02
2.936796457363662072e-02
2.797489275247922944e-02
2.657807544605237174e-02
2.518111170659379644e-02
2.378741387163084420e-02
2.240017423718775047e-02
2.102233478577225645e-02
1.965656021401118725e-02
1.830521474230670589e-02
1.697034289575498345e-02
1.565365455699753439e-02
1.435651456693735374e-02
1.307993689423406040e-02
1.182458343139848773e-02
1.059076746014543137e-02
9.378461822176446111e-03
8.187311462836960665e-03
7.016650397141610540e-03
5.865522688821124021e-03
4.732707249393747033e-03
3.616746087020942212e-03
2.515975544957520672e-03
1.428560176323951042e-03
3.525287615468051736e-04
-7.141880109670363476e-04
-1.773718763565377242e-03
-2.828212092976889296e-03
-3.879797202758761103e-03
-4.930544966188117606e-03
-5.982430063321060587e-03
-7.037294701253508748e-03
-8.096814334307358627e-03
-9.162465926458059420e-03
-1.023549925572938245e-02
-1.131691139001298266e-02
-1.240742500873019682e-02
-1.350747065640031316e-02
-1.461717322563676341e-02
-1.573634283729470618e-02
-1.686447020983910389e-02
-1.800072664441230985e-02
-1.914396856053041454e-02
-2.029274657271413346e-02
-2.144531884980451983e-02
-2.259966867644735283e-02
-2.375352598723020833e-02
-2.490439247693717814e-02
-2.604957000106658191e-02
-2.718619187914371807e-02
-2.831125662431344461e-02
-2.942166364593831046e-02
-3.051425044998430300e-02
-3.158583089167221747e-02
-3.263323385155988965e-02
-3.365334188046586322e-02
-3.464312926652893254e-02
-3.559969898990496956e-02
-3.652031815699868095e-02
-3.740245139089279358e-02
-3.824379164502912654e-02
-3.904228822675482463e-02
-3.979617156810690698e-02
-4.050397433690332283e-02
-4.116454870717635439e-02
-4.177707965616172386e-02
-4.234109389685121461e-02
-4.285646456929667614e-02
-4.332341147825403971e-02
-4.374249703752069313e-02
-4.411461783946205029e-02
-4.444099205554344345e-02
-4.472314285128123346e-02
-4.496287792152452861e-02
-4.516226567763675925e-02
-4.532360819923234030e-02
-4.544941134256272330e-02
-4.554235240981337196e-02
-4.560524586399396924e-02
-4.564100753781055730e-02
-4.565261773014025332e-02
-4.564308365997851724e-02
-4.561540188550748665e-02
-4.557252106497115124e-02
-4.551730555910878107e-02
-4.545250039043029905e-02
-4.538069783710524385e-02
-4.530430634034145893e-02
-4.522552184310477813e-02
-4.514630219934654548e-02
-4.506834474085403414e-02
-4.499306728753026813e-02
-4.492159302655861913e-02
-4.485473921035359329e-02
-4.479300996932951417e-02
-4.473659323546235606e-02
-4.468536179734958202e-02
-4.463887854332515559e-02
-4.459640570036319668e-02
-4.455691811440816441e-02
-4.451912024553655173e-02
-4.448146666251934916e-02
-4.444218582621158736e-02
-4.439930689925391388e-02
-4.435068912494735671e-02
-4.429405350216006343e-02
-4.422701635401487391e-02
-4.414712425421217501e-02
-4.405188999373686742e-02
-4.393882915515753829e-02
-4.380549665849686747e-02
-4.364952294368337760e-02
-4.346864942931887021e-02
-4.326076266706643803e-02
-4.302392675299144403e-02
-4.275641363619216151e-02
-4.245673090145554718e-02
-4.212364674344885873e-02
-4.175621176844066668e-02
-4.135377731846250765e-02
-4.091601012434971374e-02
-4.044290302332093079e-02
-3.993478163310566070e-02
-3.939230693954848261e-02
-3.881647358129212272e-02
-3.820860402191138261e-02
-3.757033856138958239e-02
-3.690362131421496411e-02
-3.621068226052038402e-02
-3.549401567078547953e-02
-3.475635513488069955e-02
-3.400064536556354766e-02
-3.323001119486212324e-02
-3.244772415280330197e-02
-3.165716707831119775e-02
-3.086179706155659300e-02
-3.006510723962664902e-02
-2.927058798719730029e-02
-2.848168782356749751e-02
-2.770177465964284921e-02
-2.693409781725530916e-02
-2.618175135296316874e-02
-2.544763903966782218e-02
-2.473444157472870844e-02
-2.404458641245713416e-02
-2.338022059120283686e-02
-2.274318693999653057e-02
-2.213500397883211984e-02
-2.155684978486840583e-02
-2.100955004087223452e-02
-2.049357047669106077e-02
-2.000901376768354431e-02
-1.955562100602822873e-02
-1.913277777133329596e-02
-1.873952459653701122e-02
-1.837457196111090194e-02
-1.803631939482090024e-02
-1.772287862726594151e-02
-1.743210040850943013e-02
-1.716160471049458722e-02
-1.690881389815588817e-02
-1.667098849484687992e-02
-1.644526507782142696e-02
-1.622869576472979816e-02
-1.601828877303407631e-02
-1.581104953786518358e-02
-1.560402186484374440e-02
-1.539432858184374385e-02
-1.517921099296541329e-02
-1.495606684961189349e-02
-1.472248607314795635e-02
-1.447628393736060358e-02
-1.421553107560621400e-02
-1.393858007048034801e-02
-1.364408810885024345e-02
-1.333103543150488367e-02
-1.299873937074151609e-02
-1.264686368797613564e-02
-1.227542307341597007e-02
-1.188478278144998804e-02
-1.147565339169931073e-02
-1.104908067724993254e-02
-1.060643081618731741e-02
-1.014937106707811294e-02
-9.679846150003274322e-03
-9.200050750066945601e-03
-8.712398423320846796e-03
-8.219487343492126383e-03
-7.724063422537339081e-03
-7.228981258747262974e-03
-6.737163522198305436e-03
-6.251559212052873807e-03
-5.775101503764283259e-03
-5.310665767610297378e-03
-4.861028307508557557e-03
-4.428826332419284230e-03
-4.016519931852658050e-03
-3.626356393670719571e-03
-3.260337378597220285e-03
-2.920189537716757957e-03
-2.607338935004335952e-03
-2.322889612809578112e-03
-2.067606608825394657e-03
-1.841903653844823322e-03
-1.645835689284893709e-03
-1.479096442474859326e-03
-1.341020921517381342e-03
-1.230592829587468569e-03
-1.146456814170368401e-03
-1.086935373374239540e-03
-1.050050104972550472e-03
-1.033547030804878942e-03
-1.034925619885431304e-03
-1.051471116860287292e-03
-1.080289606656067514e-03
-1.118345460985101193e-03
-1.162500434998270599e-03
-1.209554025696991681e-03
-1.256284425903834859e-03
-1.299489629566721698e-03
-1.336027954559177409e-03
-1.362857438314268865e-03
-1.377073647895215268e-03
-1.375945371518853171e-03
-1.356947701868274278e-03
-1.317792088623898940e-03
-1.256452975377384245e-03
-1.171190736365424921e-03
-1.060570577934318286e-03
-9.234772148856778499e-04
-7.591252711942272653e-04
-5.670651850788059655e-04
-3.471847380600918314e-04
-9.970622681289452644e-05
1.748205613994334613e-04
4.755295572191172359e-04
8.012533249642769849e-04
1.150541535763280896e-03
1.521682604232201712e-03
1.912728122741270530e-03
2.321519687645426898e-03
2.745717658940930849e-03
3.182831394541028869e-03
3.630250574672388465e-03
4.085277009900744292e-03
4.545156524185609698e-03
5.007110437660133341e-03
5.468366226222103228e-03
5.926187043994050017e-03
6.377899563280262953e-03
6.820919872858623861e-03
7.252777139245382768e-03
7.671134841729862486e-03
8.073809191070559915e-03
8.458784871871797423e-03
8.824227710251300941e-03
9.168494468164301719e-03
9.490139556898974718e-03
9.787918903355211434e-03
1.006079102541194287e-02
1.030791542501299091e-02
1.052864852414271343e-02
1.072253733199761590e-02
1.088931113582903253e-02
1.102887157511173340e-02
1.114128113227954436e-02
1.122675069503064477e-02
1.128562621297680806e-02
1.131837495202679851e-02
1.132557150877574678e-02
1.130788402496923396e-02
1.126606071658562552e-02
1.120091706246540732e-02
1.111332385820187202e-02
1.100419633945088661e-02
1.087448444808315935e-02
1.072516440041971011e-02
1.055723170947650558e-02
1.037169555642424891e-02
1.016957464344569670e-02
9.951894371552296933e-03
9.719685344564936089e-03
9.473983065771796053e-03
9.215828682445782738e-03
8.946270619531853860e-03
8.666366892332031183e-03
8.377187960374831224e-03
8.079819807138247101e-03
7.775367085016725473e-03
7.464956118937404218e-03
7.149737465948940648e-03
6.830887945912667535e-03
6.509611861198365441e-03
6.187141209060037679e-03
5.864734808994012324e-03
5.543676245153525070e-03
5.225270460782679115e-03
4.910838933923525156e-03
4.601713460500818365e-03
4.299228613212739691e-03
4.004712801810529979e-03
3.719478189796877020e-03
3.444809358291693255e-03
3.181951112292146205e-03
2.932095430718074502e-03
2.696367899981434724e-03
2.475813819050619747e-03
2.271384195519477334e-03
2.083921880988571021e-03
1.914148169580921852e-03
1.762650176102893707e-03
1.629869103335033608e-03
1.516089747825540186e-03
1.421431551839896388e-03
1.345841321077238112e-03
1.289087794128915580e-03
1.250758339603366296e-03
1.230257859150618712e-03
1.226809981857596675e-03
1.239460599090306397e-03
1.267083810212221110e-03
1.308390221463509411e-03
1.361937572189853137e-03
1.426143561811320281e-03
1.499300699821234017e-03
1.579593099042653432e-03
1.665114872333601928e-03
1.753889972807148217e-03
1.843893283841010686e-03
1.933072413717713389e-03
2.019370194978096535e-03
2.100747406138243727e-03
2.175205289479555278e-03
2.240807796444258242e-03
2.295703013812557935e-03
2.338143582891970794e-03
2.366505755501285314e-03
2.379306847136760782e-03
2.375220978504900306e-03
2.353092618840733636e-03
2.311947908293134676e-03
2.251003683471940620e-03
2.169673978027861390e-03
2.067574013061236095e-03
1.944521585984049098e-03
1.800535952581651389e-03
1.635834271321155503e-03
1.450825639572276855e-03
1.246102881720081296e-03
1.022432322325894259e-03
7.807416718294893365e-04
5.221063425325253929e-04
2.477342871331747096e-04
-4.105025523605778845e-05
-3.428238382231704197e-04
-6.560814531042030110e-04
-9.792544603889610441e-04
-1.310728569984687857e-03
-1.648861591841555528e-03
-1.992000577339236161e-03
-2.338498274360958050e-03
-2.686728626532874399e-03
-3.035101160080307201e-03
-3.382074052545638518e-03
-3.726165825519670884e-03
-4.065965407728952541e-03
-4.400140817930634982e-03
-4.727446140824245226e-03
-5.046726943351847669e-03
-5.356924133219570679e-03
-5.657076355649878069e-03
-5.946320979463643602e-03
-6.223893775300698948e-03
-6.489127533236480928e-03
-6.741449672524142331e-03
-6.980379012293007855e-03
-7.205521823717298685e-03
-7.416567491840825657e-03
-7.613283795499758283e-03
-7.795512067440558447e-03
-7.963162282010159340e-03
-8.116208373142952057e-03
-8.254683805057280027e-03
-8.378677422201441516e-03
-8.488329787879861366e-03
-8.583830012724020381e-03
-8.665413117692446349e-03
-8.733357907961467048e-03
-8.787985386796983225e-03
-8.829657574315323901e-03
-8.858776731061905954e-03
-8.875784920853398152e-03
-8.881163767743257068e-03
-8.875434280938648834e-03
-8.859156607107804976e-03
-8.832929629627304935e-03
-8.797390227392174952e-03
-8.753212035790781595e-03
-8.701103677565066516e-03
-8.641806239134337472e-03
-8.576089926550269082e-03
-8.504749762873313815e-03
-8.428600397490311133e-03
-8.348469851877834622e-03
-8.265192312081774684e-03
-8.179599851619196241e-03
-8.092513186683258225e-03
-8.004731640436569401e-03
-7.917022296117277522e-03
-7.830108577880162679e-03
-7.744658398510198549e-03
-7.661271986392808458e-03
-7.580469780511118680e-03
-7.502680525395692517e-03
-7.428229801082514294e-03
-7.357329324042477005e-03
-7.290067224892299996e-03
-7.226399601078157403e-03
-7.166143592107486124e-03
-7.108972156893059169e-03
-7.054410869730252769e-03
-7.001836921659306164e-03
-6.950480403130423340e-03
-6.899428059432295007e-03
-6.847629626099674752e-03
-6.793906776307877086e-03
-6.736964687089863103e-03
-6.675406143313166937e-03
-6.607748116340255232e-03
-6.532440585119976377e-03
-6.447887550181150874e-03
-6.352469881160285707e-03
-6.244569801264702319e-03
-6.122596585301841830e-03
-5.985013125843762459e-03
-5.830363035681724801e-03
-5.657297817773329456e-03
-5.464603643970522041e-03
-5.251227326909795913e-03
-5.016301030169523049e-03
-4.759165267568493500e-03
-4.479389760466701183e-03
-4.176791695696567205e-03
-3.851451092572200433e-03
-3.503722831268536991e-03
-3.134245141499317384e-03
-2.743944251212221061e-03
-2.334034914007416649e-03
-1.906016841526767284e-03
-1.461666885409734383e-03
-1.003026979009796369e-03
-5.323878700213894016e-04
-5.226881211098697395e-05
4.346065406085956829e-04
9.253377970357020126e-04
1.416878796006056096e-03
1.906071358258837594e-03
2.389681389471656585e-03
2.864436995152541687e-03
3.327067824831524655e-03
3.774345333175729757e-03
4.203123209240110063e-03
4.610377373475785592e-03
4.993244994297398737e-03
5.349061979825801665e-03
5.675398255907492147e-03
5.970090335873330829e-03
6.231270623201072036e-03
6.457393001634031959e-03
6.647254286204400467e-03
6.800011241551562509e-03
6.915192709089098763e-03
6.992706805460350769e-03
7.032842961710736307e-03
7.036268703669973021e-03
7.004021170227416396e-03
6.937493571049264604e-03
6.838416709741840759e-03
6.708835824785365672e-03
6.551083002267879540e-03
6.367745616020542912e-03
6.161631343089648584e-03
5.935730057019072796e-03
5.693173355148416041e-03
5.437192203271845950e-03
5.171073347184204118e-03
4.898115168843160568e-03
4.621583590119305272e-03
4.344668691500361626e-03
4.070442695025270480e-03
3.801819941740895888e-03
3.541519372455702915e-03
3.292030176577158754e-03
3.055580961693401577e-03
2.834112964158154099e-03
2.629257625834905028e-03
2.442318877368147064e-03
2.274260246416825049e-03
2.125697099696248829e-03
1.996893892419384937e-03
1.887766564279866680e-03
1.797889920935597744e-03
1.726509803871122215e-03
1.672559879420000908e-03
1.634682667996291677e-03
1.611254425461668182e-03
1.600413465767917473e-03
1.600091422925027998e-03
1.608047069575407753e-03
1.621901958179141094e-03
1.639177297897583679e-03
1.657331585593940912e-03
1.673798383125999671e-03
1.686023583557605052e-03
1.691501624459795707e-03
1.687810150313616463e-03
1.672642594774760485e-03
1.643838074413876433e-03
1.599408407866394601e-03
1.537561665373038573e-03
1.456722101242409560e-03
1.355546119841768461e-03
1.232934156710384669e-03
1.088038395205887269e-03
9.202661123044847099e-04
7.292789207837989049e-04
5.149877808831467268e-04
2.775441468504222416e-04
1.732739753908067986e-05
-2.650713161957866460e-04
-5.688682822183419464e-04
-8.931091441104329004e-04
-1.236693138407526189e-03
-1.598399157680194119e-03
-1.976913246569918844e-03
-2.370856943199101466e-03
-2.778816032727030646e-03
-3.199369167902622879e-03
-3.631115841516369472e-03
-4.072703250474167015e-03
-4.522851610151382151e-03
-4.980377429784166830e-03
-5.444214365042556250e-03
-5.913431364147697482e-03
-6.387247712199574032e-03
-6.865044769159050521e-03
-7.346374078910466836e-03
-7.830961856717692446e-03
-8.318709632553263761e-03
-8.809691103083354055e-03
-9.304145158883357636e-03
-9.802465250957931309e-03
-1.030518507268539039e-02
-1.081296096330690119e-02
-1.132655118219203817e-02
-1.184679226022556514e-02
-1.237457291391069053e-02
-1.291080585955970902e-02
-1.345639791393342562e-02
-1.401221890535015932e-02
-1.457906978420386163e-02
-1.515765042199946309e-02
-1.574852766277809110e-02
-1.635210406946972436e-02
-1.696858794259555048e-02
-1.759796503747530078e-02
-1.823997249025821610e-02
-1.889407541546954047e-02
-1.955944663488509358e-02
-2.023494991590705019e-02
-2.091912704286972430e-02
-2.161018912681113985e-02
-2.230601242116670921e-02
-2.300413885016141038e-02
-2.370178134305062426e-02
-2.439583419226950059e-02
-2.508288850045444635e-02
-2.575925265746838860e-02
-2.642097770405560028e-02
-2.706388755320088962e-02
-2.768361375589257697e-02
-2.827563466110075835e-02
-2.883531857723245495e-02
-2.935797045466623928e-02
-2.983888167573130190e-02
-3.027338250520877558e-02
-3.065689655210272410e-02
-3.098499665991407900e-02
-3.125346153657417719e-02
-3.145833250226347244e-02
-3.159596952616765264e-02
-3.166310594570524717e-02
-3.165690105241523306e-02
-3.157498980411781175e-02
-3.141552887130489441e-02
-3.117723839893761159e-02
-3.085943874347128399e-02
-3.046208144643584512e-02
-2.998577395015286987e-02
-2.943179752537079807e-02
-2.880211788453565167e-02
-2.809938788891039665e-02
-2.732694239608739542e-02
-2.648878466305123677e-02
-2.558956449161101793e-02
-2.463454784982040471e-02
-2.362957827100371777e-02
-2.258102998719053317e-02
-2.149575339346083622e-02
-2.038101311279591141e-02
-1.924441920349858129e-02
-1.809385231240199024e-02
-1.693738341385071788e-02
-1.578318913026218601e-02
-1.463946349868062470e-02
-1.351432727232759236e-02
-1.241573588052620990e-02
-1.135138723067916078e-02
-1.032863049053496345e-02
-9.354377270407982989e-03
-8.435016243576435105e-03
-7.576332561556682957e-03
-6.783433344017718997e-03
-6.060680222531772236e-03
-5.411630130744913766e-03
-4.838985381230635242e-03
-4.344553931433201531e-03
-3.929220568460277743e-03
-3.592929660484132579e-03
-3.334679992812001129e-03
-3.152532122995918562e-03
-3.043628244709311887e-03
-3.004224664630387835e-03
-3.029736673212338194e-03
-3.114795321976743508e-03
-3.253315637104551954e-03
-3.438575471609911852e-03
-3.663303936515803407e-03
-3.919778439284146883e-03
-4.199929071791037340e-03
-4.495448779540704536e-03
-4.797907958272006577e-03
-5.098871715348672271e-03
-5.390018136687731339e-03
-5.663255815362817913e-03
-5.910838781246334842e-03
-6.125477167051441955e-03
-6.300441742993139610e-03
-6.429660753358821743e-03
-6.507807322916165163e-03
-6.530376083869133923e-03
-6.493747589633712750e-03
-6.395239418140230385e-03
-6.233142985391240502e-03
-6.006745235238808434e-03
-5.716334818263495154e-03
-5.363192402678204282e-03
-4.949565068441358004e-03
-4.478625122667188006e-03
-3.954413748882448613e-03
-3.381770254734138819e-03
-2.766248017621743705e-03
-2.114018278601867765e-03
-1.431763257649081066e-03
-7.265604010528780915e-04
-5.759488310716279677e-06
7.231453537098771591e-04
1.452646592404682529e-03
2.175354987265709292e-03
2.884129824914165221e-03
3.572205389153483481e-03
4.233311454347943835e-03
4.861785558975405437e-03
5.452675170207640226e-03
6.001827641581982363e-03
6.505966415797365468e-03
6.962751856210581264e-03
7.370825496003508351e-03
7.729836615953756228e-03
8.040450655963135573e-03
8.304338970020714444e-03
8.524149903615134069e-03
8.703461440479927716e-03
8.846716113706132312e-03
8.959139092838777976e-03
9.046640749994038985e-03
9.115705320010563176e-03
9.173267359211678337e-03
9.226578338923841285e-03
9.283065439819252265e-03
9.350185358289688289e-03
9.435275493924326698e-03
9.545405357175459210e-03
9.687230986099675673e-03
9.866855144170537384e-03
1.008969601471966689e-02
1.036036697076689155e-02
1.068256986909041882e-02
1.105900413777770840e-02
1.149129367707673113e-02
1.197993323721442682e-02
1.252425564828272241e-02
1.312242089083637785e-02
1.377142773597448203e-02
1.446714808818373721e-02
1.520438381258626924e-02
1.597694551269210686e-02
1.677775215693115898e-02
1.759895016542668833e-02
1.843205004041504474e-02
1.926807840980246031e-02
2.009774291533579851e-02
2.091160707863312651e-02
2.170027219617806299e-02
2.245456289074046485e-02
2.316571293842812837e-02
2.382554787694089390e-02
2.442666094138866775e-02
2.496257887145744703e-02
2.542791422680530308e-02
2.581850107613823525e-02
2.613151113799831379e-02
2.636554773294663007e-02
2.652071530335728053e-02
2.659866267691692390e-02
2.660259858715535025e-02
2.653727856304821317e-02
2.640896275400411372e-02
2.622534481784530302e-02
2.599545246684253214e-02
2.572952094320721944e-02
2.543884105848280910e-02
2.513558409009586728e-02
2.483260616629486689e-02
2.454323539181882743e-02
2.428104523772951426e-02
2.405961804779318397e-02
2.389230290246174143e-02
2.379197214950177705e-02
2.377078117346325889e-02
2.383993597045229798e-02
2.400947303583768691e-02
2.428805610093798598e-02
2.468279380266711134e-02
2.519908241682127653e-02
2.584047723462215215e-02
2.660859574735162728e-02
2.750305533805775041e-02
2.852144774270616578e-02
2.965935168830886176e-02
3.091038474225641861e-02
3.226629447360488540e-02
3.371708854158031454e-02
3.525120249609657586e-02
3.685570341968049529e-02
3.851652674369356044e-02
4.021874311156634768e-02
4.194685135379758179e-02
4.368509307085748083e-02
4.541778405296364313e-02
4.712965698903192474e-02
4.880620973428078518e-02
5.043405318719514085e-02
5.200125264156955224e-02
5.349765625471631508e-02
5.491520443355297348e-02
5.624821411692648709e-02
5.749363217293914502e-02
5.865125237144633991e-02
5.972389080695478247e-02
6.071751552161254450e-02
6.164132625557364881e-02
6.250778134396103858e-02
6.333256919809140961e-02
6.413452298813361596e-02
6.493547776584052134e-02
6.576007030258318453e-02
6.663548272343641776e-02
6.759113213140550969e-02
6.865830903334566027e-02
6.986976844959609523e-02
7.125927853073042717e-02
7.286113192418393336e-02
7.470962622162093114e-02
7.683852011750993971e-02
7.928047267354862426e-02
8.206647342052612870e-02
8.522527121038170339e-02
8.878281015101383011e-02
9.276168087488625980e-02
9.718059531726183642e-02
1.020538932189243991e-01
1.073910878987671819e-01
1.131964586535419565e-01
1.194686966482722545e-01
1.262006103866134266e-01
1.333788959624391257e-01
1.409839768880683797e-01
1.489899169264937706e-01
1.573644085167311135e-01
1.660688385799390099e-01
1.750584321771958274e-01
1.842824735877902631e-01
1.936846031434273085e-01
2.032031872287258234e-01
2.127717577431938178e-01
2.223195166016418700e-01
2.317718995693859307e-01
2.410511930844209394e-01
2.500771971357289569e-01
2.587679263657153839e-01
2.670403411657173431e-01
2.748111001683868349e-01
2.819973251944196124e-01
2.885173695186752374e-01
2.942915804416528780e-01
2.992430471711881035e-01
3.032983251432033733e-01
3.063881285212840533e-01
3.084479829360106118e-01
3.094188311211157338e-01
3.092475848080927792e-01
3.078876169653182449e-01
3.052991893940852908e-01
3.014498116705561781e-01
2.963145280844630136e-01
2.898761305766405227e-01
2.821252964186836687e-01
2.730606505058287836e-01
2.626887530793869940e-01
2.510240146407324291e-01
2.380885407732889758e-01
2.239119103184120108e-01
2.085308913675319453e-01
1.919890999572630985e-01
1.743366071842765153e-01
1.556295007091418880e-01
1.359294073557777982e-01
1.153029833828499162e-01
9.382137960791742115e-02
7.155968836382577136e-02
4.859637921768714119e-02
2.501273036312385081e-02
8.922622509391053272e-04
-2.367982030510201036e-02
-4.861717188034536674e-02
-7.383283053947596597e-02
-9.923971776362333630e-02
-1.247511101533607669e-01
-1.502810795995281334e-01
-1.757448990241591846e-01
-2.010594119714091965e-01
-2.261433647495635080e-01
-2.509177006509062946e-01
-2.753058164074788650e-01
-2.992337817285143364e-01
-3.226305232443041904e-01
-3.454279750639769886e-01
-3.675611981572267095e-01
-3.889684715391284464e-01
-4.095913584670424212e-01
-4.293747509475044355e-01
-4.482668962511010546e-01
-4.662194089662868857e-01
-4.831872722877982307e-01
-4.991288321173777964e-01
-5.140057870565841736e-01
-5.277831776914739814e-01
-5.404293777014379518e-01
-5.519160892085069881e-01
-5.622183442984582946e-01
-5.713145142912421370e-01
-5.791863275211943662e-01
-5.858188962458779070e-01
-5.912007525255981166e-01
-5.953238926449040402e-01
-5.981838287302267965e-01
-5.997796462395480477e-01
-6.001140652615215565e-01
-5.991935033506341490e-01
-5.970281370901218132e-01
-5.936319594499899210e-01
-5.890228299673092582e-01
-5.832225143075566720e-01
-5.762567100106817941e-01
-5.681550551307381625e-01
-5.589511166098781736e-01
-5.486823555173744316e-01
-5.373900663536027578e-01
-5.251192881720151417e-01
-5.119186855088113663e-01
-4.978403975963083816e-01
-4.829398549687821673e-01
-4.672755629419848566e-01
-4.509088519424761521e-01
-4.339035955783958620e-01
-4.163258976082571672e-01
-3.982437497133234361e-01
-3.797266624559737513e-01
-3.608452723664291040e-01
-3.416709287550677709e-01
-3.222752640191336448e-01
-3.027297518565896794e-01
-2.831052579863619911e-01
-2.634715884093991045e-01
-2.438970400998034249e-01
-2.244479594973063652e-01
-2.051883140650499204e-01
-1.861792819350756578e-01
-1.674788647314366941e-01
-1.491415283728410035e-01
-1.312178763364412748e-01
-1.137543594520927931e-01
-9.679302585028930206e-02
-8.037131425664781337e-02
-6.452189310211416118e-02
-4.927254741006117239e-02
-3.464611486597540813e-02
-2.066047156882722113e-02
-7.328567412208199239e-03
5.341489532458372144e-03
1.734630115044514739e-02
2.868700197007677602e-02
3.936903904689301875e-02
4.940191240127673328e-02
5.879887963356220798e-02
6.757662913852580111e-02
7.575492651123820476e-02
8.335623914439427296e-02
9.040534416417037034e-02
9.692892524364414564e-02
1.029551636711312917e-01
1.085133291509267628e-01
1.136333758646991959e-01
1.183455488982132625e-01
1.226800060474998039e-01
1.266664596353839212e-01
1.303338426841665343e-01
1.337100033016221934e-01
1.368214304497745726e-01
1.396930140570873113e-01
1.423478416111448319e-01
1.448070328531802786e-01
1.470896134850359360e-01
1.492124283240633675e-01
1.511900937963564229e-01
1.530349886774021173e-01
1.547572817416832391e-01
1.563649944744047449e-01
1.578640962766220124e-01
1.592586293156945942e-01
1.605508597242144564e-01
1.617414514948507520e-01
1.628296593514997614e-01
1.638135364305994268e-01
1.646901525732932525e-01
1.654558190904185933e-01
1.661063157930704748e-01
1.666371162414668761e-01
1.670436072446629672e-01
1.673212987907453930e-01
1.674660212261385450e-01
1.674741064035985827e-01
1.673425502001231746e-01
1.670691540163596056e-01
1.666526434768511589e-01
1.660927628285858992e-01
1.653903443028703901e-01
1.645473518317995543e-01
1.635668991945164463e-01
1.624532430723430176e-01
1.612117519862369952e-01
1.598488523763716695e-01
1.583719535840538983e-01
1.567893538115211760e-01
1.551101292808257925e-01
1.533440093134831317e-01
1.515012399037929947e-01
1.495924388852576392e-01
1.476284454786049583e-01
1.456201673154131904e-01
1.435784278343160136e-01
1.415138169665105250e-01
1.394365478710533346e-01
1.373563221269372969e-01
1.352822058182098219e-01
1.332225185605367679e-01
1.311847372556517455e-01
1.291754159828820414e-01
1.272001232286423811e-01
1.252633970379647965e-01
1.233687187066318663e-01
1.215185050397770417e-01
1.197141188456221778e-01
1.179558970651531091e-01
1.162431956164577396e-01
1.145744498507961229e-01
1.129472490625638287e-01
1.113584233088638908e-01
1.098041408531146290e-01
1.082800141036038277e-01
1.067812119719394603e-01
1.053025763331287695e-01
1.038387406006969910e-01
1.023842480968545771e-01
1.009336681129733987e-01
9.948170764925504117e-02
9.802331687939559723e-02
9.655378666337689764e-02
9.506883659767527417e-02
9.356469219931264070e-02
9.203815018485675403e-02
9.048663093929426582e-02
8.890821768924811463e-02
8.730168202813162748e-02
8.566649561749026254e-02
8.400282840685660557e-02
8.231153375974366304e-02
8.059412111512245791e-02
7.885271715325072039e-02
7.709001638116470823e-02
7.530922250202452817e-02
7.351398191518480896e-02
7.170831076622484479e-02
6.989651709841931959e-02
6.808311974793793131e-02
6.627276554646002737e-02
6.447014644518923865e-02
6.267991814929256555e-02
6.090662153166417903e-02
5.915460838125889687e-02
5.742797271094309680e-02
5.573048862837113454e-02
5.406555588707107063e-02
5.243615364401227330e-02
5.084480315058001465e-02
4.929353979740631192e-02
4.778389471132531846e-02
4.631688577383901578e-02
4.489301811859746499e-02
4.351229364350443773e-02
4.217422907366735058e-02
4.087788197294007358e-02
3.962188382256052327e-02
3.840447940298296475e-02
3.722357144929312051e-02
3.607676958662498629e-02
3.496144249280125349e-02
3.387477200130797200e-02
3.281380828706685626e-02
3.177552495030384894e-02
3.075687295177989555e-02
2.975483247083507768e-02
2.876646174502199560e-02
2.778894219851653358e-02
2.681961906318274316e-02
2.585603699485945414e-02
2.489597021910662858e-02
2.393744696767834482e-02
2.297876787460134684e-02
2.201851846796607295e-02
2.105557564527001449e-02
2.008910854834565843e-02
1.911857401416168847e-02
1.814370706307724679e-02
1.716450689794325399e-02
1.618121900916456857e-02
1.519431401317373337e-02
1.420446393280176689e-02
1.321251662543944036e-02
1.221946905826385224e-02
1.122644007615715422e-02
1.023464348217494220e-02
9.245361950812658325e-03
8.259922418019895879e-03
7.279673476431979331e-03
6.305965292278880967e-03
5.340132266191284331e-03
4.383478788897291790e-03
3.437268338471757834e-03
2.502715964035795177e-03
1.580984159084931548e-03
6.731819482911864791e-04
-2.196328938061963064e-04
-1.096448848737572711e-03
-1.956293175830029797e-03
-2.798222352899067990e-03
-3.621310968663819276e-03
-4.424639442648714734e-03
-5.207281306591152875e-03
-5.968290385491114083e-03
-6.706688559209856952e-03
-7.421454539556149831e-03
-8.111514285811560407e-03
-8.775733393400739907e-03
-9.412911968416086406e-03
-1.002178226247953281e-02
-1.060100943315331161e-02
-1.114919549823971574e-02
-1.166488674180834323e-02
-1.214658447289560135e-02
-1.259275917915850772e-02
-1.300186786184717204e-02
-1.337237428664842832e-02
-1.370277192673937695e-02
-1.399160906379206051e-02
-1.423751566838818948e-02
-1.443923155084752240e-02
-1.459563505780645150e-02
-1.470577191246682028e-02
-1.476888339614520172e-02
-1.478443323714354225e-02
-1.475213262953078974e-02
-1.467196273467288696e-02
-1.454419403082085269e-02
-1.436940195618774223e-02
-1.414847834343790044e-02
-1.388263839377201249e-02
-1.357342252606634145e-02
-1.322269316417737893e-02
-1.283262601708808938e-02
-1.240569598815730555e-02
-1.194465763598699312e-02
-1.145252041398970265e-02
-1.093251892196720615e-02
-1.038807838556796669e-02
-9.822775987157661773e-03
-9.240298459588744753e-03
-8.644396691738911315e-03
-8.038837941199892395e-03
-7.427356273601766652e-03
-6.813602231627896751e-03
-6.201092533770382990e-03
-5.593160567882097915e-03
-4.992908534267612684e-03
-4.403162113806601691e-03
-3.826428426443487501e-03
-3.264858030903828798e-03
-2.720211740937680291e-03
-2.193832886976591727e-03
-1.686625533574430055e-03
-1.199039089045524911e-03
-7.310597161281859888e-04
-2.822088402656171692e-04
1.484512263072870839e-04
5.623044940713377857e-04
9.611614220556140720e-04
1.347232129512154547e-03
1.723093195125017033e-03
2.091648321476363964e-03
2.456083540978034035e-03
2.819817652344115862e-03
3.186448559053568341e-03
3.559696276570016235e-03
3.943343633616172746e-03
4.341175476849655317e-03
4.756917378779462920e-03
5.194174833532010094e-03
5.656373848151327946e-03
6.146703986355124202e-03
6.668064691128801347e-03
7.223015811694211141e-03
7.813733067041637656e-03
8.441969264585966540e-03
9.109021841851557347e-03
9.815707279081372499e-03
1.056234285691741610e-02
1.134873597678126393e-02
1.217418133432973323e-02
1.303746596416757893e-02
1.393688205185016071e-02
1.487024730168513310e-02
1.583493265307341774e-02
1.682789685257632742e-02
1.784572731923207353e-02
1.888468659234154162e-02
1.994076379900030713e-02
2.100973021105522268e-02
2.208719801713270037e-02
2.316868133171205713e-02
2.424965861488485516e-02
2.532563537881406951e-02
2.639220625807580170e-02
2.744511549927257030e-02
2.848031480641631530e-02
2.949401776601532840e-02
3.048274988475650413e-02
3.144339361334707456e-02
3.237322756663057327e-02
3.326995934106944525e-02
3.413175149152399696e-02
3.495724025803410157e-02
3.574554685497352557e-02
3.649628113256287582e-02
3.720953755147807934e-02
3.788588365334425584e-02
3.852634125133720666e-02
3.913236065372947825e-02
3.970578834861942380e-02
4.024882884312223214e-02
4.076400112278470711e-02
4.125409063255235792e-02
4.172209732177209474e-02
4.217118090069046921e-02
4.260460395078105589e-02
4.302567396834496016e-02
4.343768516221752085e-02
4.384386105859601479e-02
4.424729848376338093e-02
4.465091421830283402e-02
4.505739484532584466e-02
4.546915058465986897e-02
4.588827393343756361e-02
4.631650354697645910e-02
4.675519396031935920e-02
4.720529151365981946e-02
4.766731678628359503e-02
4.814135377279663702e-02
4.862704579679592160e-02
4.912359823443612772e-02
4.962978787597269875e-02
5.014397863912154613e-02
5.066414330828036133e-02
5.118789102349074333e-02
5.171249975004225258e-02
5.223495329632624889e-02
5.275198214141500058e-02
5.326010748742637801e-02
5.375568767003874315e-02
5.423496620964569914e-02
5.469412068011805794e-02
5.512931168927710096e-02
5.553673109884468828e-02
5.591264885282649921e-02
5.625345763420689510e-02
5.655571468234137089e-02
5.681618027487612271e-02
5.703185219338694628e-02
5.719999582466649829e-02
5.731816956987027117e-02
5.738424524113920622e-02
5.739642316914790598e-02
5.735324208238076760e-02
5.725358373051595701e-02
5.709667222911631035e-02
5.688206847041887143e-02
5.660965965484320017e-02
5.627964454723878573e-02
5.589251463043853202e-02
5.544903182828777449e-02
5.495020315161745772e-02
5.439725296243765051e-02
5.379159334944567245e-02
5.313479332551662715e-02
5.242854739969991101e-02
5.167464414180547583e-02
5.087493539606608578e-02
5.003130670651659978e-02
4.914564938400078908e-02
4.821983491394214033e-02
4.725569197549490258e-02
4.625498651808281070e-02
4.521940512019886199e-02
4.415054206835160311e-02
4.304989003461935637e-02
4.191883472690002832e-02
4.075865322464426732e-02
3.957051620976863998e-02
3.835549372781120459e-02
3.711456436137946374e-02
3.584862741954739779e-02
3.455851793589689858e-02
3.324502399561818367e-02
3.190890599452393672e-02
3.055091722221428552e-02
2.917182536903866960e-02
2.777243439694252261e-02
2.635360625939068072e-02
2.491628190564667764e-02
2.346150114923818697e-02
2.199042074956124304e-02
2.050433040999399478e-02
1.900466616609133505e-02
1.749302089087990258e-02
1.597115159934219680e-02
1.444098328745704179e-02
1.290460909429702596e-02
1.136428675243089138e-02
9.822431276604166178e-03
8.281603922297778309e-03
6.744497605977533249e-03
5.213918825938267110e-03
3.692766511727438306e-03
2.184008027151598547e-03
6.906527196726386895e-04
-7.842765866629354456e-04
-2.237773637597036992e-03
-3.666879829267750881e-03
-5.068715818072836582e-03
-6.440513046921407872e-03
-7.779644865339421268e-03
-9.083656407961720677e-03
-1.035029287141317131e-02
-1.157752567131295832e-02
-1.276357599479920231e-02
-1.390693529509508600e-02
-1.500638238983047559e-02
-1.606099682869906869e-02
-1.707016826811228946e-02
-1.803360172478473203e-02
-1.895131842153481225e-02
-1.982365240172805770e-02
-2.065124282961671581e-02
-2.143502200771791460e-02
-2.217619943024623508e-02
-2.287624200487483467e-02
-2.353685085264282592e-02
-2.415993492219161570e-02
-2.474758194771572301e-02
-2.530202725342689182e-02
-2.582562077108244147e-02
-2.632079288680658213e-02
-2.679001964675896408e-02
-2.723578790082730253e-02
-2.766056094144160246e-02
-2.806674518900080517e-02
-2.845665850049546378e-02
-2.883250043642330077e-02
-2.919632518242162161e-02
-2.955001743834262742e-02
-2.989527156883924064e-02
-3.023357444752560602e-02
-3.056619217110140979e-02
-3.089416086700989827e-02
-3.121828163649319546e-02
-3.153911969943850452e-02
-3.185700773893575255e-02
-3.217205329691280591e-02
-3.248415002915100436e-02
-3.279299252547330373e-02
-3.309809451525519419e-02
-3.339881003374287061e-02
-3.369435704880029830e-02
-3.398384326321637894e-02
-3.426629340682086494e-02
-3.454067765852043836e-02
-3.480594060464367590e-02
-3.506103025112426719e-02
-3.530492638384448434e-02
-3.553666801111047407e-02
-3.575537916699866176e-02
-3.596029276801517710e-02
-3.615077195807302191e-02
-3.632632868006738236e-02
-3.648663902646549773e-02
-3.663155519819227129e-02
-3.676111375698101064e-02
-3.687554011619419841e-02
-3.697524914847557381e-02
-3.706084183697327256e-02
-3.713309823398059512e-02
-3.719296663371272904e-02
-3.724154922237432608e-02
-3.728008450834071480e-02
-3.730992683474097793e-02
-3.733252330785536560e-02
-3.734938850916244557e-02
-3.736207750667090710e-02
-3.737215768975744173e-02
-3.738117979816395903e-02
-3.739064870197084806e-02
-3.740199446646853831e-02
-3.741654423927784356e-02
-3.743549540111783258e-02
-3.745989042551813725e-02
-3.749059394532646555e-02
-3.752827242368913380e-02
-3.757337679238729328e-02
-3.762612829735221404e-02
-3.768650791592930566e-02
-3.775424950822656861e-02
-3.782883666120026578e-02
-3.790950362262414386e-02
-3.799523999332783675e-02
-3.808479937888287897e-02
-3.817671169499667339e-02
-3.826929905269661758e-02
-3.836069494249334799e-02
-3.844886634016558141e-02
-3.853163856058960945e-02
-3.860672233983852147e-02
-3.867174274323813971e-02
-3.872426954806199723e-02
-3.876184858613247047e-02
-3.878203344974483213e-02
-3.878241724661580375e-02
-3.876066393732478105e-02
-3.871453865373509357e-02
-3.864193667174657676e-02
-3.854091057890278449e-02
-3.840969522284498616e-02
-3.824673015117879826e-02
-3.805067922794343194e-02
-3.782044720940139215e-02
-3.755519306788886874e-02
-3.725433985503840556e-02
-3.691758106916145921e-02
-3.654488351480299213e-02
-3.613648666618501926e-02
-3.569289856217874868e-02
-3.521488847902139868e-02
-3.470347644044574631e-02
-3.415991984987509777e-02
-3.358569753797654989e-02
-3.298249148962482252e-02
-3.235216656226609644e-02
-3.169674861507743024e-02
-3.101840136600336056e-02
-3.031940234480159230e-02
-2.960211836255206841e-02
-2.886898090937253802e-02
-2.812246172711431805e-02
-2.736504901886945007e-02
-2.659922457348344940e-02
-2.582744216323909145e-02
-2.505210742798404458e-02
-2.427555946354370206e-02
-2.350005440306563928e-02
-2.272775106513027013e-02
-2.196069879875075376e-02
-2.120082760949698608e-02
-2.044994057722069811e-02
-1.970970854474027312e-02
-1.898166698406513267e-02
-1.826721505276576382e-02
-1.756761656296755222e-02
-1.688400277757038867e-02
-1.621737687058024194e-02
-1.556861979264146864e-02
-1.493849717724368351e-02
-1.432766724173328322e-02
-1.373668935188704192e-02
-1.316603293903846096e-02
-1.261608655393747086e-02
-1.208716683866683898e-02
-1.157952717265701981e-02
-1.109336563499281614e-02
-1.062883233596472257e-02
-1.018603575833193324e-02
-9.765048062213952870e-03
-9.365909097148301943e-03
-8.988629253205577749e-03
-8.633190974526604167e-03
-8.299548994010808034e-03
-7.987629248657734590e-03
-7.697326583553679331e-03
-7.428501315152443753e-03
-7.180974840578575186e-03
-6.954524295627757639e-03
-6.748876582446386267e-03
-6.563701931760534090e-03
-6.398607114450322216e-03
-6.253128665338629835e-03
-6.126726205130153188e-03
-6.018776178735104829e-03
-5.928566224926126033e-03
-5.855290306127132298e-03
-5.798044972809449776e-03
-5.755826775710676593e-03
-5.727531024870784367e-03
-5.711952170657869088e-03
-5.707785775792660089e-03
-5.713632157695738151e-03
-5.728001887855493912e-03
-5.749323021695947750e-03
-5.775950152678848044e-03
-5.806175073749665454e-03
-5.838239215562832617e-03
-5.870347498745293047e-03
-5.900683557298373565e-03
-5.927426096467341456e-03
-5.948766253897026096e-03
-5.962925732529935144e-03
-5.968175326953623072e-03
-5.962853727700456047e-03
-5.945386248286077015e-03
-5.914303207164857412e-03
-5.868257704410752805e-03
-5.806042482249552765e-03
-5.726605663488803892e-03
-5.629064998839296459e-03
-5.512720506021236665e-03
-5.377065215975595364e-03
-5.221793838384657452e-03
-5.046809184813446855e-03
-4.852226288385051364e-03
-4.638373983987811693e-03
-4.405794035478558662e-03
-4.155237658209476499e-03
-3.887659503930161395e-03
-3.604209216255037894e-03
-3.306220541432106086e-03
-2.995198182384620558e-03
-2.672802528974423455e-03
-2.340832431924424768e-03
-2.001206250467600818e-03
-1.655941500406121238e-03
-1.307133266721573249e-03
-9.569316060523646011e-04
-6.075184146435628997e-04
-2.610838692916899622e-04
8.019710348752226740e-05
4.141881646414663260e-04
7.388142599985122669e-04
1.052083548479132435e-03
1.352108130462799287e-03
1.637123403996185557e-03
1.905505832854089126e-03
2.155788901496950502e-03
2.386677000011563042e-03
2.597057190664300158e-03
2.786008692507524823e-03
2.952809988616722590e-03
3.096943538210983598e-03
3.218098079087075396e-03
3.316168428346764289e-03
3.391253069482041971e-03
3.443649371055629814e-03
3.473846645040046602e-03
3.482517178885029263e-03
3.470505435110260786e-03
3.438815600113831906e-03
3.388597604608998420e-03
3.321131946463706623e-03
3.237813519195141716e-03
3.140134626944921913e-03
3.029667484835789782e-03
2.908046460147631438e-03
2.776950291391627225e-03
2.638084415968672009e-03
2.493163741833995771e-03
2.343896033434726602e-03
2.191966111905051685e-03
2.039020999815472929e-03
1.886656218336562815e-03
1.736403352164044532e-03
1.589718814669330424e-03
1.447974156703187411e-03
1.312447813565639993e-03
1.184318301925510594e-03
1.064658945576141269e-03
9.544340257551223086e-04
8.544963519764812174e-04
7.655862081122904875e-04
6.883314816300700615e-04
6.232489339076805390e-04
5.707466134641344313e-04
5.311271112363162182e-04
5.045915518572005425e-04
4.912442204350107953e-04
4.910976460724018671e-04
5.040780911203232356e-04
5.300311782783602085e-04
5.687275821711590363e-04
6.198687003139547033e-04
6.830920892214757461e-04
7.579766584962868443e-04
8.440475309382593997e-04
9.407804413595855994e-04
1.047605631600893828e-03
1.163911258575462803e-03
1.289046316622856261e-03
1.422322932008169161e-03
1.563018230167176120e-03
1.710375684035308737e-03
1.863606051995553986e-03
2.021888021450094636e-03
2.184368470168497351e-03
2.350162624538041766e-03
2.518354067982936113e-03
2.687994788320516477e-03
2.858105388339166487e-03
3.027675453533359377e-03
3.195664311896839922e-03
3.361002135191671746e-03
3.522591620144586988e-03
3.679310290543654546e-03
3.830013458706701263e-03
3.973537899703172283e-03
4.108706338410195863e-03
4.234332671317449920e-03
4.349228171544126248e-03
4.452208385342938148e-03
4.542100786121602146e-03
4.617753226350314842e-03
4.678043034403961235e-03
4.721886723269252441e-03
4.748250131401800765e-03
4.756158987356729276e-03
4.744709741830437956e-03
4.713080436556475565e-03
4.660541545270710344e-03
4.586466579954601684e-03
4.490342413154903983e-03
4.371778972448957939e-03
4.230518248252691793e-03
4.066442462363264836e-03
3.879581188849752678e-03
3.670117296720223563e-03
3.438391634832908307e-03
3.184906215354284253e-03
2.910325929630001082e-03
2.615478585270121503e-03
2.301353331423384302e-03
1.969097335739669521e-03
1.620010655466727839e-03
1.255539453464021502e-03
8.772674731998014340e-04
4.869057934641104839e-04
8.628109840271411441e-05
-3.226776437260939689e-04
-7.379537807077847294e-04
-1.157458835175124469e-03
-1.579049432920815637e-03
-2.000545105601165240e-03
-2.419746726077565656e-03
-2.834455442535799719e-03
-3.242491874059155905e-03
-3.641715364190464040e-03
-4.030043075008023744e-03
-4.405468560373076992e-03
-4.766079789123189858e-03
-5.110076304516405002e-03
-5.435785264969870099e-03
-5.741676324376084398e-03
-6.026375014479474525e-03
-6.288674554918689298e-03
-6.527545919020158634e-03
-6.742146096852079384e-03
-6.931824312921729819e-03
-7.096126273300006233e-03
-7.234796378953919395e-03
-7.347777786320453842e-03
-7.435210461095491039e-03
-7.497427156144228708e-03
-7.534947396673092115e-03
-7.548469578931187203e-03
-7.538861310940561493e-03
-7.507148115792230784e-03
-7.454500548043413791e-03
-7.382220038227925267e-03
-7.291723588644177627e-03
-7.184527479311293360e-03
-7.062230269897197543e-03
-6.926495231689686061e-03
-6.779032512536525314e-03
-6.621581069202128050e-03
-6.455890857965097124e-03
-6.283705239462426123e-03
-6.106743957228550311e-03
-5.926686801419592601e-03
-5.745158166208795200e-03
-5.563712588206874005e-03
-5.383821543321822868e-03
-5.206861524867528908e-03
-5.034103521304368438e-03
-4.866704057729603558e-03
-4.705697666829761552e-03
-4.551991003391341051e-03
-4.406358571654561337e-03
-4.269440096011246043e-03
-4.141739430624763463e-03
-4.023624996549170392e-03
-3.915331705756635618e-03
-3.816964275061218975e-03
-3.728501829697227106e-03
-3.649803683536412876e-03
-3.580616223970312789e-03
-3.520580711508358458e-03
-3.469241847197528789e-03
-3.426057096129996038e-03
-3.390406533365377794e-03
-3.361603034371388882e-03
-3.338902790646108842e-03
-3.321515886323627483e-03
-3.308616910626524174e-03
-3.299355481282204537e-03
-3.292866573445407674e-03
-3.288280465173686658e-03
-3.284732371875316841e-03
-3.281371504462242752e-03
-3.277369689201139330e-03
-3.271929377751855213e-03
-3.264291000658562075e-03
-3.253739689477384758e-03
-3.239611346272362226e-03
-3.221298027568978827e-03
-3.198252674470533196e-03
-3.169993148076251203e-03
-3.136105675667463961e-03
-3.096247595163443590e-03
-3.050149552517450458e-03
-2.997617113805075770e-03
-2.938531823255571655e-03
-2.872851767262371743e-03
-2.800611614109006862e-03
-2.721922207921947771e-03
-2.636969674585675372e-03
-2.546014079470143663e-03
-2.449387725482205479e-03
-2.347492995745065463e-03
-2.240799796654589868e-03
-2.129842572175623568e-03
-2.015216950076618736e-03
-1.897575854184377613e-03
-1.777625290201377160e-03
-1.656119636300091560e-03
-1.533856514609327915e-03
-1.411671133219749878e-03
-1.290430248578017941e-03
-1.171025524576824054e-03
-1.054366550830421580e-03
-9.413733471784598234e-04
-8.329684878762037489e-04
-7.300687457793957622e-04
-6.335763958214796036e-04
-5.443702198457125649e-04
-4.632962919202222385e-04
-3.911585608194428714e-04
-3.287092789202801556e-04
-2.766394980002040817e-04
-2.355697052309067201e-04
-2.060407138872262967e-04
-1.885048192903557556e-04
-1.833174871933802093e-04
-1.907297163526259229e-04
-2.108811644567097274e-04
-2.437942045424007075e-04
-2.893690802703848897e-04
-3.473802066612558686e-04
-4.174738045506726312e-04
-4.991670099353831503e-04
-5.918485344054002107e-04
-6.947809661759520548e-04
-8.071047541139006682e-04
-9.278439851280791822e-04
-1.055913926754268499e-03
-1.190130371462629500e-03
-1.329220691017711899e-03
-1.471836680078730114e-03
-1.616568914540010646e-03
-1.761962680775808286e-03
-1.906535242673369681e-03
-2.048794333157213671e-03
-2.187257609203678132e-03
-2.320472916320088456e-03
-2.447039078808866796e-03
-2.565626983723474312e-03
-2.675000655967555308e-03
-2.774038014984043458e-03
-2.861751135494324146e-03
-2.937305575053530265e-03
-3.000038544966453918e-03
-3.049475595030308288e-03
-3.085345580771631062e-03
-3.107593618417168677e-03
-3.116391693575028612e-03
-3.112146880876915343e-03
-3.095506832075049525e-03
-3.067362445118976093e-03
-3.028847588185678424e-03
-2.981335769557470153e-03
-2.926433644477127900e-03
-2.865971501671006529e-03
-2.801990618913193995e-03
-2.736727689619558503e-03
-2.672596304815462107e-03
-2.612165869014412140e-03
-2.558137955945349613e-03
-2.513320466741659955e-03
-2.480599740354916694e-03
-2.462911124619715075e-03
-2.463208190298551807e-03
-2.484431003056973564e-03
-2.529473849991857679e-03
-2.601152707313743404e-03
-2.702172968850299114e-03
-2.835097746207231387e-03
-3.002317168947111082e-03
-3.206018985711487843e-03
-3.448160904579967382e-03
-3.730444906741679865e-03
-4.054293973003542800e-03
-4.420831368929120826e-03
-4.830862796838655826e-03
-5.284861532522232112e-03
-5.782956800577190165e-03
-6.324925417093806880e-03
-6.910186845330036458e-03
-7.537801571665228399e-03
-8.206472959035785927e-03
-8.914552286641083331e-03
-9.660047047352437674e-03
-1.044063232161201484e-02
-1.125366503967492778e-02
-1.209620089345099340e-02
-1.296501364201985661e-02
-1.385661674243143619e-02
-1.476728689984479516e-02
-1.569308908858821003e-02
-1.662990311782556671e-02
-1.757345121110044303e-02
-1.851932635517630418e-02
-1.946302121723373496e-02
-2.039995724514635789e-02
-2.132551389907769504e-02
-2.223505760658601310e-02
-2.312397030933815642e-02
-2.398767741843301979e-02
-2.482167503679331283e-02
-2.562155641944439260e-02
-2.638303736595725910e-02
-2.710198062738921471e-02
-2.777441922221236120e-02
-2.839657873516621134e-02
-2.896489842757217145e-02
-2.947605125089645603e-02
-2.992696275904926581e-02
-3.031482898990840724e-02
-3.063713327788155152e-02
-3.089166203064291211e-02
-3.107651949539608910e-02
-3.119014153037567849e-02
-3.123130837720390282e-02
-3.119915638926046980e-02
-3.109318868299851268e-02
-3.091328463535097243e-02
-3.065970814115599047e-02
-3.033311449753710309e-02
-2.993455578665367434e-02
-2.946548469093070513e-02
-2.892775638445834949e-02
-2.832362834439619559e-02
-2.765575801992399205e-02
-2.692719806431190591e-02
-2.614138878969028690e-02
-2.530214779861793273e-02
-2.441365642541069858e-02
-2.348044300711200558e-02
-2.250736260011334047e-02
-2.149957318982000792e-02
-2.046250822863301261e-02
-1.940184538196045722e-02
-1.832347164713264004e-02
-1.723344482239362943e-02
-1.613795146449693851e-02
-1.504326155322788759e-02
-1.395568006434414095e-02
-1.288149596343189131e-02
-1.182692876189817693e-02
-1.079807340680813757e-02
-9.800843832255609969e-03
-8.840915958866473606e-03
-7.923670569509256439e-03
-7.054137061282688380e-03
-6.236938561016918715e-03
-5.476239433672312404e-03
-4.775695687356455547e-03
-4.138409312469816526e-03
-3.566887270098694634e-03
-3.063005825814493332e-03
-2.627980962874563314e-03
-2.262345651815344562e-03
-1.965934455268769209e-03
-1.737876023895983460e-03
-1.576593845320551236e-03
-1.479815614644149372e-03
-1.444591424005274528e-03
-1.467320777964594694e-03
-1.543788410337340643e-03
-1.669208707400733193e-03
-1.838278248449179029e-03
-2.045236150263536178e-03
-2.283931487190430688e-03
-2.547896974793812091e-03
-2.830428151801804484e-03
-3.124666900904804218e-03
-3.423688265558789186e-03
-3.720589347865627203e-03
-4.008579023627315344e-03
-4.281067102386076559e-03
-4.531751635107923379e-03
-4.754702924370165021e-03
-4.944442973448926783e-03
-5.096019002537591040e-03
-5.205069699693572714e-03
-5.267883194157206919e-03
-5.281445574437830699e-03
-5.243479069611399652e-03
-5.152469125638128172e-03
-5.007679776031184748e-03
-4.809156622002578110e-03
-4.557717606300042482e-03
-4.254931253294617043e-03
-3.903082599413773383e-03
-3.505127257302177637e-03
-3.064634210877042932e-03
-2.585718108255190273e-03
-2.072962066676779357e-03
-1.531332182912138826e-03
-9.660851083287922162e-04
-3.826702920413410278e-04
2.133717079277313699e-04
8.165129101964068836e-04
1.421341845259517338e-03
2.022665908486161179e-03
2.615610289102166235e-03
3.195711648996514900e-03
3.759004772695529340e-03
4.302100463020287584e-03
4.822253337413813339e-03
5.317417894283116807e-03
5.786291719316656416e-03
6.228344830623390622e-03
6.643834412532538015e-03
7.033804452536525885e-03
7.400069945145805808e-03
7.745185774426263485e-03
8.072400419925592971e-03
8.385595370115576236e-03
8.689210861349157961e-03
8.988159174436028895e-03
9.287726864122297643e-03
9.593467636771605550e-03
9.911087629216561515e-03
1.024632510918944625e-02
1.060482677569972963e-02
1.099202302610792319e-02
1.141300443379862466e-02
1.187240181601987091e-02
1.237427230198090422e-02
1.292199366004860399e-02
1.351816920968582254e-02
1.416454519564675635e-02
1.486194265314880192e-02
1.561020527281226609e-02
1.640816472948081542e-02
1.725362458809034244e-02
1.814336354700234882e-02
1.907315832637476380e-02
2.003782646016016508e-02
2.103128854253265637e-02
2.204664932428248084e-02
2.307629667236403559e-02
2.411201696737121786e-02
2.514512513715713715e-02
2.616660741083527350e-02
2.716727437514606519e-02
2.813792183330349889e-02
2.906949658802537861e-02
2.995326431528912495e-02
3.078097647758674255e-02
3.154503305654134809e-02
3.223863814435357078e-02
3.285594521908791893e-02
3.339218926382028774e-02
3.384380298814298332e-02
3.420851446921302497e-02
3.448542417679996419e-02
3.467505928355183592e-02
3.477940373056044587e-02
3.480190298166369045e-02
3.474744265054501707e-02
3.462230084141154629e-02
3.443407433476766005e-02
3.419157938507277894e-02
3.390472831778233720e-02
3.358438357743354086e-02
3.324219140254121990e-02
3.289039760094177034e-02
3.254164842201776042e-02
3.220877982980776405e-02
3.190459868752430067e-02
3.164165976750608900e-02
3.143204255840965217e-02
3.128713199183489474e-02
3.121740725458276369e-02
3.123224279410234672e-02
3.133972549031998484e-02
3.154649187756893708e-02
3.185758895491006687e-02
3.227636180552875822e-02
3.280437088175333638e-02
3.344134133814089666e-02
3.418514637036481479e-02
3.503182567428527600e-02
3.597563996617766241e-02
3.700916163792902780e-02
3.812340099336924970e-02
3.930796683467865926e-02
4.055125966885431144e-02
4.184069511234208422e-02
4.316295433932443304e-02
4.450425810429917139e-02
4.585066011775161543e-02
4.718835529611809659e-02
4.850399776277641850e-02
4.978502349204941974e-02
5.101997188419317431e-02
5.219880073365402995e-02
5.331318880647046426e-02
5.435682032453142271e-02
5.532564578813751327e-02
5.621811376549477879e-02
5.703536872653004047e-02
5.778141017896831766e-02
5.846320905022777542e-02
5.909077788040603685e-02
5.967719171678383810e-02
6.023855765276715096e-02
6.079393157585647606e-02
6.136518142537752268e-02
6.197679719879578553e-02
6.265564863774694682e-02
6.343069256805362877e-02
6.433263258837675080e-02
6.539353440074825718e-02
6.664640122587610349e-02
6.812471422167960811e-02
6.986194343787818783e-02
7.189103561342580218e-02
7.424388532743612934e-02
7.695079667746880514e-02
8.003994283369750273e-02
8.353683095263540748e-02
8.746378014941183499e-02
9.183942002335256094e-02
9.667821724437569708e-02
1.019900374481359784e-01
1.077797491303513072e-01
1.140468758485965739e-01
1.207853026098150845e-01
1.279830414668728100e-01
1.356220607326097671e-01
1.436781813088119086e-01
1.521210428705137285e-01
1.609141415822470944e-01
1.700149402024285217e-01
1.793750504675977464e-01
1.889404865749704510e-01
1.986519877810935530e-01
2.084454070341265897e-01
2.182521618142417297e-01
2.279997424948976559e-01
2.376122727970647053e-01
2.470111160373663906e-01
2.561155205996170081e-01
2.648432971632144750e-01
2.731115202243266094e-01
2.808372457847302939e-01
2.879382372076298990e-01
2.943336910212913105e-01
2.999449543880196023e-01
3.046962264377072738e-01
3.085152356440867827e-01
3.113338858764276851e-01
3.130888644090055184e-01
3.137222053550012824e-01
3.131818030644274997e-01
3.114218704442348051e-01
3.084033379134855646e-01
3.040941898297533363e-01
2.984697356401119217e-01
2.915128141526979744e-01
2.832139301419542288e-01
2.735713232524930039e-01
2.625909701830369536e-01
2.502865216706245954e-01
2.366791768279190578e-01
2.217974978469488823e-01
2.056771688183183511e-01
1.883607030178775787e-01
1.698971033803503283e-01
1.503414814035892444e-01
1.297546397978251720e-01
1.082026246354686888e-01
8.575625278477878866e-02
6.249062027248416390e-02
3.848459742997459992e-02
1.382031640150855820e-02
-1.141734371887075279e-02
-3.714126911758070665e-02
-6.326261613523774530e-02
-8.969130461655583364e-02
-1.163364959281938532e-01
-1.431070523898203828e-01
-1.699119754272707949e-01
-1.966608203376799813e-01
-2.232640858575042353e-01
-2.496335776872673218e-01
-2.756827452478636808e-01
-3.013269916318006558e-01
-3.264839571239557814e-01
-3.510737771577654986e-01
-3.750193158507930113e-01
-3.982463765873989758e-01
-4.206838913740296726e-01
-4.422640908141996507e-01
-4.629226568630226968e-01
-4.825988603550431244e-01
-5.012356853069485085e-01
-5.187799421526605448e-01
-5.351823715958202721e-01
-5.503977409032201340e-01
-5.643849338776879554e-01
-5.771070359443530862e-01
-5.885314149241777093e-01
-5.986297982610009338e-01
-6.073783467544022763e-01
-6.147577246597862866e-01
-6.207531656021595401e-01
-6.253545335898477164e-01
-6.285563777755146520e-01
-6.303579796242075872e-01
-6.307633908586814941e-01
-6.297814601284466018e-01
-6.274258463545376863e-01
-6.237150166684085617e-01
-6.186722266082849142e-01
-6.123254804196331946e-01
-6.047074693459333350e-01
-5.958554858663845932e-01
-5.858113121293999637e-01
-5.746210809023676314e-01
-5.623351078789700086e-01
-5.490076944991291175e-01
-5.346969006313160300e-01
-5.194642871121616379e-01
-5.033746284722423470e-01
-4.864955968330982872e-01
-4.688974180911063550e-01
-4.506525023591003154e-01
-4.318350508801748755e-01
-4.125206422238736903e-01
-3.927858008942179402e-01
-3.727075519000374038e-01
-3.523629652742483742e-01
-3.318286946343533828e-01
-3.111805143898319637e-01
-2.904928600932749627e-01
-2.698383767303151326e-01
-2.492874797461682446e-01
-2.289079335041197538e-01
-2.087644517546452250e-01
-1.889183246759882917e-01
-1.694270765346702068e-01
-1.503441578968191528e-01
-1.317186759090737680e-01
-1.135951656485142680e-01
-9.601340497525606699e-02
-7.900827504475119167e-02
-6.260966772062194485e-02
-4.684244087588146366e-02
-3.172642173926547987e-02
-1.727645777393258669e-02
-3.502514210849038724e-03
9.590183622280007425e-03
2.200096522728637108e-02
3.373348994551126495e-02
4.479548539015535541e-02
5.519845308131186151e-02
6.495734532121885674e-02
7.409021782671706968e-02
8.261786309546675922e-02
9.056342922578507204e-02
9.795202939178877799e-02
1.048103470856037167e-01
1.111662422751221180e-01
1.170483634491293751e-01
1.224857704317668661e-01
1.275075724657718512e-01
1.321425858793593144e-01
1.364190151541795903e-01
1.403641609700986004e-01
1.440041580379686492e-01
1.473637453719672807e-01
1.504660708015308213e-01
1.533325310832360233e-01
1.559826484881106923e-01
1.584339840310968750e-01
1.607020870073336549e-01
1.628004799690202509e-01
1.647406776366642789e-01
1.665322379981021284e-01
1.681828432197830792e-01
1.696984075426158922e-01
1.710832092011761174e-01
1.723400429633005493e-01
1.734703897359720359e-01
1.744745994600035432e-01
1.753520835402357647e-01
1.761015129951301883e-01
1.767210184383735116e-01
1.772083882767523655e-01
1.775612615419877582e-01
1.777773121144237689e-01
1.778544213006836294e-01
1.777908359387584403e-01
1.775853098142145536e-01
1.772372263590568098e-01
1.767467010375596836e-01
1.761146623074893725e-01
1.753429104217287260e-01
1.744341538402957859e-01
1.733920233055064875e-01
1.722210642026958116e-01
1.709267082177795549e-01
1.695152254316373841e-01
1.679936586005993382e-01
1.663697415358788845e-01
1.646518036249359496e-01
1.628486630111458111e-01
1.609695107697623750e-01
1.590237887787357418e-01
1.570210638639341350e-01
1.549709009087003320e-01
1.528827373674909729e-01
1.507657617430696595e-01
1.486287983817012326e-01
1.464802006497432085e-01
1.443277544300949622e-01
1.421785935528720457e-01
1.400391285864482083e-01
1.379149900591267741e-01
1.358109868130441544e-01
1.337310799775721926e-01
1.316783727203145182e-01
1.296551155988538429e-01
1.276627269071336224e-01
1.257018274472435915e-01
1.237722884617340480e-01
1.218732916120585097e-01
1.200033995341214660e-01
1.181606352085812633e-01
1.163425684913331204e-01
1.145464078518106110e-01
1.127690953708788552e-01
1.110074031068553346e-01
1.092580288678218214e-01
1.075176894599465804e-01
1.057832097109744213e-01
1.040516055450929622e-01
1.023201596460793783e-01
1.005864883679969540e-01
9.884859883791245749e-02
9.710493529741776042e-02
9.535441405998067166e-02
9.359644659844876258e-02
9.183095079267744598e-02
9.005835016301128038e-02
8.827956159653335688e-02
8.649597210513332302e-02
8.470940519412674397e-02
8.292207796550249421e-02
8.113655000117366012e-02
7.935566534575835829e-02
7.758248885380639170e-02
7.582023852104995132e-02
7.407221504337353768e-02
7.234173040271892063e-02
7.063203690475453045e-02
6.894625816650083727e-02
6.728732346443591639e-02
6.565790675850122216e-02
6.406037161642892663e-02
6.249672309690185168e-02
6.096856748871633258e-02
5.947708063080094087e-02
5.802298532543923720e-02
5.660653825541594325e-02
5.522752646100734936e-02
5.388527338638388064e-02
5.257865426659445729e-02
5.130612027573968476e-02
5.006573099395648929e-02
4.885519435875834704e-02
4.767191318158991997e-02
4.651303726202266758e-02
4.537551994758393797e-02
4.425617782453462185e-02
4.315175249708545768e-02
4.205897303795914227e-02
4.097461794823478720e-02
3.989557535900031121e-02
3.881890021528423135e-02
3.774186740430798132e-02
3.666201987333828072e-02
3.557721079675257164e-02
3.448563903175375783e-02
3.338587725225550945e-02
3.227689235859933919e-02
3.115805773746954666e-02
3.002915737247248765e-02
2.889038184005274928e-02
2.774231635899499990e-02
2.658592126500146022e-02
2.542250543697175194e-02
2.425369326441849729e-02
2.308138595031748730e-02
2.190771807036917540e-02
2.073501028897399914e-02
1.956571927881793280e-02
1.840238589700225399e-02
1.724758265799722010e-02
1.610386168858436370e-02
1.497370407849352332e-02
1.385947180224560843e-02
1.276336307811072775e-02
1.168737201423594198e-02
1.063325336599594065e-02
9.602493092219690357e-03
8.596285109879541614e-03
7.615514848998495949e-03
6.660749721517025476e-03
5.732236725667881616e-03
4.829906997698229718e-03
3.953387339472312287e-03
3.102018291661024548e-03
2.274878373365527007e-03
1.470813935761277128e-03
6.884738636530772157e-04
-7.365149864000480569e-05
-8.171880993445818737e-04
-1.543833445470618173e-03
-2.255310438481922166e-03
-2.953320666456086228e-03
-3.639498122652210562e-03
-4.315364250761867353e-03
-4.982285322819376625e-03
-5.641432923934513143e-03
-6.293748409662512297e-03
-6.939912045870326972e-03
-7.580317370381153309e-03
-8.215051377389648302e-03
-8.843880852045279961e-03
-9.466245164024417180e-03
-1.008125561190250166e-02
-1.068770140153614892e-02
-1.128406209049359794e-02
-1.186852623648276990e-02
-1.243901589535780818e-02
-1.299321658714923736e-02
-1.352861197928941286e-02
-1.404252285036264140e-02
-1.453214937536909113e-02
-1.499461606864862552e-02
-1.542701846266247845e-02
-1.582647066913804926e-02
-1.619015296156055966e-02
-1.651535850779411313e-02
-1.679953835592808489e-02
-1.704034380001348548e-02
-1.723566545211887430e-02
-1.738366826493242465e-02
-1.748282192815745970e-02
-1.753192603355586618e-02
-1.753012964428709089e-02
-1.747694495320877700e-02
-1.737225476981599237e-02
-1.721631374182792593e-02
-1.700974340744221963e-02
-1.675352111862012799e-02
-1.644896309690343367e-02
-1.609770211134570889e-02
-1.570166001675494041e-02
-1.526301589119710700e-02
-1.478417022786773088e-02
-1.426770600286860098e-02
-1.371634718317653323e-02
-1.313291563383226293e-02
-1.252028709045060334e-02
-1.188134709939877090e-02
-1.121894761226886229e-02
-1.053586505307199661e-02
-9.834760609092054254e-03
-9.118143432595078243e-03
-8.388337398721365870e-03
-7.647451947825492993e-03
-6.897357423950847312e-03
-6.139665375110139878e-03
-5.375714146205930362e-03
-4.606559846752538399e-03
-3.832972881310316854e-03
-3.055439859350495349e-03
-2.274170929398181083e-03
-1.489112281372473182e-03
-6.999635075693530365e-04
9.380060859437606979e-05
8.929043195440570417e-04
1.698241693920913209e-03
2.510844559002981848e-03
3.331848238283371868e-03
4.162455693281441604e-03
5.003900840908602661e-03
5.857411798608895895e-03
6.724174666626421895e-03
7.605298488764797651e-03
8.501782036593914793e-03
9.414483221847274458e-03
1.034409145784170349e-02
1.129110344818256249e-02
1.225580294947787793e-02
1.323824484835945010e-02
1.423824369292542996e-02
1.525536691350993547e-02
1.628893271586149410e-02
1.733801291594203042e-02
1.840144023145415947e-02
1.947782012013019384e-02
2.056554675047365249e-02
2.166282286629122797e-02
2.276768316503532258e-02
2.387802055556796990e-02
2.499161491937661184e-02
2.610616378879201602e-02
2.721931437840770934e-02
2.832869627352852318e-02
2.943195424190006571e-02
3.052678058513191156e-02
3.161094637274924901e-02
3.268233104792982180e-02
3.373894977913921567e-02
3.477897818485219117e-02
3.580077401237877904e-02
3.680289532700805472e-02
3.778411490160422936e-02
3.874343062967411377e-02
3.968007180044540866e-02
4.059350111806652589e-02
4.148341253281943170e-02
4.234972488584034384e-02
4.319257162350183255e-02
4.401228669088873974e-02
4.480938686515557184e-02
4.558455111782036551e-02
4.633859717867767208e-02
4.707245580750389624e-02
