1.898797475010487786e-03
1.455162896430668706e-03
1.116403582886361977e-03
1.041632840572921182e-03
9.245065772630872269e-04
-3.117346006156886205e-04
-1.919307365093762601e-03
-8.666171650350698932e-04
7.638873306471845315e-05
8.850320558528592362e-04
-2.959152374445064414e-04
2.104825639839564416e-05
-3.187719056559118382e-04
4.408573741807432587e-05
-1.187722889594431969e-03
-2.796532668534094414e-03
7.129214170929932138e-04
2.022792584208499538e-03
-1.298972417497534391e-03
-1.307013321815608548e-03
1.551531344871891552e-03
2.555434522044035695e-03
1.405758926489614419e-03
-2.161826105712770073e-04
-3.273403597100976118e-04
-7.622860907947274622e-04
1.519580617993948092e-04
1.341039654573342827e-03
3.578955584104158904e-04
-2.801276223207694194e-03
-1.881265521846554704e-03
-6.940896611619352605e-04
7.666578377063814915e-04
3.745006165517341962e-04
-2.722500439864153712e-05
-1.196351192089036963e-04
-1.939763747795380795e-04
2.509338871631164227e-03
2.660881048709301706e-03
-2.477255991869403273e-03
-2.217957513473440417e-03
8.517456645659303872e-05
3.212454132869964601e-03
1.822484257527699769e-03
-1.035034278270131544e-03
-3.073908679353833800e-03
-2.160504820740259332e-03
-1.196218563286963925e-03
4.273931635535937155e-04
1.792764153673424322e-03
1.828914418062740953e-03
1.904730061884228522e-03
-4.276613907160655911e-04
-2.583006699620300599e-03
-2.997711102232350532e-04
1.373845029563544595e-03
4.399779632372260714e-04
8.788696976420179441e-05
-6.132569971746396932e-04
2.194241952347434148e-07
-5.266244013722857272e-04
2.360638352750315475e-04
-1.620491411925925769e-04
2.087979265549148433e-03
-4.928105133914809045e-04
-2.867280791505087863e-03
-1.062422154439075393e-03
1.116623911971676743e-03
4.784712066281729664e-04
8.535368844894559688e-04
1.038854816448269748e-03
5.956893284330269179e-04
-6.088693375959285895e-04
-1.029171034170206760e-03
-1.103648574640585592e-03
-5.106483522779661777e-05
1.077018515609966948e-03
-1.367532295082628767e-03
-2.033652892315369106e-03
1.831337905818015369e-03
2.141214721975834810e-03
5.697108398102606859e-04
1.581234756791056193e-04
1.653696089609986170e-03
7.641001881580136712e-04
-8.546813742652668204e-04
-1.242228337691754720e-03
-1.030886918951655178e-03
-6.973945087262310065e-04
-1.324430021095980570e-03
-7.850883778682602029e-04
-1.513659802431928077e-04
5.779190844390190169e-04
1.865926895926320935e-03
6.693675555911566622e-04
-1.170425442204094417e-03
-1.658965198148876956e-03
-2.305616178994372408e-05
1.914907274114052184e-03
2.482741039653112072e-03
1.073551802028642563e-03
-1.396527729964255546e-03
-6.569032077860879459e-04
-1.441467863139534768e-03
-3.979824378364206147e-04
-1.254478327335860734e-04
-1.828540891359573851e-05
7.190474772729936979e-05
-1.088340475217163613e-05
-1.166321283540254917e-04
1.278857242884158529e-03
1.123111340006918875e-03
1.794797321978469163e-04
-7.873000595830819586e-04
-1.010780885553338527e-03
2.774828622801587446e-04
-8.821411740618268242e-04
-5.488144025079237003e-05
-1.284578006027472987e-04
-1.090298875170073525e-03
-1.809587857530941526e-04
1.085865341566631410e-03
7.370241312286761153e-04
1.527004851116556998e-03
4.087076831492059484e-04
-1.243499427859470633e-03
-3.803591388609132008e-04
3.983457966044446621e-04
6.262714428852491667e-04
-1.249676848555504488e-05
-1.568531910654840018e-04
-2.774643752792037071e-04
-9.976326599398235243e-04
-1.261713972947517502e-03
-6.236153891643985130e-04
9.058891377686341742e-04
8.754374537090464214e-04
4.964517587337854022e-04
1.896485122911970586e-03
1.847622601256976652e-04
-9.835163644269088231e-04
-1.308498140749037378e-03
7.325820388257750200e-04
1.172126890141874170e-03
-2.920944567244712978e-04
-2.585529435581684909e-03
-1.883614231246940902e-03
-1.571260488295940679e-04
1.540874506146411044e-03
9.377138465403208733e-04
1.253765280812868836e-03
1.283128169421047637e-03
-2.958518415409295763e-05
-8.431934718241488724e-04
-9.978159308571387526e-04
-1.404556060655185248e-03
-5.359241456423967029e-04
1.759550625145018350e-03
1.816039010149643907e-03
8.521447351450257921e-05
-9.995693873306389816e-04
-6.847923646993488850e-04
1.172076230647786004e-03
-3.216987250640367330e-04
-1.665652063328710436e-03
1.844067801267143362e-04
4.926382505724686937e-04
3.237749518621824249e-04
1.345355744184749966e-04
-1.141945784667777915e-03
1.075341036567800494e-03
9.932678260816416114e-04
-9.237481037448059921e-04
-1.158598617540623505e-03
-1.381869994122421081e-03
-2.128849272542497183e-04
1.133626131037669205e-03
1.135377897166498775e-03
1.166008498597221298e-03
-3.038752206948949763e-04
-5.353187222247256759e-04
-1.370965646899191363e-03
2.362165246091207146e-03
1.491283752119704122e-03
2.700750398468950353e-04
5.334512596271334846e-05
-1.769353033830679128e-03
-1.701170384640113276e-03
4.031214119441560786e-04
2.701339131282642827e-04
-4.155810903080058016e-04
1.901184959833845424e-04
-1.097631314084863106e-03
-2.117918179039691377e-03
-8.589635802636924784e-04
7.249666153736528161e-04
8.309230893604116616e-04
5.513028779902419668e-04
2.040515718268328619e-03
2.104594303382218215e-03
5.926537314596964749e-04
1.312502118350109123e-03
1.298227917065017129e-04
-1.449654954672498046e-03
3.653123920433085309e-04
-1.315857389067506432e-03
-1.632630970903459124e-03
-1.518860920743252824e-03
-1.597816549358292747e-03
-3.504634594690613988e-04
3.912423684008013800e-04
6.315391665265709335e-04
1.904429140847688781e-03
1.931665179662440468e-03
5.723055460850339123e-04
-1.399133016746637818e-03
-6.150716907530435432e-04
3.440229638257688777e-05
-1.885086187764358542e-03
-5.706388595357627085e-04
1.080289869967529775e-03
2.913717370904711588e-03
9.577947724956340685e-04
-2.173178307524276445e-04
-1.689518288308349729e-03
-1.944127614376382155e-03
6.857339777853709017e-04
2.984783143482710489e-03
-3.968795636244040314e-04
-1.836709420995537431e-03
-1.338376307845230056e-03
-5.803671914583868321e-04
1.051449102602653243e-03
9.704627912999657172e-04
-6.602437798340987998e-04
-1.386373798333830889e-03
2.720419023587823063e-05
1.611876476267540097e-03
9.409280200848026913e-04
3.166871123701321461e-04
-2.491843561450390833e-04
-1.357682973720117803e-03
6.600710316361178007e-04
4.675354403515298595e-04
-1.171128177089282487e-03
-2.902525778204583765e-04
-5.563984101254596838e-04
4.646040404101933925e-04
2.762858276851938490e-03
6.803196128339675762e-04
-2.135137321286062050e-03
-1.579174655069949919e-03
1.721779800502317099e-03
8.854368633597121431e-04
-1.051298710387497731e-03
-2.869451572851199712e-04
-6.472407600226302155e-04
-4.451581081046875815e-06
-4.283091209889206864e-05
-3.077366780830718116e-04
5.734371667970783112e-04
-1.445003568500056968e-04
7.458318012781576167e-04
1.969119758763327311e-04
-5.655294649620272668e-04
2.950279422799247748e-04
-2.098617102133687028e-03
-1.115509121806291821e-04
3.057141412287037174e-03
1.461491357298034350e-03
-1.634640828018503293e-04
-7.445536085212221388e-04
1.818632466588955554e-04
-1.954527025223333145e-03
-2.261644880490005713e-03
3.400511185768602049e-04
1.744126799817461750e-03
1.507780612161158367e-03
5.622863466797175429e-04
-2.144829638159834444e-03
-2.631742183678020992e-03
-1.496482088257219175e-03
1.422400525770198959e-03
2.924694654620392433e-03
2.621379749494685569e-04
1.055988643279707605e-03
3.002864379780527393e-03
1.352355881187958502e-03
-1.173209321726509076e-03
-2.463812270627000964e-03
-1.629729805124941443e-03
-6.777547819431749537e-04
-3.895227132758342318e-04
-1.388486624651161065e-03
-1.698112272051884378e-03
1.579344061941548348e-03
2.801493804979921214e-03
-1.610145331584506706e-04
-2.111233189651596630e-03
-2.929587759929027572e-04
8.777567872990419762e-04
2.323752233796788896e-03
1.303344134773133526e-03
-1.976261036834127752e-04
-3.484052068084258352e-04
-1.134804151486379104e-03
-5.762851302730707080e-04
1.034694390011147791e-04
1.055243282728468004e-03
1.431154714653000968e-04
-6.460886310369369631e-04
-2.376843753679894005e-04
-1.062938130821260542e-03
-2.040258516836070991e-03
-1.627667841317400905e-03
8.027194215579236836e-04
2.979498942214695283e-03
4.932017307725884616e-04
-1.456051853178159505e-03
3.434880316777538193e-04
2.689365378821277717e-03
1.915650056439802129e-03
-6.134556158452384670e-04
7.345010702499688536e-04
-7.703147168958055478e-04
-2.855926972229610138e-03
-1.876185141611278742e-03
3.242345244903578963e-04
1.293608932732271538e-03
5.675847218064271208e-04
-1.551607139046282287e-03
-7.913156345778697524e-04
-1.268954810345241518e-03
3.759927526629767720e-04
2.010706274059933726e-03
5.853961366544383794e-04
1.134974828500668644e-03
2.892993549610503763e-03
6.649317673490114881e-04
-2.964213313202617318e-03
-1.596227143669313401e-03
-5.824594769609259563e-04
2.197481744439454786e-04
-2.658739981062140188e-04
-1.282109012931670735e-03
6.776780436788842118e-04
2.867075174762527111e-03
2.085097504209123837e-03
-8.986312380887477146e-04
-3.022199929268843451e-03
-1.067573365873392827e-03
-5.108602503391810505e-04
8.040496289358099388e-04
6.100935378878962530e-04
-1.070388674262029915e-03
-4.012942987359071701e-04
4.223454764280441202e-05
-1.828563854132585578e-04
3.058797547333386006e-04
2.273925234314046889e-03
2.207163735321028726e-03
-5.163223718880961041e-04
1.104909349830098539e-03
1.097967692916801451e-03
8.120688918314014713e-04
-9.970987659793763627e-04
-4.044932335875091843e-03
-3.616566306350240626e-03
-3.310746046221286175e-04
1.641347085305738633e-04
-1.424833357264668069e-04
1.200303359889972644e-03
8.483884251656343030e-04
1.886664147184202896e-04
1.522221061318890754e-03
1.043546434264565293e-03
1.656766545798856252e-03
1.073295432723146313e-03
-8.637478017246248349e-04
-1.110658140545742623e-03
-2.424703312515192385e-03
-1.613619270169457717e-03
3.947191449100982165e-04
1.757552404442020788e-03
2.922276136694033390e-03
-8.498025112513992677e-04
-2.240530356443832909e-03
-9.479601167214844444e-04
5.863962472142513361e-04
-2.283843820999354195e-04
-6.396748264044765497e-04
1.497357102434172197e-03
1.157916526876528887e-03
1.850642628005861722e-04
-1.408387585592723278e-03
-1.320578758258289043e-03
-1.064705864643600850e-03
1.964916802164428777e-03
1.369649244172774141e-03
-5.538640018921456689e-04
-1.383342586003763496e-04
1.771698202616907617e-04
8.701193442962282818e-05
-1.066291885197482995e-04
3.541018842048099051e-04
1.310050620594611394e-03
-6.030489905361801142e-04
-1.425243105167870806e-03
-2.476068071397308527e-04
6.357539184741743980e-04
-7.624183543910809926e-04
-1.392225244210509860e-03
1.193197424467297473e-04
8.738422869271238787e-04
-4.292807733626019138e-05
-3.411698169182944031e-04
1.199902311015970443e-03
1.374598805887110396e-03
4.850731559809923731e-04
5.255044689501952877e-05
-1.302215448932936628e-03
-3.816062104618853784e-04
-9.168970784817552337e-05
-1.201922870052277853e-03
9.666956262613661706e-05
2.898848818877436222e-04
4.422894358428579049e-04
3.988692827890187565e-04
1.582774008023160757e-04
3.305747299910976635e-04
-1.515616650174542255e-04
-2.180682000739575912e-04
-3.235108791468813225e-04
-6.159552359181692848e-04
2.837601695170950027e-04
7.043422283412139381e-04
1.963976238130271776e-04
-7.728923542830088127e-04
7.059283731328079440e-04
-2.390083555801275433e-04
-3.920105323913322280e-04
1.057627301290790984e-04
-4.130417832732123542e-04
-8.699933836100637481e-04
1.171566500938808959e-04
1.029526131451145333e-03
8.034501304811302817e-04
-1.322595716123368698e-03
2.951998549258246364e-04
1.531561681198981631e-03
3.941171674678861105e-04
-1.297756832349247639e-03
1.040321091845833540e-04
1.074393427041340100e-03
2.238096544952902648e-04
-1.242972453951611067e-03
-2.890020288069949385e-04
-5.893050979012686178e-04
-7.810992933637087021e-04
6.536364741167963611e-04
4.755132728686738630e-05
-8.254772613536956005e-06
-1.251140185717321057e-04
1.375850475154321781e-03
-8.446804389846533125e-04
-1.902301355769838408e-03
3.407084466189227306e-04
2.070715326740157815e-03
2.220098926467195706e-03
4.837354998339933165e-04
-5.443255735999917404e-04
-2.389180123086442811e-03
-3.182328244101442077e-04
3.327035533930530102e-04
1.817254841508936236e-04
2.777825337652120726e-06
-2.020995844437106868e-03
-7.428735067832386522e-05
1.436827271763383394e-03
8.537973452291911522e-04
-2.719317324120651500e-03
-1.330073371420747866e-03
2.289705162413706568e-03
2.046844458355946868e-03
-9.856606661983026516e-04
3.626149855738181765e-04
3.337722369693747401e-03
1.517958602997607166e-03
-9.943908921590334429e-04
-4.067427515401984307e-03
-2.230148672792317890e-03
2.228407079201779641e-04
-8.493332495273454765e-04
9.428573134657536412e-04
1.462565880794426849e-03
2.373671303545351555e-03
1.527974114707189579e-03
-1.535845327059318956e-05
-1.040969939955120995e-03
-2.770675901854638065e-03
-1.996541533470157052e-03
-2.360761092097441068e-04
1.607899015503384257e-03
8.048777082116966020e-04
-2.627068374682570758e-03
-2.771564326373304483e-04
8.527005721336387151e-04
1.081893623029924747e-03
1.183375375873631447e-03
3.451021817478316239e-03
2.544323088276329199e-03
-6.253623026256905325e-04
-2.708048616435294095e-03
-2.796047546655285997e-03
-1.332096984275382614e-04
5.461220675502542494e-04
-1.673978460760154651e-03
-2.059613667866585021e-03
-4.508033561899580082e-04
4.160033000905893896e-04
1.620363315216267466e-03
2.410465720933019536e-03
1.880087322488531009e-03
-5.747837265985340956e-04
-8.315225908037567320e-04
3.459959607646831263e-04
5.430861051842168839e-05
-1.103266360106277579e-03
-9.995010302481842444e-04
1.728731920057403806e-03
5.095900345611330132e-04
-1.615469758094403678e-03
-8.412682488790480632e-04
-2.279648229851525621e-04
-3.930869537096066328e-04
-7.323455773766853307e-04
1.037857688119058581e-03
1.403310741600719480e-03
2.648461058052222709e-03
1.717526585445735762e-03
-1.545434132435937261e-03
-3.175261193379255720e-03
-1.798956535644852684e-03
4.492018994022041727e-04
-2.412403671295219746e-04
2.557514139376207505e-04
-4.938605467572361029e-04
5.693498382976732754e-04
2.231716290022577043e-03
1.294510758196143040e-03
-2.238575406657388779e-03
-7.365354465969520953e-04
2.596020828402501642e-03
1.196192293471411670e-03
-5.540268222579253742e-05
-5.501977915322048968e-04
-1.051462520817642889e-03
-2.167506785115374222e-03
-2.062290067754667371e-03
1.877085535046225332e-04
-1.372370061637701380e-04
1.247343846584546972e-03
9.967405087521106176e-04
9.530830355680950956e-04
8.199278248156844197e-04
9.079761761067368410e-04
6.087438148699045402e-04
-2.063253995120055504e-03
-2.383084877411441403e-03
1.319414680634212926e-03
9.462779900814967480e-04
4.520020621386956240e-04
5.853170947647683186e-04
-6.524357157028370935e-04
-1.292781379537244956e-03
2.289368263146292475e-05
-2.285585923672480433e-04
-7.563242709546387759e-05
3.187575739155367014e-04
6.411617501254771511e-04
2.106285694767242277e-03
7.433757907386826522e-04
-2.380104909600253265e-03
-2.531510431810776209e-03
-7.733557721880956765e-04
-1.487802964010705121e-04
2.405157973968020599e-03
1.560980950142611730e-03
9.951234762103993402e-04
-4.981384068060300176e-04
-1.682871227913502587e-03
3.553005853236400509e-04
1.381405942192512803e-04
-1.862272266030136174e-03
-1.665430906345032958e-03
1.298005064359411542e-04
2.616898895467943600e-03
2.749900723986220801e-03
7.309542296916361759e-05
-9.903527573518712199e-04
-2.277152466359572223e-03
-1.049694483734807740e-03
2.527749605397150955e-03
1.269835577360605046e-03
-4.133945762110806735e-04
-1.164156340063725401e-03
-8.450519299024602474e-04
-3.857265608198951617e-04
5.065587755727903952e-04
2.955856849117135632e-04
3.466314533994960300e-04
-7.192093559635979582e-04
4.517325842802519926e-04
1.111807902389092299e-03
-1.332098915064714416e-03
-2.452466419033717381e-03
5.008938916889445550e-04
2.954530046081641891e-03
7.927423300322605608e-04
-1.708370563819938941e-03
-1.189148702077555929e-03
5.209663213221548501e-04
2.506908543928177205e-03
1.904741485452567627e-04
-3.377877480815665110e-03
1.718499578441786725e-03
1.745444150170640755e-03
2.121929212323280423e-04
-1.354030791670974860e-03
-2.491885849790305505e-03
9.224398511709260007e-06
2.038527854540762851e-03
9.832413778253711826e-05
-3.040925498687094860e-04
-5.262178301431454618e-04
-1.772143323769362344e-03
-1.278907499799304725e-03
6.632403731765862571e-04
1.319888677313962259e-03
1.614763799230452398e-03
2.619297199800342535e-03
8.219847834684825775e-04
-1.221732226038211699e-04
-1.750580641232750987e-03
-3.315173987691473131e-03
-8.657312337172957430e-04
6.967216505405090209e-04
1.658793563625784052e-03
-5.918508170767824202e-04
3.065702811706671397e-05
1.831373183950677462e-03
2.179217751401628204e-04
6.711642470976421793e-04
1.198406049656815285e-03
-1.409651216415350747e-03
-1.202200089632785192e-03
-2.293983647702940200e-03
-2.843667696769092319e-03
-1.158113614678423940e-03
1.864798096109258115e-03
3.039433240636226895e-03
1.773121769101217507e-03
-3.935316873157233483e-04
-9.329985301450129456e-05
-9.833136384163889635e-04
1.360872383593151116e-03
9.824592426025886057e-04
1.599699150846805966e-04
-9.674192410293775161e-04
1.094957264692524327e-03
1.907641807506432665e-03
-1.135387885998311464e-03
-2.396262653954570315e-03
-2.945485169882025404e-03
-2.626675376601044810e-03
1.011385904750348053e-03
8.118805101757504538e-04
-4.605137233358634966e-04
1.485934216074929169e-03
3.312589522002327546e-03
1.220232860416310813e-03
-3.547311197242390430e-04
-4.901697967525226168e-04
6.632080916516916447e-04
-1.012442189627675766e-04
-2.026186348334015844e-03
-1.152206799203672879e-03
6.804804082471472594e-04
4.105006839375123138e-04
1.203321003561221882e-05
8.651261376377245927e-05
-1.205291101364201149e-03
-1.276804528507000189e-03
1.391033918962295219e-03
1.451163987533969635e-03
-9.502829138163131940e-04
1.309515030496683006e-04
1.025780870829639743e-03
4.854938478488917157e-05
8.542636564101912470e-04
1.147573418234869519e-03
-1.365685752209976544e-03
-3.026924556404786675e-03
-1.853670591548668527e-03
1.545185127608721901e-03
2.138328658325069475e-03
1.305545769824496870e-03
-2.902304952490802892e-05
-3.290151065121916379e-04
-9.555481514006630228e-04
-2.164690720437523425e-04
-1.148606845089897299e-03
-6.844803661245690363e-04
7.340039440645278320e-04
2.228206089730598160e-04
-8.312596320182251810e-04
6.343937230553134540e-04
2.338419986794628650e-03
3.170204558391550480e-04
-1.005455793482891089e-03
-7.182072886764646804e-04
5.601669296079481988e-04
1.445387836173918535e-03
5.514237984140375705e-04
1.137953594213290053e-06
-1.133824211011789061e-03
-1.643985164749976833e-03
-1.538191942080757756e-03
-2.348458929024600621e-03
6.518251836339276992e-04
1.815152948758398882e-03
2.361367416238712401e-03
6.811223991357371034e-07
3.769674666732938375e-04
-1.751079393162775126e-04
9.338544536392210434e-04
4.939028091788235037e-04
-1.276337212431581224e-04
-1.241415311588392727e-03
-4.101849858314255684e-04
-1.145564543362323408e-03
-1.005778567922988292e-03
1.646309687132920105e-04
2.344257730504173192e-04
-4.848401563655110880e-04
-1.070857386337825158e-03
4.661207851368187214e-04
2.604631522780326454e-03
1.684546266808804741e-03
1.062043725021256935e-03
-1.816281862957703445e-04
-6.768756041201549022e-05
9.408813710194596953e-04
-9.747014442672563561e-04
-3.069350471109762515e-03
-2.289101159602690422e-03
-9.163222953981644929e-04
1.439710380692880726e-04
-1.005884697851343844e-05
1.993970215039068006e-03
2.204303480808966331e-03
6.349148283960634291e-04
-2.617293872458018728e-04
-2.066074755638087467e-05
-1.233031350577916191e-03
-5.435612477306129555e-04
5.158808913077534341e-04
1.019835051133929308e-03
9.550309702710371761e-04
-1.520894754517081691e-04
-3.352058957824662023e-04
-1.137940382685546925e-03
-1.509238946715970794e-03
2.139660199959897858e-04
1.729896538957370134e-03
-3.283429170801776078e-04
2.887567314998626747e-04
9.841922589144676096e-04
-1.445734224112743072e-03
-1.198485928168707693e-03
-1.013240481759853685e-03
3.406997399799737520e-04
8.913937170434962833e-04
-2.643464312169800309e-04
1.310380130504292364e-03
5.904951837241267498e-04
-1.042764913225172627e-03
-9.904211578237328249e-04
1.054434425318910660e-03
1.580771960945370714e-03
2.790027684244830979e-04
-5.686939913528482257e-04
1.776401552423637585e-03
1.050353144649536019e-03
-2.295513949738387221e-03
-3.687319370509901505e-03
-7.339009923777316431e-05
9.209643597869249980e-04
6.685421902753675618e-05
-4.878636134028899521e-04
-2.713972657207090983e-04
2.735923784583401525e-04
9.372170244874506503e-05
1.338177622237825357e-03
1.880711672071596263e-03
4.901340641528520101e-05
-1.561006338910778763e-03
5.578846141460630254e-04
1.211624812345135725e-03
2.384869556775835037e-04
-1.609883887901502860e-03
-8.364245208430706041e-04
-4.780852605087905927e-05
1.334885476054846866e-04
-1.066504782103599568e-03
-4.531051465250387177e-04
5.921506733545346202e-04
5.364367140541336908e-04
7.472110806789852063e-04
9.144394056776709986e-04
7.290596892272511184e-04
-7.271886105033550408e-04
-9.860740957255017766e-05
2.150405373336172315e-05
-1.279344478756000957e-03
-7.911486404235028389e-04
4.263157991284045358e-04
9.504474053025643941e-05
6.692675419263903469e-04
6.372544364582373574e-04
-9.018946716379703729e-04
-3.018525473954802255e-03
-1.427640954307640275e-03
1.133960439835442853e-03
3.604083879596093557e-03
2.779604081522210179e-03
2.013674609236549250e-03
-8.382976314971978503e-04
-1.973422283960241889e-03
-9.475185259179673284e-04
-3.680481732398103523e-04
5.860999001844726178e-05
-1.201609477531627706e-03
-1.558585091826275885e-03
-4.011812736071640722e-04
-1.081175912364529170e-03
5.299760375630722638e-04
2.154365178754048555e-03
1.362244088474270313e-03
1.063732243213885622e-03
-7.158149250783519754e-04
-1.986641418806837662e-03
-9.150920088648541086e-04
8.190818174470805525e-04
1.074339717613934748e-03
1.977707029525739481e-03
1.685502396848431034e-03
-2.752241541164725334e-04
-1.784785795832785193e-03
-1.791585396459343489e-03
-7.685483859230150903e-04
-8.646577535875803709e-04
3.517796571630880335e-04
-1.774931776673020160e-04
-9.300997599519111739e-04
5.343796879850807712e-04
1.775487647612942728e-03
3.253372692248248342e-03
1.919848564752338902e-03
-3.891783837372364378e-04
-4.124951076454629918e-03
-2.870107744652454496e-03
-7.334159748625351631e-04
1.622900262277840976e-04
1.357928823322893802e-03
1.495846163204748438e-03
2.858658545237633287e-04
-5.803848100487442058e-04
-7.874144502113059052e-04
2.818858391818446761e-04
2.172590350603355661e-03
2.747433273721366399e-03
3.235344654136573708e-04
-2.511980808922893108e-03
-1.036996915009426399e-03
-7.527533082862668430e-04
-2.123982374299515381e-03
-2.730567934210227123e-04
1.287297155247630687e-03
5.719610045500522376e-04
-1.305770923928061542e-04
-5.732773812779952535e-05
2.838695268830677900e-05
-7.905311204066243656e-04
1.449831870674347673e-03
1.708516957076136426e-03
-1.748919546829734526e-04
3.674158817049326484e-04
-3.378763606984139288e-04
-1.662460878664382671e-04
-5.021767575721410980e-04
-2.872279493033859875e-04
-1.970114905691652991e-03
-8.249735480528799922e-04
4.004584905723650862e-04
1.402997306945348924e-03
1.424559753992537181e-03
1.082839807567289453e-03
2.347145565870298453e-04
-2.634421640821008308e-03
-1.560879343849085965e-03
-8.032984052177732145e-04
5.681141673940382896e-04
1.956931621470059304e-03
1.239666548848173235e-03
-4.697545880450663784e-05
-6.352529438761588682e-05
4.328761462914299863e-04
-3.855812431316643987e-04
-2.365369012628809001e-03
-1.669289765191968831e-04
2.545020936293770648e-03
1.799360889054003442e-03
-1.645655633672463234e-03
-2.607188570556974797e-03
-1.395669551809733747e-03
1.220842607173506979e-03
4.321941878425360380e-03
5.787906655895756758e-04
-3.146493479592562485e-03
-2.432867589743727393e-03
-6.409261817412487822e-04
1.005200308749402928e-03
2.502074769712581831e-03
2.167511403110781738e-03
-1.375932339161469158e-03
-1.113728285930105141e-03
1.118473134472002580e-03
5.861745169038285125e-04
-1.035702977555614905e-03
-1.766050240508542247e-03
-1.911512165829968440e-03
-1.625351583465019711e-03
1.380759325272457256e-03
1.154738004213058059e-03
1.508593531339787403e-03
2.284906441004359943e-03
1.645550336485756757e-03
6.498972343621429483e-04
6.620614510973699910e-04
-1.377572126798219145e-03
-1.964040565279869151e-03
-1.249351878830070890e-03
-1.210098576738362092e-03
-2.289996116998421240e-03
-2.179627364274815560e-03
-7.006994128488093325e-04
1.259773182030547592e-03
2.051796411057714604e-03
2.768949376693929671e-03
2.057771318211185172e-03
1.303864073231046292e-03
-5.570058644307723621e-04
-7.826912061915285504e-04
6.150724521160556759e-04
1.177540871721426304e-03
-1.099746390827725838e-03
-1.966348812458440076e-03
-9.855685536206933769e-04
-1.074911474804589318e-03
-1.028090028778411245e-03
6.043171743502144359e-05
-2.564901079208798665e-04
-1.500172607208887367e-04
8.378073505710451584e-04
1.640206273157663111e-03
1.037772752146495867e-03
4.041532743767192390e-04
1.569343835808282130e-03
7.161728684307221366e-04
-1.243308231861517876e-03
-2.024078724467269063e-03
-3.155404160747827917e-03
-6.205455543204017703e-05
9.987077738504929539e-04
1.247642583651184869e-03
1.753933463822798583e-03
2.306526828888736226e-04
3.426003938145642715e-04
5.675988858732795676e-04
-7.676956303649562930e-04
-6.044727477546724126e-04
-6.117579970754844507e-04
2.906527247845144910e-04
-1.086919330951075348e-03
-3.049247283194923830e-03
-1.000775980233957127e-03
9.563544445313398781e-04
1.769971606495922452e-03
2.520739284900644448e-03
3.063937572378896100e-03
9.606525824860706522e-04
-1.350564804396337144e-03
-1.283230138562107539e-03
-1.442364840261423390e-03
-3.061937606042284318e-03
-6.631392451898403088e-04
1.009219081648413292e-03
2.093462605458090275e-03
3.491553236069240649e-03
3.081712758293822171e-04
-2.432272640129530192e-03
-1.839548183834117077e-03
-1.124433620742425330e-03
-2.906569307149503437e-04
-1.023571363065472898e-04
5.093634438162905577e-04
4.783432749423176082e-04
4.171455054217324660e-04
9.377472160938054527e-04
2.650913304571688583e-03
2.149587114202305711e-04
-3.320962521447674756e-03
-2.162315098797132525e-03
1.550093111037640237e-03
6.397256061091565220e-04
9.001156357208833217e-04
1.106306179300717112e-03
-1.181588387952695052e-04
-9.436753838956714845e-04
-1.486229569723788101e-04
4.398010401266543587e-04
-8.676583580494914968e-05
-2.175560703217867178e-03
-2.913872794378838827e-03
-9.126553038339543702e-04
1.861198043437462283e-03
2.982533816772766060e-03
2.465625627176952234e-03
7.793591124715495196e-04
-6.956490668481424798e-04
-8.878187487282418033e-04
-5.600743899375514642e-04
-9.358606529060738794e-04
-1.104371050427755546e-03
-6.138309067887869584e-04
2.054950452163646201e-03
4.863192354132456771e-04
-1.664521390551785976e-03
1.735081513298858576e-04
1.874617967378384292e-03
1.602782198055175203e-03
-7.982916414855812520e-04
-1.821217936051681453e-03
-2.076726091170785857e-03
-1.410903478721622917e-03
1.399581489881372449e-03
1.780284327631057734e-03
-1.134186699510062422e-04
-9.232338968148390539e-04
-3.449783790601080799e-04
1.159527348081132100e-03
9.887569020056155220e-04
9.627284353685152622e-04
4.569707380637266824e-04
-5.448284248692813808e-04
5.341281562721931359e-04
7.781961047580172441e-04
-5.895722338920252265e-04
-1.290210133490056433e-03
-1.480571045251392881e-03
-1.921308936757994785e-03
-7.721897376662958338e-04
1.066990520753486856e-03
1.328728015283747949e-03
1.411776640500917498e-03
7.336971551652887724e-04
-1.439881717700005172e-03
-2.334952074297345567e-03
-2.537363650185131807e-03
1.482234301055098845e-03
3.176098007868256856e-03
2.245006183280039060e-03
1.433226866516384371e-03
-3.263804086696517510e-05
-3.396517028747287475e-05
-2.722185776044145624e-04
-1.231265200034009589e-03
-1.912171834228708952e-04
9.920341235609615206e-04
-1.974836914652604303e-03
-4.071768300010243993e-03
-1.493057608228323284e-03
1.028406952769220662e-03
3.342911958235327084e-03
4.221018918214910348e-04
-2.476476622762628383e-04
1.234014923470183860e-04
-8.963187952925402713e-04
2.107457550533868682e-04
1.924076139541308671e-03
1.346714620380112890e-03
7.665118545656732100e-04
-8.883809954272972598e-04
-1.640040483474195518e-03
-1.952948677193597996e-03
1.498222603630106411e-04
1.610677189509792002e-03
1.052051733819710320e-03
-7.653095678223057093e-04
-7.893926233541249168e-04
1.135325721962128932e-03
-1.241601275805381734e-03
-2.418824199383455466e-03
5.531684421067567352e-05
2.225142888552316626e-03
1.661312476876218927e-03
-8.616524639172271939e-04
-1.671400869215111315e-03
-1.493813780945533044e-04
1.421226402205172639e-03
2.127656754705564007e-03
-6.242708305981396495e-04
-1.496906000565436691e-03
-1.563557464001286753e-03
1.305214661349506262e-03
2.524191650516517671e-03
1.933328169040422284e-03
-1.685183054361725444e-04
-2.412194140632008092e-03
-3.272887962290971665e-03
-1.832590994353287903e-03
-5.268406739620684360e-04
-1.102181539235874523e-04
1.562810181824280656e-03
1.296202134620918567e-03
7.737108671477696499e-04
1.484246812350372129e-04
1.093260218744160350e-03
1.764967249981270374e-03
-2.965486998231878918e-04
7.241425187229464256e-05
-5.565075962201878750e-05
-2.533272116174884207e-04
-2.454679543087345470e-04
-3.645596524846477773e-04
-1.090700131167593933e-03
3.072637123740703255e-04
-2.976248574185907936e-04
-1.987742384155883127e-03
-1.089546365874021231e-03
7.387269013284477378e-04
1.679842359508735411e-04
1.046663892541441557e-03
-1.012690767557021532e-03
1.200800866065745509e-03
1.774957215919542629e-03
1.356841303269192434e-04
-2.616844733792538565e-03
-4.747077945029177680e-05
1.760092646154754912e-03
3.768212913695533246e-04
-3.780362201836096774e-04
-5.002441215034513058e-05
-3.284125848770845751e-04
1.210649599232320288e-03
5.766501897935865035e-04
-5.794592661034054203e-04
-4.568059021812228638e-04
9.135328391322063146e-04
6.022194958799999059e-04
-8.079370792040238732e-04
-1.204133619819799028e-03
-2.283026599718682333e-03
-1.005192786948132331e-03
-2.762483534125231930e-04
1.428600685158150623e-03
2.281629511061337642e-03
9.161432630818769351e-04
2.400408073824815761e-04
-1.567847824509371836e-03
-1.140332950369184802e-03
-4.510600645429376529e-04
8.143616047322013718e-04
1.138070944267809918e-03
8.318148596051075285e-04
8.162393756810692232e-04
1.797671992551505213e-04
1.464336668309193252e-04
-1.569145427929455848e-03
-1.148002224063127824e-03
-7.206833624523859873e-04
1.779480951032193919e-04
-4.267865813239312832e-04
3.743678795735279601e-04
1.504394520132969779e-04
-9.361764696092621111e-04
-5.885453674994531748e-04
1.351313971404192365e-03
1.986040119701473674e-03
-5.997885549435008450e-05
8.952250685165773214e-05
1.966429911497200641e-03
1.437647211234025293e-03
-1.816750705412031094e-03
-1.707936155629718924e-03
-1.148118924931020284e-03
-1.825835593180020339e-03
5.251212248910312828e-04
4.094185870371395367e-04
-3.509047132125870522e-05
-1.261509839127905683e-03
-3.640469214693060006e-04
1.749119777463720941e-03
2.948610985057757532e-03
3.405842164395723234e-04
-1.036435302115047870e-03
-1.639562707038022321e-03
3.605147506801056802e-04
2.366016763771433117e-03
4.043431323594508611e-04
-1.868627694658950462e-03
-2.475775213605646563e-03
-1.270806340994038320e-03
2.045691239253249246e-03
7.546782463421415101e-04
-1.486428741895685652e-03
8.111678795561007033e-04
1.692438837682843332e-03
2.069211563535910264e-03
4.127136094807062373e-04
-5.318829101859743475e-04
-1.221413647662096666e-03
-2.414714081978965379e-03
-1.815101923804984720e-03
-1.737638326305968040e-04
2.524521662850731825e-03
-4.163536166601997405e-04
-1.958357229202992503e-03
-1.014670820108470569e-03
1.668618179521026701e-03
4.731780533274877916e-03
-5.577250419496132885e-05
-9.406309908103472044e-04
3.978342026551213756e-04
1.394582118612112378e-04
-1.877546580892006708e-03
-4.771440246581160277e-04
-9.814550740937135875e-05
-2.281240596780685550e-03
-1.753256795751297233e-04
8.633878011431257628e-04
1.734602169375665422e-03
8.965072905559147778e-04
3.169511966028264616e-04
1.964446270533645733e-03
1.400327520700325561e-03
-1.691578051536541099e-03
-2.130470520295195576e-03
-1.749761499238328697e-03
-1.767098786480022967e-03
-2.021496483939881020e-03
7.043423937588954437e-04
1.696287108946501442e-03
2.088490358744316726e-04
1.904759859950511851e-03
2.831709322067684116e-03
1.170640972906182619e-03
1.346582790151746364e-04
6.452420258624691485e-04
-1.718536934392374781e-03
-1.917774524554907885e-03
-3.000218287925990584e-03
-1.145943365482526800e-03
-1.231228156623231105e-03
1.023652746662471981e-03
7.427746466014853270e-04
3.726896128330801764e-04
2.967274602037301735e-03
4.099698350833949276e-03
4.071281669287950961e-04
-4.905085687883208728e-04
-1.504195589419221385e-03
-2.951649888591703023e-03
-2.097914671179763879e-03
1.320894449218525633e-04
-8.273680396680147334e-05
-3.042613822030620658e-04
-3.804544784869282070e-04
1.521097856848195595e-03
2.045751615938879060e-03
-3.301266794666444376e-04
-2.645574146270159976e-04
1.062622890102866025e-04
-4.399479073397239651e-04
6.876375230107658297e-04
7.379146570706765105e-04
1.631876432618589484e-04
-5.846359785738481632e-04
-5.956929523575338597e-04
-2.163740596146871385e-03
-1.325333476539152042e-03
2.374706171958582222e-03
1.915957251808485338e-03
-7.182596245132145344e-04
-3.418684604690399058e-05
-1.502462230633246857e-04
-1.485717773950709082e-04
2.793191921834158151e-04
-5.406762560430910516e-04
1.435054250468298614e-04
1.422941312192638761e-03
-5.094126273778140819e-04
-1.830340057335998541e-03
-2.683378963692836620e-03
2.974573222523774468e-04
1.627351363019920952e-03
2.991625141163716060e-03
7.328609059004550196e-04
-4.165584992354605127e-04
-9.147387516691621442e-04
4.565958367580175451e-04
1.840993375925534541e-04
-9.736843752820125483e-04
-4.268932902864464311e-04
7.532197515987130217e-04
4.288162431626311934e-04
-1.399914561333387040e-03
-2.442224402639203880e-03
-5.586377454288420910e-04
-1.785500908240854247e-05
1.777296949539461856e-03
1.623850763927296020e-03
-3.271350847513716017e-04
-4.187611229843156814e-04
2.865678436515502539e-03
2.494287608542107310e-03
-4.805024684789609753e-04
-2.871540812380899647e-03
-1.796777167517226489e-03
-4.760366345002661238e-04
-4.477652161988102987e-04
-1.873398494734647857e-03
1.250493588417563463e-04
2.342297350404051390e-03
1.881729155747739312e-03
1.037727534109644974e-03
-7.918708202260297483e-04
-5.447208838011363902e-04
-3.899500948248521993e-05
-4.803148003069803232e-04
-9.360884161926838996e-04
-1.235121246191662808e-03
-1.205402674627789779e-03
6.981726277865577066e-04
1.899418492124348157e-03
5.823874075609887209e-04
-3.425027447806949701e-04
-5.635608703820225909e-04
8.360375300324632102e-04
1.868682959814573722e-03
6.945059124226508809e-04
3.524711039682476197e-04
-1.156580262039100205e-03
-1.560574661955205829e-03
-1.130164701262038798e-04
-4.908021756763088217e-04
-5.698110343101768071e-04
-2.062910562817423356e-04
4.417576219724809300e-04
1.513745573989850051e-04
-1.077168925112840592e-03
-1.105748082188391657e-03
2.206474976571088037e-04
1.530509387158970240e-03
1.450602242308582325e-03
5.887801106740061033e-04
1.602871199822024015e-04
1.224913566010118549e-03
5.677164972360667847e-04
-2.738698585250723232e-03
-1.076815233882357989e-03
2.338466215625005246e-03
7.852938373225230081e-04
-2.841536530331585913e-03
-9.126473093470027038e-04
-7.475490675945512887e-04
-4.806249158799933991e-05
2.725197941022259630e-03
2.648105198827316797e-04
-2.374813645520438676e-03
-1.358943108057883431e-03
8.908401109493663955e-04
1.493773830167949897e-03
1.076136577047189218e-03
1.939424516143431303e-03
1.040967895446260390e-03
-1.613602564070312816e-03
-2.512057444961333669e-03
2.462733102091851402e-05
1.265453118669950319e-03
-1.642526741949643814e-04
6.168918012877548434e-04
-3.595141361916328552e-04
-1.720843338790040838e-03
-2.551923633331531962e-03
-8.696242787248043525e-04
1.646151393667274337e-03
3.923984274730368815e-03
1.532764114847444317e-03
-1.569637195923484930e-03
-6.659063117464383060e-04
5.657507884220034202e-04
-1.820875918216577273e-04
-2.014081472461952838e-03
6.948134301791265496e-04
2.583927844925561993e-03
1.254309043691191400e-04
-1.965799268622995654e-03
1.136893642332176312e-04
1.322352918160858487e-03
-3.237511897537252627e-04
-8.514262743454256797e-04
-2.079716245871994756e-03
-3.380853002734820253e-03
-9.186549545604804409e-04
6.002624621977016139e-04
1.809634890306720994e-03
3.645745995602669032e-03
2.767769939075534567e-03
1.779913793886815599e-03
7.590614277538107815e-05
-6.670594894910592421e-04
-9.117847292723010866e-04
-8.176181627655005040e-04
-1.459075933421627750e-03
-2.840466777579762989e-03
-2.826708353737220330e-03
-5.000478176598976802e-04
1.245276365447173629e-03
1.266971636242009364e-04
2.406103472268243323e-03
2.746446939115707985e-03
5.372218795692618783e-04
1.988558369513521423e-04
3.489469741595943976e-04
6.694331791985549604e-04
6.871988793709368293e-04
-1.750110700783308586e-03
-1.622174152974052361e-03
4.482847771489187512e-04
-2.871375739089655158e-03
-2.734905948459978673e-03
9.539916336281407949e-05
1.809228337511853283e-03
2.108301270512628282e-03
2.221310134117233156e-03
6.301745850652263562e-04
-2.170138869820020106e-04
-4.677487154249330894e-04
-5.763752774618733114e-04
-1.914272352093081535e-03
-5.571307296996154835e-05
-1.889848185585921159e-04
7.365889615782108711e-04
1.193423511744683401e-03
-4.990891237199753232e-04
8.181517933916294743e-05
2.018614556108674039e-03
2.258418509911333527e-03
-3.623437187499448011e-03
-3.417397960947940547e-03
-1.701452585212510828e-04
1.700946504363140500e-03
3.747086773605504259e-04
-6.279919877436005056e-04
2.305477578859473867e-04
-3.953687890819665971e-04
9.786906305309457297e-05
2.022544363011970128e-03
1.415334013590033042e-03
-3.499459404468314647e-04
-1.139887311973604954e-03
2.604737959934139754e-04
-1.241382196212776083e-04
-3.195479938126143376e-04
1.037361468920598414e-03
-1.099018703268908170e-03
-3.381504990015748655e-03
-9.363322916071069573e-04
1.803075823133795837e-03
3.150310213631065445e-03
2.182044701834450970e-03
-1.414699005686423285e-03
-2.459631232828695443e-03
1.081132484701170533e-04
4.838693949002780036e-04
7.989714664382518376e-04
1.508198310886151548e-03
1.695157158453314359e-04
-7.735673287405093849e-04
-2.689298446263694957e-03
-2.060268409192305555e-03
-1.775454334851968297e-03
-1.449241718050812804e-04
1.469342483308993738e-03
4.450232672529052559e-03
2.700771840310514562e-03
-1.334922854880729679e-03
-1.811670747663739547e-04
1.275055144280770039e-03
8.917169725649758995e-04
-1.336773774458981188e-03
-1.599153384848105283e-03
-1.420801085962081819e-03
-3.305100668958994153e-05
-1.391667859194224959e-03
-3.801176526514388372e-03
-3.738378447296294722e-04
2.352605447050864010e-03
2.814711672140966705e-04
7.570092611251518855e-04
2.572769443404493601e-03
1.157543589334965621e-03
1.238972358430159328e-03
1.737172985609057845e-03
-5.722886663481138465e-04
-1.443591865012584926e-03
-1.445594051586546148e-04
2.409432185902695561e-04
-4.703232719114135542e-04
-1.389489900469930653e-03
-1.621671784979529171e-03
-1.943129321690985085e-03
-1.291292236516502654e-03
3.047304470234842196e-05
1.114617214380266615e-03
2.736519314566207908e-03
1.859415543039914364e-03
9.404686365490893402e-04
-9.207857295043834697e-04
-1.727378669311267984e-03
-7.054640463033055300e-04
-1.358074411984247954e-04
-1.348582291134587437e-05
-3.368452806787258715e-04
1.181360581483340434e-03
2.705591579321028894e-03
8.721854985967518155e-04
-3.594715538983499171e-04
7.109239485550463279e-05
-2.266940030330605923e-03
-6.620262294200397355e-04
3.105761725979991686e-04
-1.172369997982905662e-03
-1.893191691341378690e-03
-7.655857083162312393e-04
7.062707447291273781e-04
-4.833427019465582198e-05
-2.602768470006565555e-04
-3.679674609376207229e-04
2.694226466050445717e-03
2.829341429609917493e-03
1.103582922542579742e-03
-5.100326849064591283e-04
-5.042964658602739660e-04
7.903939388363362753e-04
-3.177490175893454361e-04
4.120380091602946892e-04
-1.476506667268296215e-03
-3.417820843944896405e-03
-2.536555521251496626e-03
3.863130086858290735e-04
2.592409743113756240e-03
2.550163271976612928e-03
7.172243720813709523e-04
-3.076186585132488754e-04
-2.193833452476952241e-03
-2.487546551283406713e-03
1.267739367953093924e-03
1.764524291598135348e-03
-2.170127722442955712e-04
-8.258006692337890604e-05
1.992671732663418003e-04
3.091937836793086543e-05
-4.251664266163388689e-04
1.126572311723201018e-03
1.332862423301814370e-03
9.575602272668707823e-04
-3.057251400787814374e-04
-3.680248967020121643e-03
-1.539678948129789143e-03
1.688056398404835443e-03
1.270488811548498281e-03
-5.049561184705057392e-04
-2.818357500006671225e-04
2.617627193334273695e-04
1.279614760071354695e-03
-5.832876764458314652e-04
-1.509654777428508536e-03
1.097684070995459541e-03
8.336803194547474320e-04
-1.614959734144141216e-04
-1.120901186444171402e-03
-1.430427285816078010e-03
-1.886909652490614906e-05
8.268458811434710020e-04
1.912804200138767041e-04
-4.019693367251510308e-04
1.330840491783228307e-03
2.024760531346724013e-03
1.363862277954574695e-03
-6.647585939699941684e-04
-2.549375372591744775e-03
-1.557742844727135877e-03
6.181660564616080298e-04
-9.163428225056648169e-04
1.153184313319728909e-03
8.683764414986006128e-04
-7.077884588015969682e-04
-1.594663647938748298e-03
8.006293853611849871e-04
9.853753747864860569e-04
2.938801906841176370e-05
7.160596929934600436e-05
6.578872366169625802e-04
1.182502395205531701e-03
-4.848855216808118339e-04
-6.423665820154232783e-05
-1.398086271594255214e-04
-3.941227542899678393e-04
-1.117277474076348994e-03
-1.528602416878291868e-03
-5.401431694125211026e-04
-4.197764221200961073e-04
-5.365256456373101524e-04
6.541008265121715445e-04
1.183301540996586172e-03
2.433870230078346870e-03
1.363927932843671687e-04
1.916389511926508242e-03
2.865469423425179730e-04
-4.967936628541226498e-04
-4.537533233948242025e-04
-1.284943072128791851e-03
-1.132810229052759986e-04
1.419558916529750116e-04
-6.883879950557486756e-04
-2.311132314137221908e-03
-2.597069101954467031e-03
5.877063118620733974e-04
1.904090433589817905e-03
1.050836344005683836e-03
7.793954201996453708e-04
6.364078211541389016e-04
1.845437681726245019e-03
-1.787416831327062750e-05
-1.293060583893844472e-03
-1.220918539802394063e-03
4.064018459593889392e-05
5.016997814953463907e-04
-1.494677156187615929e-04
6.460326668974064905e-05
3.757906133530019384e-04
1.701240787742546020e-04
2.089846949842137907e-04
-1.337795318333955680e-03
-2.330429998726581218e-03
1.052016532716925495e-03
1.341456023759885971e-03
6.849515732795667710e-04
1.231258888841639445e-03
-5.753823751913325797e-05
-7.251638414921028012e-04
-1.213717819765070070e-03
-4.388939933038007437e-04
8.975298511097425710e-05
2.355142588829096657e-04
-1.395309035184467332e-04
-1.785781549051887462e-03
-1.184300262529229802e-03
2.433154838903847737e-03
2.963411643217440678e-03
-5.643602481462386619e-05
2.293907830565194723e-04
6.008425683030338416e-04
1.226736352110597867e-04
-4.645342652470791376e-04
-2.252358693303434505e-03
-1.906962483334948780e-03
-8.231632104303465616e-04
1.132481442656452144e-03
1.197033555872753985e-03
1.188087095773932619e-03
-1.256757404007784532e-04
-7.684598257362030291e-04
7.804848642322334291e-04
-5.890716364992539499e-05
-1.760504028901789357e-03
1.036250276507327079e-04
2.334535565173454907e-03
6.675213845252628894e-04
-2.446109922369901074e-03
-1.501395200653994925e-03
9.210455519085439333e-04
1.936564578402591007e-03
-1.181520885542471089e-04
-1.565765145423149646e-03
-7.130409660179663203e-04
9.279399153508646790e-04
1.538498602268307397e-03
9.766364097715226136e-04
-7.490701796383093369e-04
-1.343314554208367966e-03
-4.964922355828202492e-04
1.153499611882656409e-04
3.486492429963786903e-05
2.334466996426869936e-05
-1.143726537936548895e-03
3.710575737554460893e-05
6.583437379662335134e-04
3.303560936957817412e-03
1.246822981366659672e-03
5.787277205995268979e-04
-3.918375302288615997e-04
-4.575125077313223730e-03
-2.366421134560460493e-03
1.957067117200107093e-03
1.070205315826224402e-03
-2.430443036783136012e-03
-1.062874645556605028e-03
1.364810667136451923e-03
1.349666165260791613e-03
7.278850923088708890e-04
1.027870459430501628e-03
7.229022232692843388e-04
1.181855010516523518e-03
-1.969082634723257497e-04
-9.820171453635336695e-04
-8.795557833016086520e-04
-8.162264995425635387e-04
4.188402355025152429e-04
-2.335517297250842600e-04
-1.099218330888010898e-03
-6.529817071153623184e-04
4.001346576478132834e-05
8.336138893343204631e-04
2.042472117060035747e-03
6.268235688274649336e-04
-1.950124373286061044e-04
-5.601873073064977081e-04
-2.283408502965919573e-03
-1.991177613667823813e-03
-4.305818383465934021e-04
4.286928065712885400e-04
5.973775365404465762e-04
1.607602081458442932e-03
2.697299086070377178e-03
3.098749304177073755e-03
1.581348305850569912e-03
-1.563397623638522558e-03
-1.773292622692494019e-03
-1.352083544917876898e-03
-3.516406004585860903e-03
-2.018252511653763522e-03
-2.177569674024146251e-04
2.080639218208937911e-04
4.849253840189961641e-04
6.197300666201831969e-04
2.297825295872251913e-03
1.709567781711763407e-03
2.300765888321718890e-04
1.214090086267013199e-03
6.879782880453345515e-04
-1.205678778335103141e-03
-1.733030587390432288e-03
-1.518712758608192076e-03
-8.825597659707588166e-04
7.717675463697829929e-04
1.600652078626923049e-03
8.306650884418645799e-04
-1.727959109815861748e-04
-4.990219547003585821e-04
-4.544998778506658841e-04
-4.944685063716088924e-04
-9.175898575411037868e-04
7.279717899272053526e-04
1.709669943443975536e-03
-3.967797555054731681e-04
-2.062340949984534360e-03
-2.141981926344031372e-04
1.201953755134855650e-03
-3.869162441104630245e-04
-9.944499795290898982e-04
-2.995745105484502388e-04
1.833375618788559390e-04
3.077820133174129702e-04
2.057353158376671199e-03
2.526469334150228258e-03
1.702731786705613277e-03
-1.499330149834321490e-03
-2.980558997155333470e-03
2.886710902918151501e-04
3.522515206324785750e-04
2.428219294837874074e-04
-1.122960726063582191e-03
-1.161436268221903304e-03
-1.098289750823562734e-03
-1.238458407846129922e-03
4.064574012446449738e-04
1.097987742817439424e-03
2.677224484865379801e-03
1.950327392787998488e-03
-1.835940224795973384e-03
-2.722719011688166674e-03
-9.415897578818419739e-05
2.848051232658771904e-03
7.629707037342576843e-04
-4.017842013877523681e-04
-4.995191157386408114e-04
-6.061896448140112470e-04
4.899499910882955736e-04
4.909353753744847117e-04
-4.590379525879431807e-04
-3.830796317815325625e-04
-5.062425896578307645e-04
3.907987507855313278e-04
-2.840344328263566358e-04
-1.152206051701125823e-03
-6.916810940039796020e-05
5.345261535065882032e-04
6.114235348385097337e-05
-2.551641801364914965e-04
-2.485108402653689124e-04
7.036319639184837951e-04
2.306316838283906361e-03
1.421507407374275177e-04
-2.122033573181507631e-03
-3.646729930927809912e-04
8.353514324322952860e-04
-6.621430690497168104e-04
-1.048808628963863662e-03
1.803230469320129051e-03
1.628006647711185018e-03
9.324573913994385014e-05
-9.808360611360986917e-04
-2.310026465560211873e-04
-5.648195997935472274e-04
-4.624102058614293700e-04
9.886151682034732650e-04
-1.094706970710447548e-03
-3.658060261317958462e-03
-1.508882183719430312e-03
2.459178353449076228e-03
2.758127109283975940e-03
9.173941129907263459e-04
1.363026653241702739e-03
1.499111731477544788e-03
8.633471277058385115e-04
-2.453538475631206195e-04
-1.986272874335623731e-03
-2.839268692133635388e-03
-4.333859480127322250e-03
-8.252213421235683050e-04
2.347810355105102529e-03
3.663161525588306232e-03
9.895817303597824292e-04
4.359084680699712791e-04
1.762296371355771222e-04
1.741277706249211949e-03
-9.676447121774285013e-04
-2.299534579055803954e-03
-1.485292889279040199e-03
-1.111579229831963483e-03
-1.017399357025998603e-03
1.794958804312253228e-04
1.267061539567924076e-03
2.405252608778124350e-03
1.768202854277422208e-03
-1.838800360770428098e-04
-9.448476170652092207e-05
-2.554039504601932640e-04
2.439955875593909497e-04
-1.348911003111580601e-03
-2.446602197831891905e-03
-1.071840364780872945e-03
2.262241027826137132e-05
1.898794862150710938e-03
1.251803312374857272e-04
7.980478357547979122e-04
9.433410658093543781e-05
1.056271825644707453e-03
2.147618653338976679e-03
9.164610754792075530e-04
-9.683814760639453557e-04
-1.836076434757665920e-03
-3.369657720796481824e-03
-2.213017788906781330e-03
-4.163075683115110073e-05
1.777442473760906111e-03
6.585571969729864684e-04
1.341011699079444099e-03
9.340642468524677951e-04
9.702891524393986080e-04
5.384816757045261283e-04
2.508115186943974187e-04
1.069332623102780188e-04
-4.755259290172930784e-05
-1.893510071811046634e-03
-2.381301744487637501e-03
-1.054352354879010013e-03
4.089390404162038944e-04
1.246940612434667851e-03
2.530070825315405142e-03
1.514758282826066766e-03
-4.221518684404377848e-04
-1.903236853386473890e-03
-6.347836677079677845e-04
-4.256227398394444943e-04
-4.810907649299901072e-05
5.056956380644430944e-04
2.375512482389450548e-05
-4.168419019158146454e-04
5.659487920310589393e-04
8.438432815777349152e-04
-1.865446080997713949e-03
-1.301305767087923993e-03
1.775237641796687882e-03
1.106890614183831745e-03
1.985225759292386745e-04
5.677756230886279662e-04
6.771214996380719477e-04
-1.929444452039868856e-03
-1.623024861195724797e-03
8.151641510899417225e-04
2.009396971002893207e-03
2.246503627623720745e-03
5.940867245308489083e-04
-2.809587852926110924e-03
-3.397663073073210228e-03
-2.244776675412490236e-03
1.892929802428853191e-04
2.533481337087922867e-03
3.267720392776517040e-03
4.169666072105610802e-04
-3.623291137419622394e-04
1.399949186322214543e-03
-9.962811427393642848e-04
-2.805705456194566849e-03
-1.875915267093845873e-03
-3.263558783379142975e-04
1.810634681138741315e-04
2.718748599145107115e-04
1.331872808963211960e-03
1.538615096017666595e-03
1.353701507985555219e-03
-1.397012234345366023e-04
8.669089088107064878e-04
1.311551967187005825e-03
1.132292640625370914e-04
-2.131571319304967089e-03
-2.079015054645712898e-03
-1.113200417868454202e-03
-1.835579221556481871e-03
2.264560994465095005e-05
2.782963746321353519e-03
6.499491123402225540e-04
-1.488666834108205066e-03
-2.700713395122090739e-04
1.412412829878182275e-03
1.732709488850046843e-03
8.398006214570480701e-05
-4.802691525723585750e-04
-7.229940172797497035e-04
-1.713857613872628565e-03
2.190183539558710705e-03
7.622990298112815094e-04
-1.271022951795926486e-03
-8.616358932120859191e-04
9.192160976257363145e-04
-8.136878546937396147e-04
-1.331737158494324808e-03
5.848463088755513064e-04
5.105133912434104814e-04
-7.922380548251004191e-04
9.482914003599007000e-04
1.000507122038279744e-03
1.193382691584648700e-03
4.561627856355858577e-04
-4.509892287181923361e-04
-6.148196695102386544e-04
-1.104482810502058427e-03
-2.406444370488157935e-04
3.014719916750968989e-04
6.989113139935866420e-05
-1.384997061521820848e-03
-1.916983089183109607e-03
-4.470274389367228122e-04
1.357122810151102990e-03
2.436595611112381352e-03
1.272100942545400203e-03
6.132967346834192895e-04
-9.139316302711245586e-04
-4.150166141902974560e-04
-7.969502900443418882e-04
3.715109380502041626e-04
2.468599077563133574e-03
1.057801787770592822e-03
-2.650448168989091944e-03
-1.950216148850106128e-03
-3.557522641285486547e-04
-1.377701619895229171e-03
-4.361229474206302801e-04
4.903237014063572315e-04
3.399764821570667398e-04
1.255520868051776279e-03
-5.727849719611660759e-04
6.555451012038828384e-04
2.497512075302574415e-03
2.048202834560509077e-03
-1.159859230470454850e-03
-2.714555714536760495e-03
-1.257545166899677993e-03
2.127548261904922168e-03
2.085640496815612671e-03
5.884348329725376091e-04
-8.460503618608732892e-04
-2.678019799969718739e-03
-2.462105480854082703e-03
-7.978812063992475872e-04
-2.620464586633687240e-04
9.992542096578685244e-04
2.554992904801254607e-03
2.602900230042020594e-03
-1.879897803126335133e-03
-2.931698615527790572e-03
-2.236426342232143900e-04
-2.983290249741780628e-04
2.044512695439266569e-03
2.483606333545475059e-04
1.023627145609735684e-03
1.459398027194130833e-03
1.994047176234573469e-03
-4.498344464444251328e-04
-1.324487836982659889e-03
4.065873127677755751e-04
-1.390806447741544001e-03
-9.455215596507034409e-04
-2.627266287997997909e-04
3.295649331524911144e-05
-8.275624989484329196e-04
-1.468959058039705353e-03
-1.424001792232390193e-03
-1.592838449417220085e-03
2.729569142436794396e-05
2.083391299166776397e-03
3.831294933681032508e-03
2.234211072567670892e-03
-5.621329705755811861e-04
9.387181090842351954e-04
6.305173337429311126e-04
-1.036766784487833798e-03
-1.785694541957705272e-03
-1.782115820887591323e-03
-7.343737618906776878e-04
-1.096324054506375625e-03
-5.896139967102120936e-04
1.845907543867455992e-03
1.932560864530226538e-03
1.804253605002896759e-03
2.072134913480191878e-03
-7.690253034865640082e-04
-4.269581330293624639e-03
-2.313496906545451509e-03
-5.297648730034146269e-04
6.442458580806120945e-04
1.078791148491344172e-03
6.449426790630884403e-04
-7.872674710949843346e-04
7.691773135832116011e-04
7.518320204573799518e-04
3.907493467177401529e-04
-1.588105426114171754e-04
4.721533754920840989e-04
7.468178024555283383e-04
2.326955292839950114e-03
9.191246827831536965e-04
-2.956704629467742790e-04
-1.646115961607743164e-03
-3.764063968204473844e-03
-1.479192774055639731e-03
-6.024964311178355493e-04
5.372245573670394493e-04
1.327328957565431910e-03
-6.719278812342957194e-04
4.945898264060004119e-04
8.648103182951889616e-04
5.960755843775250497e-04
-4.611194020328307063e-04
1.203335660496105547e-03
2.535435648559430499e-03
-1.318326811520645694e-04
-1.007013076150497111e-03
-2.504911822427459433e-04
-7.688819954923361471e-04
-1.652506364134867208e-03
-1.531307937368131446e-03
-5.578488930972084949e-04
2.644674485428358604e-03
9.114872379977470487e-04
-5.596184176243166469e-04
-8.408870334547726040e-04
-3.760095436231207055e-04
1.308083122934746399e-03
7.177730961362587848e-04
-6.051965900999510106e-04
-8.145717321432841950e-04
-1.422316297353466361e-03
2.496920006948258504e-05
7.901189775213428692e-04
1.794877297620485826e-03
-1.625757823728637410e-04
2.569112727971919205e-04
-6.141129546815656719e-04
2.671746291624405847e-04
1.422372143786072873e-04
-8.761173940417333120e-05
1.980809507193752967e-05
-1.077374958701049403e-03
5.726952854341567974e-04
2.362095647025013682e-03
7.697332468896388169e-04
-2.839587034345736945e-03
-2.672423243028485950e-03
-1.018762533069264391e-03
2.925609708331773900e-04
5.033824535799553057e-04
9.931140299104747240e-04
1.310102735434281671e-03
1.154016129833179477e-03
1.290421387494140870e-03
-1.118383088245500888e-04
-2.140125649396922188e-03
-6.956801683625455377e-05
-1.634978491946251244e-04
-5.992409914258690429e-04
7.506959860606514335e-04
1.589248899896006373e-03
1.299223818449552013e-03
-1.238400199470217431e-04
-1.307738672894640745e-03
-1.486368266948726643e-03
-8.043207993869624104e-04
-1.537485162516963539e-03
-1.379669231013436713e-03
1.476206124903533569e-04
1.998778596125612515e-03
1.449659945564683037e-03
5.044152472591530677e-04
-5.704519661236281784e-05
9.982349539122570975e-04
4.727757699501050149e-04
4.636694113679289738e-05
-1.323205514636603881e-04
-9.873125825689585237e-04
-1.615284672434198201e-03
-2.001327084320940215e-04
9.525571660699244485e-04
1.367297589421678089e-03
5.684514442325000515e-04
-1.308636389268909381e-03
-1.838421438028093420e-03
1.254108018915525051e-03
1.243872376948798380e-03
-1.267019671118926362e-03
2.776517547592808602e-04
9.932563754466256986e-04
-1.870050611225352721e-04
-2.190867591155235862e-03
-1.807529197597638332e-03
-1.012648393610827416e-03
2.033340927030066660e-03
2.608158398469861451e-03
1.633735712320538366e-03
7.927822912320494492e-04
3.924275004237923452e-04
-1.550941115024660928e-03
-2.597091506463783828e-03
-1.526841569238980090e-03
4.380306333716225704e-04
2.534573537452052081e-03
1.102176935945580003e-03
5.692621452060213187e-04
2.589017598300354453e-05
-2.198295750773461479e-03
-1.667454369447388769e-03
2.584654569393893611e-04
-5.250591747649254338e-04
-1.407656402840121255e-03
-3.896299756729313421e-04
1.932824413753761808e-03
1.450508080910658691e-03
1.983965460614592335e-03
1.549696081090376747e-03
-1.384008470498015921e-03
-1.793190819754031861e-03
6.111439946608777235e-04
4.687268809025250081e-04
5.043508907758290560e-04
-6.776770364553877640e-04
-6.575203022514269913e-04
-1.133083555417481111e-03
-2.895722272989477691e-04
2.959087902191354612e-05
4.266396404579153590e-04
1.355504802725700578e-03
-8.275700085492109469e-05
-1.595464851324541458e-03
1.812235597618436981e-04
-6.944157990985517451e-04
-2.075557280263061466e-03
1.686517909410204918e-04
4.522697773248095764e-03
3.060943654444733646e-03
-1.005214099735394790e-03
-2.940361157617077219e-03
-7.570787381419431892e-04
1.580414684492310743e-03
1.023487701181137683e-03
-1.203275222580925223e-03
-1.890366172635855576e-03
-8.784882452772106200e-04
-4.482834810991359565e-04
1.087897539143048778e-03
2.299276155999184219e-04
-4.196005159364730769e-04
5.193386573503690640e-04
1.514616384500992448e-04
1.555005360397959777e-04
1.290585431516501911e-03
1.107379935937404317e-03
5.097762152022373029e-04
1.009189720531649065e-03
-1.569920227542035817e-04
-2.241940521071344918e-03
-2.818954660142095319e-03
8.355124645926365577e-05
5.060483391056767432e-04
-4.881992976425868799e-04
-7.642393027674618169e-04
5.952262275978841390e-04
3.594306939669927176e-03
2.287800532939122510e-03
-1.791670730047587902e-03
-2.228081738997130662e-03
-1.607841198224570049e-03
-1.754574500646918301e-03
-6.761938600217671895e-05
1.779653325894092275e-03
1.653649865359413775e-03
1.232270721669321244e-03
9.691337954340507183e-04
1.009240214266167099e-03
-4.888108438996052567e-04
-1.248173832547350278e-03
-1.433635020895298890e-03
-1.513934401595177235e-03
1.249051761381019150e-03
1.204652226144562561e-03
6.410126454475946174e-04
-1.353418500497403400e-03
-1.412989146257872912e-03
-8.977787530230390070e-04
3.618715213203970533e-04
2.496499423539426626e-04
6.180669886832313277e-04
1.641227696603273422e-03
-6.280688937984266196e-04
-2.205281930606167555e-03
2.797240953910420914e-04
1.341923970318564720e-03
6.784846315670965038e-04
1.184757083134311325e-03
8.672128672825278215e-04
-7.472652927886600654e-04
-1.689069530998117458e-04
-3.195957412468932303e-04
1.065459844931342711e-03
-1.225363899471026887e-03
-1.720539465958748244e-03
-2.857453844923145154e-04
2.149618536552371385e-03
8.352403265795397300e-05
-2.215233934956939606e-03
-1.693599006573542768e-03
2.807414340770782515e-04
8.174647444996590304e-04
-2.252964864904056239e-04
6.270872114348615030e-05
9.285316176143418483e-04
1.769533140549293124e-03
2.742984979416284146e-03
-2.695245183769005848e-04
-8.606782154036494818e-04
-2.085577257105540334e-03
-1.659572710668719619e-03
