-6.858071628394480637e-04
-2.668585860899807182e-04
1.143308210101692986e-03
6.421775021272278870e-04
-2.837994875379944246e-03
-2.121137218504926761e-03
2.072133128054091077e-04
9.546711593214122181e-04
-4.745822569145995975e-04
-2.499520143338079662e-04
1.186768717958744694e-03
3.392687718413192350e-03
1.345307234216029397e-03
-2.198302562339169656e-03
-5.162086959017120032e-04
2.940399587799347940e-04
-6.787392955432178633e-04
-1.752903265203355470e-03
-9.425032929794394543e-04
7.549826352668269520e-05
1.454231143457233562e-03
1.209318938197479583e-03
-6.615851662427295592e-04
-1.721270919760145655e-03
1.686275673910768219e-03
2.991965584776881074e-03
2.034141004099654804e-03
-7.390396404230205329e-04
-3.963519449324989959e-03
-3.679999832072854832e-03
-1.115351448425553737e-03
1.437319671915795408e-03
1.533726326752000036e-03
1.002612523713480950e-03
1.062017447722600483e-03
9.452397150935076906e-04
3.668198916144393973e-05
3.133033045570439911e-04
8.897141507949597435e-05
-6.441881335657609559e-04
3.955131562776513076e-04
-1.542653881049770308e-04
-2.296363322377020528e-03
-1.910613493136999142e-03
-3.667003526930893292e-04
1.426525431427033523e-03
8.842254945810670581e-04
1.069019001514511869e-03
1.229776568921859626e-03
1.378677170372439274e-03
7.649997096271754201e-04
-2.430165901032281528e-03
-4.074908165132774991e-03
-6.479181393070779574e-04
8.428788344280778791e-04
8.649651566937289386e-04
1.104207299588702649e-03
1.259618015510919915e-03
8.737739816762824701e-04
7.058886803505421813e-04
-3.196759814673525444e-04
-1.145396002877264747e-03
4.720682978029020968e-05
1.261223909148127343e-03
1.263362162077477820e-03
-1.177693236409194360e-03
-2.559961155849646910e-03
-2.734612625144331247e-03
-1.396292250148338824e-03
8.482828070180555794e-04
2.326674070431837375e-03
7.570661730441075044e-04
1.333949595707009834e-03
1.010320151329775849e-03
-9.745853069091548089e-04
8.716633911500010126e-04
1.052401429951708902e-03
-2.855159697807208626e-04
-1.318199842370687460e-03
-1.137820341429869944e-03
-1.277659835411112249e-03
-8.287041167054122470e-04
5.088831536328539563e-04
1.369252435777854721e-04
7.987618409900542260e-04
1.423712017035654726e-03
1.704558599040269110e-03
4.191580702222886916e-04
-2.127808300197037931e-03
-4.421683916513447637e-04
2.122293499999600239e-03
-9.898425993876112678e-04
-1.835073896902753021e-03
-7.065299863046724943e-04
-1.404129545993359953e-03
-1.317224535067139553e-03
1.249880714054263072e-03
1.888335882604931949e-03
4.590355956343138968e-04
2.299451563807317772e-05
1.041895694336338139e-03
4.619965510991278120e-04
5.642747564407084911e-04
7.253495524311086946e-04
9.282339932290149722e-04
-2.196311592292843513e-04
-7.542113371099902789e-04
-2.066775548246343585e-03
-2.035709235333807259e-03
-8.236039533937799476e-04
3.440537138614605927e-04
8.572804619972923968e-04
5.683516618838223072e-04
5.536583104163486082e-04
-5.497369048543043280e-04
-1.052380009525232061e-03
2.766024288754457693e-04
-6.432504345392432883e-05
9.812153784095486130e-04
1.582553481525595437e-03
5.147096509893130415e-04
-2.474926512634052734e-04
1.114335646081991661e-03
6.176273680982716317e-04
-7.539780095149902330e-05
-1.285224086502119879e-03
-1.193223945388668375e-03
8.031542949114901277e-04
-1.401447534662175970e-03
-1.393478618151421837e-03
-1.450143715092577909e-03
-2.787357498449370176e-05
1.675036103244751046e-03
-5.886530401676781741e-04
-1.299974469261269781e-03
7.858233622539809908e-04
1.263787701904949684e-03
2.589639949261061166e-03
1.871510391211630639e-03
-2.804330199833338522e-04
-8.217468819533210733e-04
8.162738530371613439e-05
-1.820600525189919783e-04
-8.700872777881872751e-04
-6.298381129076169272e-04
-3.961144846141880079e-04
-1.852512410939118623e-04
-3.147199346772158127e-04
-2.470655257455222926e-03
5.155918400265519300e-04
2.084009557568621430e-03
1.030500579258629293e-04
-2.826283445972256701e-03
1.391308191747889656e-03
2.693128042626623513e-03
-1.344801866884665249e-04
-1.593117467720256853e-03
3.038710313219656831e-04
1.742533320535349668e-03
2.416479787500538327e-03
7.972841132719848825e-04
-2.965485583214160035e-03
-3.838995611766383639e-03
-1.672029435225096420e-03
3.312211491439411536e-04
1.561906178591644353e-03
1.259338290990988721e-03
1.104189657643202043e-03
-1.228342762759997413e-04
-1.048344704046703414e-03
1.378027578061628931e-03
2.423380707261653909e-03
1.168787298097270517e-03
-1.015701579499423421e-03
-3.521745048606402060e-03
-1.771452079506285419e-03
4.237509382237808660e-04
1.544556401538578526e-03
-1.298572092237715737e-03
-6.168351800305932288e-04
-5.168128788856337155e-04
2.355015819965899124e-04
1.652049126285518553e-03
1.453310929351267575e-03
8.656514395066497664e-04
-8.724133632303195714e-04
2.035780212556846799e-04
8.825755902514128767e-04
8.666559652003886106e-05
-5.175179608245369023e-04
-1.797037470318120847e-04
1.722626857564756508e-04
-2.676921764465231210e-03
-9.541820227302221435e-04
6.036615318024715453e-04
8.482228148090674782e-06
-1.827170893748176518e-03
4.349261987626185360e-04
2.061853322614899849e-03
2.439377664793931227e-03
2.324880891546105260e-03
-4.250703745102624772e-04
-4.781485573321778756e-04
-1.199525569765114326e-03
-1.833211803428422921e-03
-5.525914019525314351e-04
-2.578359778869560763e-04
-3.050593119487555582e-05
-1.542268311024102157e-03
-1.426003481976124716e-03
1.704269825409815593e-03
1.759124234566644684e-03
1.957273228513618877e-03
2.159868158362287811e-03
-3.671030713296588935e-04
-1.492514789703633339e-03
-2.427009767655064452e-03
-2.093420720319125877e-03
-3.310861429648549823e-04
7.306178791859415256e-04
1.096842655736601085e-03
2.143751783764602428e-03
1.430068303968741938e-03
-2.840668302434635247e-04
-1.020570232705885101e-03
-1.092462208962578785e-03
8.640778918572385474e-04
2.610171709482956648e-04
-2.912342928156936347e-03
-1.494904297981265555e-03
2.824775613655449227e-03
2.102586169410690375e-03
-1.229027530273777737e-03
-1.593474977662333466e-04
-3.649257053011753667e-05
-1.040533845870156098e-04
1.158606606297991372e-03
5.434659690648692854e-04
-1.188404834882353898e-03
-2.205873157356419683e-03
-6.759002112379355670e-04
1.268883824001933690e-03
5.813909717836707744e-04
-1.360081802176641482e-03
-7.362968204912666162e-04
2.150905197800864494e-03
1.962531316707901655e-03
6.818336198387479983e-04
-7.778218062146772041e-04
3.268638821094685225e-04
6.355700199865111592e-04
-7.694825628153288905e-04
-6.837861006389647474e-04
-4.769287098258927237e-04
-5.986390740479693474e-04
-1.188837824574595983e-03
-1.314994604108391885e-03
-6.515280543843655686e-04
-1.464977705859441762e-03
3.866915528577899181e-04
2.939666677049402287e-03
2.699796928944383622e-03
7.444116426895870404e-04
-2.525623237001491626e-05
8.037421273476385956e-05
1.659767955881545068e-03
-3.448823825394071833e-05
-2.123910312842733177e-03
-2.952208973543574751e-03
3.580427795499040514e-04
6.155138962098563680e-04
8.554563299899924610e-04
-1.071008368575135719e-03
-1.968121028896725050e-03
6.007845621955199954e-04
2.361773500311039730e-03
-9.566820909453865700e-04
-1.417691799252617652e-03
2.184473431503973972e-04
1.512282329727630392e-03
1.753968333066128127e-04
7.836727936477601558e-04
1.286009764313069932e-04
-2.703548826686512710e-04
7.994088767735035590e-04
1.345399242487646443e-03
-9.295830277999340063e-04
-2.337152977682630710e-04
-5.375208392150044451e-04
1.439404084907767480e-04
-1.081752013442244340e-03
-2.370922488835695580e-03
-3.483369531165157046e-04
-7.892084522429893782e-04
-4.946071177131060468e-06
1.269405886689078857e-03
1.687690158383991839e-03
2.060305244221058429e-04
6.586340560751701790e-04
7.701182027479952334e-04
1.004857208054166185e-03
-6.211429686410862693e-04
-1.215598691911662105e-03
2.770692010675931440e-04
1.245889725814278712e-03
-6.179695515398929721e-04
-1.480873435349218436e-04
-7.230631812968200305e-04
-8.374781688036637625e-04
-8.147203711632099816e-04
-2.122943288952731282e-04
4.227136584705434071e-05
2.454021976761387291e-04
6.965073070063821942e-04
-1.334763810180579187e-04
8.061920221287364064e-04
1.380103400009190847e-03
1.132976280053718445e-03
6.894178319555429799e-05
-8.905961001042738377e-04
-3.721588170003457558e-03
-3.074093717653545062e-03
9.098228867054896501e-04
2.595166200210404991e-03
4.658354812552987969e-04
1.090666137852015728e-03
1.117055919684172612e-03
5.455509822628298909e-04
1.358272250727003173e-04
1.864898188989493250e-04
-1.142455132901147455e-03
-8.093303618457950042e-04
-5.024760690684371318e-04
6.852883431046692848e-04
1.375036826606051673e-03
-1.136313595464558102e-04
-1.184208169717554642e-03
-1.829294727616565929e-03
-3.581030683841759498e-04
1.262529194440045310e-03
-9.143256311285687978e-04
-1.220375788983561315e-03
-1.005895396421991510e-03
1.886936735632680287e-03
2.135783701646168722e-03
2.115622338511875377e-04
8.512267871681925653e-04
2.395881075412257047e-04
-2.394226273066204363e-03
-6.565818885189852148e-04
2.226769837762956200e-03
2.414549064779173988e-03
-1.234638264948638474e-04
-1.146795208052830538e-03
-6.871095162792899193e-04
-9.098588932133995543e-04
-1.614339091180819197e-04
-1.359974688174826491e-03
-5.502914652410137442e-04
1.265535793815435617e-04
2.150269938060980139e-04
4.866401042295806305e-04
-4.181075110998090953e-04
-4.979576653404625642e-04
4.195825183327185929e-04
-6.966027753796118042e-04
1.056240477975778922e-03
3.102178992814459257e-03
8.789717118362048737e-04
-5.655446960793454950e-04
-1.374283365369618690e-03
-3.190478755326625745e-04
-2.929178273486797066e-04
-6.800672477743322127e-04
5.086536562316762823e-04
6.852079344095361431e-04
-1.669743913122658657e-03
-1.971628966550126837e-03
-3.662224412685639299e-04
2.531607037581285911e-04
9.584802573353666099e-04
2.513417994124155386e-03
6.422470520506692003e-04
-8.518842544940653794e-05
-1.389840853667563981e-04
3.119069842313847932e-04
4.851027087767880797e-04
-4.035649375875467455e-04
-1.002326605052836390e-03
-4.159203466771477795e-04
1.174050958248611803e-04
1.499609852936495792e-03
-2.452116525016466344e-04
-1.305424342034292289e-03
-1.830939786084009261e-03
-1.661090236611077135e-03
-3.255343207214653808e-04
6.654772819045014090e-04
4.132519354055652931e-04
1.833003990482972483e-03
1.123429667558739848e-03
5.826343435732825142e-04
1.740823869786159179e-03
9.350979197007773091e-04
-1.614672176790676872e-04
-2.778500167023266899e-03
-1.739081349347876976e-03
-4.118914594186224524e-04
1.191971489609025417e-03
1.995026229732161684e-03
-6.035266158427001404e-04
-2.182282237435246176e-03
-2.999457635526818315e-04
7.745526186445118866e-04
8.956226944269582088e-04
-6.896494003026847411e-04
-6.119265797698086005e-04
-2.305263459584327675e-04
-1.411780127457137955e-04
-6.347672972855102850e-04
1.506050685692621486e-03
1.561934248957434594e-03
1.219545476976514322e-03
7.893417176335810765e-04
-2.014992053255339980e-03
-2.005326836415373577e-03
-4.040450941783678071e-04
2.022927294039516578e-03
6.940484734715942402e-04
-1.953858208183989736e-03
-1.348316845211500192e-03
-5.468669070931204707e-04
1.206848200023920769e-03
1.006012228918126781e-03
1.130506969203492291e-03
1.570053307581073749e-03
4.821956020372705548e-04
-3.140294540527710336e-04
-2.509026631945918909e-03
-2.757004342543105824e-03
-7.625919304686378658e-04
1.787512038166612447e-03
3.089446452080777360e-04
5.945824949869892972e-04
2.487414394768437415e-03
9.486318675717510035e-04
-6.669455986858870578e-04
2.344401414708090648e-04
-1.594799333839982069e-04
-1.995392721507291325e-03
-2.211543768997398154e-03
1.495228611673689052e-03
7.510397345254931668e-04
-2.286088047522803323e-03
-1.030984924980789643e-03
1.156490262652743557e-04
2.611793625836527190e-04
1.561266602550282845e-03
8.256694875861025820e-04
4.534436980926318667e-05
1.813958495727996259e-03
2.461345659811606159e-03
1.362094833730351793e-03
-1.809541023664742055e-03
-1.736996202570878240e-03
-1.039358375328610197e-03
-3.508643476888551310e-04
-1.523328835796345770e-03
-1.979062467804945571e-03
-5.085676637780010140e-04
1.661318718985076073e-03
1.477204300035233828e-03
1.229864489504534997e-03
-7.546313619048971829e-04
-1.976464417902365532e-04
1.687159411535761990e-03
1.768915609954201324e-04
-1.822069974989151860e-03
-1.098569023765037659e-03
1.132882648763620286e-03
4.525933012682074245e-04
-1.761850155603825099e-03
-1.668524659556927525e-04
1.271883682253075777e-03
8.759946276264019699e-04
2.306365542502798651e-03
3.728710859221169571e-04
-1.569919786183055204e-03
-7.771481063594891077e-04
-4.533594230953014365e-04
-1.664652473883208904e-03
-1.354698548247755237e-03
2.575779306399875353e-05
9.597619406210551683e-04
8.469153764072846324e-04
6.126892564626768619e-04
2.660073165249626694e-04
2.717086285698576843e-04
4.818844583461897473e-04
4.408276894049870088e-04
6.058259336349492395e-04
-1.161999154418488344e-03
-4.418696047570093975e-04
3.195423063921939760e-04
-1.019660170849695426e-03
2.651528064280875546e-04
-5.614749260552972902e-04
-7.577415028599432823e-04
-6.332577540397006047e-04
1.028333892511636410e-03
2.086226935656850228e-03
1.162053703998499167e-03
-6.817631751624446054e-04
-1.467806005310465494e-03
-1.355176978200541872e-03
1.073941354592103858e-04
1.082679806789219219e-03
1.412511931497219177e-03
1.549947417800996577e-03
-2.475804625708357375e-03
-1.053652198609010722e-03
9.335211628760660234e-04
-9.373633051998364087e-04
-1.169178463923211580e-03
2.437551950091889318e-04
1.172136679496001404e-03
2.233922080725338471e-03
-8.356498810902662257e-04
-1.620594947083181568e-03
-5.721889388351766512e-04
3.312913369853469044e-04
3.308929685652867332e-04
3.445748947299730517e-04
1.746472734090806587e-03
2.094617423104068281e-03
-1.816885456257157343e-03
-2.818319080500163946e-03
4.263383866614285491e-06
3.941373281755493688e-04
1.251256747832569594e-03
4.418197515700566570e-04
-1.114514953135560538e-03
-1.123195788581912453e-03
8.806096297971575384e-04
6.323974340592865978e-04
-1.554434703522316078e-03
-6.367697662130476820e-04
1.873872280445983010e-04
1.685034194213499634e-03
5.001666786813880206e-04
-1.081271494885142166e-03
-4.723679383950759041e-04
9.422255941261964678e-04
2.384225496169554894e-03
4.780612252008950439e-04
-5.246451728305403682e-04
7.277900468989292621e-04
-9.733635209844367824e-04
-3.052364764658920936e-03
-1.098544492906071771e-03
1.521608565897853999e-03
7.355278178575934238e-05
-1.169450693114762246e-03
-3.710059536729152585e-04
1.409732313065484906e-03
-5.460255760324738946e-04
-1.037614759074000775e-03
5.580584419964088223e-04
3.947652323761388637e-03
1.054305200515889005e-03
-1.246944977684895112e-03
-6.601096317839305963e-04
1.905725827029813597e-03
-1.172235512345075207e-03
-1.951806157616132326e-03
-2.102192824118967636e-03
-2.527831455017602504e-03
-1.644066693483531901e-04
1.339094723324094722e-03
2.605453591373736635e-03
3.492502134593144549e-03
1.108427519852704874e-03
-7.283483882165840695e-04
-1.560010942523556727e-03
-2.763120918848628246e-03
-1.749760440320299263e-03
1.013885423774152014e-03
2.160422470277333085e-03
1.524945357753843683e-03
-4.487879647423469610e-04
-2.250344007748759142e-03
-1.454853970716250312e-03
8.523476380275670210e-04
2.517579956856650595e-03
1.845226114089511650e-03
-1.127591060574124546e-04
-1.081844954901149680e-03
-1.073434111365988543e-03
-1.010588362168531474e-03
-7.436176177986078637e-04
1.873890394638045567e-04
8.740777314458351207e-04
-5.028445519891360524e-04
-1.639011906444008508e-03
2.303968996561843018e-04
3.947864247406550255e-04
3.996575563499827244e-04
2.399509837667877094e-03
4.591960374390237094e-04
-1.746682388798990451e-03
1.894185043791948419e-03
1.163467683285639067e-03
-3.021734733378422105e-03
-3.186098965846697814e-03
8.189107729128825182e-04
3.188798001819924920e-03
1.626937401518919416e-03
-2.134831886268181468e-04
-6.633350977909562452e-04
-6.470529300705650088e-04
-6.299918087322015341e-04
-7.702474868200477609e-04
-6.129659264706362491e-04
-7.686312200125295507e-04
4.436938295613180715e-04
1.502723933330237611e-03
1.256705121625412537e-04
-6.290198357214473162e-04
4.659351055612456207e-04
5.937141726144009235e-05
-6.236479450754200092e-04
-5.125405105322456247e-04
8.506869398317657089e-04
2.090557774569812635e-03
7.610928382584996113e-04
-1.008184555883613956e-03
-3.073085959587933558e-03
-1.323300031183174009e-03
1.636957298069858374e-03
1.982527557668073166e-03
1.839322433800703697e-03
-1.243805857593774811e-03
-1.782316677188684403e-03
2.168967201845955041e-04
7.819731582456295339e-04
-1.309581177855730777e-03
-7.158997146638754801e-04
1.957146906511672904e-03
1.681765432974037262e-03
-9.211727438737519254e-04
-2.329069835252709463e-03
-1.458715743415917553e-03
1.803379772640129096e-04
-4.471705673377799348e-04
3.107740966170293080e-05
1.933196269621743207e-03
1.453805302439269880e-03
7.340369374750632669e-04
9.948451895703228250e-04
1.927053360718935376e-03
1.388630256915642479e-05
-1.549370587983936063e-03
-1.398656382061031324e-03
-3.051387581825602911e-03
-3.003548911837858239e-03
-4.949423926978108526e-04
2.643039928936421513e-03
1.528691498654343719e-03
1.305701955019806983e-04
1.348020362746845053e-03
1.211847636356445674e-03
-2.824844427930875163e-04
3.673352862484576551e-04
-5.250764357167769748e-05
-4.848509891102728477e-04
-3.307915581894758537e-04
-1.584869811446170491e-03
-5.943667547790465900e-04
1.565478905249799739e-03
1.075622189513978115e-03
-6.919631443836877062e-04
-3.786208119081073994e-04
-2.710064853240263475e-03
-1.270859567848695634e-03
-1.727737180930057201e-04
1.355468999478307707e-03
2.405707451862827955e-03
2.220378272257563564e-03
4.971159082756265984e-04
7.457235101413946243e-04
6.545698470539576021e-05
-9.355795609212099470e-04
1.825578672297274501e-04
-2.225114472580317585e-03
-2.508708126771987557e-03
-1.117903059479602836e-03
-1.770370918937984577e-04
-5.868133902161571779e-04
-4.999114570958606380e-04
2.235753104818983400e-03
3.513855612358033828e-03
1.512989750061568368e-03
-2.525902274745606916e-04
-5.626583178217558438e-04
-3.380276986150009943e-04
1.022499121633121174e-03
-3.075331335118643497e-04
-2.510068544842619653e-03
-2.241167877473566102e-03
1.819406606304897756e-04
3.236092861784063690e-04
1.684293563500402924e-03
-1.625359315220653231e-05
-1.428044084726808743e-03
-1.031794167323119059e-03
2.233930480828355720e-03
2.563741789287476546e-03
1.323498106051068744e-03
3.367669308993424815e-04
-1.166269277685905463e-03
-3.038440472766807364e-03
-2.688915937963772245e-03
-1.186232444144600393e-03
1.777138596751506438e-03
2.543811389394041739e-03
8.150353739273816581e-04
-1.974214657519774915e-04
-6.382852297203461985e-04
1.789234085969493900e-03
7.406598017394884492e-05
-1.350714456534676637e-03
-2.171726122358826321e-03
3.660884613197596098e-04
1.388630729358781776e-03
-9.263863148198115674e-04
-1.535045096792401424e-03
2.774911816026002977e-03
2.244838517792602066e-03
-6.768725608802912339e-05
-2.784804463268568137e-03
-8.677893486782981437e-04
3.966893057325427806e-05
-1.892825672813262024e-03
8.104722585315373394e-04
9.747160175948431544e-04
2.713984606457748618e-03
1.136843371693849972e-03
-1.326697339582959354e-03
-1.180888364204084155e-03
-7.300241210603013392e-04
-1.363753975901343778e-03
8.688265428682174531e-04
2.900412784229035226e-03
1.817999114155794457e-03
-7.111350676698988734e-04
-1.490210350629003104e-03
-1.437824089691795097e-03
-3.145981451732181560e-03
-1.572194113680485230e-03
1.006312181898523896e-03
1.705281990156485130e-03
1.456908193592492328e-03
7.357010284955800908e-04
9.302888913666703969e-04
6.984102337960268123e-05
-4.960157019077462440e-06
-3.559983219248127103e-04
-8.276913226798591518e-04
-9.620931808330566645e-04
1.374989253411570446e-03
1.754939928220864385e-03
-5.895291338516977240e-04
-1.695492077895473975e-03
-8.036572141977890021e-04
-1.273321169246916396e-03
5.568861641869827291e-04
1.788765307949562438e-03
5.938321292453415095e-04
2.780651453309094991e-05
-5.145393536492388550e-04
-5.693859779111242001e-04
9.381105316885645154e-04
-1.325563096068348677e-03
-1.097365760818520483e-03
-3.547281435107346639e-04
1.364872771257533797e-03
1.012194333776976875e-03
-6.503064712756903652e-04
-1.032720841500277872e-03
3.146536339599496652e-04
1.396054230012801645e-03
1.127448258221469893e-03
5.578981560813861280e-04
7.344213352424354500e-04
-1.956991082456054835e-04
-2.692962581236251537e-04
-4.193549330609591544e-04
-4.828128028179176114e-05
-2.519775452434367454e-03
-3.103706699661235111e-03
-1.488411682928382712e-03
8.123812002382285995e-04
1.678613530087924750e-03
3.654417497655714463e-04
1.926098477340217920e-03
3.171899956566321104e-03
7.580722567389354925e-04
3.325452011490072357e-05
-1.287259598940117787e-03
-1.829282305671575074e-03
3.895907139789606859e-04
1.791653898526347766e-04
-1.547154525012443696e-03
-1.433679952960559625e-03
3.671059651763840768e-04
8.050285669009200375e-04
1.103691867839575770e-03
-1.063246732740316669e-04
7.856383136137310829e-05
-6.259260131559169589e-04
-9.948259781086298600e-04
4.363050495308695362e-05
2.034439900431146610e-03
1.622374597832085047e-03
-1.237869589200398055e-04
1.527196467521273844e-04
-1.668624937481899464e-03
-1.621293189053037327e-03
-2.147352055765059178e-03
1.094867449821749095e-04
4.179625861540951174e-04
1.827765549156688948e-03
2.656642743363486076e-03
3.045822670680823491e-04
-5.066168337959002597e-04
-1.771219333260374033e-03
3.131878589271675992e-04
6.979931254680656755e-04
-6.301240960887873445e-04
-1.089780989415652752e-03
1.291529087273138397e-03
2.487192099514488062e-04
5.057478375694052924e-04
-2.293201200134248503e-04
-2.261364804840889330e-03
-2.077122046456292628e-03
1.093290835677953720e-03
2.376682011426069479e-03
1.326877567084353178e-03
-8.226087044317003175e-04
-8.540652121811182591e-04
-7.377514622796134923e-04
4.548306641181162208e-04
1.057422466251456850e-03
6.234319132654116743e-04
5.361049114982924550e-04
6.515047552895962893e-04
-3.753287976973828776e-03
-1.991257587496472227e-03
-4.669294509452867961e-04
2.113586479777758518e-04
3.247248408423471146e-03
3.448868105136809314e-03
2.182346506449917966e-03
4.803650250429880413e-05
-1.897800015558123634e-03
-4.125324943728672124e-03
-2.373733446226557273e-03
-1.625505208907615344e-04
-8.567467184886902280e-04
2.675343600339486622e-04
2.289329700775892280e-03
2.456669609247572831e-03
7.634997313256959139e-04
1.322686956513000750e-03
1.685145054491269442e-03
-1.403037133476127928e-04
-3.091745463971599765e-03
-2.900310849175239368e-03
-2.312529897325012272e-03
1.880157075573306649e-03
1.293670792258638054e-03
-8.560613631187403462e-04
4.801195021985642979e-04
-1.397127920012843213e-03
-1.438624454019649026e-03
1.740478752940947818e-03
3.265444916012395001e-03
2.377085791830816329e-03
-9.876647241607340588e-06
5.247132397256282395e-04
-9.098407468847854399e-04
-2.491858820199338576e-03
-2.704739561881574529e-03
8.851127199605694253e-04
1.253240270189436662e-03
-1.908155643440046390e-03
-2.495507154468085565e-03
8.666615867059912059e-04
3.451611339608642252e-03
5.329778115918930997e-04
-2.563956056810530286e-04
2.306782706920917914e-03
9.000107016124399371e-04
-1.881460786718294840e-03
-8.518650129974075292e-05
9.508768165538657776e-04
-1.515395071076758087e-03
-2.899657816041424033e-03
-2.887879090813505901e-03
-1.622373869609388492e-03
9.071922985597500808e-04
3.946490211382579390e-03
3.685853546638626077e-03
5.830044647876469859e-04
7.355668810580056304e-04
-2.931504837003862194e-04
-5.359732005981566018e-04
-6.230026728663411997e-04
-2.101264791643494070e-03
-1.024073899071590524e-03
7.592375159624705112e-04
1.555704615581604555e-03
-1.701855238233527471e-04
-7.603902500352744970e-04
-8.234481965541434658e-04
-1.114721161547481496e-03
-1.163685809614480298e-03
-4.956877079050571368e-04
1.519201995942743829e-03
7.816940794639803047e-04
1.126378788186876805e-03
2.876145067330454237e-03
-8.210365557460271371e-04
-2.325286278391144098e-03
-7.147662917878096602e-04
3.506249803804517974e-04
-4.625004071069459396e-05
1.751719542183694097e-03
1.159107085501445049e-03
-9.183598856745702442e-04
-1.287197320822185782e-03
-1.108799168251236667e-04
6.170486551400413159e-04
-4.847390323999726061e-04
2.403703694117936395e-04
9.587955943738978894e-04
-1.838395081810010202e-03
-1.891566816054515536e-03
1.948689399796524422e-04
-1.492700454392985494e-04
7.459031135739527772e-04
1.405602184631278735e-04
1.090876739361028953e-03
1.766794713389129587e-03
-5.813889713160607427e-04
1.057919918090458088e-03
-1.932110204588479308e-04
2.281035533922638248e-04
-7.468207034872561146e-04
-2.372848321943327350e-03
8.258469714426226130e-04
1.814614274179978618e-03
-1.097780739440125473e-03
-1.359055998475812736e-03
-4.181833907659373260e-05
1.938944485221165501e-03
1.384770947617278061e-03
1.380585049977628301e-04
-1.784484763533336626e-03
-1.919748514810532512e-03
-1.767678252312477076e-03
-9.942095038386168995e-04
-4.848264419922876552e-04
1.773101259907741614e-03
1.837850918194323122e-03
7.974729020715138651e-04
2.021500924072078698e-03
1.852126256754908513e-03
-4.776885886085585793e-04
-1.012411168755082127e-03
-9.907185035422047016e-04
-5.875106509602406445e-04
-2.851275654020542054e-04
3.494019172474939396e-04
-8.432933377534035380e-04
5.419365295803548529e-04
3.698095119359677075e-04
-4.542041799905262170e-04
4.926945526715574000e-05
-1.170036294927790039e-03
-1.969175092895491738e-03
-5.062137336651183900e-04
-4.297781669932308930e-04
5.631019426081415938e-04
1.569616674230001931e-03
1.988707577635662974e-03
7.565440730049051259e-04
1.533571831055203886e-03
1.107669429213339277e-03
-1.755140618672070907e-03
-2.189551582625376414e-03
1.310290965981611520e-03
4.840263599459070955e-04
8.055650316800917667e-04
-1.555857170722658349e-03
-1.576153637809633076e-03
-1.244363104165334410e-03
-8.645033051221310931e-04
1.402242778012963674e-03
2.670575765885742098e-03
-2.447939692963355639e-04
-2.743203031993922750e-03
-1.899904413164212914e-03
7.857626001563163161e-04
2.287838103920911744e-03
1.256391429286349455e-03
3.048371032421245616e-04
-3.998954323372640174e-04
-5.440537100267025432e-04
-7.354088180123975142e-04
8.538568434207578816e-04
1.773825980479443003e-03
-5.823998902995993886e-04
-5.851777610122755333e-04
1.289851155749708982e-03
1.820274134592778092e-03
-1.299402362300326741e-03
-4.115769859075223309e-03
-2.366424761414057457e-03
8.910711566184614796e-04
9.246867330981152835e-04
-5.858108219234587407e-04
-1.278251195787456177e-04
2.149385631726223166e-03
2.280669669845963345e-03
7.235677105507276781e-04
-1.762276954642291987e-03
-1.368763881528516253e-03
-8.922510224108404827e-05
1.453755457760528202e-03
1.262584578584132399e-03
5.433717789862034086e-04
-1.074649185789481351e-04
-1.006918122063828322e-03
-1.400280656861031120e-03
-5.279643701657755431e-04
2.392236256432266756e-04
6.049234809831076668e-04
-9.416038940089916775e-04
-1.175061361581209666e-03
-6.967680094282786406e-05
4.200784559513486699e-04
-1.658633532250899456e-03
7.436928215478386638e-04
2.772357074159127657e-03
1.399522643057202805e-03
-6.099785079621939613e-04
-2.023855847803798704e-03
3.666944040504129020e-04
1.828799844506942985e-03
1.132471240401173489e-03
-5.166339708758711921e-04
-8.492608961409038983e-04
7.223655472893765646e-04
-7.085395024730787705e-04
-1.656261611395459452e-03
-1.380151980880599000e-03
1.625918871583882392e-03
-1.314202816697197600e-04
-2.565807817087289023e-04
4.778289528619510920e-04
-6.812694956362442579e-04
2.296536659038201950e-04
-1.478952980364488658e-04
-4.405917320702370014e-04
7.258928921351251147e-04
1.216867975092086234e-03
1.185151037262511392e-04
6.369574256662265035e-04
1.248318737735432419e-03
-1.810230262894258141e-04
-1.358528585268544905e-03
-2.126297159328659290e-03
-2.324565126362758589e-03
-1.486618070191608916e-03
2.076242481253989195e-03
3.034152202697332906e-03
3.533651386390860346e-03
-8.411092189035875716e-04
-2.147843307094578474e-03
-1.143302695824931214e-03
-5.692689931429086763e-04
-1.032528284547847312e-03
3.684718350814338971e-04
1.040875666529003565e-03
9.844722133576793051e-04
6.554215911995812591e-04
-4.069226599951139989e-04
-2.227670707819011094e-04
1.354529911213801069e-04
3.583896900043382532e-04
-9.306025740469113430e-04
6.916341689726170387e-04
6.475889200320664217e-04
-1.212792777862378756e-03
-9.171246113649980788e-04
-1.363458289351062759e-04
-1.454995607993061005e-03
-4.375146382728796576e-04
3.324725763956761946e-04
4.060299168961831358e-04
2.535599200701752019e-03
6.193162651115114836e-04
-3.108427683435001278e-04
1.940082357690952361e-04
4.412086406378843296e-04
-1.876968657205059380e-03
8.328561048075448954e-05
3.092505139265479524e-03
-6.574180669747931157e-04
-1.578969570716627548e-03
1.220111807024143544e-03
-8.245381469991322531e-04
-2.539221047760943997e-03
-5.751883680898963683e-04
-5.797865173578496982e-04
1.571860566990830165e-03
2.228853356408065211e-03
1.102792106891949077e-03
-4.114368641215445516e-04
-2.593379563287478550e-03
-7.364884301796581576e-05
1.685573128592075896e-03
-1.098503016899024087e-03
-3.053975645338227306e-03
-2.625978416859934324e-03
1.736080981518874078e-03
4.099756529835248998e-03
2.034188183406486754e-03
7.288571638887355545e-04
1.759345976211209792e-04
8.167102794058503498e-04
-5.767395511243342612e-04
-8.285539756884283732e-04
-1.221320137953781993e-04
2.913549104073714143e-04
-1.751973008797619302e-03
-1.697276612099847537e-03
-1.086997095485053161e-03
-5.412182263965130760e-04
-1.436368069966086243e-03
6.550723496370558854e-04
2.230105913990707792e-03
1.313819004379663006e-03
-1.010635789218288557e-04
-1.756495828258229207e-04
7.903026834058836381e-04
8.154771242801933401e-04
6.619041087701876781e-04
6.309745878631771573e-04
-8.090576619446347012e-04
-1.376225298509504893e-03
-2.297834110847216723e-03
3.882364856022751075e-04
3.322349913629728344e-03
1.469679930815070848e-03
-1.503195509620216174e-03
-2.077989774692298730e-03
-6.993143597256595585e-04
-2.690575222895564590e-03
-1.775421821363835570e-03
2.369035918004334246e-04
2.452325769819044005e-03
3.516606114067222493e-03
3.444624025826153579e-03
8.726281929490940607e-04
-2.974860147862835001e-03
-2.301047135305625286e-03
1.414467725276318585e-04
-3.870295861295329270e-04
-5.412380841403151418e-04
8.865866435670405592e-04
2.204711161079449949e-03
-4.143401880297107459e-04
-7.260282922869794320e-04
-1.334107751690065185e-03
-2.093588714790453349e-03
-1.178828199730742399e-03
1.254005113410127086e-03
2.913668188357532596e-03
2.885357333058968278e-04
-3.678729325084311406e-04
-7.377092888162103349e-04
-5.209626057292712428e-04
1.229891799345747246e-04
1.490981619549705322e-03
1.742368498883674604e-03
-2.012725275750608476e-04
-2.519157554323487452e-03
-1.100764287095914486e-03
5.368410249891376364e-04
8.628156397028560742e-04
1.096095916216075503e-03
3.230518024999674462e-04
-1.297834370369937724e-03
-2.469743132330597807e-04
-7.826391012278851363e-04
1.648913612316289909e-04
-2.825194619224873581e-04
-5.759446446577130624e-04
-9.968716036285604157e-04
-1.493000175607951273e-04
3.104415884185655540e-06
2.387960655030259586e-04
1.177676900052060990e-03
1.906759349656479609e-03
2.116027481824128264e-03
1.793732846327473086e-03
9.225864238131315951e-04
-1.281012610432921651e-03
-2.244390571447071273e-03
-3.002297833529753581e-06
-6.746047630797487836e-04
-2.130346303074263578e-03
-2.233421195291007948e-03
-2.348595983724493987e-03
-1.239849159242346855e-03
1.265320247395069824e-03
1.221177145175028839e-03
2.157148429880030235e-03
3.172865040778877644e-03
1.987464104710141583e-03
2.786946212045399683e-04
-4.372916736836093572e-04
1.266933038231969491e-04
8.779145874237398971e-04
-2.790301138225145545e-03
-3.279533334398108870e-03
1.363387440432494921e-03
1.955376168666337396e-03
-1.536701173609127742e-04
-1.319302239967014637e-03
-1.399991456184331148e-03
-1.467918364437217731e-03
7.685628143564325263e-04
2.266859800827395258e-03
1.057944850734669675e-03
-2.451865427218803423e-04
-1.162489167443913392e-03
-6.013809906248905948e-04
-3.673557571049484863e-04
4.806638466002731099e-04
7.464107896467328529e-04
4.521640123979951903e-04
7.489909851803868649e-05
-5.225459782694714169e-04
-5.660965482201126258e-04
2.559739300166478373e-04
8.774248304075085107e-04
-3.828981043522353004e-04
2.827868050836552182e-04
1.338019022303539628e-03
2.274635317801615864e-05
-1.847385109920339323e-03
-7.791544873130642514e-04
9.224738105077291174e-04
1.106242012856505042e-03
9.797822944995434637e-04
-1.603560857101578698e-03
-1.463076393339958047e-03
-1.196648702278026773e-03
1.026171451438599594e-03
3.247789011717667259e-04
-1.312957908127458662e-03
3.906549466406932327e-04
4.053586451103058635e-04
5.662124744808731767e-04
1.943353283873382360e-03
1.637139705793480213e-03
-6.606520921693264953e-04
-1.293187445519937894e-03
3.790191787847392623e-05
-4.895405091485473302e-04
-1.204258550656113740e-03
-8.917246404612859910e-04
1.511630722414732120e-03
2.049373411360756660e-04
-6.922370787189370284e-04
1.263523518941096812e-03
1.193750070748577285e-03
-8.949130754231484144e-04
-1.026335806464498228e-03
-7.155751262566070357e-04
-1.018371012072310719e-03
-8.533590072987995174e-04
4.030056130124269609e-04
7.791205737013979192e-04
7.425268100644281596e-04
1.978272243789034636e-03
1.284820031675546620e-03
7.973376246292457467e-04
-2.082706613908590337e-03
-1.106417411160476273e-03
3.604304569477588364e-04
9.351532331562380056e-04
-4.593371676112781386e-04
-1.236844800740151450e-03
-2.471653266764935099e-03
-5.061024767457123798e-04
1.147261179407996386e-03
4.482442267133742700e-05
7.620846459098579379e-04
2.685947179380526219e-03
2.913516594994585394e-03
-3.909097833770351638e-04
-1.281452956727301314e-03
-8.308219765775586539e-04
-1.941387055298176775e-03
-2.935758640075702627e-03
-1.981554731496221623e-03
3.143268001784458275e-04
2.583397066622538079e-03
2.999703088541121315e-03
2.025417702628947922e-03
-3.363727986391605931e-04
-4.218933783146407981e-04
-2.141122484059972955e-04
1.348779588765917784e-04
-2.891488921429110639e-04
-2.093498096321370645e-03
-1.915751364860778351e-03
-5.287185960577600770e-05
1.064478492131997042e-03
3.808000371191733895e-04
-7.171417023470569481e-04
-2.325800407814604561e-04
-1.376353172110976052e-04
1.865283935084843022e-03
2.729547421739386606e-03
3.198959243652264514e-04
-1.704792798676502867e-03
-1.825680453047243915e-03
4.048607102160649372e-04
1.464957444234971529e-03
2.728534367232327571e-04
-7.440709238042144368e-04
-9.890479172707925849e-04
-6.271324101598881214e-04
-1.500288566025858574e-03
-2.607790928669658989e-04
2.015684279768031016e-03
1.813292067012930346e-03
1.948481620369184580e-04
-4.028251884744620502e-04
-1.967342394120546924e-03
-9.925513011922709305e-04
9.929364728130743185e-04
2.461193102719135255e-03
1.122122118924505580e-03
-1.193553562544559955e-03
-1.890957512803347063e-03
-1.120295748659730882e-03
-7.085540605378828861e-04
8.759102471230005918e-04
2.877450261963681363e-03
8.795820867816438919e-04
-2.056346450674251519e-03
1.835995950878033093e-04
-7.818509266220787131e-04
-6.687969857065414938e-04
-1.907254078209324154e-03
-3.666223255964501252e-04
2.436524714713702525e-03
2.084244376807561135e-03
1.066986002889961510e-04
4.723207797666392023e-04
-4.829104358817438080e-04
-1.085072723487913319e-03
-1.199680996177217599e-04
-3.418603735920865572e-04
3.774073179626059654e-04
1.267143392831964963e-03
-1.208889033286144232e-04
-4.352158662134387318e-04
-1.968507824882210697e-03
-3.044600886413073321e-03
-1.375856151430116230e-03
1.968772757673381644e-03
3.020510999528720330e-03
2.691820126748591807e-03
1.282697054693361562e-03
3.118149859591323649e-04
5.336488148165777733e-04
-1.111965438124765332e-03
-1.732614654082281118e-03
-2.094827040487733886e-03
-2.045329363339186673e-03
-1.120966469713784511e-03
8.405814351227117003e-04
-5.727870064312360265e-04
-1.074149752692465801e-03
2.097048893087954512e-03
3.459156977728346325e-03
1.341143242844083320e-03
-4.399112585444970875e-04
9.679306844403404338e-05
2.486053108721479523e-03
-9.122531051337986075e-04
-2.786150642768009215e-03
-7.060292170736109842e-04
5.884061409939988965e-04
-2.817807140875984353e-04
-1.181168456119101491e-03
-2.742875477382255558e-04
-1.061286172847253264e-03
-2.002868450086433931e-03
-6.416669210367742385e-04
7.500687747121386265e-04
2.339973627290669895e-03
3.834403595560059719e-03
1.730342926405988111e-03
-9.197311176276094964e-04
-7.638630031556267351e-04
-1.006995688919219527e-04
5.986991855852243343e-04
-6.644249671895627535e-04
-2.226887350203071280e-03
-1.813897858709573362e-03
-8.105290882455748469e-04
-5.991553440488396349e-04
9.499867791205318657e-04
2.001509518133112644e-03
2.094786042912756205e-03
-4.506589495537100150e-04
-6.009781249485622980e-04
-1.884457577290509747e-04
1.243938099323120463e-03
3.392183221136600897e-04
-3.075343063511418694e-04
-1.914530259752715655e-03
-3.104417816627235826e-03
-9.725342373192557687e-04
1.588396733022181748e-03
1.991030174558471380e-03
1.462098271898854343e-03
9.218954160222223634e-04
1.441789911447207816e-03
-1.805945801517654537e-04
-4.343797293843737906e-04
-8.437423045765510190e-04
-2.473731042222431127e-03
-1.351790229298198767e-03
2.412029852186612505e-04
9.425680046902891376e-04
-3.029786601427878444e-04
2.835310999436223544e-05
1.646117232059556360e-03
1.394264030937678945e-04
-2.066389109850199322e-04
1.603833539263683551e-04
-7.360275886286993773e-04
-4.510313169068540153e-04
-3.586540727444180454e-04
-7.693645923315589391e-04
1.205887010965779171e-03
1.279607646789669446e-03
4.239651778378979424e-05
-8.825568099182562118e-05
1.928657801016065831e-03
4.184566661335590589e-04
8.232160573540785046e-05
-2.158763774997961814e-03
-9.877930872085982465e-04
8.304534834176547416e-04
-3.776972977408881230e-04
-4.965975829467090142e-04
-1.964471857908162231e-03
-1.719575922792695652e-03
-9.670810185893523401e-04
-1.454928212009766811e-04
3.359999205942566184e-03
3.618646603502541012e-03
1.563658391367840367e-03
-1.970183418425856814e-04
-1.958811783825526592e-03
-1.884916981280019633e-03
-1.254739529654634545e-04
1.641164238075117857e-03
1.277640733245455481e-03
3.086120367422547930e-04
-6.557544328245091267e-04
-2.071348127164790182e-03
-1.644672517457407019e-03
-4.360610603903495794e-04
3.444082654186103078e-04
-6.639168305543862976e-04
-1.464044611661404101e-03
7.030638060326646318e-04
2.337775897527889519e-03
2.835577250378511476e-03
1.281700653504008486e-03
-1.718185922723351831e-03
8.451905787187020871e-04
1.633756268622048313e-03
-1.047433674046845207e-03
-2.790742529739348443e-03
-2.392157175444332897e-03
2.863183715917047047e-04
1.113240873993762278e-03
9.960147292050361249e-04
-7.004158483774443810e-05
-5.606162370507422089e-04
-7.798962374467554833e-04
-4.198982589838088286e-04
-8.721994071679995547e-05
1.290013802888290368e-03
1.273258188877009504e-03
-5.940325442555900119e-04
-6.506561056081731388e-04
1.557959308393988985e-03
-7.700462234631509032e-05
-3.744814193243421437e-04
9.629374320661844523e-04
1.486228186985344771e-03
-7.945935503300479309e-04
-2.373944049852166893e-03
-1.573925745308897388e-03
-6.799331494231983936e-04
3.156110597940973376e-04
1.576702428522668877e-03
-8.648620998385060481e-05
-6.900107489565468618e-04
6.993788554558091203e-04
1.657994212558362062e-03
-3.914228849863936235e-04
-1.008901173402365799e-03
-1.820011705223949726e-04
4.202422252293848176e-04
-1.027206439278004722e-03
-2.495714125712273170e-04
3.101957580170483075e-04
9.518969048709538094e-04
2.276973387519070063e-03
2.137375922294250906e-03
-2.435711425857833932e-04
-2.286244021745996707e-03
-2.020624135483943453e-03
-1.899795565499807267e-03
-1.322386683539784284e-03
-1.057474733921929828e-03
7.222382744637397597e-04
3.251533359154279695e-03
1.950899946418191509e-03
9.378075482106213497e-04
-7.067714250761577850e-04
6.421642754523291044e-05
1.934045293611578206e-04
-6.303338304897115711e-04
-3.022997440077947531e-03
-1.953969493622242752e-03
1.810245279341201469e-03
2.621674291004193452e-03
1.089778275154264188e-03
-3.436113566402393274e-04
-3.033734667688332311e-04
-9.223102767854870782e-04
-9.744802625252260665e-04
-7.578934295766513122e-04
1.942443100258123062e-04
1.892560420227706527e-03
-2.287944158582213856e-04
-1.732365257386450511e-03
1.361568717054420898e-03
8.251204551853351041e-04
-1.347391082544904806e-03
-1.116637545561454759e-04
-1.412067469046953978e-03
-5.693631159959535414e-05
1.360067429045040341e-03
6.993896596715405050e-04
1.310953137471547502e-03
1.658544543388107374e-03
9.663872772856511211e-04
-9.322011042917489713e-04
-2.067402802122618195e-03
-1.535670106981469087e-03
-1.087194167640821892e-04
8.355021802968581835e-04
-7.648011356140520635e-05
-1.925104007608497130e-03
-2.871905776115143191e-03
-6.186701596895560502e-04
1.487242060830266119e-03
3.453569032337062365e-03
1.774816762467174057e-03
4.172040975442842942e-04
1.510181620276878668e-03
-4.516546498178827806e-04
8.232458737829242805e-06
-1.812120815768055988e-04
-7.346672487304198784e-04
-1.975487326620002908e-03
-7.137394227608739612e-04
1.210599217626151828e-03
1.659077353832198688e-03
-2.262372311356537682e-03
-2.454175551571306704e-03
-7.283379965198382355e-04
-1.638181794211586093e-03
3.187316838179361355e-05
2.479228227421104071e-03
2.831512666782316865e-03
1.569377968505044230e-03
1.456729072239354829e-03
2.156549471758139290e-04
-6.234995826690280588e-04
-1.977581495191990668e-03
-1.716376487862937908e-03
-9.174629228475813039e-04
5.600303387444383052e-04
1.635044840116748298e-03
9.209765683263532090e-04
-1.595120806307246016e-03
-5.845952020245463255e-04
1.653404365439211472e-03
-7.739206276645541104e-05
-1.371574249559905101e-04
-3.603857984895963420e-04
-2.121417346780040455e-03
-1.604586784147335682e-03
5.820608219231377528e-04
1.847235329569548541e-03
9.722660089015282281e-04
2.463283267518201307e-04
1.251146654769128962e-04
2.985679078219897987e-04
4.538551627804861092e-04
4.283925401406149481e-04
6.683959365469074225e-04
-8.218260148017475031e-04
-1.459636632480925105e-03
-4.915773727704670411e-04
1.465426566758643630e-03
-4.743398015950222929e-04
-2.494979005432425376e-03
-3.186598461210787998e-04
1.181044331101100547e-03
-1.035143670592335004e-03
8.296316799040066295e-04
2.824431578259057902e-03
8.463716768141677036e-04
-6.624900571613129632e-04
4.507328971847083827e-04
-9.858318219256446795e-04
-2.362755482474957359e-03
-2.139666564758610241e-03
-1.509335169996852636e-04
1.935788114869758589e-03
1.381531607266503437e-03
-1.317650457695513939e-04
2.936806344098031132e-04
9.728439410874766468e-04
1.283829116694346463e-03
1.668573694195954861e-03
-4.858434097659734482e-04
-1.842983636587224635e-03
-1.660297273248935663e-03
-1.177218175747752780e-03
-5.622100021325582894e-04
-7.431299356468789100e-04
2.550405140296983612e-04
1.816743926407734383e-03
1.498208785003275929e-03
-2.430147791697711852e-04
-8.116514244971577332e-04
-1.273595418654110707e-03
3.575099171479602204e-04
2.558643789416261295e-03
9.075182816998685715e-04
-1.694143849967483283e-03
-1.581879886705901423e-03
-1.805234289425869951e-03
-7.329413185818193198e-05
1.937395686795437321e-03
3.312987778609368262e-03
1.918733637909605287e-03
-1.480878109919086128e-03
-3.831993702160036395e-03
-1.927078528509314475e-03
7.290267767576256910e-04
6.330709547073052994e-04
9.970396049892630251e-04
1.524334568571495026e-03
2.403282528918705783e-04
-1.014936255253708714e-03
-1.164779546659227985e-03
-1.727304639149100001e-03
1.271384580086517635e-03
1.580238053782229406e-03
1.338635964144104309e-03
-3.679069619895625372e-04
-6.412812654231420714e-04
8.207339600861611028e-04
-1.326948729288944875e-03
-2.207219864316815449e-03
7.673166786892769622e-04
2.401355235711082146e-03
7.032765431700079613e-04
-2.962275280006145765e-03
-1.127859171355319844e-03
3.980135792096498731e-04
3.835385216325197305e-04
9.528133188915315077e-04
1.329778894628204410e-03
2.873953832193216085e-03
1.299175045857192679e-03
-1.576022157015942622e-03
-2.709849526739447050e-03
-2.718714351282075590e-03
-2.304080677462930389e-04
1.249960849272156987e-03
2.063190839193113882e-04
-1.057993919077950158e-03
-5.412246608586595512e-04
-5.415697025710181593e-05
8.818219095536082922e-04
1.523640639327829976e-03
1.583666503646624906e-03
1.228751192609655804e-03
-4.461067629474204516e-04
-1.755615707558627007e-03
-4.074046153475670002e-04
1.158059168042030289e-03
-2.645169243301825034e-04
-1.625533206495190924e-03
-9.441850973893882752e-04
9.786556094935850922e-05
7.342138415282083901e-04
6.558281822882844119e-04
-2.943726915979174913e-04
-7.485100836549383107e-04
6.601378146157844268e-04
5.667747528388417545e-04
1.829635429746975556e-04
1.787319114381389447e-03
4.862008402070466242e-04
-1.137208871366966008e-03
-2.177418496975857144e-03
-4.895304234164084452e-05
3.589495201146808250e-04
-4.219920449966712596e-05
1.193153799375279097e-04
-1.444691903051619278e-03
-9.171196074923414644e-04
2.773741880020115947e-03
1.850065769357968955e-03
-6.322355660066298916e-04
-1.007303686525234639e-03
-4.927249259279951324e-04
-1.542306632395808966e-04
-2.953942162881288301e-04
-6.102620698067247242e-04
-4.885700941862187400e-04
3.739074941876006008e-04
2.738420562447094631e-03
3.551126552925965799e-03
-8.519153864026181994e-04
-8.583002157692854600e-04
-1.501766148125269510e-03
-2.319625995267562881e-03
-2.997998496363052639e-03
-2.303873724678870850e-03
-5.275060783711258468e-04
1.736592596998026879e-03
3.740135949343332145e-03
3.816051067855813841e-03
1.398335126810241677e-04
-4.211214621849391875e-04
9.079814376679660841e-04
7.612780976625624970e-04
-1.178137595414508604e-03
-2.176266759270185404e-03
-8.713154643487858782e-04
-1.391947949056846498e-03
-5.388444254239498857e-04
-1.059477847634250408e-03
-3.569361251655435918e-04
6.590621330268415764e-04
7.751950169284094194e-04
2.287765431764523204e-03
1.846069967713536569e-03
3.695829543126853255e-04
-7.673240322940279128e-04
-1.719173904514141159e-03
-9.648712955688160163e-04
-3.760184878956755652e-05
2.902245349277377982e-04
6.176692945116370268e-04
-2.887342798366734908e-04
-1.222122183257665085e-03
1.770377165638018771e-03
2.418321884209096318e-03
7.082836040731435925e-04
-1.845355734170407323e-03
-1.283743006982957131e-03
1.000242011711647856e-04
-1.508026825271955793e-03
-9.137206652254419243e-04
3.687024648341676253e-04
2.508446467275851806e-03
1.856652928589938968e-04
-2.456074913967413401e-03
-9.664298235109599310e-04
1.475624001373018485e-03
-1.415275777041770464e-04
-1.677510477199984718e-03
-6.497194128141626731e-05
3.026924830228714617e-03
1.649286201692929960e-03
-6.940010777355517992e-04
2.565245188507695850e-04
2.192718313521311961e-03
1.733693135500580500e-03
-1.909866267230029419e-03
-2.813356509567910800e-03
-1.916145079637931407e-03
-4.634470484629447153e-07
1.738028556706203240e-04
-1.792597971209527671e-04
-2.966753948834288950e-04
-6.301940038087206365e-04
-4.060802032456910715e-04
8.474421073310419578e-04
1.314783532096789947e-03
9.556799422740956326e-05
5.599856840495819922e-04
-1.810146725827455321e-04
1.675547515985838145e-04
9.972271750110300263e-04
9.324594517224196267e-04
-3.252951797835139987e-05
7.759772084458025710e-05
4.903594342886554922e-04
-4.820878821892896310e-04
-2.695050789308508360e-03
-2.949577873248048192e-03
-1.095436922758969258e-03
1.342151168745179049e-03
2.077519766096380237e-03
2.183630052289383967e-03
2.276576699922828236e-03
-6.893192423377508642e-04
-1.214707427874865730e-03
-1.276889879021764684e-03
-1.174388550380305084e-03
-1.372066009771950520e-04
7.738998473475281739e-04
-4.173811499776704540e-04
-1.568039754180966831e-03
1.142209934806501671e-03
1.308415786904338404e-03
7.629599868809666067e-04
8.777008411408270504e-04
-3.352485701415031409e-04
-1.051629320224433447e-03
-8.225082136658729785e-04
9.522817319550431515e-04
2.946746951691171269e-04
-5.934443087599393471e-05
3.316657169726355890e-05
-4.611681684400196091e-05
-4.554586085787059864e-04
-1.296574631514780889e-04
-7.470855625098169178e-04
1.367469975334632565e-04
8.491379925077120012e-04
-1.958993092442777844e-03
-1.717274510986868891e-03
-2.474833197000555476e-04
2.306092490826612464e-03
3.508262040434433852e-03
1.531265322041864716e-03
-1.336086748754317013e-03
-1.282272665169898428e-03
-2.967239007299781644e-04
-1.133640962794406478e-03
-1.665429550446130037e-03
5.403632845950390260e-04
2.575832856879730921e-03
-6.025413493548458909e-04
-1.830310842318740071e-03
1.175405718893298649e-03
3.230765734507694492e-04
9.508079453552415903e-04
1.074766020994200088e-03
-5.232564674854713873e-04
-1.243687138573018776e-03
-9.468904391576004036e-06
-9.281348204218150665e-04
-1.390287621746362327e-03
-9.204784494102092067e-04
4.226136500609883970e-05
2.953934135096775312e-04
3.124400490063318535e-04
4.100856755682379356e-04
8.991589642363699477e-04
2.388675845874318766e-03
1.970677256623760976e-03
3.921835548837764550e-04
-1.300620208139707671e-03
-8.450714183931792335e-04
2.047825814050712552e-04
-3.151152885086005084e-04
-2.582611168937592929e-03
-3.624144977850960510e-04
9.898984566806248633e-04
2.452113263113670947e-04
-1.835190072137149768e-03
-6.689473106779070428e-04
1.770523518258129095e-03
1.571173533536074623e-04
-1.829861645133687258e-03
-3.574322543856158461e-04
1.998185786062775613e-03
1.590741417550214356e-03
7.219482252468819444e-04
-1.410389242378522808e-04
8.387619469693182155e-04
9.178322121042462121e-04
-5.129259039978738581e-04
-5.535582932488237714e-04
-7.282186004005111951e-04
-5.752359162640450010e-04
-2.529088690391913426e-03
-2.459706321067689234e-03
2.562861755626324577e-04
2.276684983131198586e-03
1.067644192397493308e-04
-1.510292925040358650e-03
1.813357287546360074e-04
3.659707021895922032e-03
3.429228775633773232e-03
7.014800974918808732e-04
-7.241721011895787749e-04
-2.088731362642420354e-03
-2.805381998635189320e-03
-9.153557810075293403e-04
1.999593463825029629e-04
1.280912664677676983e-03
1.716442920873673529e-04
9.761674998837719698e-04
1.088998013932721822e-03
-1.327607017723079477e-03
-1.239887950883614316e-03
1.050374217933781884e-03
-3.996754662330630594e-04
-3.594415835539795448e-03
-2.263072807627527876e-03
1.005773050139009868e-04
3.969243372680837482e-03
3.099118228731957518e-03
1.618269493159156828e-03
-6.225238203758367509e-04
4.953222797316629350e-04
2.220322740491978333e-03
-1.845347452378500331e-04
-2.300739838654260617e-03
-3.064278760263488156e-03
-3.387268859310040361e-04
-6.796895561145121101e-04
-2.855028296393145176e-03
-1.355076112713895055e-03
9.409787788098907934e-04
6.974026385548538114e-04
2.664253755642434583e-03
1.822112283489551792e-03
1.385469373641355553e-03
2.578168627439141915e-03
-2.496152839927567348e-04
-1.615282148144769891e-03
-1.534419010848956690e-03
1.268717422852098323e-04
1.365214912683622699e-03
-2.796356536951610187e-04
-2.992973441888205615e-03
-2.820285372497075786e-03
-1.296224817446095306e-03
2.008340635387419713e-04
1.668550250924789608e-03
2.190453941415402856e-03
2.833728067467734292e-03
1.612717332189075783e-03
-5.607052353370565838e-04
-2.318517501346175919e-03
-6.153387639890893273e-04
7.274277249132040084e-04
-2.800525983560860684e-04
-8.961229810771897128e-04
-1.276462264257720650e-03
1.038799324002439000e-04
8.048047890904174665e-04
6.771219190855081501e-04
3.120745068020100476e-05
-2.107480031715766849e-04
-1.935322233323204136e-04
3.966905390402810511e-04
9.588764766416418448e-04
2.821384576713745684e-04
-1.318095499299537293e-03
-1.647399585585245570e-05
6.884864592818001807e-04
-4.126889384052589657e-04
-1.935507919148671610e-03
-2.190729619634273345e-03
1.272854131047845882e-03
3.580637868844803191e-03
1.686920667533649189e-03
7.832874781414204696e-04
-1.265307157179717179e-03
-2.933828193606753763e-03
-7.150605977507256544e-04
9.627372920854825045e-04
5.699933953830355320e-04
-6.617122026628173646e-05
1.182838700819210140e-04
-7.119111127673770009e-04
1.100928552871156992e-03
1.584755293148862581e-03
-2.012300509968430618e-03
-3.440213574354423088e-03
-7.225903276872884962e-04
1.859180689523432265e-03
3.683580732179288653e-03
9.220687599275825125e-04
-1.253994549280863227e-03
-1.337792404870611403e-03
-1.129541356413946173e-04
1.941622042644275750e-03
2.211832869203800896e-03
9.854540227686170439e-04
-1.292646182508390938e-03
-3.561023981889304638e-03
-2.309245338790293697e-03
-1.647988916959826399e-03
-3.407427015267197427e-05
1.030948935280628616e-03
5.084926396053913653e-04
1.787917035451285983e-03
1.392581141009204470e-03
-9.516631739799894310e-04
-1.250320194255400688e-03
1.281436638653251107e-03
3.149658890732892885e-03
-2.144708413874148439e-04
-1.484549442475002973e-03
-1.122171060628831749e-03
1.168983968190366596e-03
-2.695240129573063873e-04
-1.180498021916165157e-03
-3.598652301645952935e-04
3.444092613164790369e-04
-1.520681196801265895e-04
-3.383422542702687881e-04
5.355049363583262853e-04
2.000995723366463287e-03
-3.750320722668212944e-04
-2.172850426067633473e-03
-8.009328115583066359e-04
2.314562623859425100e-04
1.141267608653840282e-05
3.744118178106438074e-04
4.104460154265195115e-04
4.305921080078183873e-04
7.456782624126680366e-04
2.925308747962192344e-04
2.958312028488382386e-04
-6.147449641166328506e-04
-6.060783471617174709e-04
1.800704017331867038e-05
-8.778911696654277588e-04
-5.467571519647562456e-04
1.927022151844729955e-03
4.396464772341201945e-04
-1.194895734995158991e-03
-3.837988744485842625e-04
-7.908942423635372193e-04
-4.348555786809262533e-04
1.749466256383398321e-03
1.943763691255651072e-03
7.542809413151769235e-04
-1.518065847886316795e-03
-2.130582467033298542e-03
-6.284141284619295612e-04
2.071552432523506970e-03
1.850094017137283173e-03
-5.268533092034751938e-04
-1.849382290191707578e-03
-4.308424422021664511e-04
-2.279077896622440261e-04
-9.229011232750551543e-04
-1.891997469388537016e-03
-8.331975290885855912e-04
1.349365112946595375e-03
3.900835364703311020e-03
1.636720973768945398e-03
-4.094368524818637473e-04
1.964693165446448854e-04
1.153495804497051483e-03
-7.584690006494407928e-04
-8.270596747914476512e-04
-2.580093731325545578e-03
-2.677860490293369061e-03
8.482897344625757279e-04
1.730197864864182599e-03
1.332336355442608877e-03
2.595094519568979033e-04
6.455957502386962558e-04
2.025268737839000174e-04
-6.081893037129681599e-04
-1.474828130870162223e-03
-1.320296958599728124e-03
-1.507141294288605240e-03
-1.260894136587679135e-03
6.502040001733903115e-04
3.777631643239504674e-03
3.397433624075904286e-03
1.343281543403536784e-03
-1.165157403258678184e-03
-1.690471706348105905e-03
-6.961671265767331758e-04
-1.240047683154266644e-03
2.986096577861445910e-05
5.168218056777274319e-04
-1.915173452306582428e-03
-1.311689099372168044e-03
8.080891624037051836e-04
2.012173570611133343e-03
1.701657510191718382e-03
4.181094073713747562e-05
-1.123160654723972954e-03
-1.475185315970333616e-03
-1.765294057136627829e-03
-3.049133880927503999e-04
7.771227698327801961e-04
1.179407478366873395e-03
2.274618213801082693e-03
2.226313708512222145e-03
-5.014183843365703844e-04
-1.039763525160584479e-03
-3.210702660404590996e-04
-9.575777603798400761e-04
-9.838900882337660650e-04
-8.747810221528359203e-04
-6.451117946822873929e-04
1.066219767760470194e-03
7.403260103019530022e-04
-8.665459302631983197e-04
-7.070079529072155391e-04
4.534895645048145916e-04
3.249812383282839313e-04
1.653828658881549129e-03
1.236109249300513385e-03
-9.271614256122556394e-04
-1.019475566627768949e-03
3.518291880629184913e-04
1.513024352540032289e-03
-2.754763901588369091e-04
-1.211568499263225487e-04
-9.105128092310958016e-04
-3.696070385783901003e-03
-2.356313921225269316e-03
9.919139996258535298e-04
1.332506701877410153e-03
2.192464729556516632e-03
2.670299764955413359e-03
1.096953234219770435e-03
1.443968035888394588e-03
-4.092019068310940363e-04
-1.873316792074439761e-03
-2.498218119352052513e-03
-7.671836110276664556e-04
-6.571205839102031449e-04
1.113981596958574152e-04
-3.015766500279450047e-04
9.946320422750229602e-04
3.295055273557309259e-04
4.409187427723724670e-04
4.040446308667371015e-04
2.039952636578162837e-03
9.130987032117194235e-04
-1.766372186372317530e-03
-1.430799552497782293e-03
-2.251073015453153000e-04
-1.207868894407016077e-03
8.043355507227099377e-04
1.094727236092781267e-05
-1.451807127541818307e-03
2.063740354296521914e-03
1.710969008883765803e-03
-6.743540293504626543e-04
-9.666292534236158506e-04
-2.273332282322640613e-04
9.407155831997860524e-04
1.783018576672000879e-03
-7.428358981850415998e-04
-4.185262806451245550e-03
-5.989045377904299566e-04
8.719045808058890120e-04
1.153080312831673880e-03
8.639598780171165587e-04
7.742366845952194671e-04
4.300355983962789782e-04
7.475801762803843545e-04
-7.170201146705684671e-04
-1.375124362973564754e-03
-1.663141276978804617e-04
6.111945935055085365e-04
-1.211221696558576508e-04
5.251932842203012363e-04
1.319144561773167223e-03
4.205333625307548806e-04
-3.468783516172518704e-04
-1.903475382282677911e-03
-3.793582788003705027e-03
-1.133764929359745190e-03
1.501161232203316025e-03
2.131670276306001088e-03
2.440584944234971011e-03
2.584166328893049234e-03
-1.817157911430818638e-04
-2.041192141586316289e-03
-1.162971474192441880e-03
-4.463761389106745857e-04
-1.722480753391971396e-03
1.971444684611531242e-04
1.803947816497103408e-03
-7.154438231608016346e-04
-3.547142663640873004e-05
-2.750675766589225860e-04
-5.185872649238624024e-04
3.010088136012881903e-04
1.265671745913336636e-03
9.980908710446947940e-04
1.476617045418192808e-03
1.012383406981147080e-04
-2.371015061505368695e-03
-2.991838079943661419e-04
8.209056592773263366e-04
2.266349496337854790e-04
-1.315184027463704762e-03
-1.508112598158311548e-03
-1.256547079725561008e-03
-8.877873580226576522e-05
4.849621923191229983e-04
1.701345273640560672e-03
9.812103935325478497e-04
1.680286136388126940e-04
3.380577899371483598e-05
1.041553987739180127e-03
1.819442842864397092e-03
-7.576381723120822857e-05
-5.284439607652140995e-04
-1.527838175470818110e-03
-2.927253541025979112e-03
-2.138101837603883278e-03
1.140223385483181504e-03
2.173632288163473546e-03
3.481062468069643420e-04
-5.258065966204577635e-04
7.673129145636000108e-04
1.168807837417179009e-03
6.699376622978658619e-04
1.757051835048040840e-04
-6.310580800838588031e-04
-2.068498863337408285e-03
-1.861209733323062384e-03
5.877786989563901169e-04
2.061114532750539605e-03
1.050300548155638607e-04
2.012732699419640409e-04
1.729466575672865963e-03
5.617484926611478148e-04
-2.552381280127305951e-04
-7.228007178856588012e-04
-2.058266982815472670e-03
-1.353785656185796165e-03
6.418860480129765563e-04
-1.919035223882543939e-05
-1.329735436896169708e-03
5.515383583834379067e-04
7.696890585526113774e-04
-4.953992754376419783e-04
1.380640258218118906e-04
8.597391087852387275e-04
1.379640151178234764e-03
6.383913537874787852e-04
6.215527837420078581e-04
-3.540303276687992899e-04
-3.152481399083350406e-04
-3.453989725962189642e-04
4.526915378388609787e-04
3.806459942668497182e-04
-1.344344296870163573e-03
-6.207850875571766782e-04
-6.687396799061663157e-04
-1.271862053492185847e-04
-7.271539338658491482e-05
-2.049306494727516528e-04
-2.202292608641869226e-04
-2.703653721198831972e-04
-2.005125433509096151e-04
4.496573427357938553e-04
1.529435058287050096e-03
1.818518858175462204e-03
-2.104823728488083683e-04
-2.885371328995367047e-04
5.113127018897930176e-04
-2.580105193965702729e-04
-1.381276893878957690e-03
-5.739680087689723147e-04
2.541895679815625413e-05
2.646959369005291761e-04
1.472752911109011069e-04
-3.203759642058912039e-04
-8.238169170135820410e-04
-1.198940112791181461e-03
-1.280190283647172000e-03
9.294830585773027759e-04
3.611791872407640533e-03
1.589903586776216307e-03
2.132746264150223430e-04
-8.169117627430963566e-04
-1.038904556697096623e-03
-1.213627940614658536e-03
-8.828205326468535792e-04
-1.997478675623513963e-04
-5.394157039482095229e-04
-6.839418724022023211e-04
1.651362246719175874e-03
1.730627217322705611e-03
1.569891192811229130e-04
7.365885236195026178e-04
2.544581809076463565e-03
7.863507454363674772e-05
-3.464828841993257760e-03
-2.293074288031566460e-03
-1.901781380913108305e-03
-1.539133603782616173e-04
5.128540191897358255e-04
1.172336066135934787e-03
9.153742296094894565e-04
5.105639689406297815e-04
1.334923581135740887e-03
6.427997586170626108e-04
-6.525768997526501872e-04
-8.782323142295805646e-04
4.153410908600747875e-04
4.712904479100432252e-04
4.990111713660828332e-04
4.872899979331357743e-04
2.736242226019049346e-04
-1.217549426626388575e-03
-2.311756030511219299e-03
-4.148858460902946511e-04
5.241786399314853333e-05
-1.969604741089317750e-03
5.495789433111249612e-04
2.130278163275908191e-03
2.634083844313171632e-03
1.159175823353972810e-03
-1.213992171337802996e-03
-2.949124972454808102e-03
-9.862400125792646598e-04
1.628840883748523252e-03
1.695424002464759796e-03
8.934656597532255468e-04
-4.722343708460858061e-04
-4.197770739307689803e-04
1.328480452525380171e-04
1.150334137943546920e-04
-9.329132386011514816e-04
-1.943870404407714884e-03
-6.290369539299945929e-04
-1.107676931607444980e-03
-2.234909596613386933e-05
6.427190188425837810e-04
2.715855460797153564e-03
2.376646504530949191e-03
3.789235427803479880e-04
-8.526741646504819305e-05
-2.513057946623680882e-04
4.754109188835642938e-04
-1.124710116330801882e-03
-1.402714074114349858e-03
-1.589011129003882862e-03
-1.688956055701702069e-03
-4.825301518498442254e-04
1.576197909550636515e-03
1.290158117459745506e-03
-7.205564900678198929e-04
2.852727292706229369e-04
1.724773664226207865e-03
1.014300848174842958e-03
-3.112875504736958582e-04
-8.713585419380282275e-04
1.027480203601082386e-04
-1.504536826039188984e-03
-1.264988816893011878e-03
1.586676179691755371e-03
2.322039413272582523e-03
6.375147663013733170e-04
-1.786659614458537774e-03
-8.281917417407294243e-04
1.075032427173696660e-03
1.028788904163284706e-03
-2.638930700126369908e-03
-3.053937185065221452e-03
9.733010183032787983e-05
1.024543048920808315e-03
6.495389600926085652e-04
-2.615605053298426233e-04
1.646977619481672546e-03
2.096286716289477974e-03
2.295280671961245130e-03
1.464438077415066743e-03
-2.636688561050255179e-04
-1.842408107007728222e-03
-2.987292550742766395e-03
-1.122059124097926717e-03
7.809788508030771764e-05
-1.835715998400490670e-03
-2.135067146626224224e-03
9.876011286639682120e-05
1.363032301774234857e-03
3.192243927793228086e-03
2.390672605447615156e-03
6.438848506992020035e-04
-5.176803490319628002e-04
-4.820956871392537927e-04
-3.065441757446080596e-03
-2.320822536003997426e-03
1.287744222940583484e-03
2.564262493975492333e-03
1.804712211412300192e-03
1.288320168099803308e-03
9.069141523657228872e-05
-1.184536804668328202e-03
-7.092876760957832682e-04
-1.533072587356157975e-03
-1.968830601276918852e-03
7.455005246323855635e-04
1.138948806677305336e-03
-1.370844733290202183e-03
-3.089574190906601604e-03
-1.683291176889412143e-04
7.126133526123266688e-04
1.414399682718438201e-03
1.960822384182538732e-03
9.937127854324457558e-04
6.541342392512410064e-04
1.546335580249386544e-03
1.670057692455191459e-03
-6.848625722640161798e-05
-4.973316066023125964e-04
-1.103599190137171011e-04
-7.752250305769639669e-04
-2.220676103433686082e-03
-2.339050574894143645e-03
-2.067189967357452914e-03
-5.027194155258589425e-04
9.759535411060962350e-04
1.607775330635794874e-03
4.844227952845733083e-04
-1.620666826852338758e-03
9.499734731004767698e-04
3.629749953674727553e-03
4.765982359937464153e-04
-1.789910321887835422e-03
-1.158596380765215816e-04
1.377663819093228464e-03
8.556604440078730608e-04
-1.534965428897925319e-03
1.505144528501611541e-04
-4.423443282792669483e-05
-5.967114492895194203e-04
-1.507253009664990227e-03
-1.551780334589816356e-03
3.451623503226764530e-04
1.753304600886003949e-03
1.771533006815106687e-03
1.116244970426213089e-04
-2.292252861797646531e-03
-1.453403280760605983e-03
1.121474306729518212e-03
8.725950806760437431e-04
-1.116557330648186791e-03
4.859239253666265760e-05
1.628639870366680939e-03
1.031448367721990141e-03
-6.787356982008647174e-04
-1.222715458730695443e-03
1.474292904737862196e-04
1.580930436748469994e-03
7.655799063497920488e-04
7.273761574529871276e-04
-8.613801942683262753e-05
-1.853253584952508758e-03
-1.392778077030173154e-03
-2.497295648149606105e-04
1.885689525203656028e-04
3.715925717808974934e-04
-9.237326764411561524e-04
8.835368105075357397e-04
9.189868983271479120e-04
-9.573432780631677998e-04
-1.067568097629083279e-03
-7.673039129566908189e-04
-8.012942736896214516e-04
1.289159006398764989e-03
3.077701547350717229e-03
1.829498570119176843e-03
-6.165777017750674084e-04
-8.998155191029932193e-04
-3.934182660755314873e-04
-1.846925192577631488e-03
-1.450890943761964664e-03
3.300782526048174140e-04
1.351912214408189589e-03
1.301111614111259869e-03
7.797460856351037155e-04
-6.775599904064187650e-04
7.377124014328326814e-04
7.492124873101431611e-04
-1.254172315004988686e-03
-1.454693636254412829e-03
-2.286526992874255565e-03
-8.391801796490990081e-04
4.607428309815087431e-04
1.630437058220472919e-03
1.162210944246654283e-03
1.418701067812976665e-04
8.740588818958619326e-04
1.672898110675038932e-04
-2.908599138859325074e-04
1.148567221707150058e-04
-1.361671972028290385e-03
-7.571450950116518416e-04
5.467909446089180099e-04
-2.090082416036766829e-04
-4.470560497890069393e-04
2.254018823855665540e-03
1.920376593344253618e-03
-1.472826760255333076e-03
-3.217230031376202594e-04
1.076504961053341338e-03
-5.048151028867901629e-04
-1.879733134084172553e-03
4.481280928976569093e-04
-6.997913983593180348e-04
-1.357154702891491061e-04
-1.210086476783844150e-03
3.622209287471621960e-04
1.739941412113748566e-04
-6.850275754427053668e-04
9.774361043583142919e-05
2.576514935102999174e-04
5.804894937923479447e-04
1.391500071205383545e-03
1.943928261130640264e-03
1.639139008887780880e-03
-1.041527812598283141e-03
-1.669840763678879158e-03
-1.161403695704258179e-03
-1.502338129075619748e-03
-1.018336775410611916e-03
1.326350886344496941e-04
1.028652591771930845e-03
1.509743006740468015e-03
1.872738199924899863e-03
7.352222226246947229e-04
-9.967723384406736425e-04
-2.264375136584007454e-03
-9.396416871776862387e-04
1.292281063916954570e-03
1.680211402314912752e-03
-8.328212965559415610e-05
-2.472180435344904694e-03
-4.487228169414498495e-04
-2.648781176142618837e-04
-5.421889833702822105e-04
-3.599338877348009233e-04
1.048894492901208432e-03
7.869307739611987621e-04
1.751960575398620133e-03
1.192298442735053102e-03
9.301700816794477309e-04
3.432210014543683090e-04
-1.803398351307166844e-03
-2.320303746728653860e-03
-1.984819555890390656e-03
-5.043354953325580262e-04
2.874325576941143788e-03
3.414730469012500647e-03
1.993336064500107578e-04
-9.707235861684873884e-04
-8.501430632750921245e-04
-2.476548240996506028e-03
-3.366514892071932954e-04
2.546167443407296128e-04
-1.740818316793593841e-03
-2.170430084269379337e-03
5.245942749153567272e-04
2.254906520443657886e-03
9.096291337928766405e-04
1.685586023683139419e-04
1.260527178334720473e-03
2.352022455700482611e-03
1.446353960375864386e-03
4.683767940873487766e-05
1.938174303341592920e-03
-8.581944757092915691e-05
-3.924684713579359996e-03
-2.440415670446129635e-03
-1.002127028226859444e-03
-6.992560137222851233e-04
-6.292884104352766770e-04
-1.102095643552484291e-03
-7.417347235020275726e-04
1.222999438082669754e-03
1.904613944350155462e-03
1.315875132950649609e-03
6.892503146083939995e-04
2.780510045452164961e-03
4.237543663123341259e-04
-1.801259791190289433e-03
-1.148960861382005956e-03
-3.691538780820725961e-04
-3.816723577004464121e-04
6.403002566788206732e-04
9.965177767458436838e-05
5.892642952392811986e-04
-4.832894974253909440e-04
-1.434891598527318190e-03
-1.952560439657309577e-03
1.105703599285526133e-04
1.896019911417352703e-04
4.345487233130681734e-04
2.384893280767548876e-03
-5.084161590935619250e-04
-7.587048859226002730e-04
1.488305743707103593e-03
2.421546477126535878e-03
5.157084654662843614e-04
-1.637147957910970418e-03
-1.751838575131899273e-03
-1.969077453308429922e-03
-9.202300616725567813e-04
3.221057541548759656e-04
9.906665953861913763e-04
1.081000109474298046e-03
4.355406706218755168e-04
-1.561906526597135530e-03
1.337894908996140574e-03
3.176224867243764276e-03
1.655939645762059646e-03
-1.400092984503839046e-03
-4.473200335936113221e-03
-2.075647359309140075e-03
6.014205441725170229e-04
3.527926763282074069e-04
5.363670238641104994e-04
2.386025203046898799e-04
7.191300288199379805e-05
8.004978489758651436e-04
2.119003486569691168e-03
9.737985868619046699e-04
2.606785196577919225e-04
-3.297721020646685519e-04
-3.875430142578602591e-05
-1.310621048730108151e-03
-2.315085379496250109e-03
-1.524212223148965935e-03
-7.640412046553200602e-04
-6.373837736041534398e-04
1.611483843068382826e-03
3.245515272072216784e-03
1.221665871847578107e-03
-9.436175364014762982e-04
-3.465807844519961777e-04
4.209137019123126966e-04
-6.248350756230193655e-04
-2.811983779750023985e-04
3.810335963431167291e-04
1.359013691476546656e-03
-9.606000825905665862e-05
-1.848812165953211267e-03
-9.989847913214674070e-04
-5.949972269017257025e-04
-1.735497189916119631e-04
1.200684783603961380e-04
-1.101678231706458143e-05
2.044736762129147566e-04
1.536837196802943832e-03
1.244946822060139392e-03
8.575416275299756501e-04
-1.456557051307999550e-03
-2.038439424584546737e-03
1.738684505444871176e-04
1.662033570925778702e-03
1.261176683201721245e-04
-3.269773426831443361e-04
-3.218516797879252293e-04
5.844221554337178945e-04
1.614260179141214190e-03
-4.503112145134537721e-04
-8.908708534783547081e-04
-9.374072243430976118e-04
-2.732465015413364489e-03
-1.243890055796396249e-03
1.239015654029165022e-03
2.581661641447873402e-03
1.566316957409528499e-03
4.853885620439467655e-04
-1.115142881403077867e-03
-9.426976401858640003e-04
5.488842368811630394e-04
9.226262339339154914e-04
1.404630025771975727e-03
-4.396287147121735175e-04
-3.380599553556850288e-03
-1.303628102928261652e-03
4.641755282732953816e-04
1.938272678293864217e-03
8.368693681878386836e-05
-1.572872721552703553e-03
-1.156756349814519875e-04
1.570987109653011315e-03
1.423840711809534493e-04
-5.781094991665352992e-04
7.873338934273061817e-04
1.034434949283591495e-03
4.639526789544646504e-04
-1.543068702922469233e-03
-8.789882955437828410e-04
1.067789523096198713e-03
7.706034674613167473e-04
-4.155138200271806578e-04
-2.201959195460164679e-04
-3.447980579953459400e-05
-9.427076532535661347e-04
-5.975772012145619001e-05
-4.488022613822299778e-04
9.333647810271515936e-04
2.663723228627619876e-04
-3.165084890890789825e-04
-5.106518414287312567e-04
-3.146211236020946054e-04
-1.556572422401567490e-03
1.923067313892115084e-04
2.494636989650408660e-03
1.386930556674968902e-03
6.872025932280594876e-04
-5.938372258854486378e-05
-1.002450996166940602e-03
-7.650331820077947188e-04
1.115769026941645058e-03
-9.985413252713566494e-04
-1.605006323500731595e-03
-1.301578453289327798e-03
-6.839641914126256715e-04
1.332051813731049235e-03
7.955996348588645047e-04
1.089931489817478824e-05
5.168904494341517797e-04
1.869046489735694348e-04
-6.686835464506940422e-04
5.444650437019087899e-04
2.448489278766897460e-03
1.524785148960183020e-03
-1.323847913881517077e-03
-1.382297739514271213e-03
-3.450317394105079571e-04
-9.740016387248075832e-04
8.372674365633924701e-04
5.007313765920186647e-04
-2.142998566234648270e-03
-2.061549194802255250e-03
-1.741378624362725606e-05
2.619299064203123133e-03
1.580982944502718531e-03
-1.295998465131669320e-03
-8.190941867039412900e-04
-1.258022641911538380e-03
4.390066084957069785e-04
2.285028002580086898e-03
1.679067630895753407e-03
8.994718454641947424e-04
-8.299551331202386327e-04
-1.387794586736900088e-03
1.194851762309245488e-03
1.106798250481610263e-03
4.751722311901674300e-04
-2.077014042675945100e-03
-2.884670895336672626e-03
-2.090080811856100812e-03
1.716331382634753502e-04
-9.587694334370230843e-04
9.552349278358495017e-04
1.976047688373236758e-03
6.066891237485995750e-04
-2.281054303667974688e-04
2.546675403359612835e-04
1.915399531411273414e-03
1.554773299481586844e-03
1.153428627627950441e-03
-2.145000828633174001e-04
-1.954977599537544280e-03
-3.020382379402370039e-03
-3.816541349517146679e-04
3.344221149028096807e-03
1.116623665677735338e-03
-9.796264108554914897e-04
-2.501381779667415702e-03
-7.117446059648058340e-04
-4.012196297324666615e-05
-3.331071757148480208e-04
-6.698663005953216102e-04
4.841345993897052378e-04
5.454657689254330602e-04
-1.718957631166508505e-05
2.315492005481487817e-03
1.142294599487680713e-03
-9.384471274838216987e-04
1.939979756088452902e-04
5.698077939974239897e-04
-1.189812177226689431e-03
-1.277990130486071282e-03
9.062132043967936583e-04
-5.984050899999085547e-04
-1.682457481580899774e-03
1.153449310798193139e-03
1.491364397439517942e-03
8.635428914607250293e-05
7.472284277533709817e-04
8.768165055202067383e-04
1.238434971594846740e-03
-1.977811920860002726e-03
-1.742907437560727805e-03
-9.404515439202236655e-04
1.454493299921812274e-04
-9.007926045860760586e-04
-1.913817605870007325e-03
-1.642547445007085712e-03
3.998603181777027555e-04
1.491833504253714006e-03
1.346482859334484188e-03
4.093123562596290461e-03
4.543179079342497470e-03
1.770538329922704927e-03
-8.871179830376159196e-04
-3.150124649256283525e-03
-3.826510902614275837e-03
-3.708102645805654626e-03
-6.851573024059458110e-04
1.557816038005003937e-03
2.566655721978114814e-04
-4.815444175358485433e-04
2.500411937798611896e-04
1.683047151217731928e-03
2.288480092937352980e-03
9.967245583481054282e-04
4.015426462377269176e-04
1.988514194957290582e-04
-8.292623614270936468e-04
-1.914877367734214332e-03
-1.982331821087899432e-03
-1.479259735713093007e-03
-3.934367411388812151e-04
-3.900290490700753301e-04
6.801427171685919901e-04
1.759962916122339346e-03
2.094081425335818456e-03
1.533072740142156238e-03
1.753806084119706107e-03
4.615687319081262108e-04
-8.267375156312396604e-04
-1.053289049347519565e-03
-9.906148204500680315e-04
-1.408624626514581781e-03
-1.394646050940103951e-03
-2.625051747135339914e-03
-2.099438762419364099e-04
2.199901358484085932e-03
4.104353638936146867e-05
-5.677209733242849585e-04
1.151023643181857750e-03
7.841645645938208689e-04
1.391493218238362434e-03
1.908211314371631960e-03
1.417233008919935051e-03
-6.977209330930342433e-04
-1.546718721738244567e-03
-2.971978577892742026e-03
-1.170464332644652891e-03
2.015829917585842176e-03
1.084389793432929874e-03
-1.378059601635131092e-03
-1.104086258745178711e-03
-8.025127971349145170e-05
4.715517945581557731e-04
1.009045542186442308e-03
7.697158377105383330e-04
-9.363861351190799764e-05
-1.123856007948415914e-03
-6.443644191735856249e-04
-6.423530963319149054e-04
4.026316053826347295e-04
2.483242005685789167e-03
2.843857832108635884e-03
-3.567049187473286549e-04
-1.482926686677979097e-03
-2.386922433117933317e-04
-1.665940754787161894e-03
-2.410582536537595692e-03
-7.925142887864249173e-04
2.279139613053164128e-03
1.627357233628254178e-03
-1.389209859243706324e-04
-1.323129326908606017e-03
-5.317036983220606739e-04
-3.372868383695891469e-04
6.546445911472032527e-04
-1.300452009290635003e-04
-8.010575562904806782e-05
5.128471140965093445e-04
2.845338443617801555e-04
1.544332758702176645e-04
2.562754159011938586e-03
1.857783251787258581e-03
-2.918822487426395856e-04
-2.830674606106391242e-03
-2.720658523565385855e-03
-2.807989933609645206e-04
2.036655044168522635e-04
-2.103836209326588819e-04
-1.592368570298771787e-04
1.569685161340563439e-03
1.459858146009728689e-03
-1.897462473144837479e-04
-7.907316691417127716e-04
1.482951590499998005e-03
1.133876398716031136e-03
-1.383465120596834991e-03
-2.408990665648591979e-03
-1.180412698295118818e-03
7.770012228326963425e-04
-6.551584734226753885e-04
-7.450181746363653337e-04
1.118819172334840038e-03
2.342076554591301929e-03
2.312335119977278978e-03
1.178321086598431520e-03
-1.065098295989202982e-03
-2.134504570744453610e-03
-3.557993384025868360e-04
1.064677133363881121e-03
-7.773612476556405288e-06
-2.194013622422873525e-03
-2.431825323119705777e-03
-1.011592971400990205e-03
1.016809122626211081e-03
1.690035101698932367e-03
7.235653618601315014e-04
4.255054731966905575e-04
1.117440481956673498e-03
1.133322540983481511e-03
-4.345755413512741167e-04
-9.892205674114293301e-04
7.829176863624281546e-05
9.315520756756840229e-04
-5.741710735242706041e-04
-1.550522061988791628e-03
-1.787685944520062218e-04
-5.919208902656680543e-04
1.774238103980981408e-03
3.992377100079677968e-05
-7.724522523169263279e-04
2.401573956087517153e-04
-1.384615601262987380e-04
-6.988260654429269501e-04
-8.411832304392542802e-04
9.502963877861257984e-04
1.003932655289499661e-03
6.839293595241987189e-04
7.447812885157748799e-04
8.738705230061428499e-04
-3.079893216085568923e-04
-2.499332256538331753e-03
-1.428635002153485220e-03
7.141675013807223720e-06
1.349396418987500179e-04
9.467248490315886573e-04
-7.511571096236857982e-04
8.520079529800331057e-04
1.039357938198774613e-03
-2.276524287701364290e-05
7.311197748948917606e-04
7.204978109590274259e-04
-8.043613153846146564e-04
-7.786663020575013139e-04
-1.173096961985216954e-03
1.614681404360324927e-04
7.962447522727008264e-04
-7.827251014565418013e-04
-1.818298448703582412e-03
-1.234007056458054233e-03
-3.979643350507159043e-04
1.606402752211934281e-03
4.775276514338432261e-03
4.522101565257266066e-03
-8.218610753574608421e-05
-2.493202390567690521e-03
-3.339709706468179263e-03
-1.724080804246210441e-03
-1.476649487754660246e-03
-1.999311633709183363e-03
3.615218677425588618e-04
1.633364239612116603e-03
1.355613309923467185e-03
5.946942201640779361e-04
7.221742516466583871e-04
3.620826303168205550e-04
-1.845695206511114043e-04
1.365300074888444685e-03
1.037439144079427451e-03
-8.704743810580295189e-04
-1.771533403730340224e-03
-9.084582803098686411e-04
-4.208035120487543931e-04
-1.563144049301519716e-04
8.035276462759520857e-04
1.091769958106130053e-03
-4.507457325792310100e-05
-1.526757206098037839e-03
-7.450750807384085711e-04
-7.362784714143036846e-04
-1.112009168662454078e-04
1.450560409527779137e-03
1.978972410562549519e-03
1.180094956932651196e-03
5.882656127555888157e-04
-7.063563384303505818e-04
-2.242737239247332304e-03
-1.120295417315159961e-03
9.826445836726943432e-04
1.013689337075409595e-03
-7.230539620883026652e-04
-7.193610189337357229e-04
4.129729918690497326e-04
1.146449623561216673e-03
-1.993251542738395054e-04
