-3.420748276439489720e-03
-3.434357731273143029e-03
-3.433166558806740980e-03
-3.411470650133973347e-03
-3.363826638060249483e-03
-3.285142232967254005e-03
-3.170762556038406871e-03
-3.016550987910018335e-03
-2.818962895857404696e-03
-2.575110917765772913e-03
-2.282820453767998511e-03
-1.940673996340641898e-03
-1.548043557735723523e-03
-1.105110257795768316e-03
-6.128705033222943844e-04
-7.312832877944807903e-05
5.115260682946815365e-04
1.137751766782068175e-03
1.801505835355753007e-03
2.498104863035472637e-03
3.222298461906451198e-03
3.968353554669987009e-03
4.730148192925523638e-03
5.501273301376531470e-03
6.275140854642112520e-03
7.045096387833489106e-03
7.804534102958011164e-03
8.547012375639985796e-03
9.266367673630053828e-03
9.956824826394877412e-03
1.061310155221695771e-02
1.123050515475825309e-02
1.180501977853113012e-02
1.233338217717915714e-02
1.281314460260437292e-02
1.324272355260973019e-02
1.362143306030681213e-02
1.394950185107112460e-02
1.422807382485403831e-02
1.445919150306083575e-02
1.464576256092853766e-02
1.479150984418567925e-02
1.490090551219982670e-02
1.497909040757715825e-02
1.503177981758324448e-02
1.506515731168689941e-02
1.508575837324379644e-02
1.510034592293052653e-02
1.511577993845016933e-02
1.513888357642596827e-02
1.517630825537299652e-02
1.523440024810028375e-02
1.531907128359133452e-02
1.543567580454295422e-02
1.558889719742802618e-02
1.578264534552813181e-02
1.601996763555067760e-02
1.630297542437669778e-02
1.663278745789780258e-02
1.700949178270834070e-02
1.743212704948481420e-02
1.789868399227300191e-02
1.840612734202960385e-02
1.895043817670957406e-02
1.952667615464060216e-02
2.012906091797330571e-02
2.075107134105719578e-02
2.138556109303446640e-02
2.202488864897499815e-02
2.266105938825262872e-02
2.328587739184060160e-02
2.389110422768722652e-02
2.446862167434079444e-02
2.501059546595823732e-02
2.550963692308842734e-02
2.595895930700513332e-02
2.635252577773632490e-02
2.668518599972125038e-02
2.695279856700334362e-02
2.715233662406774454e-02
2.728197428950918102e-02
2.734115189465656515e-02
2.733061831483176232e-02
2.725244925725323411e-02
2.711004054812063066e-02
2.690807606425506954e-02
2.665247051407586970e-02
2.635028757490863113e-02
2.600963447378654841e-02
2.563953454926427150e-02
2.524977988977024704e-02
2.485076634227398676e-02
2.445331378878841389e-02
2.406847484855954150e-02
2.370733544801965562e-02
2.338081094664418505e-02
2.309944168564459499e-02
2.287319187904393591e-02
2.271125597890164341e-02
2.262187631113208447e-02
2.261217590072136727e-02
2.268801012267275541e-02
2.285384055295405434e-02
2.311263408913227443e-02
2.346579000166808607e-02
2.391309706439382829e-02
2.445272247864891529e-02
2.508123386168179328e-02
2.579365474836773503e-02
2.658355357403276165e-02
2.744316553741136741e-02
2.836354602027576013e-02
2.933475377551253427e-02
3.034606117490112887e-02
3.138618865266322444e-02
3.244355971834549796e-02
3.350657248491167167e-02
3.456388321785772155e-02
3.560469707222309321e-02
3.661906093985581312e-02
3.759815322148375716e-02
3.853456497114187557e-02
3.942256723423488707e-02
4.025835913689017331e-02
4.104029160500506646e-02
4.176906191197053003e-02
4.244787452661443611e-02
4.308256421727667956e-02
4.368167776283032877e-02
4.425651156416982035e-02
4.482110261372482252e-02
4.539217123206103904e-02
4.598901493902836368e-02
4.663335312932891802e-02
4.734912345455077887e-02
4.816223128618767058e-02
4.910025463250068667e-02
5.019210752031739997e-02
5.146766564892119727e-02
5.295735881417558411e-02
5.469173515216130266e-02
5.670100289740921673e-02
5.901455563237227586e-02
6.166048768816742576e-02
6.466510633489673532e-02
6.805244783837428868e-02
7.184380427054497253e-02
7.605726822967345813e-02
8.070730227057075490e-02
8.580433950667630538e-02
9.135442196983396823e-02
9.735888216972013454e-02
1.038140733819248596e-01
1.107111532380666147e-01
1.180359244077434644e-01
1.257687355965262654e-01
1.338844453422571301e-01
1.423524498585571341e-01
1.511367755577868732e-01
1.601962360786449713e-01
1.694846523493657442e-01
1.789511337835240079e-01
1.885404175485431988e-01
1.981932621371910730e-01
2.078468907318868908e-01
2.174354792150242632e-01
2.268906829556910920e-01
2.361421961104506473e-01
2.451183365908632394e-01
2.537466497624142336e-01
2.619545234923480459e-01
2.696698073364670600e-01
2.768214283441800538e-01
2.833399963680429123e-01
2.891583918779284113e-01
2.942123294907643127e-01
2.984408911481083448e-01
3.017870230764110318e-01
3.041979915020053826e-01
3.056257925684291998e-01
3.060275127544329621e-01
3.053656368394326859e-01
3.036083012188160457e-01
3.007294911642593438e-01
2.967091814729160282e-01
2.915334207799006871e-01
2.851943605869060594e-01
2.776902307540067283e-01
2.690252639033553494e-01
2.592095718851166741e-01
2.482589779767085669e-01
2.361948090550317902e-01
2.230436521495746394e-01
2.088370804124507762e-01
1.936113535295435617e-01
1.774070978927085040e-01
1.602689717075390097e-01
1.422453203300065028e-01
1.233878266363823278e-01
1.037511614922367875e-01
8.339263860344031665e-02
6.237187786397171974e-02
4.075048075680547804e-02
1.859172093664424735e-02
-4.039747575852262358e-03
-2.707816256313017728e-02
-5.045690486564557292e-02
-7.410872794114867212e-02
-9.796596582233867145e-02
-1.219607197205252319e-01
-1.460250244045759593e-01
-1.700909958682118028e-01
-1.940909623993687938e-01
-2.179575813307464416e-01
-2.416239441820925704e-01
-2.650236732066288403e-01
-2.880910125612321515e-01
-3.107609172507595496e-01
-3.329691430269617891e-01
-3.546523405770353743e-01
-3.757481568797525484e-01
-3.961953465137237895e-01
-4.159338952309291071e-01
-4.349051580610679979e-01
-4.530520134045852298e-01
-4.703190342579747218e-01
-4.866526771357166936e-01
-5.020014886832750989e-01
-5.163163293856064540e-01
-5.295506132397221899e-01
-5.416605616454421845e-01
-5.526054691453866630e-01
-5.623479782217369882e-01
-5.708543598622141113e-01
-5.780947960716216194e-01
-5.840436601782630355e-01
-5.886797905824262545e-01
-5.919867532278014766e-01
-5.939530879633919680e-01
-5.945725341427361421e-01
-5.938442305099296270e-01
-5.917728846938904441e-01
-5.883689080104381741e-01
-5.836485114086346071e-01
-5.776337588154116798e-01
-5.703525747691562398e-01
-5.618387035945668906e-01
-5.521316180988384836e-01
-5.412763765005756955e-01
-5.293234268745650173e-01
-5.163283592013419021e-01
-5.023516059312949089e-01
-4.874580927124896879e-01
-4.717168416892582039e-01
-4.552005304626375870e-01
-4.379850106376661500e-01
-4.201487904978054022e-01
-4.017724869084818295e-01
-3.829382519509356708e-01
-3.637291806579009412e-01
-3.442287062567712663e-01
-3.245199895684097724e-01
-3.046853096672701433e-01
-2.848054627612532919e-01
-2.649591761515909805e-01
-2.452225442948203493e-01
-2.256684934864140735e-01
-2.063662814817368296e-01
-1.873810377553987161e-01
-1.687733498856504588e-01
-1.505989005636470535e-01
-1.329081594240734410e-01
-1.157461328892137181e-01
-9.915217446907703680e-02
-8.315985732666429653e-02
-6.779690976205469954e-02
-5.308521373844568569e-02
-3.904086546643344147e-02
-2.567429630820394770e-02
-1.299045148589270636e-02
-9.890233277681965973e-04
1.033526500360689576e-02
2.099232992734248807e-02
3.099635730016457244e-02
4.036539733221648080e-02
4.912093074084728644e-02
5.728741249738984742e-02
6.489179983735976487e-02
7.196307129746971898e-02
7.853174329739369408e-02
8.462939104463428064e-02
9.028818008204853029e-02
9.554041455590377152e-02
1.004181079196930920e-01
1.049525813853051243e-01
1.091740947225432468e-01
1.131115136205426697e-01
1.167920167996966269e-01
1.202408459766588500e-01
1.234811004286619773e-01
1.265335775090921655e-01
1.294166596181679507e-01
1.321462475189922325e-01
1.347357389730168276e-01
1.371960511477129385e-01
1.395356844195528578e-01
1.417608248934940640e-01
1.438754820968802528e-01
1.458816580970528076e-01
1.477795437455957928e-01
1.495677375500906736e-01
1.512434823445579501e-01
1.528029149315046908e-01
1.542413235317684761e-01
1.555534083328333761e-01
1.567335401910266712e-01
1.577760127376941490e-01
1.586752837705196206e-01
1.594262016150024830e-01
1.600242130182598088e-01
1.604655492539450168e-01
1.607473877382321059e-01
1.608679869707397014e-01
1.608267932354891516e-01
1.606245179117084254e-01
1.602631848247302315e-01
1.597461477305187616e-01
1.590780786284864412e-01
1.582649279544140197e-01
1.573138581040272321e-01
1.562331526058054476e-01
1.550321030979062709e-01
1.537208770574778616e-01
1.523103693722338559e-01
1.508120409892808877e-01
1.492377479757006353e-01
1.475995646956318741e-01
1.459096044837668582e-01
1.441798415483775131e-01
1.424219372031944597e-01
1.406470738721609104e-01
1.388657998385569581e-01
1.370878874172118400e-01
1.353222069869786104e-01
1.335766190040223733e-01
1.318578855881860912e-01
1.301716029365797000e-01
1.285221555502476798e-01
1.269126925932952676e-01
1.253451264139688326e-01
1.238201528017298658e-01
1.223372922173790178e-01
1.208949507810193058e-01
1.194904994222414640e-01
1.181203694673175070e-01
1.167801625207171984e-01
1.154647722412305288e-01
1.141685156442276278e-01
1.128852712903546524e-01
1.116086215368853052e-01
1.103319963058674719e-01
1.090488156836769279e-01
1.077526285851314047e-01
1.064372451835921551e-01
1.050968607712849251e-01
1.037261689502520789e-01
1.023204623298605287e-01
1.008757191337713022e-01
9.938867449002922183e-02
9.785687543987205139e-02
9.627871899822763868e-02
9.465347310822579130e-02
9.298128024005838932e-02
9.126314430224426177e-02
8.950090137035911220e-02
8.769717524483723603e-02
8.585531900097094493e-02
8.397934394195326335e-02
8.207383774177404168e-02
8.014387348696672131e-02
7.819491171305623101e-02
7.623269723878645099e-02
7.426315310960554528e-02
7.229227368812531085e-02
7.032601885242270590e-02
6.837021147008108535e-02
6.643043993999361851e-02
6.451196756995952741e-02
6.261965036477414037e-02
6.075786457369912463e-02
5.893044520694422361e-02
5.714063647821092384e-02
5.539105483523413392e-02
5.368366488784818980e-02
5.201976850223210408e-02
5.040000700386615407e-02
4.882437607776578953e-02
4.729225266929854704e-02
4.580243326649134639e-02
4.435318250482495062e-02
4.294229087960194091e-02
4.156714023646368439e-02
4.022477552414867319e-02
3.891198132093545703e-02
3.762536156464281467e-02
3.636142077694223818e-02
3.511664513325722659e-02
3.388758178787030367e-02
3.267091499739649407e-02
3.146353750073511979e-02
3.026261592754113730e-02
2.906564898474005634e-02
2.787051741707921235e-02
2.667552502857986618e-02
2.547942996802968207e-02
2.428146591835097026e-02
2.308135306646724033e-02
2.187929855027461595e-02
2.067598688987994440e-02
1.947256052235004850e-02
1.827059116654594986e-02
1.707204272341118767e-02
1.587922654209653062e-02
1.469475012285980688e-02
1.352146042167870661e-02
1.236238280431267191e-02
1.122065720607934997e-02
1.009947255831325497e-02
9.002001024203887952e-03
7.931333200880305925e-03
6.890415676857318018e-03
5.881992016670449692e-03
4.908548390681676671e-03
3.972264904996812389e-03
3.074973412810262478e-03
2.218122653323409150e-03
1.402751218441314991e-03
6.294688061403107531e-04
-1.015538973540707515e-04
-7.905867222280587399e-04
-1.438332882253139317e-03
-2.045913523902693262e-03
-2.614844282424840741e-03
-3.147004447940726299e-03
-3.644599336256224356e-03
-4.110116772968146551e-03
-4.546278548961816927e-03
-4.955987761035625383e-03
-5.342273199691514873e-03
-5.708231806363517000e-03
-6.056970298323843122e-03
-6.391547145225494851e-03
-6.714915934114205377e-03
-7.029871187014868038e-03
-7.338997587747917058e-03
-7.644623589466130985e-03
-7.948780176691514626e-03
-8.253165511350787908e-03
-8.559116014631764843e-03
-8.867584360528618648e-03
-9.179124698652355030e-03
-9.493885313149786134e-03
-9.811608682189368671e-03
-1.013163889823947249e-02
-1.045293620267078935e-02
-1.077409825230572250e-02
-1.109338765195041696e-02
-1.140876512385854274e-02
-1.171792767816704113e-02
-1.201835089650841494e-02
-1.230733469735406822e-02
-1.258205146167728702e-02
-1.283959573368107995e-02
-1.307703458641976818e-02
-1.329145759890160497e-02
-1.348002570506442663e-02
-1.364001785295392184e-02
-1.376887487105366015e-02
-1.386423962510054120e-02
-1.392399289183559284e-02
-1.394628436838346412e-02
-1.392955829548762209e-02
-1.387257337065546381e-02
-1.377441674519617153e-02
-1.363451190569469999e-02
-1.345262038492855104e-02
-1.322883753197618903e-02
-1.296358242459291245e-02
-1.265758230566705819e-02
-1.231185195905534595e-02
-1.192766842016789765e-02
-1.150654170966817873e-02
-1.105018221831902993e-02
-1.056046534285512949e-02
-1.003939427790326647e-02
-9.489061533181577038e-03
-8.911609963261174841e-03
-8.309194127771634200e-03
-7.683942738130382366e-03
-7.037922752741412880e-03
-6.373105880358583344e-03
-5.691338079545470684e-03
-4.994312624172433240e-03
-4.283547017839882745e-03
-3.560364217860435745e-03
-2.825878503658121703e-03
-2.080986115651995306e-03
-1.326360710321733893e-03
-5.624536613018070192e-04
2.105008703969871988e-04
9.924763072018656738e-04
1.783639822478180672e-03
2.584334488371077716e-03
3.395058042402848003e-03
4.216438624423374422e-03
5.049207968729006735e-03
5.894172820475228163e-03
6.752184947967886965e-03
7.624110520386457798e-03
8.510799519331740254e-03
9.413055629372679006e-03
1.033160725654421082e-02
1.126708028225156810e-02
1.221997312940216809e-02
1.319063447383066710e-02
1.417924402923421458e-02
1.518579686049545754e-02
1.621009137850536533e-02
1.725172128895366072e-02
1.831007153117612113e-02
1.938431831122173349e-02
2.047343320489902058e-02
2.157619105225954542e-02
2.269118166220535082e-02
2.381682491400067755e-02
2.495138891355755048e-02
2.609301095033889073e-02
2.723972071399364744e-02
2.838946523596358462e-02
2.954013520940473175e-02
3.068959203008396128e-02
3.183569501206399976e-02
3.297632837358466240e-02
3.410942732883846806e-02
3.523300281514214066e-02
3.634516442171091544e-02
3.744414107570760014e-02
3.852829899548759762e-02
3.959615666465211847e-02
4.064639652790279917e-02
4.167787327954908250e-02
4.268961848929365976e-02
4.368084146218565583e-02
4.465092644461701038e-02
4.559942623506645087e-02
4.652605227987320624e-02
4.743066151297483518e-02
4.831324012494994657e-02
4.917388481496997449e-02
5.001278163411324723e-02
5.083018297082139703e-02
5.162638319464945419e-02
5.240169329827500805e-02
5.315641523064967150e-02
5.389081626507941092e-02
5.460510408477008831e-02
5.529940289849376300e-02
5.597373124372828634e-02
5.662798187825573981e-02
5.726190417871487165e-02
5.787508940111499994e-02
5.846695917589631031e-02
5.903675749905080289e-02
5.958354640554551496e-02
6.010620550111750449e-02
6.060343540818358132e-02
6.107376519073071802e-02
6.151556359332843726e-02
6.192705404876518854e-02
6.230633318755755129e-02
6.265139268848633758e-02
6.296014406560056231e-02
6.323044599752741801e-02
6.346013382324126872e-02
6.364705081021468369e-02
6.378908050481225944e-02
6.388417984396500826e-02
6.393041236596995469e-02
6.392598102562097040e-02
6.386926001324755298e-02
6.375882514355478425e-02
6.359348213280639761e-02
6.337229253879933522e-02
6.309459658822187678e-02
6.276003277760887344e-02
6.236855370456903525e-02
6.192043787072490368e-02
6.141629723791683371e-02
6.085708034339939315e-02
6.024407094421000558e-02
5.957888191319212629e-02
5.886344471164628445e-02
5.809999438351581141e-02
5.729105015041965898e-02
5.643939207376225814e-02
5.554803391799240098e-02
5.462019258330446519e-02
5.365925452253842570e-02
5.266873971835336898e-02
5.165226341650390463e-02
5.061349652500270885e-02
4.955612495823476932e-02
4.848380853865962015e-02
4.740014003402717030e-02
4.630860503338274370e-02
4.521254308327898874e-02
4.411511061029523700e-02
4.301924629268567141e-02
4.192763916525879542e-02
4.084270011826806462e-02
3.976653707787883990e-02
3.870093418110887029e-02
3.764733529159693809e-02
3.660683210248556058e-02
3.558015694483745994e-02
3.456768036916227360e-02
3.356941365508184921e-02
3.258501599789643405e-02
3.161380647480172695e-02
3.065478047907203504e-02
2.970663048441062395e-02
2.876777074111216276e-02
2.783636568277629911e-02
2.691036142581381893e-02
2.598752020169765170e-02
2.506545704937695324e-02
2.414167823545809374e-02
2.321362103476905941e-02
2.227869421161058489e-02
2.133431859192787272e-02
2.037796728899888762e-02
1.940720495008694396e-02
1.841972560012390334e-02
1.741338845501572488e-02
1.638625126941483864e-02
1.533660080632753830e-02
1.426297997207728006e-02
1.316421135263871195e-02
1.203941682825840354e-02
1.088803298650988308e-02
9.709822182367131710e-03
8.504879118710144056e-03
7.273632914130295259e-03
6.016844637391068236e-03
4.735600414024137422e-03
3.431300188592953729e-03
2.105642430063941941e-03
7.606049516975943317e-04
-6.015778966893099928e-04
-1.978441173753846868e-03
-3.367318221875916298e-03
-4.765371860134114124e-03
-6.169627558818102479e-03
-7.577008079136143479e-03
-8.984369085075770076e-03
-1.038853516617031444e-02
-1.178633589947914069e-02
-1.317464128661613269e-02
-1.455039614694635802e-02
-1.591065301832158066e-02
-1.725260305132554975e-02
-1.857360453395656696e-02
-1.987120865875076012e-02
-2.114318212556924592e-02
-2.238752641943259070e-02
-2.360249337664983155e-02
-2.478659703292560024e-02
-2.593862142220640377e-02
-2.705762434882134568e-02
-2.814293719761047988e-02
-2.919416074987739654e-02
-3.021115709846405872e-02
-3.119403783322116305e-02
-3.214314873638664249e-02
-3.305905124662168043e-02
-3.394250106896597868e-02
-3.479442408743366882e-02
-3.561589018801193662e-02
-3.640808534016197473e-02
-3.717228232847007846e-02
-3.790981062905353360e-02
-3.862202598203531151e-02
-3.931028003604609272e-02
-3.997589057651777106e-02
-4.062011288424845906e-02
-4.124411250782777233e-02
-4.184894003566376475e-02
-4.243550824491600093e-02
-4.300457182719132077e-02
-4.355671027248450566e-02
-4.409231403996014681e-02
-4.461157421725114869e-02
-4.511447588638919232e-02
-4.560079538638615870e-02
-4.607010141051358365e-02
-4.652176003511600266e-02
-4.695494351100860941e-02
-4.736864285573220978e-02
-4.776168393151022235e-02
-4.813274690725079241e-02
-4.848038870903811220e-02
-4.880306819988772943e-02
-4.909917366000095262e-02
-4.936705232654489683e-02
-4.960504122185712544e-02
-4.981149914979191712e-02
-4.998483917355432682e-02
-5.012356110911569962e-02
-5.022628356594319859e-02
-5.029177501241719611e-02
-5.031898331199045893e-02
-5.030706340780971564e-02
-5.025540247686382384e-02
-5.016364235604375138e-02
-5.003169871338512820e-02
-4.985977663473279559e-02
-4.964838244066778483e-02
-4.939833134988045465e-02
-4.911075091633639728e-02
-4.878707995821400523e-02
-4.842906321961153865e-02
-4.803874150034503215e-02
-4.761843735363332358e-02
-4.717073658228334437e-02
-4.669846569337329084e-02
-4.620466557820623182e-02
-4.569256171075226219e-02
-4.516553119895737323e-02
-4.462706715690246267e-02
-4.408074088790225886e-02
-4.353016228087512596e-02
-4.297893905098378736e-02
-4.243063530791887222e-02
-4.188872999482618625e-02
-4.135657579638060688e-02
-4.083735911209070840e-02
-4.033406169826173754e-02
-3.984942436028687807e-02
-3.938591336480550681e-02
-3.894569000850849755e-02
-3.853058368425026081e-02
-3.814206907646158773e-02
-3.778124756167434983e-02
-3.744883331035638724e-02
-3.714514423472790178e-02
-3.687009789594375420e-02
-3.662321249842965393e-02
-3.640361303268654924e-02
-3.621004246774494478e-02
-3.604087782741648149e-02
-3.589415115576922999e-02
-3.576757483512611746e-02
-3.565857111785045164e-02
-3.556430543273493561e-02
-3.548172302025114078e-02
-3.540758848096477868e-02
-3.533852761260341396e-02
-3.527107110671868356e-02
-3.520169942663000512e-02
-3.512688824644789876e-02
-3.504315389941743686e-02
-3.494709819064955453e-02
-3.483545205609635265e-02
-3.470511739084062436e-02
-3.455320647736187523e-02
-3.437707856077017871e-02
-3.417437298488940067e-02
-3.394303860056104016e-02
-3.368135894427747024e-02
-3.338797287063945823e-02
-3.306189040535067319e-02
-3.270250358152212988e-02
-3.230959224443388789e-02
-3.188332468532605046e-02
-3.142425310411969819e-02
-3.093330405793949522e-02
-3.041176402553091504e-02
-2.986126034944016835e-02
-2.928373777577649925e-02
-2.868143104343609182e-02
-2.805683386261664455e-02
-2.741266474419754018e-02
-2.675183030377674409e-02
-2.607738627972353007e-02
-2.539249709084535900e-02
-2.470039445883552912e-02
-2.400433558591890532e-02
-2.330756156158165365e-02
-2.261325651010632348e-02
-2.192450803760384939e-02
-2.124426961941254868e-02
-2.057532526242828591e-02
-1.992025705368951141e-02
-1.928141592473430269e-02
-1.866089600004949486e-02
-1.806051284211833419e-02
-1.748178596184484304e-02
-1.692592557580980053e-02
-1.639382392289867596e-02
-1.588605098696771120e-02
-1.540285478489940817e-02
-1.494416609171052290e-02
-1.450960750916336847e-02
-1.409850649269781334e-02
-1.370991228298890259e-02
-1.334261636325868861e-02
-1.299517605654392643e-02
-1.266594087971743832e-02
-1.235308123763651303e-02
-1.205461901959712506e-02
-1.176845954168166328e-02
-1.149242444471974649e-02
-1.122428499583752112e-02
-1.096179537095164601e-02
-1.070272534138567641e-02
-1.044489193353743094e-02
-1.018618964684125938e-02
-9.924618875573332222e-03
-9.658312051906080622e-03
-9.385557324740190568e-03
-9.104819386658552505e-03
-8.814757223642154596e-03
-8.514238712141119006e-03
-8.202351818667701425e-03
-7.878412376104721587e-03
-7.541968392469663995e-03
-7.192801038426208798e-03
-6.830922265380845460e-03
-6.456569261162542657e-03
-6.070195955945362383e-03
-5.672461659344967683e-03
-5.264217208112982431e-03
-4.846488916288135135e-03
-4.420460636935141970e-03
-3.987454221814208145e-03
-3.548908783206588483e-03
-3.106359063088799752e-03
-2.661413266832587336e-03
-2.215730864498919889e-03
-1.771000449159890276e-03
-1.328918192119827972e-03
-8.911671023240692489e-04
-4.593974608326830008e-04
-3.520847293301096915e-05
3.798684189212700717e-04
7.843844731100812259e-04
1.176986694845648341e-03
1.556428936061518770e-03
1.921580905815659882e-03
2.271435030591802563e-03
2.605111288263091580e-03
2.921860026130425163e-03
3.221062760136917183e-03
3.502231251289401361e-03
3.765004877886139831e-03
4.009146431982465314e-03
4.234536664111173722e-03
4.441167644295510378e-03
4.629135323437575701e-03
4.798631308020549421e-03
4.949934261173677755e-03
5.083400950343349226e-03
5.199457443234817983e-03
5.298590354087340769e-03
5.381338433753856884e-03
5.448284738619341323e-03
5.500049442880954043e-03
5.537283409779440030e-03
5.560662662461062639e-03
5.570883753208459577e-03
5.568660087656257703e-03
5.554719226054972113e-03
5.529801104426242814e-03
5.494657146138665418e-03
5.450050131248585471e-03
5.396754805352425508e-03
5.335559016239155121e-03
5.267265293871896577e-03
5.192692712111201224e-03
5.112678785913822577e-03
5.028081377028380088e-03
4.939780302002061765e-03
4.848678546920092911e-03
4.755702893202032842e-03
4.661803825591271516e-03
4.567954559110670026e-03
4.475149060642652672e-03
4.384398980578480681e-03
4.296729494866535770e-03
4.213173878089439446e-03
4.134766876673109763e-03
4.062536885119476249e-03
3.997496974009665145e-03
3.940634823655596135e-03
3.892901677505353729e-03
3.855200469565547503e-03
3.828373262924723592e-03
3.813188182357791535e-03
3.810326151561257198e-03
3.820367458649922155e-03
3.843778565414473873e-03
3.880899354607817656e-03
3.931931084357088643e-03
3.996925194070408312e-03
4.075773440921227897e-03
4.168199441908572271e-03
4.273751814332668250e-03
4.391799348128065487e-03
4.521528123667486326e-03
4.661940909073490798e-03
4.811858999624767097e-03
4.969926422277271688e-03
5.134616734576882661e-03
5.304242396966215786e-03
5.476966642052999087e-03
5.650817766515055240e-03
5.823705991929351358e-03
5.993442431348287684e-03
6.157760155949015823e-03
6.314337050255175617e-03
6.460820379679330441e-03
6.594852591763200947e-03
6.714098137395672905e-03
6.816270980476365170e-03
6.899162411114819621e-03
6.960668819711865810e-03
6.998819022578133681e-03
7.011800763081307668e-03
6.997986091788890167e-03
6.955955108199103100e-03
6.884517920468900473e-03
6.782734258705815783e-03
6.649930566082535958e-03
6.485714233083680023e-03
6.289984801279973996e-03
6.062941806250769783e-03
5.805089213265122831e-03
5.517236300459970287e-03
5.200494867987885510e-03
4.856272757766232594e-03
4.486263735326353509e-03
4.092433825208977895e-03
3.677004171044440974e-03
3.242430631748024258e-03
2.791380337192502642e-03
2.326705423730012108e-03
1.851414325959165703e-03
1.368640934495151144e-03
8.816119706559315261e-04
3.936128962806237732e-04
-9.204697190367593996e-05
-5.720699436141820455e-04
-1.043205536524714804e-03
-1.502285623369556400e-03
-1.946258735612350953e-03
-2.372223120562886190e-03
-2.777458087885014380e-03
-3.159453275782368731e-03
-3.515935393189833103e-03
-3.844892192059082107e-03
-4.144593264295158910e-03
-4.413607437415351283e-03
-4.650816555163993227e-03
-4.855425358327728619e-03
-5.026967490895998571e-03
-5.165307477786738183e-03
-5.270638702164025073e-03
-5.343477295438719618e-03
-5.384652090202486294e-03
-5.395290812312520702e-03
-5.376802615055448382e-03
-5.330857316398440911e-03
-5.259361458575327608e-03
-5.164431611304774739e-03
-5.048365269460634332e-03
-4.913609619166104878e-03
-4.762728782774085928e-03
-4.598369811540839458e-03
-4.423227953295996023e-03
-4.240011711570505770e-03
-4.051407906477353174e-03
-3.860047501186108371e-03
-3.668472500919826330e-03
-3.479104416904525016e-03
-3.294214632405631938e-03
-3.115897098930816081e-03
-2.946043747961266460e-03
-2.786322924625316347e-03
-2.638161066788335691e-03
-2.502727911966553653e-03
-2.380925413867036444e-03
-2.273380543838398986e-03
-2.180441982169269936e-03
-2.102180793908116699e-03
-2.038394977526468421e-03
-1.988617920312781961e-03
-1.952130566176312268e-03
-1.927977166985431765e-03
-1.914984234206749264e-03
-1.911782624076602786e-03
-1.916832310060342459e-03
-1.928449516305450915e-03
-1.944835857962856586e-03
-1.964108962893325837e-03
-1.984334328338336912e-03
-2.003557760494893616e-03
-2.019838015126983362e-03
-2.031279243263483126e-03
-2.036062611817267363e-03
-2.032476856848973792e-03
-2.018947067245668772e-03
-1.994061519761180373e-03
-1.956596072389202388e-03
-1.905535726203185561e-03
-1.840093126504315163e-03
-1.759723670784317778e-03
-1.664136944124771722e-03
-1.553304420968206400e-03
-1.427463197372041579e-03
-1.287115775324704746e-03
-1.133025820571495479e-03
-9.662099892048913851e-04
-7.879258302330295442e-04
-5.996560247150200217e-04
-4.030891361146436746e-04
-2.000971130559539134e-04
7.290098787229004494e-06
2.169124783872774230e-04
4.265101655133923873e-04
6.337553232086222529e-04
8.362853572917485758e-04
1.031736867181439615e-03
1.217780007370195287e-03
1.392152624396954729e-03
1.552693752863076740e-03
1.697375889527494514e-03
1.824335685647600607e-03
1.931902527228824499e-03
2.018624524853415182e-03
2.083291613755723897e-03
2.124955332562968469e-03
2.142944994046319142e-03
2.136880057365654183e-03
2.106678386115376934e-03
2.052560291207151423e-03
1.975048254683205162e-03
1.874962367808557899e-03
1.753411465956552281e-03
1.611780090394182097e-03
1.451711447038548600e-03
1.275086568638996061e-03
1.083999971446391415e-03
8.807321623038564000e-04
6.677193436834507256e-04
4.475207832953452232e-04
2.227843332714530644e-04
-3.789505205679913373e-06
-2.294843183390946821e-04
-4.516048811021483632e-04
-6.675140359334665085e-04
-8.746688476819274678e-04
-1.070655414684942852e-03
-1.253221981929977975e-03
-1.420309706228094042e-03
-1.570080659617548689e-03
-1.700942786919287754e-03
-1.811571223961364746e-03
-1.900925941591334557e-03
-1.968265178884390666e-03
-2.013154671023794761e-03
-2.035472466612671220e-03
-2.035409247670848850e-03
-2.013464261159371004e-03
-1.970436869383055886e-03
-1.907413826808814720e-03
-1.825752557261373261e-03
-1.727060767507188760e-03
-1.613172572350867178e-03
-1.486121635306047323e-03
-1.348111728542275697e-03
-1.201485153457882002e-03
-1.048689578349766300e-03
-8.922437700863607027e-04
-7.347027503383000112e-04
-5.786230634638641615e-04
-4.265283979968442145e-04
-2.808764105693089641e-04
-1.440271257458758110e-04
-1.821342330053872841e-05
9.448601423616940240e-05
1.921707833474099942e-04
2.731395707207497818e-04
3.359074493387683769e-04
3.792194343209878411e-04
4.020600031650074097e-04
4.036585636637201268e-04
3.834909067608936956e-04
3.412765907611121788e-04
2.769724185418310797e-04
1.907621767732149904e-04
8.304287582975630321e-05
-4.559217271064261489e-05
-1.943731549727594420e-04
-3.623759343579197696e-04
-5.485462830683672649e-04
-7.517256612256774731e-04
-9.706779155262949431e-04
-1.204116633995971691e-03
-1.450732385058724205e-03
-1.709219520970439200e-03
-1.978302039355530478e-03
-2.256757891103649497e-03
-2.543441418799283898e-03
-2.837303524793936393e-03
-3.137409213620590692e-03
-3.442952129697361783e-03
-3.753265944982164121e-03
-4.067832361920049877e-03
-4.386285679947788362e-03
-4.708413858201660612e-03
-5.034156027420771083e-03
-5.363596618597856087e-03
-5.696956314693205070e-03
-6.034579868274859982e-03
-6.376921261221764510e-03
-6.724526404901298021e-03
-7.078013709094560166e-03
-7.438053138978953371e-03
-7.805344021438573657e-03
-8.180592057819813592e-03
-8.564486061806248982e-03
-8.957674919961968255e-03
-9.360745118589586244e-03
-9.774199477138966266e-03
-1.019843732494805401e-02
-1.063373658766232806e-02
-1.108023809736331626e-02
-1.153793251582303607e-02
-1.200664999004861545e-02
-1.248605276515137551e-02
-1.297563084564311471e-02
-1.347470090709747617e-02
-1.398240828093646505e-02
-1.449773197743927343e-02
-1.501949264212817069e-02
-1.554636326467583388e-02
-1.607688232391139491e-02
-1.660946915721408373e-02
-1.714244109772444791e-02
-1.767403217599839912e-02
-1.820241271271647726e-02
-1.872570965164944631e-02
-1.924202704938056049e-02
-1.974946629181110677e-02
-2.024614574117027804e-02
-2.073021924911048683e-02
-2.119989333523223177e-02
-2.165344253510108688e-02
-2.208922269663691346e-02
-2.250568210657852980e-02
-2.290137012675874661e-02
-2.327494328348789568e-02
-2.362516873404296724e-02
-2.395092516023148918e-02
-2.425120112438997749e-02
-2.452509115767535081e-02
-2.477178966702643301e-02
-2.499058298076387366e-02
-2.518083983583572008e-02
-2.534200065959277617e-02
-2.547356611530299242e-02
-2.557508529055232960e-02
-2.564614391912771810e-02
-2.568635315738423269e-02
-2.569533931866476925e-02
-2.567273506774224792e-02
-2.561817232789029980e-02
-2.553127737204907710e-02
-2.541166841006961552e-02
-2.525895588586047485e-02
-2.507274569513075549e-02
-2.485264538358250563e-02
-2.459827343274709199e-02
-2.430927162814231282e-02
-2.398532021965144728e-02
-2.362615587633594416e-02
-2.323159200199156546e-02
-2.280154104721735658e-02
-2.233603841150796909e-02
-2.183526746740764926e-02
-2.129958513540531131e-02
-2.072954718443143635e-02
-2.012593299448054568e-02
-1.948976881716224865e-02
-1.882234891461995185e-02
-1.812525402205951083e-02
-1.740036641345028140e-02
-1.664988091586188518e-02
-1.587631135301162746e-02
-1.508249208834669397e-02
-1.427157386530096203e-02
-1.344701403861359168e-02
-1.261256072787350462e-02
-1.177223090634353653e-02
-1.093028226356631757e-02
-1.009117923640674708e-02
-9.259553246984280478e-03
-8.440157530184675891e-03
-7.637817156395343594e-03
-6.857374816548496635e-03
-6.103633047889543695e-03
-5.381293804572020653e-03
-4.694896183111454437e-03
-4.048753303974856992e-03
-3.446889535816514277e-03
-2.892978877338517850e-03
-2.390285779953767609e-03
-1.941609481027695063e-03
-1.549232757991703905e-03
-1.214876382285305775e-03
-9.396599893961674489e-04
-7.240704380244607219e-04
-5.679383378685641092e-04
-4.704234091868971803e-04
-4.300092157509825862e-04
-4.445076472360598506e-04
-5.110733248656259544e-04
-6.262280556676929439e-04
-7.858951177092671344e-04
-9.854431500097894387e-04
-1.219739138358494216e-03
-1.483209795506958140e-03
-1.769910606632408342e-03
-2.073601565895975916e-03
-2.387828428270194307e-03
-2.706008356487621738e-03
-3.021518546745193771e-03
-3.327786506949540184e-03
-3.618380465534418340e-03
-3.887098542897655939e-03
-4.128055011813011772e-03
-4.335762361544640529e-03
-4.505207580536331469e-03
-4.631921498450666808e-03
-4.712039804499323394e-03
-4.742354692635513888e-03
-4.720356198732904469e-03
-4.644262421909412485e-03
-4.513038038769323287e-03
-4.326400698153539531e-03
-4.084815126197213590e-03
-3.789474948987680680e-03
-3.442272571172672654e-03
-3.045757448737465654e-03
-2.603083597657308585e-03
-2.117947137692157387e-03
-1.594514980842064470e-03
-1.037345873514398682e-03
-4.513052500117416591e-04
1.585244840133057283e-04
7.869367439040466684e-04
1.428694901377060549e-03
2.078625963441017247e-03
2.731712061186630704e-03
3.383177992897677504e-03
4.028573323669216999e-03
4.663847174332413567e-03
5.285414577859036227e-03
5.890212875429421367e-03
6.475747037542557184e-03
7.040123209939113530e-03
7.582069610177647433e-03
8.100944359119038873e-03
8.596730039167273935e-03
9.070015158749873338e-03
9.521962681602883644e-03
9.954266394969019105e-03
1.036909569384817167e-02
1.076903010733547793e-02
1.115698472102414317e-02
1.153612797782868279e-02
1.190979354116573907e-02
1.228138805083726220e-02
1.265429664185798060e-02
1.303178818782624836e-02
1.341692232924856197e-02
1.381246015812447221e-02
1.422078065676895750e-02
1.464380473940319130e-02
1.508292851107259983e-02
1.553896752882106061e-02
1.601211327745177132e-02
1.650190310816319547e-02
1.700720446160123786e-02
1.752621411892663419e-02
1.805647272808104387e-02
1.859489468289218794e-02
1.913781299367918118e-02
1.968103870109409737e-02
2.021993377121282173e-02
2.074949638539879196e-02
2.126445708121818892e-02
2.175938406085782539e-02
2.222879572301760323e-02
2.266727829510005454e-02
2.306960617317407869e-02
2.343086272613335852e-02
2.374655896563142299e-02
2.401274771576942038e-02
2.422613075577048983e-02
2.438415665081536746e-02
2.448510697611980605e-02
2.452816893733954576e-02
2.451349245217758141e-02
2.444223025032675467e-02
2.431655964670105530e-02
2.413968511885367096e-02
2.391582098094870851e-02
2.365015409337975494e-02
2.334878669210313507e-02
2.301865995171342369e-02
2.266745927846190722e-02
2.230350267982890780e-02
2.193561393549986818e-02
2.157298261329849282e-02
2.122501338946499241e-02
2.090116727714601275e-02
2.061079765358681676e-02
2.036298416789562860e-02
2.016636773241103908e-02
2.002898990319373906e-02
1.995813983894807048e-02
1.996021218376166362e-02
2.004057886333553487e-02
2.020347779595943472e-02
2.045192117533849163e-02
2.078762580524367784e-02
2.121096754941225598e-02
2.172096148132724586e-02
2.231526902602963547e-02
2.299023289621779029e-02
2.374094001731187620e-02
2.456131231639236551e-02
2.544422451051007311e-02
2.638164773303087671e-02
2.736481709650600072e-02
2.838442101626634587e-02
2.943080944664635407e-02
3.049421792710702711e-02
3.156500385949477516e-02
3.263389113916120854e-02
3.369221901633324967e-02
3.473219073973203563e-02
3.574711756689103598e-02
3.673165348861577584e-02
3.768201623215870072e-02
3.859619017446169753e-02
3.947410662473611886e-02
4.031779779093167676e-02
4.113152053457961449e-02
4.192184664606148775e-02
4.269771684330850997e-02
4.347045623070596582e-02
4.425374939275136810e-02
4.506357400915822486e-02
4.591809243787463302e-02
4.683750148655682621e-02
4.784384114881865685e-02
4.896076382663722831e-02
5.021326624286483881e-02
5.162738664662640947e-02
5.322987094046328915e-02
5.504781149668740853e-02
5.710826321108755654e-02
5.943784167151428682e-02
6.206230865428160465e-02
6.500615056709589668e-02
6.829215563839098613e-02
7.194099565447931166e-02
7.597081822168152976e-02
8.039685550237481160e-02
8.523105507727608832e-02
9.048173842824168422e-02
9.615329229960913049e-02
1.022458975702321138e-01
1.087553000588901142e-01
1.156726270560701347e-01
1.229842525465218300e-01
1.306717137915532068e-01
1.387116809820918006e-01
1.470759810430848913e-01
1.557316760653338350e-01
1.646411957261248726e-01
1.737625227590916532e-01
1.830494295429704599e-01
1.924517632261829037e-01
2.019157762200859407e-01
2.113844984000158023e-01
2.207981464690852713e-01
2.300945658085756518e-01
2.392096995823216887e-01
2.480780796125405530e-01
2.566333333337952882e-01
2.648087009275704728e-01
2.725375566622361689e-01
2.797539286809256343e-01
2.863930114277641881e-01
2.923916651196222238e-01
2.976888971418329422e-01
3.022263203857838421e-01
3.059485841390306993e-01
3.088037735411607865e-01
3.107437742484525645e-01
3.117245993819728334e-01
3.117066765851000953e-01
3.106550935857912421e-01
3.085398012412916002e-01
3.053357736707472125e-01
3.010231258923722342e-01
2.955871895703294228e-01
2.890185484715389053e-01
2.813130353658548910e-01
2.724716926887893464e-01
2.625006998072634823e-01
2.514112697837989074e-01
2.392195190493122403e-01
2.259463132946331609e-01
2.116170933391450237e-01
1.962616844124583648e-01
1.799140924887220883e-01
1.626122911042068020e-01
1.443980018526085096e-01
1.253164716106922871e-01
1.054162491728832529e-01
8.474896383083610485e-02
6.336910764103785565e-02
4.133382306090725017e-02
1.870269718028634912e-02
-4.462436927640336254e-03
-2.809769121672870892e-02
-5.213730651078729572e-02
-7.651382950255926352e-02
-1.011582840198982786e-01
-1.260003377180511364e-01
-1.509684659962927666e-01
-1.759901147535988253e-01
-2.009918640986610994e-01
-2.258995950690841359e-01
-2.506386616667221068e-01
-2.751340702796183368e-01
-2.993106684991846400e-01
-3.230933453808560452e-01
-3.464072447519112030e-01
-3.691779929590047749e-01
-3.913319422462228636e-01
-4.127964303500292753e-01
-4.335000566265893029e-01
-4.533729744599327427e-01
-4.723471992532229935e-01
-4.903569309245463526e-01
-5.073388890085900327e-01
-5.232326583386618379e-01
-5.379810424501093591e-01
-5.515304218207087716e-01
-5.638311131170077317e-01
-5.748377257221463088e-01
-5.845095112050104902e-01
-5.928107013888408439e-01
-5.997108301578693013e-01
-6.051850345206825077e-01
-6.092143299530373701e-01
-6.117858554264621329e-01
-6.128930835398543886e-01
-6.125359915035947234e-01
-6.107211889076765710e-01
-6.074619987723803849e-01
-6.027784886914868689e-01
-5.966974495157518765e-01
-5.892523196580299327e-01
-5.804830536878685665e-01
-5.704359345429671491e-01
-5.591633295359469402e-01
-5.467233909567410510e-01
-5.331797029738989391e-01
-5.186008770808876456e-01
-5.030600992814582284e-01
-4.866346327591592469e-01
-4.694052805066885603e-01
-4.514558130220995280e-01
-4.328723666571083761e-01
-4.137428187190743678e-01
-3.941561458587987121e-01
-3.742017724852453875e-01
-3.539689162589541027e-01
-3.335459377611273979e-01
-3.130197015065893096e-01
-2.924749553575251571e-01
-2.719937350944773846e-01
-2.516548008553805005e-01
-2.315331116404134026e-01
-2.116993433488259524e-01
-1.922194557981851404e-01
-1.731543131217825326e-01
-1.545593613726627957e-01
-1.364843662996399754e-01
-1.189732138043077120e-01
-1.020637744245091044e-01
-8.578783236234806264e-02
-7.017107900384920993e-02
-5.523316970042305846e-02
-4.098784191935946064e-02
-2.744309228566780071e-02
-1.460140880274914642e-02
-2.460054312933742434e-03
8.988603550882557844e-03
1.975672126008341453e-02
2.986057292589374204e-02
3.932011433545607587e-02
4.815852425006960508e-02
5.640172925353936773e-02
6.407791899808458480e-02
7.121705839673378446e-02
7.785040332558189335e-02
8.401002618599004435e-02
8.972835732597943259e-02
9.503774796498053179e-02
9.997005977748467387e-02
1.045562859081164836e-01
1.088262073640346855e-01
1.128080882209573504e-01
1.165284124327286008e-01
1.200116642250978610e-01
1.232801535284585304e-01
1.263538868802813742e-01
1.292504838760285546e-01
1.319851381622764441e-01
1.345706216597855054e-01
1.370173298596825129e-01
1.393333654731153948e-01
1.415246572832143390e-01
1.435951106632000762e-01
1.455467855613735151e-01
1.473800976662643925e-01
1.490940382507986439e-01
1.506864079500033482e-01
1.521540597651431792e-01
1.534931465135251361e-01
1.546993679489525597e-01
1.557682132532378083e-01
1.566951945234349164e-01
1.574760674905378299e-01
1.581070356291490453e-01
1.585849347098416962e-01
1.589073950031689442e-01
1.590729790082381356e-01
1.590812928726073328e-01
1.589330704181257936e-01
1.586302291563735922e-01
1.581758980882413679e-01
1.575744177905420984e-01
1.568313137049491546e-01
1.559532438637255825e-01
1.549479230011376052e-01
1.538240250944571119e-01
1.525910669336153491e-01
1.512592754402238004e-01
1.498394418076701706e-01
1.483427656219333257e-01
1.467806921411449195e-01
1.451647461195931244e-01
1.435063654332003613e-01
1.418167376961048387e-01
1.401066429658577861e-01
1.383863053741225535e-01
1.366652562875847188e-01
1.349522113924837285e-01
1.332549636636061463e-01
1.315802940349854455e-01
1.299339009552405999e-01
1.283203498674375387e-01
1.267430431969684412e-01
1.252042107226673529e-01
1.237049204630887994e-01
1.222451093022763752e-01
1.208236324626692920e-01
1.194383305365294828e-01
1.180861125057209721e-01
1.167630529132177575e-01
1.154645012172496737e-01
1.141852010756986141e-01
1.129194171361848631e-01
1.116610669803284883e-01
1.104038558464561226e-01
1.091414115382382255e-01
1.078674171651850672e-01
1.065757393507559408e-01
1.052605498070546403e-01
1.039164382366482703e-01
1.025385148429385218e-01
1.011225006777639879e-01
9.966480478297241874e-02
9.816258687482265488e-02
9.661380490761307949e-02
9.501724707149709903e-02
9.337254801132247040e-02
9.168018942521596881e-02
8.994148541655364038e-02
8.815855323130920851e-02
8.633427032849144700e-02
8.447221893794765180e-02
8.257661945897197542e-02
8.065225402968208279e-02
7.870438209083042980e-02
7.673864957162875033e-02
7.476099344500483634e-02
7.277754366790342710e-02
7.079452415939266330e-02
6.881815470787018552e-02
6.685455544242528692e-02
6.490965556670882930e-02
6.298910785896252862e-02
6.109821028825507261e-02
5.924183585614617442e-02
5.742437174424471630e-02
5.564966858902756913e-02
5.392100037611982644e-02
5.224103539727540518e-02
5.061181841166834117e-02
4.903476405385487347e-02
4.751066098835698970e-02
4.603968662362632747e-02
4.462143166341820538e-02
4.325493374362664178e-02
4.193871913797658085e-02
4.067085155498410126e-02
3.944898690377715567e-02
3.827043277045062003e-02
3.713221134486852787e-02
3.603112454736049491e-02
3.496382003916680831e-02
3.392685686688841351e-02
3.291676960618800801e-02
3.193012979522279887e-02
3.096360359492088959e-02
3.001400485494325546e-02
2.907834273677292400e-02
2.815386318307796371e-02
2.723808376918461852e-02
2.632882150886734635e-02
2.542421340022702272e-02
2.452272962080513305e-02
2.362317943960674099e-02
2.272471013312438171e-02
2.182679913205500324e-02
2.092923993461531448e-02
2.003212234100858191e-02
1.913580765151767435e-02
1.824089962878534810e-02
1.734821196082758643e-02
1.645873307058073540e-02
1.557358920388916997e-02
1.469400658334375949e-02
1.382127354484838713e-02
1.295670344028651902e-02
1.210159910006235531e-02
1.125721957582196710e-02
1.042474987424745099e-02
9.605274137541971319e-03
8.799752818246487154e-03
8.009004164120229682e-03
7.233690331823592994e-03
6.474308276170249662e-03
5.731185398470852420e-03
5.004479996255219859e-03
4.294186321483955092e-03
3.600143987242876518e-03
2.922051317059191564e-03
2.259482429286844511e-03
1.611907291153602843e-03
9.787144312502302906e-04
3.592356075253030803e-04
-2.472280873875349239e-04
-8.413794061823544161e-04
-1.423898022533004589e-03
-1.995414082021439162e-03
-2.556482793372436002e-03
-3.107560794626578176e-03
-3.648984588388204126e-03
-4.180951647495672122e-03
-4.703504519547665151e-03
-5.216518308931086291e-03
-5.719691704184983599e-03
-6.212541777993070384e-03
-6.694402717226581416e-03
-7.164428357182259059e-03
-7.621598510577080009e-03
-8.064728890566183472e-03
-8.492484501636959199e-03
-8.903396091391809972e-03
-9.295879419118892317e-03
-9.668256893168915636e-03
-1.001878110405978947e-02
-1.034565986021281601e-02
-1.064708217351845870e-02
-1.092124467084860419e-02
-1.116637800999411428e-02
-1.138077269622383633e-02
-1.156280390695097089e-02
-1.171095478239491360e-02
-1.182383789156882942e-02
-1.190021437073747468e-02
-1.193901053072200791e-02
-1.193933160691685279e-02
-1.190047246729329829e-02
-1.182192509739599627e-02
-1.170338282789062760e-02
-1.154474134965704189e-02
-1.134609643479614002e-02
-1.110773866465876968e-02
-1.083014517675840935e-02
-1.051396866888148346e-02
-1.016002406049282270e-02
-9.769273026410157240e-03
-9.342806745603868951e-03
-8.881827288430590300e-03
-8.387628005466662984e-03
-7.861573372366582185e-03
-7.305078717215173108e-03
-6.719590056279179345e-03
-6.106564572101775765e-03
-5.467452091381588310e-03
-4.803677892661555038e-03
-4.116627116860576210e-03
-3.407631087865306552e-03
-2.677955651404047548e-03
-1.928791816726904435e-03
-1.161248772755942059e-03
-3.763494268601115999e-04
4.249717609659593612e-04
1.241868404682736895e-03
2.073579483258813048e-03
2.919424414702991456e-03
3.778796187591209124e-03
4.651152646055757046e-03
5.536006195053082626e-03
6.432912219343529282e-03
7.341456557380632644e-03
8.261242265785161479e-03
9.191876079800835944e-03
1.013295486337839266e-02
1.108405239091441244e-02
1.204470662685236393e-02
1.301440809854784858e-02
1.399258933588476590e-02
1.497861575106083747e-02
1.597177821912233037e-02
1.697128738711433521e-02
1.797627000785402551e-02
1.898576727610915005e-02
1.999873522752275076e-02
2.101404724093243817e-02
2.203049862702865028e-02
2.304681318851535543e-02
2.406165156719183157e-02
2.507362131378661901e-02
2.608128842566384900e-02
2.708319020979407452e-02
2.807784915184299498e-02
2.906378748765112152e-02
3.003954228182048256e-02
3.100368061710383552e-02
3.195481474588843934e-02
3.289161678467342892e-02
3.381283264542102318e-02
3.471729504996710902e-02
3.560393525682339910e-02
3.647179337447219866e-02
3.732002694933521381e-02
3.814791770008812977e-02
3.895487630768165038e-02
3.974044512145995245e-02
4.050429869584269704e-02
4.124624215079360223e-02
4.196620742654975922e-02
4.266424740133435006e-02
4.334052805688137777e-02
4.399531880842896120e-02
4.462898114679181294e-02
4.524195575371148248e-02
4.583474836102230388e-02
4.640791465066638338e-02
4.696204440996226692e-02
4.749774517706323307e-02
4.801562580899534916e-02
4.851628011604059570e-02
4.900027091659510392e-02
4.946811483480945126e-02
4.992026807535610011e-02
5.035711341458966317e-02
5.077894866070491176e-02
5.118597682193289783e-02
5.157829803516111866e-02
5.195590354904539021e-02
5.231867181340949663e-02
5.266636677715730991e-02
5.299863832689194476e-02
5.331502502235282298e-02
5.361495894277477220e-02
5.389777259767345591e-02
5.416270783764556840e-02
5.440892659222625743e-02
5.463552319563006604e-02
5.484153822721148097e-02
5.502597343310652173e-02
5.518780756689594530e-02
5.532601302133176996e-02
5.543957269087314982e-02
5.552749694289624283e-02
5.558884039235659213e-02
5.562271812690338518e-02
5.562832125326533372e-02
5.560493122616826794e-02
5.555193295531920400e-02
5.546882639036777168e-02
5.535523627906913102e-02
5.521092006811092329e-02
5.503577376084858169e-02
5.482983554885023647e-02
5.459328726098996998e-02
5.432645348572735788e-02
5.402979844961544598e-02
5.370392074387378423e-02
5.334954579413537373e-02
5.296751639842540299e-02
5.255878135492135506e-02
5.212438241984419796e-02
5.166543978953015703e-02
5.118313631513675410e-02
5.067870081242874941e-02
5.015339059755388740e-02
4.960847369021172126e-02
4.904521082827052042e-02
4.846483777402616627e-02
4.786854797304037484e-02
4.725747609757791762e-02
4.663268258907100200e-02
4.599513946945506249e-02
4.534571778199188857e-02
4.468517674652059540e-02
4.401415489027317440e-02
4.333316327081501024e-02
4.264258086605029335e-02
4.194265234149171379e-02
4.123348813076138653e-02
4.051506681061507742e-02
3.978723986177118421e-02
3.904973864331293815e-02
3.830218345329985952e-02
3.754409460277105537e-02
3.677490520853076567e-02
3.599397568560090688e-02
3.520060951824021539e-02
3.439407008317077463e-02
3.357359828310633315e-02
3.273843073028794015e-02
3.188781808675096585e-02
3.102104325886123268e-02
3.013743926150342506e-02
2.923640627627985267e-02
2.831742771363124009e-02
2.738008503586606551e-02
2.642407102390673806e-02
2.544920123485305136e-02
2.445542353411303202e-02
2.344282553013668155e-02
2.241163970106155312e-02
2.136224620268502641e-02
2.029517323084811115e-02
1.921109505586325941e-02
1.811082761700668134e-02
1.699532186201154968e-02
1.586565486909678052e-02
1.472301894890739454e-02
1.356870887929628039e-02
1.240410750378101619e-02
1.123066995354463429e-02
1.004990672125643213e-02
8.863365992031174007e-03
7.672615454712480160e-03
6.479223878366650348e-03
5.284742855049907005e-03
4.090688934320235205e-03
2.898526616382800496e-03
1.709652346620063905e-03
5.253799327228397993e-04
-6.530724488788013007e-04
-1.824593408073773562e-03
-2.988187407768158436e-03
-4.142981613157886017e-03
-5.288230381041412499e-03
-6.423317379688381866e-03
-7.547755115426944654e-03
-8.661182037351356292e-03
-9.763357195625887303e-03
-1.085415259275374078e-02
-1.193354330786450951e-02
-1.300159561484896809e-02
-1.405845320147088365e-02
-1.510432190197042238e-02
-1.613945310396186841e-02
-1.716412621064063518e-02
-1.817863042282570965e-02
-1.918324625328891517e-02
-2.017822701406106131e-02
-2.116378072269679833e-02
-2.214005279181682773e-02
-2.310710974435672624e-02
-2.406492451772893060e-02
-2.501336327176681418e-02
-2.595217437337515518e-02
-2.688097953644092222e-02
-2.779926751138526997e-02
-2.870639035369415212e-02
-2.960156243607070525e-02
-3.048386238289268677e-02
-3.135223778764850006e-02
-3.220551277676709373e-02
-3.304239834378118468e-02
-3.386150533015658964e-02
-3.466135989284681307e-02
-3.544042114537571814e-02
-3.619710085251285486e-02
-3.692978479063690339e-02
-3.763685549261149010e-02
-3.831671589540077555e-02
-3.896781364086790433e-02
-3.958866555486912492e-02
-4.017788193359284749e-02
-4.073419019957354170e-02
-4.125645748073272084e-02
-4.174371176991654997e-02
-4.219516129596628806e-02
-4.261021165172258068e-02
-4.298848050283532451e-02
-4.332980941358936106e-02
-4.363427275086523976e-02
-4.390218326469126631e-02
-4.413409437821166903e-02
-4.433079893861364973e-02
-4.449332453156832484e-02
-4.462292524944375810e-02
-4.472107012597525272e-02
-4.478942827864351023e-02
-4.482985095903388451e-02
-4.484435082303656755e-02
-4.483507854047227154e-02
-4.480429728492115599e-02
-4.475435541442746717e-02
-4.468765758082196560e-02
-4.460663495010216972e-02
-4.451371484046206389e-02
-4.441129019917198356e-02
-4.430168946171058469e-02
-4.418714729133230851e-02
-4.406977659632538291e-02
-4.395154218815477964e-02
-4.383423658391443628e-02
-4.371945830114429277e-02
-4.360859295697187832e-02
-4.350279747393205609e-02
-4.340298765313185814e-02
-4.330982918083397387e-02
-4.322373240525711341e-02
-4.314485082884658707e-02
-4.307308326669086196e-02
-4.300807975737130223e-02
-4.294925105895866513e-02
-4.289578148601649182e-02
-4.284664506137211837e-02
-4.280062447181005869e-02
-4.275633269337412307e-02
-4.271223689862146261e-02
-4.266668418149326125e-02
-4.261792874715739782e-02
-4.256416005603554098e-02
-4.250353160956951010e-02
-4.243418974785632264e-02
-4.235430215567455303e-02
-4.226208556931011773e-02
-4.215583223965466836e-02
-4.203393477543571760e-02
-4.189490895106156437e-02
-4.173741428107369950e-02
-4.156027191529586967e-02
-4.136247967661634689e-02
-4.114322404465110827e-02
-4.090188895881060466e-02
-4.063806135759620575e-02
-4.035153350267982331e-02
-4.004230197553521053e-02
-3.971056349818485182e-02
-3.935670775908043512e-02
-3.898130735320612383e-02
-3.858510518984369086e-02
-3.816899953687102887e-02
-3.773402707598694228e-02
-3.728134430048737902e-02
-3.681220763214132496e-02
-3.632795260242300400e-02
-3.582997255082124438e-02
-3.531969717710209400e-02
-3.479857137990962496e-02
-3.426803472288218744e-02
-3.372950194133594176e-02
-3.318434473322706690e-02
-3.263387521114109041e-02
-3.207933127429668518e-02
-3.152186406488290127e-02
-3.096252772307321599e-02
-3.040227159330690168e-02
-2.984193488341299258e-02
-2.928224388867906383e-02
-2.872381174067675791e-02
-2.816714052652989284e-02
-2.761262577025340101e-02
-2.706056304995392917e-02
-2.651115657761061312e-02
-2.596452941434707756e-02
-2.542073520811906698e-02
-2.487977095362996563e-02
-2.434159061709934707e-02
-2.380611923957668546e-02
-2.327326712905102360e-02
-2.274294388966771954e-02
-2.221507186336211734e-02
-2.168959883236815447e-02
-2.116650944184984146e-02
-2.064583524658917396e-02
-2.012766315355615787e-02
-1.961214195516524164e-02
-1.909948692948823523e-02
-1.858998222133896247e-02
-1.808398110689186239e-02
-1.758190395373852855e-02
-1.708423406175120160e-02
-1.659151133177225179e-02
-1.610432396253246023e-02
-1.562329831399976617e-02
-1.514908718494913445e-02
-1.468235665023547715e-02
-1.422377181474640713e-02
-1.377398180876234814e-02
-1.333360423799320391e-02
-1.290320956423895472e-02
-1.248330572247265124e-02
-1.207432324327939108e-02
-1.167660135263173110e-02
-1.129037526043987806e-02
-1.091576505301064537e-02
-1.055276639413304726e-02
-1.020124333648236847e-02
-9.860923466312933316e-03
-9.531395538362651132e-03
-9.212109770440204265e-03
-8.902380819374456841e-03
-8.601393519180379824e-03
-8.308211294499795452e-03
-8.021787353964028935e-03
-7.740978259677236233e-03
-7.464560041617573395e-03
-7.191246282836175584e-03
-6.919708152153028133e-03
-6.648595998836453851e-03
-6.376562190977695145e-03
-6.102284766264453285e-03
-5.824491562376477201e-03
-5.541984381535168709e-03
-5.253662818789301206e-03
-4.958547327118967979e-03
-4.655801044535563815e-03
-4.344750069223011525e-03
-4.024901703279783367e-03
-3.695960418213334493e-03
-3.357841172264889717e-03
-3.010679746620583547e-03
-2.654839988062831623e-03
-2.290917613718751987e-03
-1.919740622824919318e-03
-1.542366072066424969e-03
-1.160073296562157174e-03
-7.743535811236806204e-04
-3.868963874731476058e-04
4.277948868157620098e-07
3.855876479400766532e-04
7.664140948261611219e-04
1.140625869314812989e-03
1.505857315452497226e-03
1.859688037767693886e-03
2.199673875359565295e-03
2.523378899932991141e-03
2.828407908348093587e-03
3.112438861860682571e-03
3.373255041094500115e-03
3.608776198509514119e-03
3.817088405617509797e-03
3.996472037027026455e-03
4.145427558989736583e-03
4.262698805753142688e-03
4.347293254571306213e-03
4.398499175828450049e-03
4.415899221418878064e-03
4.399380331849232599e-03
4.349139919383328279e-03
4.265688107873673654e-03
4.149846022555117933e-03
4.002740205509061448e-03
3.825793173220185667e-03
3.620710307954628886e-03
3.389463287525780640e-03
3.134270154987288826e-03
2.857572502123686877e-03
2.562009966229348342e-03
2.250392391477051661e-03
1.925670073286864193e-03
1.590902516166373690e-03
1.249226082336890543e-03
9.038209977286621160e-04
5.578780734701593597e-04
2.145656781398724117e-04
-1.230026981035296405e-04
-4.517998173590594114e-04
-7.689146964197596332e-04
-1.071580834235662033e-03
-1.357202354829958229e-03
-1.623377746678259870e-03
-1.867921024597284964e-03
-2.088880047500732938e-03
-2.284551799290997654e-03
-2.453494641168600058e-03
-2.594537318116057860e-03
-2.706784774670163794e-03
-2.789620823677767519e-03
-2.842707680653805326e-03
-2.865982355648467265e-03
-2.859650232801653428e-03
-2.824175900612349837e-03
-2.760271490708802056e-03
-2.668882761207882343e-03
-2.551173013569630558e-03
-2.408505317557715387e-03
-2.242423203906598970e-03
-2.054630254477123399e-03
-1.846968700655700173e-03
-1.621397437026036352e-03
-1.379969639490237661e-03
-1.124810491208654223e-03
-8.580949793836575076e-04
-5.820262407412808876e-04
-2.988146369398843013e-04
-1.065762124350230951e-05
2.802792202971982668e-04
5.718798641873016524e-04
8.620941595329646278e-04
1.148952641267014709e-03
1.430579755598240192e-03
1.705205380955812687e-03
1.971174750244700583e-03
2.226956631030653933e-03
2.471149831329991133e-03
2.702488064524301552e-03
2.919843227344173526e-03
3.122227186045968984e-03
3.308792087493845138e-03
3.478829322642559927e-03
3.631767238612172710e-03
3.767167764035111305e-03
3.884721983556960537e-03
3.984244839320448713e-03
4.065669034353747331e-03
4.129038181812181435e-03
4.174499485745058677e-03
4.202295964987767633e-03
4.212758402471916512e-03
4.206297087874008751e-03
4.183393291328241573e-03
4.144590646115936007e-03
4.090486576678014317e-03
4.021723773805664127e-03
3.938981828526377967e-03
3.842969044370673701e-03
3.734414443770591157e-03
3.614060136298912363e-03
3.482654013655449125e-03
3.340942729461135116e-03
3.189665045278293649e-03
3.029545640484594422e-03
2.861289360046690745e-03
2.685575907535037513e-03
2.503055031311655215e-03
2.314342187973893444e-03
2.120014818787582800e-03
1.920609070279597668e-03
1.716617138328041222e-03
1.508485220264069084e-03
1.296612085928110052e-03
1.081348223897905195e-03
8.629956906351128739e-04
6.418085665694050037e-04
4.179940787539997236e-04
1.917144471141845989e-04
-3.691070933466507911e-05
-2.678013240027325411e-04
-5.009131366424685733e-04
-7.362334237574676837e-04
-9.737761170445776793e-04
-1.213576363590080200e-03
-1.455684730610135383e-03
-1.700160885988458853e-03
-1.947067068192268480e-03
-2.196461209477439547e-03
-2.448389905799344419e-03
-2.702881374964790414e-03
-2.959938370282670910e-03
-3.219531258646152107e-03
-3.481591332455690174e-03
-3.746004508084295817e-03
-4.012605472159656676e-03
-4.281172387352546495e-03
-4.551422271224881376e-03
-4.823007238115635531e-03
-5.095511538832645654e-03
-5.368449554765230246e-03
-5.641264889551980688e-03
-5.913330503761587628e-03
-6.183950017736170729e-03
-6.452360105853542811e-03
-6.717734179185464588e-03
-6.979187134307431040e-03
-7.235781336356790668e-03
-7.486533679399880181e-03
-7.730423654832962316e-03
-7.966402410367010370e-03
-8.193402724491148301e-03
-8.410349645276394073e-03
-8.616171792013644498e-03
-8.809813144343635674e-03
-8.990245160242856318e-03
-9.156479026084209799e-03
-9.307577961512701961e-03
-9.442669297171621401e-03
-9.560956217841271726e-03
-9.661728958366514255e-03
-9.744375243127510744e-03
-9.808389942259222727e-03
-9.853383664602491376e-03
-9.879090156794726602e-03
-9.885372439568176905e-03
-9.872227515376245932e-03
-9.839789579957137697e-03
-9.788331672899362040e-03
-9.718265649161731551e-03
-9.630140563349924576e-03
-9.524639348995930788e-03
-9.402573914760885970e-03
-9.264878557307577520e-03
-9.112601871951741400e-03
-8.946897264477773545e-03
-8.769012129773275099e-03
-8.580275860123148107e-03
-8.382086698299604302e-03
-8.175897774560144868e-03
-7.963202437428594169e-03
-7.745519079325534177e-03
-7.524375553889964090e-03
-7.301293513242054257e-03
-7.077772843771184402e-03
-6.855276353765813943e-03
-6.635214848229912914e-03
-6.418932978452742896e-03
-6.207695826148193312e-03
-6.002676536925028068e-03
-5.804945035638849234e-03
-5.615458131271290967e-03
-5.435050931865144375e-03
-5.264429750646784471e-03
-5.104166600223689586e-03
-4.954695336179450009e-03
-4.816309351060065955e-03
-4.689160979207854935e-03
-4.573262544823905422e-03
-4.468489008530796697e-03
-4.374582137425705487e-03
-4.291156227801669852e-03
-4.217705137206389024e-03
-4.153610545253082556e-03
-4.098151436908588699e-03
-4.050514598981169202e-03
-4.009805939278835232e-03
-3.975062535948567337e-03
-3.945265279265581897e-03
-3.919351891090478920e-03
-3.896230140282735607e-03
-3.874791189669714222e-03
-3.853922874870405798e-03
-3.832522665071734762e-03
-3.809510380427167959e-03
-3.783840301061181747e-03
-3.754512673630754256e-03
-3.720584473984599704e-03
-3.681179352916758452e-03
-3.635496616989584637e-03
-3.582819273185847316e-03
-3.522520851158150810e-03
-3.454071221949895059e-03
-3.377041238909759928e-03
-3.291106209976107921e-03
-3.196048174094786275e-03
-3.091756976976950053e-03
-2.978230257063737164e-03
-2.855572167724440905e-03
-2.723991022923660625e-03
-2.583795916482605360e-03
-2.435392302719226621e-03
-2.279276598234016796e-03
-2.116029900454988958e-03
-1.946310919472764994e-03
-1.770848130237755690e-03
-1.590431195951330472e-03
-1.405901821750908621e-03
-1.218144177715352848e-03
-1.028074876110077196e-03
-8.366325913227108712e-04
-6.447674794224444268e-04
-4.534304760024777232e-04
-2.635625005139407401e-04
-7.608375852519050375e-05
1.081167882085353257e-04
2.881917233810689458e-04
4.633451622785079494e-04
6.328421821393853848e-04
7.960178175095029016e-04
9.522853752227399037e-04
1.101144060308515424e-03
1.242185700265355935e-03
1.375100589884745411e-03
1.499682351584254126e-03
1.615831741304426779e-03
1.723559348611921607e-03
1.822987094195938464e-03
1.914348438183908173e-03
1.997987297454462217e-03
2.074355700954826683e-03
2.144010112331856070e-03
2.207606330007217278e-03
2.265893127058149752e-03
2.319704598683218575e-03
2.369951209461730861e-03
2.417609682841430352e-03
2.463711748994543409e-03
2.509331836276108754e-03
2.555573820988708226e-03
2.603557088148566838e-03
2.654401835689869978e-03
2.709213901037706498e-03
2.769069291355797865e-03
2.834998516730513445e-03
2.907970954749250752e-03
2.988879513265919625e-03
3.078525641904694687e-03
3.177605068530190216e-03
3.286694310803737508e-03
3.406238254620104749e-03
3.536538991116327125e-03
3.677746052633291355e-03
3.829848232264550321e-03
3.992667126393180735e-03
4.165852562122672464e-03
4.348880033133030454e-03
4.541050200945104774e-03
4.741490555214567144e-03
4.949159205905385474e-03
5.162850914429220790e-03
5.381205277888799661e-03
5.602717024196743681e-03
5.825748308580644061e-03
6.048543012559114314e-03
6.269242734062785774e-03
6.485904390751642649e-03
6.696519209573132021e-03
6.899032926780003690e-03
7.091366956787785274e-03
7.271440210870392003e-03
7.437191310793755429e-03
7.586600929018058430e-03
7.717713981694677983e-03
7.828661370091402616e-03
7.917680990512095812e-03
7.983137665555731580e-03
8.023541804721336795e-03
8.037566532096685618e-03
8.024062955918518161e-03
7.982073556103445530e-03
7.910843325843323545e-03
7.809828563752498239e-03
7.678703199862320534e-03
7.517362559776312632e-03
7.325924504166354649e-03
7.104727959333927319e-03
6.854328844340889550e-03
6.575493418842204806e-03
6.269189164753589776e-03
5.936573334439010016e-03
5.578979337697282867e-03
5.197901028450950360e-03
4.794975320058554244e-03
4.371963243467774131e-03
3.930729628099352037e-03
3.473221881499253660e-03
3.001447973156644213e-03
2.517454011763774115e-03
2.023301667512210789e-03
1.521045702702982774e-03
1.012712042565335835e-03
5.002765000193405134e-04
-1.435550735621223430e-05
-5.293679585560807444e-04
-1.043051782625345741e-03
-1.553820832063873992e-03
-2.060225947885781748e-03
-2.560967040306671560e-03
-3.054903084435826258e-03
-3.541059870345324070e-03
-4.018635580745744465e-03
-4.487003985134862399e-03
-4.945715423773363456e-03
-5.394495484768133640e-03
-5.833241555208412525e-03
-6.262017208130544847e-03
-6.681044591134136998e-03
-7.090694950920797650e-03
-7.491477386757937167e-03
-7.884026059568612771e-03
-8.269086028604483510e-03
-8.647497867976649405e-03
-9.020181202453727773e-03
-9.388117440992395021e-03
-9.752331893075179281e-03
-1.011387541594855645e-02
-1.047380582763728953e-02
-1.083316925882866349e-02
-1.119298163370791889e-02
-1.155421045872710717e-02
-1.191775704203809801e-02
-1.228443937204584321e-02
-1.265497574576160758e-02
-1.302996932132537838e-02
-1.340989372724512435e-02
-1.379507981568363524e-02
-1.418570365284209725e-02
-1.458177599821722757e-02
-1.498313322035759940e-02
-1.538942973124537289e-02
-1.580013212462121758e-02
-1.621451507279105322e-02
-1.663165900249508750e-02
-1.705044965280505184e-02
-1.746957956307663984e-02
-1.788755156045876080e-02
-1.830268429077983733e-02
-1.871311983260056863e-02
-1.911683340131138317e-02
-1.951164511158320555e-02
-1.989523403197483026e-02
-2.026515417853011827e-02
-2.061885263896236567e-02
-2.095368972367335145e-02
-2.126696108659524229e-02
-2.155592165226561177e-02
-2.181781128612986231e-02
-2.204988205894281225e-02
-2.224942688506727911e-02
-2.241380932658637928e-02
-2.254049436238284021e-02
-2.262707977968063389e-02
-2.267132794745314525e-02
-2.267119760561539521e-02
-2.262487528514483398e-02
-2.253080599108565549e-02
-2.238772278025763160e-02
-2.219467477684194945e-02
-2.195105321997582043e-02
-2.165661505541952025e-02
-2.131150360809233937e-02
-2.091626602922200609e-02
-2.047186704738246030e-02
-1.997969862185531437e-02
-1.944158512936087005e-02
-1.885978373370212138e-02
-1.823697982989386929e-02
-1.757627714878668909e-02
-1.688118252219271073e-02
-1.615558506211654463e-02
-1.540372997122649648e-02
-1.463018687554441463e-02
-1.383981285366370911e-02
-1.303771050148457705e-02
-1.222918124507714997e-02
-1.141967434754724738e-02
-1.061473224289110652e-02
-9.819932460130513519e-03
-9.040827166876496540e-03
-8.282880710480236552e-03
-7.551406216602031540e-03
-6.851501938801550680e-03
-6.187988264427922436e-03
-5.565346234752115845e-03
-4.987658574878453717e-03
-4.458554156477762161e-03
-3.981156609143068036e-03
-3.558038208869598179e-03
-3.191179676396209593e-03
-2.881936814237527535e-03
-2.631014466864262189e-03
-2.438448511888415948e-03
-2.303596417070367160e-03
-2.225136616679563271e-03
-2.201077065137293631e-03
-2.228773044182846483e-03
-2.304954177492348627e-03
-2.425760417924412854e-03
-2.586786831732590126e-03
-2.783136616156142457e-03
-3.009481754640607430e-03
-3.260130517725200357e-03
-3.529100969572147688e-03
-3.810199557041216330e-03
-4.097103492543571410e-03
-4.383445928965938598e-03
-4.662902463015946783e-03
-4.929277835750016205e-03
-5.176591401239261786e-03
-5.399159991782273224e-03
-5.591676833003387040e-03
-5.749285265877901972e-03
-5.867645922714490210e-03
-5.942996333864924291e-03
-5.972201785252454972e-03
-5.952796567297310472e-03
-5.883014794687280169e-03
-5.761810214574051257e-03
-5.588864542008045895e-03
-5.364584058036351265e-03
-5.090084429652290236e-03
-4.767163878312714702e-03
-4.398265072838321472e-03
-3.986426243315438489e-03
-3.535222370025169116e-03
-3.048697251158113790e-03
-2.531287594913695684e-03
-1.987740497945720674e-03
-1.423025582224760879e-03
-8.422432977137139310e-04
-2.505311596907625299e-04
3.470305470068686909e-04
9.455119115350325756e-04
1.540223697560139712e-03
2.126802955338206666e-03
2.701292513479338579e-03
3.260212770715851562e-03
3.800624365311147494e-03
4.320180527915985953e-03
4.817167958524990953e-03
5.290535384339143700e-03
5.739909132834111402e-03
6.165595369874841102e-03
6.568568635263859201e-03
6.950446890431049955e-03
7.313453444158015196e-03
7.660366187089773411e-03
7.994455071126569182e-03
8.319408842155592149e-03
8.639252457188214412e-03
8.958256583728048048e-03
9.280840809603516442e-03
9.611472517581804917e-03
9.954563216920743127e-03
1.031436455670598808e-02
1.069486587613989112e-02
1.109969552757780406e-02
1.153202804366925890e-02
1.199449896565072185e-02
1.248912930553047924e-02
1.301726132346685445e-02
1.357950714767929522e-02
1.417571160482922719e-02
1.480493018940473408e-02
1.546542301767645823e-02
1.615466530746365731e-02
1.686937451877138644e-02
1.760555401717694632e-02
1.835855272718131537e-02
1.912314001396352159e-02
1.989359471679563035e-02
2.066380683632102616e-02
2.142739026301992977e-02
2.217780451813797932e-02
2.290848336683395936e-02
2.361296793480294545e-02
2.428504179871298838e-02
2.491886546224901869e-02
2.550910749963931218e-02
2.605106976323923879e-02
2.654080398248427272e-02
2.697521724421266323e-02
2.735216401028563171e-02
2.767052243868745737e-02
2.793025316688624998e-02
2.813243884686247170e-02
2.827930310851862680e-02
2.837420815222903292e-02
2.842163023907284813e-02
2.842711304400228137e-02
2.839719912469122753e-02
2.833934023697526339e-02
2.826178755408244314e-02
2.817346347806755705e-02
2.808381693427847506e-02
2.800266448158797439e-02
2.794001991922229894e-02
2.790591543170248962e-02
2.791021738241318204e-02
2.796244027901156198e-02
2.807156249962892286e-02
2.824584732488386735e-02
2.849267308255163181e-02
2.881837587471993214e-02
2.922810847425293471e-02
2.972571859073043152e-02
3.031364967599081001e-02
3.099286679652504470e-02
3.176281008788079535e-02
3.262137759016099647e-02
3.356493888669440095e-02
3.458838047330000526e-02
3.568518309881533318e-02
3.684753100630902556e-02
3.806645207070465803e-02
3.933198754346405035e-02
4.063338932979900647e-02
4.195934220840198681e-02
4.329820788362367251e-02
4.463828732269790184e-02
4.596809721061287379e-02
4.727665606858003772e-02
4.855377530090811133e-02
4.979035009378653814e-02
5.097864483083284354e-02
5.211256792010302702e-02
5.318793047177685501e-02
5.420268375788261928e-02
5.515713021490790957e-02
5.605410341189721174e-02
5.689911229182458008e-02
5.770044591701752046e-02
5.846923501377836174e-02
5.921946753981834760e-02
5.996795594963465204e-02
6.073425460140863263e-02
6.154052667959536427e-02
6.241136030358086784e-02
6.337353494666138343e-02
6.445573943923363358e-02
6.568824415246077297e-02
6.710253050397603503e-02
6.873088165224228163e-02
7.060593908206065639e-02
7.276023033151018948e-02
7.522567369442452467e-02
7.803306638818621743e-02
8.121156289402044204e-02
8.478815059840102974e-02
8.878713015114576834e-02
9.322960781893918636e-02
9.813300743847055974e-02
1.035106092401049394e-01
1.093711226368956485e-01
1.157182998593462159e-01
1.225505965668247654e-01
1.298608855115115090e-01
1.376362281542239108e-01
1.458577088912091368e-01
1.545003354841255894e-01
1.635330084001004047e-01
1.729185610341057999e-01
1.826138717656055066e-01
1.925700478161556650e-01
2.027326799931268575e-01
2.130421662652297321e-01
2.234341012431177442e-01
2.338397278956358960e-01
2.441864466942683942e-01
2.543983768336456341e-01
2.643969632898129918e-01
2.741016228146536671e-01
2.834304216701777901e-01
2.923007771465310212e-01
3.006301748521916783e-01
3.083368934665136063e-01
3.153407283806619055e-01
3.215637060821115445e-01
3.269307807553626932e-01
3.313705054395831850e-01
3.348156699634249334e-01
3.372038985370975905e-01
3.384782005714449538e-01
3.385874688271067745e-01
3.374869197537596621e-01
3.351384717643789979e-01
3.315110578969120425e-01
3.265808704364516757e-01
3.203315358520278933e-01
3.127542193153901029e-01
3.038476590485170714e-01
2.936181317142612657e-01
2.820793508535064942e-01
2.692523011731846050e-01
2.551650123297391493e-01
2.398522765149635749e-01
2.233553149512126912e-01
2.057213984963251752e-01
1.870034284507099132e-01
1.672594837754980135e-01
1.465523411596692249e-01
1.249489745851265349e-01
1.025200408894541143e-01
7.933935799748410844e-02
5.548338206812976348e-02
3.103068970154693879e-02
6.061470755238989629e-03
-1.934296280696076384e-02
-4.510064745997057617e-02
-7.112941385172275033e-02
-9.734730422113931081e-02
-1.236729585746115107e-01
-1.500259676846052159e-01
-1.763271911687705751e-01
-2.024990400252137945e-01
-2.284657235670244646e-01
-2.541534611617058959e-01
-2.794906601642536681e-01
-3.044080616039386289e-01
-3.288388559935742084e-01
-3.527187718253658733e-01
-3.759861399657656866e-01
-3.985819371724229621e-01
-4.204498124384050128e-01
-4.415360995928586108e-01
-4.617898202387653583e-01
-4.811626803123214557e-01
-4.996090640032209151e-01
-5.170860284288746334e-01
-5.335533019259601772e-01
-5.489732887875461431e-01
-5.633110826707755647e-01
-5.765344906234777245e-01
-5.886140689514122171e-01
-5.995231718142042254e-01
-6.092380129517142029e-01
-6.177377401856343209e-01
-6.250045220735047646e-01
-6.310236452713628985e-01
-6.357836209785631132e-01
-6.392762982451916098e-01
-6.414969814654531977e-01
-6.424445491328859559e-01
-6.421215706315436256e-01
-6.405344176824925295e-01
-6.376933666960155067e-01
-6.336126885120652030e-01
-6.283107219161151447e-01
-6.218099271141165341e-01
-6.141369162268701665e-01
-6.053224575550404385e-01
-5.954014507540652534e-01
-5.844128706434402742e-01
-5.723996774034515456e-01
-5.594086918616393289e-01
-5.454904349902071070e-01
-5.306989312031104022e-01
-5.150914757179594350e-01
-4.987283667976303847e-01
-4.816726042936036456e-01
-4.639895565117553300e-01
-4.457465980538724004e-01
-4.270127216995130426e-01
-4.078581278932785215e-01
-3.883537960155885593e-01
-3.685710418047392634e-01
-3.485810657199371332e-01
-3.284544972337643531e-01
-3.082609402064375170e-01
-2.880685246253225640e-01
-2.679434698948561788e-01
-2.479496648801008118e-01
-2.281482697171956509e-01
-2.085973441238778703e-01
-1.893515066047656015e-01
-1.704616286692712535e-01
-1.519745675455273226e-01
-1.339329404440373628e-01
-1.163749430298440107e-01
-9.933421373211026584e-02
-8.283974534788883515e-02
-6.691584453442887825e-02
-5.158213899137250452e-02
-3.685363178389173405e-02
-2.274080133889506972e-02
-9.249745090082066995e-03
3.617635583217235478e-03
1.586341255422478794e-02
2.749337367445449029e-02
3.851673511130697392e-02
4.894582781862825277e-02
5.879576263973466249e-02
6.808407923214118695e-02
7.683038371808346978e-02
8.505598023033113242e-02
9.278350155182474301e-02
1.000365437322735529e-01
1.068393096245624369e-01
1.132162659798241766e-01
1.191918183315201774e-01
1.247900075418593990e-01
1.300342315771985668e-01
1.349469954657801785e-01
1.395496919380388723e-01
1.438624146561836015e-01
1.479038055241919947e-01
1.516909366950861815e-01
1.552392277134602983e-01
1.585623972670294479e-01
1.616724487581583658e-01
1.645796882862844979e-01
1.672927731899522541e-01
1.698187886385073286e-01
1.721633497742146302e-01
1.743307262324226559e-01
1.763239857299578051e-01
1.781451531668244159e-01
1.797953815830543034e-01
1.812751311275287991e-01
1.825843523805177615e-01
1.837226702409614221e-01
1.846895646390860901e-01
1.854845448714448064e-01
1.861073142815565240e-01
1.865579222656820191e-01
1.868369011853128203e-01
1.869453858064027973e-01
1.868852135778497070e-01
1.866590042493943002e-01
1.862702178434035016e-01
1.857231905652176607e-01
1.850231484001728377e-01
1.841761988322958288e-01
1.831893013359023326e-01
1.820702178108710712e-01
1.808274445064718960e-01
1.794701271475492022e-01
1.780079613840724606e-01
1.764510807929870195e-01
1.748099350612117575e-01
1.730951609394076329e-01
1.713174486482901271e-01
1.694874064393521451e-01
1.676154261477036944e-01
1.657115523538512936e-01
1.637853575773283443e-01
1.618458259345642580e-01
1.599012474363618042e-01
1.579591247727663850e-01
1.560260942219338365e-01
1.541078620033899393e-01
1.522091571425824297e-01
1.503337014514224135e-01
1.484841969702277442e-01
1.466623309152195187e-01
1.448687978144101718e-01
1.431033380296645452e-01
1.413647918806881232e-01
1.396511681019407258e-01
1.379597251537751090e-01
1.362870636259515822e-01
1.346292280186014712e-01
1.329818156636811965e-01
1.313400908265805744e-01
1.296991017870804397e-01
1.280537987868710093e-01
1.263991504078106620e-01
1.247302565717406525e-01
1.230424560264211514e-01
1.213314264951061427e-01
1.195932757029091464e-01
1.178246218844592325e-01
1.160226625600677547e-01
1.141852303268580532e-01
1.123108351464933291e-01
1.103986925427507121e-01
1.084487374190674785e-01
1.064616235929286281e-01
1.044387094093603141e-01
1.023820299278097729e-01
1.002942565823577714e-01
9.817864516088897764e-02
9.603897355121880641e-02
9.387947052065138964e-02
9.170473714481454375e-02
8.951966240967214328e-02
8.732933484874033647e-02
8.513895196174817159e-02
8.295372910255080501e-02
8.077880966460361523e-02
7.861917821800615269e-02
7.647957829671735153e-02
7.436443618125911093e-02
7.227779214043912603e-02
7.022324032128131333e-02
6.820387817283557474e-02
6.622226626221872081e-02
6.428039909932968532e-02
6.237968733562576640e-02
6.052095139242961996e-02
5.870442650389545713e-02
5.692977888185111329e-02
5.519613256554373876e-02
5.350210604790149593e-02
5.184585803028100154e-02
5.022514118080553813e-02
4.863736276032982336e-02
4.707965074943466083e-02
4.554892422585114786e-02
4.404196653641356818e-02
4.255549983008041770e-02
4.108625936969826503e-02
3.963106643239725640e-02
3.818689823549475948e-02
3.675095366967073146e-02
3.532071357951393348e-02
3.389399451111253098e-02
3.246899507035275884e-02
3.104433407849675752e-02
2.961907990841560270e-02
2.819277044417522332e-02
2.676542354578819588e-02
2.533753793192791356e-02
2.391008455098797905e-02
2.248448865048761555e-02
2.106260314939240388e-02
1.964667377955163496e-02
1.823929684820737446e-02
1.684337048819838437e-02
1.546204043282361877e-02
1.409864124751876446e-02
1.275663431163968214e-02
1.143954370490439347e-02
1.015089125362434071e-02
8.894131921593516343e-03
7.672590804205266582e-03
6.489402678214340608e-03
5.347455540097833734e-03
4.249338816685802392e-03
3.197297361481885210e-03
2.193191984089721755e-03
1.238467007454345991e-03
3.341255822131309000e-04
-5.192868988405679358e-04
-1.321691181947189358e-03
-2.073474127875644165e-03
-2.775480508388281000e-03
-3.428996736107084269e-03
-4.035726985795014092e-03
-4.597762080320226194e-03
-5.117541980041828698e-03
-5.597812444405611890e-03
-6.041576817355725527e-03
-6.452043734236364604e-03
-6.832571832499003718e-03
-7.186612417036997158e-03
-7.517651096580189353e-03
-7.829149452135484091e-03
-8.124487798933889213e-03
-8.406910003599665782e-03
-8.679471280765824887e-03
-8.944989826225857241e-03
-9.206003135941652829e-03
-9.464729696651954724e-03
-9.723036598542612180e-03
-9.982413610092649020e-03
-1.024395398791084696e-02
-1.050834235473345132e-02
-1.077584971693386698e-02
-1.104633554044032184e-02
-1.131925691467464308e-02
-1.159368435907958024e-02
-1.186832395509012858e-02
-1.214154537662703870e-02
-1.241141517791014351e-02
-1.267573469349377209e-02
-1.293208189918525382e-02
-1.317785635963626689e-02
-1.341032647492141489e-02
-1.362667815260557545e-02
-1.382406410317537845e-02
-1.399965287688736439e-02
-1.415067674231099311e-02
-1.427447769914177642e-02
-1.436855083135645667e-02
-1.443058426329261144e-02
-1.445849519788518223e-02
-1.445046132732745806e-02
-1.440494732004211909e-02
-1.432072592556109421e-02
-1.419689344210990460e-02
-1.403287943627168875e-02
-1.382845055476689296e-02
-1.358370857392198448e-02
-1.329908277661185148e-02
-1.297531687333531442e-02
-1.261345077076775865e-02
-1.221479766687515699e-02
-1.178091686500183817e-02
-1.131358290618280672e-02
-1.081475162143189991e-02
-1.028652366013860231e-02
-9.731106294700531123e-03
-9.150774054851509159e-03
-8.547829009307008133e-03
-7.924561176746036315e-03
-7.283210001411761364e-03
-6.625927356717554138e-03
-5.954742760483812923e-03
-5.271531339845086407e-03
-4.577985020668895975e-03
-3.875587373309528037e-03
-3.165592584219905584e-03
-2.449008753814495114e-03
-1.726585847254181842e-03
-9.988082320675731752e-04
-2.658920641945767323e-04
4.722125034434043267e-04
1.215814497752229582e-03
1.965470775489668552e-03
2.721970475258758768e-03
3.486315451574145078e-03
4.259697127335495236e-03
5.043470148415030684e-03
5.839123335396772738e-03
6.648248410721343919e-03
7.472506966923453918e-03
8.313596226810989614e-03
9.173214281679911014e-03
1.005302520049880695e-02
1.095462445000105860e-02
1.187950537662504566e-02
1.282902718946269359e-02
1.380438479267087279e-02
1.480658091286987492e-02
1.583640101940159139e-02
1.689439124705075998e-02
1.798083965156982433e-02
1.909576104324432408e-02
2.023888552857054310e-02
2.140965076157248098e-02
2.260719826866875587e-02
2.383037352900464062e-02
2.507772978847087886e-02
2.634753562113635247e-02
2.763778601256041551e-02
2.894621674703201988e-02
3.027032180957631158e-02
3.160737357798159425e-02
3.295444544051746860e-02
3.430843648582064531e-02
3.566609797027366080e-02
3.702406109528929429e-02
3.837886579942362958e-02
3.972699012672540470e-02
4.106487977581880361e-02
4.238897749251633457e-02
4.369575198624522927e-02
4.498172590597728643e-02
4.624350283243380821e-02
4.747779268610839709e-02
4.868143545754880647e-02
4.985142302665144382e-02
5.098491898807321759e-02
5.207927611753582209e-02
5.313205152211047250e-02
5.414101928667939406e-02
5.510418075916020259e-02
5.601977226321147585e-02
5.688627036775806972e-02
5.770239476020928154e-02
5.846710879953485873e-02
5.917961784397184066e-02
5.983936547446016413e-02
6.044602785730017469e-02
6.099950629189867385e-02
6.149991817448004910e-02
6.194758659694952346e-02
6.234302863434645209e-02
6.268694273044318754e-02
6.298019516236195992e-02
6.322380596552633347e-02
6.341893440262831583e-02
6.356686414572139399e-02
6.366898828564984680e-02
6.372679445834014689e-02
6.374185015446515168e-02
6.371578832109520141e-02
6.365029334266222860e-02
6.354708754123404579e-02
6.340791834441840413e-02
6.323454595478718299e-02
6.302873179142300109e-02
6.279222760480571153e-02
6.252676538006711471e-02
6.223404792366103722e-02
6.191574025122757730e-02
6.157346166574513557e-02
6.120877850168144479e-02
6.082319766382435905e-02
6.041816071707251101e-02
5.999503866972644844e-02
5.955512731448035779e-02
5.909964311649310714e-02
5.862971972499834289e-02
5.814640485980117346e-02
5.765065779337671947e-02
5.714334719800301388e-02
5.662524952176480053e-02
5.609704776447105995e-02
5.555933070964556852e-02
5.501259258028848298e-02
5.445723314274966004e-02
5.389355829149903437e-02
5.332178104715017131e-02
5.274202309449446680e-02
5.215431678490582701e-02
5.155860764446029698e-02
5.095475745302555093e-02
5.034254787832916078e-02
4.972168460475542145e-02
4.909180208880169899e-02
4.845246886031627509e-02
4.780319337140251368e-02
4.714343041389384287e-02
4.647258805820130706e-02
4.579003508125042976e-02
4.509510881552674516e-02
4.438712349070032120e-02
4.366537891635090263e-02
4.292916934192095302e-02
4.217779266499075558e-02
4.141055972443039024e-02
4.062680356637563689e-02
3.982588866046479770e-02
3.900722003800232568e-02
3.817025211145921165e-02
3.731449709222410538e-02
3.643953294991519182e-02
3.554501080475709618e-02
3.463066160585631659e-02
3.369630200716598051e-02
3.274183941281116894e-02
3.176727599348045522e-02
3.077271176247577122e-02
2.975834652688485321e-02
2.872448065022316366e-02
2.767151469482979562e-02
2.659994792120445872e-02
2.551037561735402734e-02
2.440348522950737051e-02
2.328005134322191222e-02
2.214092967792238506e-02
2.098704997870473946e-02
1.981940814049480692e-02
1.863905743519280941e-02
1.744709906811964945e-02
1.624467217124987706e-02
1.503294331749462781e-02
1.381309583124900112e-02
1.258631894170738133e-02
1.135379696057078544e-02
1.011669872364345801e-02
8.876167300448288555e-03
7.633310280162916225e-03
6.389190751480993205e-03
5.144819026220864150e-03
3.901145319541966631e-03
2.659053529137463210e-03
1.419356142139838834e-03
1.827904415786001590e-04
-1.049984024613681653e-03
-2.278386569837552878e-03
-3.501915096414742919e-03
-4.720144453965314027e-03
-5.932723392783798531e-03
-7.139370225992873638e-03
-8.339867181868571358e-03
-9.534053628909527553e-03
-1.072181814396770336e-02
-1.190308971737739918e-02
-1.307782813060117018e-02
-1.424601367421167268e-02
-1.540763647363861677e-02
-1.656268546504673436e-02
-1.771113733335055729e-02
-1.885294549658241350e-02
-1.998802941550634552e-02
-2.111626446861131559e-02
-2.223747243632651777e-02
-2.335141289575175597e-02
-2.445777568465288404e-02
-2.555617455596403617e-02
-2.664614207987270333e-02
-2.772712609790203842e-02
-2.879848768066262804e-02
-2.985950072529262866e-02
-3.090935322826294379e-02
-3.194715020956117452e-02
-3.297191832275162687e-02
-3.398261208356849472e-02
-3.497812169519120412e-02
-3.595728230541583859e-02
-3.691888465061538699e-02
-3.786168689769012219e-02
-3.878442751714354653e-02
-3.968583900333523540e-02
-4.056466235431658435e-02
-4.141966179111304658e-02
-4.224963981429191023e-02
-4.305345216764766558e-02
-4.383002257553912651e-02
-4.457835689786700251e-02
-4.529755650038602005e-02
-4.598683076067416886e-02
-4.664550819855557695e-02
-4.727304633871120404e-02
-4.786903994906081122e-02
-4.843322745773428334e-02
-4.896549550317521454e-02
-4.946588156640468331e-02
-4.993457446727394416e-02
-5.037191273778979933e-02
-5.077838083283083004e-02
-5.115460332414899225e-02
-5.150133691174250267e-02
-5.181946057553265400e-02
-5.210996376085576948e-02
-5.237393300237450089e-02
-5.261253685735037960e-02
-5.282700964907176278e-02
-5.301863403554252924e-02
-5.318872283084920966e-02
-5.333860017181441676e-02
-5.346958238767753752e-02
-5.358295886343794612e-02
-5.367997317047934480e-02
-5.376180482513718412e-02
-5.382955177651348178e-02
-5.388421413568188212e-02
-5.392667919450435526e-02
-5.395770805440452261e-02
-5.397792419342072739e-02
-5.398780394743575572e-02
-5.398766923340203583e-02
-5.397768264190375836e-02
-5.395784481656417525e-02
-5.392799444153785482e-02
-5.388781063580250913e-02
-5.383681786798989038e-02
-5.377439335716104746e-02
-5.369977675255007549e-02
-5.361208201139104623e-02
-5.351031133329945538e-02
-5.339337100499089855e-02
-5.326008887862205415e-02
-5.310923315857266763e-02
-5.293953235855081152e-02
-5.274969602270702246e-02
-5.253843600727804708e-02
-5.230448802994237117e-02
-5.204663297763694602e-02
-5.176371781474841532e-02
-5.145467576453859743e-02
-5.111854538679306420e-02
-5.075448841270081141e-02
-5.036180594745578998e-02
-4.993995275089518904e-02
-4.948854949620500043e-02
-4.900739275023770214e-02
-4.849646256066108413e-02
-4.795592751893294758e-02
-4.738614722949258118e-02
-4.678767213750465587e-02
-4.616124070058135603e-02
-4.550777396384726725e-02
-4.482836765918184196e-02
-4.412428186961230708e-02
-4.339692852104053145e-02
-4.264785674481416655e-02
-4.187873646048386606e-02
-4.109134039976616859e-02
-4.028752477733293924e-02
-3.946920900972902824e-02
-3.863835473785398600e-02
-3.779694442427030537e-02
-3.694695995319732806e-02
-3.609036143205945901e-02
-3.522906666846485624e-02
-3.436493141377352373e-02
-3.349973087972572816e-02
-3.263514270411300294e-02
-3.177273162949272034e-02
-3.091393611607447592e-02
-3.006005713421113293e-02
-2.921224913663114653e-02
-2.837151350749769763e-02
-2.753869452031694129e-02
-2.671447785339624292e-02
-2.589939159020202691e-02
-2.509380980458486565e-02
-2.429795853170125391e-02
-2.351192408404590914e-02
-2.273566351750059070e-02
-2.196901710400118307e-02
-2.121172259445739880e-02
-2.046343100375197857e-02
-1.972372367483622019e-02
-1.899213037253175140e-02
-1.826814799572814424e-02
-1.755125967973567708e-02
-1.684095398074616015e-02
-1.613674382873877405e-02
-1.543818481911243996e-02
-1.474489274075231962e-02
-1.405655993937418753e-02
-1.337297012620665936e-02
-1.269401161233356216e-02
-1.201968860312960762e-02
-1.135013043142054680e-02
-1.068559851563008478e-02
-1.002649099466553645e-02
-9.373344822882908114e-03
-8.726835461094876317e-03
-8.087774005012374895e-03
-7.457101836497698200e-03
-6.835882827163184891e-03
-6.225293299119351483e-03
-5.626609827809415064e-03
-5.041194973765816822e-03
-4.470481346112012422e-03
-3.915954041117358786e-03
-3.379131815936905342e-03
-2.861547232999466384e-03
-2.364726133111840715e-03
-1.890166678646668140e-03
-1.439318299586223428e-03
-1.013560872670363428e-03
-6.141843078067109329e-04
-2.423690861733235867e-04
1.008321366036893244e-04
4.145115750436513167e-04
6.979217148995464637e-04
9.504888070430018553e-04
1.171824360409736690e-03
1.361734420115391338e-03
1.520226389472042680e-03
1.647513410856942624e-03
1.744016272758455721e-03
1.810362619459400047e-03
1.847383658240984907e-03
1.856108370539338772e-03
1.837755311674192475e-03
1.793722072047607662e-03
1.725572483500501441e-03
1.635021826620136880e-03
1.523920189892949894e-03
1.394234262190856321e-03
1.248027788132611117e-03
1.087440921011791203e-03
9.146687957080523908e-04
7.319395565634433630e-04
5.414921837270517731e-04
3.455543841715971276e-04
1.463207773833587709e-04
-5.406826525991028748e-05
-2.535469372916402449e-04
-4.501430988905921293e-04
-6.419960729422541628e-04
-8.273727844066742099e-04
-1.004682192624088569e-03
-1.172487775632853136e-03
-1.329517931326130260e-03
-1.474674265829868788e-03
-1.607037600357541637e-03
-1.725871744027382155e-03
-1.830624953963718663e-03
-1.920929155910204057e-03
-1.996597036134055512e-03
-2.057616913656613433e-03
-2.104145714695252606e-03
-2.136500015684693072e-03
-2.155145378773492843e-03
-2.160684209948364638e-03
-2.153842236014831373e-03
-2.135453879094186165e-03
-2.106446821613887702e-03
-2.067825766015336797e-03
-2.020655882005077588e-03
-1.966045999629830333e-03
-1.905131847338345334e-03
-1.839059553261858295e-03
-1.768969629417149921e-03
-1.695981644045260316e-03
-1.621179756187943145e-03
-1.545599296751309004e-03
-1.470214587925787117e-03
-1.395928064106633035e-03
-1.323560785971881863e-03
-1.253844618020411158e-03
-1.187415929077972367e-03
-1.124810965918314693e-03
-1.066462848379970667e-03
-1.012700298080809226e-03
-9.637478871929000242e-04
-9.197279341811654329e-04
-8.806638591052917426e-04
-8.464849566907525465e-04
-8.170324867096600760e-04
-7.920668791818298929e-04
-7.712759930833848173e-04
-7.542842981708106640e-04
-7.406627573353034150e-04
-7.299392040985233253e-04
-7.216091832923245781e-04
-7.151470113624715805e-04
-7.100168656578463491e-04
-7.056837814123408928e-04
-7.016243759229540914e-04
-6.973371199548230063e-04
-6.923521051868865728e-04
-6.862401717645618456e-04
-6.786210854422192922e-04
-6.691708840326008852e-04
-6.576282712756558553e-04
-6.437998572604002739e-04
-6.275643519912958625e-04
-6.088755541672008845e-04
-5.877641960261518594e-04
-5.643385231137691563e-04
-5.387837432604540870e-04
-5.113603474810566067e-04
-4.824012463748652570e-04
-4.523078973726086128e-04
-4.215453858618841690e-04
-3.906366216767261351e-04
-3.601556970551079398e-04
-3.307205102388622881e-04
-3.029847239538979806e-04
-2.776292614825360845e-04
-2.553533177541380443e-04
-2.368651147067742471e-04
-2.228724863440944626e-04
-2.140733158989399361e-04
-2.111460768763198453e-04
-2.147405705548900299e-04
-2.254688321983560880e-04
-2.438965023821671276e-04
-2.705345962543622448e-04
-3.058318407044897003e-04
-3.501676217877348223e-04
-4.038456881744035914e-04
-4.670885624475613418e-04
-5.400328132121709653e-04
-6.227251726519072821e-04
-7.151195617305377986e-04
-8.170750787885539207e-04
-9.283548517464891440e-04
-1.048625945927699529e-03
-1.177460145103020710e-03
-1.314335761590139937e-03
-1.458640263907183630e-03
-1.609673938824167545e-03
-1.766654301453562080e-03
-1.928721387273634813e-03
-2.094943790547733331e-03
-2.264325545713077783e-03
-2.435813537490991599e-03
-2.608305607513225488e-03
-2.780659186122417820e-03
-2.951700416100948646e-03
-3.120233678403315763e-03
-3.285051420142115312e-03
-3.444944274017370123e-03
-3.598711310754598366e-03
-3.745170326668825593e-03
-3.883168265953505956e-03
-4.011591474784881664e-03
-4.129375767629207827e-03
-4.235516309584797835e-03
-4.329077119591862206e-03
-4.409200197970291474e-03
-4.475114150748671880e-03
-4.526142299038153106e-03
-4.561710080408806420e-03
-4.581351843874698418e-03
-4.584716764016772556e-03
-4.571574020338705670e-03
-4.541817027525524471e-03
-4.495466748666240159e-03
-4.432674035185106727e-03
-4.353720896837121219e-03
-4.259020760527920668e-03
-4.149117614640326392e-03
-4.024684080026597922e-03
-3.886518403488157646e-03
-3.735540289276102505e-03
-3.572785644186190698e-03
-3.399400287777118879e-03
-3.216632570451510333e-03
-3.025824954673545820e-03
-2.828404643711382015e-03
-2.625873293977375785e-03
-2.419795926787847180e-03
-2.211788971641274505e-03
-2.003507690706700026e-03
-1.796632997795904975e-03
-1.592857820145294600e-03
-1.393872976377832961e-03
-1.201352828480990991e-03
-1.016940847709598295e-03
-8.422351566707805045e-04
-6.787740888763676810e-04
-5.280221440074489309e-04
-3.913562327932973190e-04
-2.700525110519727762e-04
-1.652738337397525450e-04
-7.805802169734239932e-05
-9.307056341024989301e-06
4.022267478157144166e-05
6.992893544088168208e-05
7.937091617879350996e-05
6.827518311292504337e-05
3.654007926584662536e-05
-1.576143880559043579e-05
-8.838044813675248305e-05
-1.808925133137855631e-04
-2.926997286415035219e-04
-4.230345284371956152e-04
-5.709651782489183307e-04
-7.354030037849616352e-04
-9.151112284987793872e-04
-1.108715399755009177e-03
-1.314715320028663663e-03
-1.531498495452469910e-03
-1.757354840559240518e-03
-1.990492595181511237e-03
-2.229055207390694213e-03
-2.471139285033238566e-03
-2.714813079644508385e-03
-2.958135626322054741e-03
-3.199176206068247725e-03
-3.436033918379413545e-03
-3.666857198232699715e-03
-3.889863103736954705e-03
-4.103356056951045286e-03
-4.305745933065878613e-03
-4.495565192893255166e-03
-4.671484942611983313e-03
-4.832329610636233209e-03
-4.977090223393536295e-03
-5.104935943455502639e-03
-5.215223821006885474e-03
-5.307506521676683652e-03
-5.381538015081614723e-03
-5.437277091787304228e-03
-5.474888526205212887e-03
-5.494742030587514668e-03
-5.497408837068615446e-03
-5.483655902971635437e-03
-5.454437835707703908e-03
-5.410886582877413170e-03
-5.354298952522599381e-03
-5.286122057746533119e-03
-5.207936817924752916e-03
-5.121439761705690041e-03
-5.028423201401464697e-03
-4.930754118541449960e-03
-4.830351868934370727e-03
-4.729165008345216463e-03
-4.629147525197995459e-03
-4.532234675334344438e-03
-4.440318777656933162e-03
-4.355225292138233638e-03
-4.278689324518602545e-03
-4.212333027553328071e-03
-4.157644046383663673e-03
-4.115955350648788785e-03
-4.088426722553816298e-03
-4.076028089609716118e-03
-4.079525026730946094e-03
-4.099466560681387130e-03
-4.136175456341840799e-03
-4.189741212350370225e-03
-4.260015768217525860e-03
-4.346612163266286473e-03
-4.448906050270268718e-03
-4.566040189325415097e-03
-4.696931853680700458e-03
-4.840283093992286956e-03
-4.994593793474594486e-03
-5.158177329431743070e-03
-5.329178715545676917e-03
-5.505595063142194011e-03
-5.685297998633326820e-03
-5.866057868335839906e-03
-6.045569477612659261e-03
-6.221478975430485420e-03
-6.391411583173949723e-03
-6.552999818927046291e-03
-6.703911858398857969e-03
-6.841879692986108097e-03
-6.964726694142923773e-03
-7.070394207289930691e-03
-7.156966871225101459e-03
-7.222696241860056959e-03
-7.266022572435000895e-03
-7.285594227138100266e-03
-7.280284630910366199e-03
-7.249206480466717853e-03
-7.191722957691285001e-03
-7.107455847758398573e-03
-6.996290458230465352e-03
-6.858377157470067070e-03
-6.694129630457144875e-03
-6.504219690518696362e-03
-6.289568945074625050e-03
-6.051337268195129682e-03
-5.790908147160602273e-03
-5.509871334411635055e-03
-5.210002796804989213e-03
-4.893242463311271197e-03
-4.561669887873109203e-03
-4.217478287010164965e-03
-3.862947229564342617e-03
-3.500414361692248070e-03
-3.132246683505733337e-03
-2.760811637712769044e-03
-2.388448461450556632e-03
-2.017440310895672172e-03
-1.649987400969012662e-03
-1.288181583001041762e-03
-9.339827749501702003e-04
-5.891976025160788758e-04
-2.554604083849447275e-04
6.578298136469189032e-05
3.732885455142913940e-04
6.660242263872649237e-04
9.431768528504472704e-04
1.204155707248880276e-03
1.448592693098761175e-03
1.676339266893572778e-03
1.887459961921195226e-03
2.082222779803111299e-03
2.261086757006030169e-03
2.424686660315566230e-03
2.573815222016032859e-03
2.709403166513237645e-03
2.832497459790801145e-03
2.944238046119338446e-03
3.045833526893598157e-03
3.138536141492684686e-03
3.223616559769092518e-03
3.302338801526170237e-03
3.375935781671899130e-03
3.445585877547973665e-03
3.512390868788419895e-03
3.577355758406572297e-03
3.641370609099193502e-03
3.705194928024083990e-03
3.769444594498715714e-03
3.834581850291320960e-03
3.900908323218334715e-03
3.968561270883942671e-03
4.037513032341431135e-03
4.107573887575320312e-03
4.178398051985306519e-03
4.249492861706501839e-03
4.320230841571575872e-03
4.389864567519450970e-03
4.457544034808628118e-03
4.522336159572988568e-03
4.583246137253397037e-03
4.639240283407504266e-03
4.689269853445711921e-03
4.732295513574518928e-03
4.767311966770704061e-03
4.793372269166369486e-03
4.809611463955893763e-03
4.815268989579299733e-03
4.809709531941505287e-03
4.792441871203600295e-03
4.763135311991321605e-03
4.721633470843507666e-03
4.667965065039030199e-03
4.602351483641672902e-03
4.525210984012215457e-03
4.437159325679495073e-03
4.339006838597177229e-03
4.231751882976979469e-03
4.116570799762751635e-03
3.994804376492877909e-03
3.867941177014737244e-03
3.737597798785856091e-03
3.605496488892685585e-03
3.473440347091879491e-03
3.343286612298159658e-03
3.216918342817330547e-03
3.096215046650516601e-03
2.983022685692890159e-03
2.879123531615647696e-03
2.786206460640973989e-03
2.705838081858253589e-03
2.639435237751855401e-03
2.588239382066577585e-03
2.553293182104502367e-03
2.535419864648907722e-03
2.535205660918963665e-03
2.552985596494188048e-03
2.588832936984366510e-03
2.642552530141629649e-03
2.713678140222636204e-03
2.801473898648074862e-03
2.904939904201085579e-03
3.022821798434725642e-03
3.153624406680588781e-03
3.295629076308214528e-03
3.446914536926438781e-03
3.605380992197241511e-03
3.768777004667841699e-03
3.934728919673585734e-03
4.100772239829671671e-03
4.264384545822278404e-03
4.423019375586071181e-03
4.574140634263782097e-03
4.715256929701616175e-03
4.843955341171028543e-03
4.957934071507025774e-03
5.055033487586953894e-03
5.133265050981169510e-03
5.190837628990627173e-03
5.226180947536187942e-03
5.237965600903554154e-03
5.225119509281173080e-03
5.186840499483420623e-03
5.122604781884801048e-03
5.032171206947813266e-03
4.915581307592438096e-03
4.773155124073384659e-03
4.605482896412447028e-03
4.413412642958774133e-03
4.198034043180452063e-03
3.960658788815511755e-03
3.702797716699048492e-03
3.426135158814830068e-03
3.132500788254930380e-03
2.823839602741633811e-03
2.502180427556714541e-03
2.169603421791816301e-03
1.828207151465279217e-03
1.480075643291972826e-03
1.127246040238279005e-03
7.716774297421475932e-04
4.152210794337828624e-04
5.959279636186801181e-05
-2.936524278451826085e-04
-6.431429283904902200e-04
-9.877097459282183078e-04
-1.326402643364769192e-03
-1.658502459726464862e-03
-1.983529757827605291e-03
-2.301249584131090289e-03
-2.611672244830250036e-03
-2.915050260171215494e-03
-3.211871442539774614e-03
-3.502848290403342679e-03
-3.788903883003509436e-03
-4.071154485362877933e-03
-4.350889154210019032e-03
-4.629546696247939519e-03
-4.908690291332222511e-03
-5.189980195463980359e-03
-5.475144874219285002e-03
-5.765951062074085517e-03
-6.064173148281490344e-03
-6.371562275802948941e-03
-6.689815647460199168e-03
-7.020546400430323353e-03
-7.365254515161868791e-03
-7.725299052495459944e-03
-8.101872172731035618e-03
-8.495975157230127583e-03
-8.908396786453217503e-03
-9.339694351634918179e-03
-9.790177378881916026e-03
-1.025989442008804278e-02
-1.074862295355892214e-02
-1.125586248283381302e-02
-1.178083091822656504e-02
-1.232246420140854955e-02
-1.287941921714251016e-02
-1.345007988921285286e-02
-1.403256634943303265e-02
-1.462474706597590053e-02
-1.522425391620380736e-02
-1.582849982132695371e-02
-1.643469884630167910e-02
-1.703988852403159893e-02
-1.764095420153614577e-02
-1.823465517768235039e-02
-1.881765233459487333e-02
-1.938653702818791610e-02
-1.993786096900648439e-02
-2.046816690690211188e-02
-2.097401973975531950e-02
-2.145203780175051686e-02
-2.189892415393371317e-02
-2.231149753626108720e-02
-2.268672272471656398e-02
-2.302174020738088911e-02
-2.331389470320615817e-02
-2.356076244266026160e-02
-2.376017688089011870e-02
-2.391025274781321749e-02
-2.400940817397951080e-02
-2.405638451993029683e-02
-2.405026401865023589e-02
-2.399048472711985333e-02
-2.387685277752414972e-02
-2.370955181412079740e-02
-2.348914935976179064e-02
-2.321659988870278940e-02
-2.289324465064361894e-02
-2.252080809842141318e-02
-2.210139086963485572e-02
-2.163745906118239720e-02
-2.113183009283060160e-02
-2.058765492299215877e-02
-2.000839682299936084e-02
-1.939780652959922219e-02
-1.875989422909924570e-02
-1.809889830909852670e-02
-1.741925108478104695e-02
-1.672554179304617389e-02
-1.602247710194459884e-02
-1.531483953539745750e-02
-1.460744413603632524e-02
-1.390509365723874638e-02
-1.321253288113725076e-02
-1.253440256693435888e-02
-1.187519336215519389e-02
-1.123920036660692491e-02
-1.063047893140745860e-02
-1.005280196308109067e-02
-9.509619679253018820e-03
-9.004022168020630809e-03
-8.538705261277904426e-03
-8.115940428043741384e-03
-7.737548966544535722e-03
-7.404881159057819309e-03
-7.118800618560748410e-03
-6.879674250617103144e-03
-6.687368074898785049e-03
-6.541249198651380783e-03
-6.440194012099578064e-03
-6.382602509040873062e-03
-6.366418906070636478e-03
-6.389158226023035174e-03
-6.447938755449715217e-03
-6.539519924583855372e-03
-6.660345203036662810e-03
-6.806589441224379991e-03
-6.974210209671177774e-03
-7.159002300171401004e-03
-7.356654614336740998e-03
-7.562808795214079338e-03
-7.773118500413718143e-03
-7.983308552296371555e-03
-8.189233077120355864e-03
-8.386931673206055385e-03
-8.572682627859908033e-03
-8.743052415186278875e-03
-8.894940502156419362e-03
-9.025618706068308864e-03
-9.132764456400238595e-03
-9.214487244194994459e-03
-9.269347773092857790e-03
-9.296369375475250357e-03
-9.295041385196265923e-03
-9.265314352164655265e-03
-9.207587073581449677e-03
-9.122685566692864678e-03
-9.011834164791442461e-03
-8.876619293619226678e-03
-8.718946366461626657e-03
-8.540990523527068959e-03
-8.345142068771104968e-03
-8.133947424352871297e-03
-7.910046813946403771e-03
-7.676109514834134062e-03
-7.434768254043932177e-03
-7.188553597739896946e-03
-6.939829723934455574e-03
-6.690732894260352850e-03
-6.443113802002330311e-03
-6.198484934573466124e-03
-5.957974249409938444e-03
-5.722286009414880373e-03
-5.491669830792753407e-03
-5.265898610583666720e-03
-5.044256138060606784e-03
-4.825534754806404258e-03
-4.608043409597259790e-03
-4.389626286320012609e-03
-4.167691771081945967e-03
-3.939251644863936939e-03
-3.700969908063816982e-03
-3.449220678519809586e-03
-3.180154173955357204e-03
-2.889769790551836599e-03
-2.573995134153551478e-03
-2.228769617351418920e-03
-1.850131135402525431e-03
-1.434304258673533726e-03
-9.777884190108137273e-04
-4.774441799321371064e-04
6.942394838813224398e-05
6.649897873688329466e-04
1.310834621299211819e-03
2.007884625821068723e-03
2.756358126972003209e-03
3.555723913730508140e-03
4.404671775015988645e-03
5.301096121801077837e-03
6.242093526321354328e-03
7.223974632820929533e-03
8.242290529000261337e-03
9.291873758257239088e-03
1.036689353668732681e-02
1.146092469728564323e-02
1.256702941333988702e-02
1.367785078638543081e-02
1.478571676305048647e-02
1.588275301822587166e-02
1.696100290608833910e-02
1.801255258817643229e-02
1.902965928034771811e-02
2.000488043253101367e-02
2.093120149791468862e-02
2.180216000422267181e-02
2.261196379474024812e-02
2.335560099895139796e-02
2.402893967588985713e-02
2.462881505358416323e-02
2.515310263687858816e-02
2.560077538166126779e-02
2.597194365702552507e-02
2.626787690731809469e-02
2.649100611716101797e-02
2.664490661561357693e-02
2.673426107087065878e-02
2.676480294728696835e-02
2.674324098474111303e-02
2.667716551521786758e-02
2.657493805190272451e-02
2.644556568253157366e-02
2.629856213901292719e-02
2.614379792416525808e-02
2.599134180882380074e-02
2.585129649303784943e-02
2.573363121648367807e-02
2.564801435821247033e-02
2.560364908749263382e-02
2.560911511238686197e-02
2.567221969931970590e-02
2.579986086029540521e-02
2.599790557678459055e-02
2.627108573296062927e-02
2.662291409018856594e-02
2.705562253763664493e-02
2.757012422719960082e-02
2.816600113933185462e-02
2.884151804724546450e-02
2.959366333379711417e-02
3.041821690483793861e-02
3.130984462842228977e-02
3.226221860901241217e-02
3.326816183475109906e-02
3.431981545306492937e-02
3.540882644489869863e-02
3.652655292983267299e-02
3.766428420322697618e-02
3.881347189264329478e-02
3.996596870513773048e-02
4.111427077723672080e-02
4.225175943191977757e-02
4.337293816396939339e-02
4.447366063775148176e-02
4.555134518590396586e-02
4.660517185904178988e-02
4.763625774336391339e-02
4.864780692469369144e-02
4.964523139201206664e-02
5.063623992005547580e-02
5.163089195891529953e-02
5.264161422872465357e-02
5.368317837222928018e-02
5.477263824954665267e-02
5.592922631799127076e-02
5.717420885018296289e-02
5.853070077470200194e-02
6.002344106273904689e-02
6.167853053266484503e-02
6.352313440187638827e-02
6.558515259241799733e-02
6.789286105711006547e-02
7.047452834041866010e-02
7.335801154026849735e-02
7.657033666067897260e-02
8.013726836342283111e-02
8.408287446910424345e-02
8.842909085210595710e-02
9.319529236209207756e-02
9.839787537472084733e-02
1.040498576439022049e-01
1.101605010044481858e-01
1.167349622181743374e-01
1.237739768455360240e-01
1.312735809376429363e-01
1.392248746871019016e-01
1.476138318163648933e-01
1.564211579720842515e-01
1.656222007359484660e-01
1.751869132625475389e-01
1.850798729228070316e-01
1.952603557600227635e-01
2.056824667401929707e-01
2.162953252895396805e-01
2.270433048439187140e-01
2.378663244762382056e-01
2.487001900644286723e-01
2.594769820926753900e-01
2.701254863667393313e-01
2.805716635653366375e-01
2.907391532621426133e-01
3.005498073068125220e-01
3.099242477363146064e-01
3.187824436399362416e-01
3.270443015175419355e-01
3.346302634851496260e-01
3.414619079071194996e-01
3.474625465060661167e-01
3.525578128050377846e-01
3.566762366524402483e-01
3.597497996048640290e-01
3.617144666056166247e-01
3.625106895782008176e-01
3.620838787802100889e-01
3.603848386016679228e-01
3.573701643918150150e-01
3.530025978349694005e-01
3.472513385473762204e-01
3.400923103286956906e-01
3.315083806216364559e-01
3.214895325418842820e-01
3.100329891334256405e-01
2.971432898534923095e-01
2.828323199178399139e-01
2.671192933007714432e-01
2.500306907290389957e-01
2.316001539730865311e-01
2.118683384700835726e-01
1.908827260519144475e-01
1.686974001723130778e-01
1.453727858270509599e-01
1.209753566728896806e-01
9.557731181268197540e-02
6.925622489062155385e-02
4.209466794685893382e-02
1.417981264638945756e-02
-1.439698865545511325e-02
-4.354063963349381894e-02
-7.315275201010705552e-02
-1.031321106732015908e-01
-1.333751497246837836e-01
-1.637764372955724246e-01
-1.942291672221209686e-01
-2.246256554619948664e-01
-2.548578394997401686e-01
-2.848177789551506467e-01
-3.143981555036141629e-01
-3.434927704334013732e-01
-3.719970380988094627e-01
-3.998084734197504542e-01
-4.268271716895166157e-01
-4.529562790073206058e-01
-4.781024512739819876e-01
-5.021762999843045749e-01
-5.250928226737332505e-01
-5.467718161677824762e-01
-5.671382703423742955e-01
-5.861227402925381913e-01
-6.036616945923677369e-01
-6.196978375257037319e-01
-6.341804028458131182e-01
-6.470654168387572902e-01
-6.583159283892670022e-01
-6.679022039302411340e-01
-6.758018851586662379e-01
-6.820001073996460050e-01
-6.864895769595804609e-01
-6.892706057900759298e-01
-6.903511020834410816e-01
-6.897465157014641690e-01
-6.874797376255573633e-01
-6.835809529950368502e-01
-6.780874476360861935e-01
-6.710433684061951620e-01
-6.624994381041332536e-01
-6.525126262037563851e-01
-6.411457769431382347e-01
-6.284671969178953210e-01
-6.145502046692945530e-01
-5.994726454220961065e-01
-5.833163741440554606e-01
-5.661667110044180662e-01
-5.481118732591306886e-01
-5.292423881827151844e-01
-5.096504918315557520e-01
-4.894295188154215714e-01
-4.686732882849046211e-01
-4.474754915528302290e-01
-4.259290867433345174e-01
-4.041257061423637609e-01
-3.821550815092481512e-01
-3.601044926477692809e-01
-3.380582444664521069e-01
-3.160971771228311411e-01
-2.942982139381218332e-01
-2.727339510836103709e-01
-2.514722927113854922e-01
-2.305761346754572338e-01
-2.101030994327675039e-01
-1.901053242034590751e-01
-1.706293038162802478e-01
-1.517157888911196129e-01
-1.333997396313007233e-01
-1.157103347269793220e-01
-9.867103413254985078e-02
-8.229969390708379018e-02
-6.660873094568064978e-02
-5.160533440844383007e-02
-3.729172054079388232e-02
-2.366542675911509352e-02
-1.071964079040185931e-02
1.556440030036642741e-03
1.317722427026724909e-02
2.416032200134014471e-02
3.452612600236196899e-02
4.429738398407164629e-02
5.349876729085253912e-02
6.215644163892358742e-02
7.029764506634231247e-02
7.795027820556672815e-02
8.514251154317387105e-02
9.190241418080878633e-02
9.825760806179324736e-02
1.042349510514043315e-01
1.098602521663114562e-01
1.151580212299453398e-01
1.201512549209919067e-01
1.248612606099057387e-01
1.293075187485143440e-01
1.335075839461917491e-01
1.374770243177201312e-01
1.412293981302023549e-01
1.447762663392101468e-01
1.481272389263449674e-01
1.512900527144569185e-01
1.542706777524541217e-01
1.570734490561491448e-01
1.597012203256400475e-01
1.621555359049826339e-01
1.644368170854428601e-01
1.665445589330171172e-01
1.684775334625589205e-01
1.702339954596849281e-01
1.718118868922582643e-01
1.732090364169167340e-01
1.744233504511399913e-01
1.754529925814147517e-01
1.762965485137214516e-01
1.769531740704494704e-01
1.774227240183282039e-01
1.777058601337172805e-01
1.778041370655129016e-01
1.777200654036160954e-01
1.774571513129436229e-01
1.770199129367356627e-01
