-1.226456719509534047e-04
-1.199890122308818407e-04
-1.173320254225212870e-04
-1.146747114922196261e-04
-1.120170704063554504e-04
-1.093591021313378592e-04
-1.067008066336062552e-04
-1.040421838796300598e-04
-1.013832338359085643e-04
-9.872395646897061806e-05
-9.606435174537435748e-05
-9.340441963170701615e-05
-9.074416009458464039e-05
-8.808357310065187233e-05
-8.542265861658165178e-05
-8.276141660907501295e-05
-8.009984704486074560e-05
-7.743794989069520537e-05
-7.477572511336201555e-05
-7.211317267967182318e-05
-6.945029255646210931e-05
-6.678708471059690438e-05
-6.412354910896655785e-05
-6.145968571848748068e-05
-5.879549450610190817e-05
-5.613097543877764247e-05
-5.346612848350783574e-05
-5.080095360731075972e-05
-4.813545077722952795e-05
-4.546961996033189925e-05
-4.280346112370999310e-05
-4.013697423448005247e-05
-3.747015925978223376e-05
-3.480301616678034256e-05
-3.213554492266156932e-05
-2.946774549463626236e-05
-2.679961784993770431e-05
-2.413116195582186806e-05
-2.146237777956718648e-05
-1.879326528847431515e-05
-1.612382444986588850e-05
-1.345405523108629951e-05
-1.078395759950146938e-05
-8.113531522498600130e-06
-5.442776967485945124e-06
-2.771693901892573967e-06
-1.002822931681378549e-07
2.571457891217356382e-06
5.243526683773776649e-06
7.915924116991096855e-06
1.058865022333962411e-05
1.326170503527022909e-05
1.593508858521457177e-05
1.860880090558534363e-05
2.128284202877649137e-05
2.395721198716343364e-05
2.663191081310329320e-05
2.930693853893514425e-05
3.198229519698020889e-05
3.465798081954207739e-05
3.733399543890696570e-05
4.001033908734391532e-05
4.268701179710499997e-05
4.536401360042558313e-05
4.804134452952451450e-05
5.071900461660437399e-05
5.339699389385163433e-05
5.607531239343691856e-05
5.875396014751524398e-05
6.143293718822625258e-05
6.411224354769438037e-05
6.679187925802914207e-05
6.947184435132533432e-05
7.215213885966327968e-05
7.483276281510905701e-05
7.751371624971465052e-05
8.019499919551812599e-05
8.287661168454390180e-05
8.555855374880288447e-05
8.824082542029273969e-05
9.092342673099816338e-05
9.360635771289105788e-05
9.628961839793078945e-05
9.897320881806429666e-05
1.016571290052263750e-04
1.043413789913398939e-04
1.070259588083160131e-04
1.097108684880544001e-04
1.123961080624434329e-04
1.150816775633603089e-04
1.177675770226712206e-04
1.204538064722316678e-04
1.231403659438866740e-04
1.258272554694710578e-04
1.285144750808095817e-04
1.312020248097171013e-04
1.338899046879988230e-04
1.365781147474504390e-04
1.392666550198583448e-04
1.419555255369998555e-04
1.446447263306434230e-04
1.473342574325488795e-04
1.500241188744675194e-04
1.527143106881422886e-04
1.554048329053081643e-04
1.580956855576923171e-04
1.607868686770143557e-04
1.634783822949864888e-04
1.661702264433135797e-04
1.688624011536935801e-04
1.715549064578176380e-04
1.742477423873703152e-04
1.769409089740297766e-04
1.796344062494679799e-04
1.823282342453507571e-04
1.850223929933379502e-04
1.877168825250836277e-04
1.904117028722364369e-04
1.931068540664396857e-04
1.958023361393315860e-04
1.984981491225454439e-04
2.011942930477098491e-04
2.038907679464488647e-04
2.065875738503822172e-04
2.092847107911255129e-04
2.119821788002903195e-04
2.146799779094843289e-04
2.173781081503115464e-04
2.200765695543727249e-04
2.227753621532654459e-04
2.254744859785842010e-04
2.281739410619206898e-04
2.308737274348640915e-04
2.335738451290010642e-04
2.362742941759159621e-04
2.389750746071910795e-04
2.416761864544068406e-04
2.443776297491421514e-04
2.470794045229744002e-04
2.497815108074797285e-04
2.524839486342330850e-04
2.551867180348084971e-04
2.578898190407789620e-04
2.605932516837169348e-04
2.632970159951944370e-04
2.660011120067831648e-04
2.687055397500548145e-04
2.714102992565812448e-04
2.741153905579347483e-04
2.768208136856881597e-04
2.795265686714151266e-04
2.822326555466899475e-04
2.849390743430879505e-04
2.876458250921856566e-04
2.903529078255607794e-04
2.930603225747928755e-04
2.957680693714630736e-04
2.984761482471546168e-04
3.011845592334526996e-04
3.038933023619446849e-04
3.066023776642203750e-04
3.093117851718721746e-04
3.120215249164951985e-04
3.147315969296875975e-04
3.174420012430506665e-04
3.201527378881888989e-04
3.228638068967101490e-04
3.255752083002259032e-04
3.282869421303513343e-04
3.309990084187055181e-04
3.337114071969114336e-04
3.364241384965963966e-04
3.391372023493922222e-04
3.418505987869355505e-04
3.445643278408677917e-04
3.472783895428349101e-04
3.499927839244880196e-04
3.527075110174834926e-04
3.554225708534826888e-04
3.581379634641526058e-04
3.608536888811660417e-04
3.635697471362015409e-04
3.662861382609433397e-04
3.690028622870818544e-04
3.717199192463138441e-04
3.744373091703422475e-04
3.771550320908765631e-04
3.798730880396329569e-04
3.825914770483348050e-04
3.853101991487126936e-04
3.880292543725045811e-04
3.907486427514560699e-04
3.934683643173201889e-04
3.961884191018573941e-04
3.989088071368356763e-04
4.016295284540313750e-04
4.043505830852286900e-04
4.070719710622201695e-04
4.097936924168070895e-04
4.125157471807992912e-04
4.152381353860152896e-04
4.179608570642828150e-04
4.206839122474387597e-04
4.234073009673290687e-04
4.261310232558091198e-04
4.288550791447436690e-04
4.315794686660070134e-04
4.343041918514833704e-04
4.370292487330669864e-04
4.397546393426620824e-04
4.424803637121829626e-04
4.452064218735543393e-04
4.479328138587117670e-04
4.506595396996015881e-04
4.533865994281808241e-04
4.561139930764175014e-04
4.588417206762903798e-04
4.615697822597897119e-04
4.642981778589173512e-04
4.670269075056868060e-04
4.697559712321231319e-04
4.724853690702629852e-04
4.752151010521548399e-04
4.779451672098590422e-04
4.806755675754483524e-04
4.834063021810077279e-04
4.861373710586348656e-04
4.888687742404399308e-04
4.916005117585461534e-04
4.943325836450899362e-04
4.970649899322206926e-04
4.997977306521011716e-04
5.025308058369072411e-04
5.052642155188284299e-04
5.079979597300680362e-04
5.107320385028431275e-04
5.134664518693850830e-04
5.162011998619394845e-04
5.189362825127662258e-04
5.216716998541390780e-04
5.244074519183465578e-04
5.271435387376914930e-04
5.298799603444913483e-04
5.326167167710785504e-04
5.353538080498004880e-04
5.380912342130197284e-04
5.408289952931142350e-04
5.435670913224771496e-04
5.463055223335173353e-04
5.490442883586588337e-04
5.517833894303411906e-04
5.545228255810198898e-04
5.572625968431664609e-04
5.600027032492690222e-04
5.627431448318319547e-04
5.654839216233755773e-04
5.682250336564365805e-04
5.709664809635682427e-04
5.737082635773399974e-04
5.764503815303384082e-04
5.791928348551666269e-04
5.819356235844446107e-04
5.846787477508092303e-04
5.874222073869143782e-04
5.901660025254311858e-04
5.929101331990478067e-04
5.956545994404697413e-04
5.983994012824199460e-04
6.011445387576392664e-04
6.038900118988860038e-04
6.066358207389363488e-04
6.093819653105839477e-04
6.121284456466403361e-04
6.148752617799354810e-04
6.176224137433179977e-04
6.203699015696548247e-04
6.231177252918313316e-04
6.258658849427517533e-04
6.286143805553391899e-04
6.313632121625354981e-04
6.341123797973017250e-04
6.368618834926179995e-04
6.396117232814836412e-04
6.423618991969170513e-04
6.451124112719562554e-04
6.478632595396594451e-04
6.506144440331045444e-04
6.533659647853892099e-04
6.561178218296311558e-04
6.588700151989688048e-04
6.616225449265604203e-04
6.643754110455842151e-04
6.671286135892390019e-04
6.698821525907441930e-04
6.726360280833399092e-04
6.753902401002870879e-04
6.781447886748671579e-04
6.808996738403829069e-04
6.836548956301581560e-04
6.864104540775375430e-04
6.891663492158865223e-04
6.919225810785914737e-04
6.946791496990606775e-04
6.974360551107239899e-04
7.001932973470328427e-04
7.029508764414598094e-04
7.057087924274989309e-04
7.084670453386666912e-04
7.112256352085010412e-04
7.139845620705615077e-04
7.167438259584293014e-04
7.195034269057082928e-04
7.222633649460242534e-04
7.250236401130252892e-04
7.277842524403824913e-04
7.305452019617891769e-04
7.333064887109607809e-04
7.360681127216350730e-04
7.388300740275726992e-04
7.415923726625566403e-04
7.443550086603923201e-04
7.471179820549086895e-04
7.498812928799574676e-04
7.526449411694139009e-04
7.554089269571764376e-04
7.581732502771669447e-04
7.609379111633310334e-04
7.637029096496377335e-04
7.664682457700801440e-04
7.692339195586749999e-04
7.719999310494631050e-04
7.747662802765088990e-04
7.775329672739005656e-04
7.802999920757501410e-04
7.830673547161936220e-04
7.858350552293906412e-04
7.886030936495247922e-04
7.913714700108040630e-04
7.941401843474606191e-04
7.969092366937513463e-04
7.996786270839569824e-04
8.024483555523825515e-04
8.052184221333577975e-04
8.079888268612364253e-04
8.107595697703966426e-04
8.135306508952411600e-04
8.163020702701977334e-04
8.190738279297191636e-04
8.218459239082831881e-04
8.246183582403925896e-04
8.273911309605749788e-04
8.301642421033829031e-04
8.329376917033937382e-04
8.357114797952100134e-04
8.384856064134595197e-04
8.412600715927949849e-04
8.440348753678940733e-04
8.468100177734603617e-04
8.495854988442230141e-04
8.523613186149362397e-04
8.551374771203797262e-04
8.579139743953583148e-04
8.606908104747033016e-04
8.634679853932715693e-04
8.662454991859451546e-04
8.690233518876317896e-04
8.718015435332645766e-04
8.745800741578015547e-04
8.773589437962264585e-04
8.801381524835482847e-04
8.829177002548023760e-04
8.856975871450504210e-04
8.884778131893802380e-04
8.912583784229057742e-04
8.940392828807673230e-04
8.968205265981307652e-04
8.996021096101880022e-04
9.023840319521564141e-04
9.051662936592791853e-04
9.079488947668258461e-04
9.107318353100918393e-04
9.135151153243989538e-04
9.162987348450951077e-04
9.190826939075542401e-04
9.218669925471760940e-04
9.246516307993864333e-04
9.274366086996371512e-04
9.302219262834060531e-04
9.330075835861972909e-04
9.357935806435414708e-04
9.385799174909947862e-04
9.413665941641390176e-04
9.441536106985819665e-04
9.469409671299570215e-04
9.497286634939235920e-04
9.525166998261661326e-04
9.553050761623950102e-04
9.580937925383466126e-04
9.608828489897832401e-04
9.636722455524926716e-04
9.664619822622882734e-04
9.692520591550093240e-04
9.720424762665209059e-04
9.748332336327140144e-04
9.776243312895056652e-04
9.804157692728391119e-04
9.832075476186841710e-04
9.859996663630365716e-04
9.887921255419178466e-04
9.915849251913748993e-04
9.943780653474804370e-04
9.971715460463327543e-04
9.999653673240559495e-04
1.002759529216800359e-03
1.005554031760741472e-03
1.008348874992079933e-03
1.011144058947042838e-03
1.013939583661882440e-03
1.016735449172877009e-03
1.019531655516329972e-03
1.022328202728570775e-03
1.025125090845954235e-03
1.027922319904859888e-03
1.030719889941692641e-03
1.033517800992882554e-03
1.036316053094885493e-03
1.039114646284182040e-03
1.041913580597277934e-03
1.044712856070704500e-03
1.047512472741018216e-03
1.050312430644800713e-03
1.053112729818659211e-03
1.055913370299225865e-03
1.058714352123157551e-03
1.061515675327136081e-03
1.064317339947868420e-03
1.067119346022087339e-03
1.069921693586550109e-03
1.072724382678038506e-03
1.075527413333360544e-03
1.078330785589349822e-03
1.081134499482864228e-03
1.083938555050786151e-03
1.086742952330023351e-03
1.089547691357509174e-03
1.092352772170201687e-03
1.095158194805083678e-03
1.097963959299163520e-03
1.100770065689473873e-03
1.103576514013071032e-03
1.106383304307036446e-03
1.109190436608476285e-03
1.111997910954521437e-03
1.114805727382326426e-03
1.117613885929070062e-03
1.120422386631955008e-03
1.123231229528207781e-03
1.126040414655078313e-03
1.128849942049840608e-03
1.131659811749794039e-03
1.134470023792261617e-03
1.137280578214590636e-03
1.140091475054151593e-03
1.142902714348338188e-03
1.145714296134567106e-03
1.148526220450278015e-03
1.151338487332933787e-03
1.154151096820020712e-03
1.156964048949048500e-03
1.159777343757550060e-03
1.162590981283082156e-03
1.165404961563224970e-03
1.168219284635582536e-03
1.171033950537781441e-03
1.173848959307470172e-03
1.176664310982319982e-03
1.179480005600025330e-03
1.182296043198302572e-03
1.185112423814891269e-03
1.187929147487552881e-03
1.190746214254070554e-03
1.193563624152249982e-03
1.196381377219918113e-03
1.199199473494922709e-03
1.202017913015133435e-03
1.204836695818441855e-03
1.207655821942761002e-03
1.210475291426025592e-03
1.213295104306191157e-03
1.216115260621234047e-03
1.218935760409151645e-03
1.221756603707962584e-03
1.224577790555706315e-03
1.227399320990442888e-03
1.230221195050252734e-03
1.233043412773236671e-03
1.235865974197515897e-03
1.238688879361231560e-03
1.241512128302545408e-03
1.244335721059639356e-03
1.247159657670715051e-03
1.249983938173994955e-03
1.252808562607722132e-03
1.255633531010159594e-03
1.258458843419590738e-03
1.261284499874318473e-03
1.264110500412664578e-03
1.266936845072970342e-03
1.269763533893596141e-03
1.272590566912921647e-03
1.275417944169345398e-03
1.278245665701284797e-03
1.281073731547175678e-03
1.283902141745471657e-03
1.286730896334645430e-03
1.289559995353188127e-03
1.292389438839609090e-03
1.295219226832435878e-03
1.298049359370214047e-03
1.300879836491507366e-03
1.303710658234897820e-03
1.306541824638984524e-03
1.309373335742384376e-03
1.312205191583730316e-03
1.315037392201673068e-03
1.317869937634881788e-03
1.320702827922042759e-03
1.323536063101857663e-03
1.326369643213044444e-03
1.329203568294336875e-03
1.332037838384484557e-03
1.334872453522252924e-03
1.337707413746423886e-03
1.340542719095794968e-03
1.343378369609179741e-03
1.346214365325406519e-03
1.349050706283320316e-03
1.351887392521780454e-03
1.354724424079660136e-03
1.357561800995846658e-03
1.360399523309243144e-03
1.363237591058767250e-03
1.366076004283351807e-03
1.368914763021945044e-03
1.371753867313508634e-03
1.374593317197020294e-03
1.377433112711472056e-03
1.380273253895870043e-03
1.383113740789234259e-03
1.385954573430598366e-03
1.388795751859009473e-03
1.391637276113527263e-03
1.394479146233223998e-03
1.397321362257184299e-03
1.400163924224505363e-03
1.403006832174295880e-03
1.405850086145678203e-03
1.408693686177786390e-03
1.411537632309767297e-03
1.414381924580778837e-03
1.417226563029990848e-03
1.420071547696583796e-03
1.422916878619748769e-03
1.425762555838686616e-03
1.428608579392608375e-03
1.431454949320735926e-03
1.434301665662301778e-03
1.437148728456548842e-03
1.439996137742731311e-03
1.442843893560114433e-03
1.445691995947973214e-03
1.448540444945591553e-03
1.451389240592262236e-03
1.454238382927287377e-03
1.457087871989977542e-03
1.459937707819651542e-03
1.462787890455635991e-03
1.465638419937265310e-03
1.468489296303882377e-03
1.471340519594838093e-03
1.474192089849489431e-03
1.477044007107200518e-03
1.479896271407342423e-03
1.482748882789294452e-03
1.485601841292442200e-03
1.488455146956178202e-03
1.491308799819900197e-03
1.494162799923012428e-03
1.497017147304926079e-03
1.499871842005059486e-03
1.502726884062836410e-03
1.505582273517684514e-03
1.508438010409036880e-03
1.511294094776331146e-03
1.514150526659009070e-03
1.517007306096518262e-03
1.519864433128311106e-03
1.522721907793842585e-03
1.525579730132571154e-03
1.528437900183959386e-03
1.531296417987473759e-03
1.534155283582584219e-03
1.537014497008762229e-03
1.539874058305481640e-03
1.542733967512218253e-03
1.545594224668449821e-03
1.548454829813656697e-03
1.551315782987319671e-03
1.554177084228921483e-03
1.557038733577945739e-03
1.559900731073877783e-03
1.562763076756204256e-03
1.565625770664412671e-03
1.568488812837991403e-03
1.571352203316429700e-03
1.574215942139215721e-03
1.577080029345836760e-03
1.579944464975779894e-03
1.582809249068532851e-03
1.585674381663581840e-03
1.588539862800412419e-03
1.591405692518508413e-03
1.594271870857352997e-03
1.597138397856427824e-03
1.600005273555213034e-03
1.602872497993186596e-03
1.605740071209824094e-03
1.608607993244597859e-03
1.611476264136977622e-03
1.614344883926430293e-03
1.617213852652419313e-03
1.620083170354404438e-03
1.622952837071841951e-03
1.625822852844182502e-03
1.628693217710871534e-03
1.631563931711349285e-03
1.634434994885049491e-03
1.637306407271400680e-03
1.640178168909826179e-03
1.643050279839742157e-03
1.645922740100559797e-03
1.648795549731684211e-03
1.651668708772513353e-03
1.654542217262438674e-03
1.657416075240844035e-03
1.660290282747106140e-03
1.663164839820593455e-03
1.666039746500666855e-03
1.668915002826678543e-03
1.671790608837971613e-03
1.674666564573880486e-03
1.677542870073730260e-03
1.680419525376837357e-03
1.683296530522508010e-03
1.686173885550038692e-03
1.689051590498715037e-03
1.691929645407810965e-03
1.694808050316589342e-03
1.697686805264301754e-03
1.700565910290188082e-03
1.703445365433475843e-03
1.706325170733381065e-03
1.709205326229107412e-03
1.712085831959846626e-03
1.714966687964776353e-03
1.717847894283059925e-03
1.720729450953847883e-03
1.723611358016276674e-03
1.726493615509468432e-03
1.729376223472531629e-03
1.732259181944559778e-03
1.735142490964631861e-03
1.738026150571811467e-03
1.740910160805146786e-03
1.743794521703671699e-03
1.746679233306404474e-03
1.749564295652346682e-03
1.752449708780483848e-03
1.755335472729784366e-03
1.758221587539199066e-03
1.761108053247661866e-03
1.763994869894089552e-03
1.766882037517380480e-03
1.769769556156415005e-03
1.772657425850055271e-03
1.775545646637144122e-03
1.778434218556504886e-03
1.781323141646940292e-03
1.784212415947234419e-03
1.787102041496151398e-03
1.789992018332435412e-03
1.792882346494807872e-03
1.795773026021967858e-03
1.798664056952592764e-03
1.801555439325337217e-03
1.804447173178833292e-03
1.807339258551689211e-03
1.810231695482490211e-03
1.813124484009797461e-03
1.816017624172148494e-03
1.818911116008056989e-03
1.821804959556012340e-03
1.824699154854479873e-03
1.827593701941899107e-03
1.830488600856684626e-03
1.833383851637224561e-03
1.836279454321879936e-03
1.839175408948984670e-03
1.842071715556846444e-03
1.844968374183746053e-03
1.847865384867935883e-03
1.850762747647640783e-03
1.853660462561058063e-03
1.856558529646356844e-03
1.859456948941677406e-03
1.862355720485130107e-03
1.865254844314795379e-03
1.868154320468724382e-03
1.871054148984938352e-03
1.873954329901428165e-03
1.876854863256152608e-03
1.879755749087039674e-03
1.882656987431986133e-03
1.885558578328856445e-03
1.888460521815483843e-03
1.891362817929668387e-03
1.894265466709177826e-03
1.897168468191746298e-03
1.900071822415073898e-03
1.902975529416827110e-03
1.905879589234637942e-03
1.908784001906105223e-03
1.911688767468792223e-03
1.914593885960227514e-03
1.917499357417903894e-03
1.920405181879277943e-03
1.923311359381770251e-03
1.926217889962766059e-03
1.929124773659613747e-03
1.932032010509625048e-03
1.934939600550074400e-03
1.937847543818199160e-03
1.940755840351199388e-03
1.943664490186236115e-03
1.946573493360431988e-03
1.949482849910871276e-03
1.952392559874600300e-03
1.955302623288624614e-03
1.958213040189909441e-03
1.961123810615379021e-03
1.964034934601916610e-03
1.966946412186364700e-03
1.969858243405523280e-03
1.972770428296150708e-03
1.975682966894963272e-03
1.978595859238635197e-03
1.981509105363799938e-03
1.984422705307048018e-03
1.987336659104925289e-03
1.990250966793934671e-03
1.993165628410536582e-03
1.996080643991146337e-03
1.998996013572132413e-03
2.001911737189817752e-03
2.004827814880480626e-03
2.007744246680354637e-03
2.010661032625627419e-03
2.013578172752441501e-03
2.016495667096893443e-03
2.019413515695034269e-03
2.022331718582866863e-03
2.025250275796346838e-03
2.028169187371381670e-03
2.031088453343830261e-03
2.034008073749504677e-03
2.036928048624167976e-03
2.039848378003532477e-03
2.042769061923259757e-03
2.045690100418961956e-03
2.048611493526200904e-03
2.051533241280487693e-03
2.054455343717281803e-03
2.057377800871990244e-03
2.060300612779967979e-03
2.063223779476519668e-03
2.066147300996896627e-03
2.069071177376299864e-03
2.071995408649878346e-03
2.074919994852728131e-03
2.077844936019891502e-03
2.080770232186357396e-03
2.083695883387060976e-03
2.086621889656881459e-03
2.089548251030642987e-03
2.092474967543115922e-03
2.095402039229016418e-03
2.098329466123006418e-03
2.101257248259692356e-03
2.104185385673625151e-03
2.107113878399300214e-03
2.110042726471156576e-03
2.112971929923576891e-03
2.115901488790886131e-03
2.118831403107352893e-03
2.121761672907186789e-03
2.124692298224539755e-03
2.127623279093505178e-03
2.130554615548117467e-03
2.133486307622353348e-03
2.136418355350129267e-03
2.139350758765303558e-03
2.142283517901676006e-03
2.145216632792986116e-03
2.148150103472913110e-03
2.151083929975077230e-03
2.154018112333039737e-03
2.156952650580302479e-03
2.159887544750307455e-03
2.162822794876435081e-03
2.165758400992004624e-03
2.168694363130275506e-03
2.171630681324446862e-03
2.174567355607657550e-03
2.177504386012984842e-03
2.180441772573444431e-03
2.183379515321989990e-03
2.186317614291510576e-03
2.189256069514832360e-03
2.192194881024719065e-03
2.195134048853869795e-03
2.198073573034917735e-03
2.201013453600431449e-03
2.203953690582914453e-03
2.206894284014804340e-03
2.209835233928474085e-03
2.212776540356232047e-03
2.215718203330318929e-03
2.218660222882910815e-03
2.221602599046118304e-03
2.224545331851984775e-03
2.227488421332486385e-03
2.230431867519532506e-03
2.233375670444967022e-03
2.236319830140565297e-03
2.239264346638034173e-03
2.242209219969012405e-03
2.245154450165070658e-03
2.248100037257712378e-03
2.251045981278372056e-03
2.253992282258413925e-03
2.256938940229132398e-03
2.259885955221751629e-03
2.262833327267426819e-03
2.265781056397243344e-03
2.268729142642216326e-03
2.271677586033291063e-03
2.274626386601343031e-03
2.277575544377177016e-03
2.280525059391526246e-03
2.283474931675052826e-03
2.286425161258346002e-03
2.289375748171923030e-03
2.292326692446228741e-03
2.295277994111634672e-03
2.298229653198439939e-03
2.301181669736872531e-03
2.304134043757089315e-03
2.307086775289173865e-03
2.310039864363138198e-03
2.312993311008921041e-03
2.315947115256386957e-03
2.318901277135325487e-03
2.321855796675452010e-03
2.324810673906406444e-03
2.327765908857751948e-03
2.330721501558975350e-03
2.333677452039486285e-03
2.336633760328618494e-03
2.339590426455630690e-03
2.342547450449706560e-03
2.345504832339953896e-03
2.348462572155404163e-03
2.351420669925011631e-03
2.354379125677652073e-03
2.357337939442124934e-03
2.360297111247152899e-03
2.363256641121380154e-03
2.366216529093372392e-03
2.369176775191619410e-03
2.372137379444533376e-03
2.375098341880448830e-03
2.378059662527620948e-03
2.381021341414226410e-03
2.383983378568362531e-03
2.386945774018047264e-03
2.389908527791218332e-03
2.392871639915732790e-03
2.395835110419368766e-03
2.398798939329824589e-03
2.401763126674717926e-03
2.404727672481586209e-03
2.407692576777886208e-03
2.410657839590993161e-03
2.413623460948201641e-03
2.416589440876723387e-03
2.419555779403687740e-03
2.422522476556142942e-03
2.425489532361056137e-03
2.428456946845310768e-03
2.431424720035707879e-03
2.434392851958965681e-03
2.437361342641719986e-03
2.440330192110525508e-03
2.443299400391853258e-03
2.446268967512090550e-03
2.449238893497540995e-03
2.452209178374424071e-03
2.455179822168874690e-03
2.458150824906942759e-03
2.461122186614593619e-03
2.464093907317709345e-03
2.467065987042088310e-03
2.470038425813443888e-03
2.473011223657404015e-03
2.475984380599512060e-03
2.478957896665227693e-03
2.481931771879925582e-03
2.484906006268894525e-03
2.487880599857336585e-03
2.490855552670367522e-03
2.493830864733016361e-03
2.496806536070224954e-03
2.499782566706847554e-03
2.502758956667651240e-03
2.505735705977318525e-03
2.508712814660447356e-03
2.511690282741548506e-03
2.514668110245045583e-03
2.517646297195276321e-03
2.520624843616490855e-03
2.523603749532850413e-03
2.526583014968428187e-03
2.529562639947210631e-03
2.532542624493097031e-03
2.535522968629896901e-03
2.538503672381330414e-03
2.541484735771028843e-03
2.544466158822534119e-03
2.547447941559299271e-03
2.550430084004687119e-03
2.553412586181971582e-03
2.556395448114335937e-03
2.559378669824873692e-03
2.562362251336587279e-03
2.565346192672388927e-03
2.568330493855100222e-03
2.571315154907452983e-03
2.574300175852090120e-03
2.577285556711562606e-03
2.580271297508330772e-03
2.583257398264764311e-03
2.586243859003142711e-03
2.589230679745653952e-03
2.592217860514394075e-03
2.595205401331367179e-03
2.598193302218484557e-03
2.601181563197565126e-03
2.604170184290334998e-03
2.607159165518427042e-03
2.610148506903381752e-03
2.613138208466645514e-03
2.616128270229570608e-03
2.619118692213418236e-03
2.622109474439357230e-03
2.625100616928465781e-03
2.628092119701727538e-03
2.631083982780033342e-03
2.634076206184177323e-03
2.637068789934858635e-03
2.640061734052681890e-03
2.643055038558154990e-03
2.646048703471690425e-03
2.649042728813605276e-03
2.652037114604122951e-03
2.655031860863372745e-03
2.658026967611389849e-03
2.661022434868112307e-03
2.664018262653385788e-03
2.667014450986961854e-03
2.670010999888494489e-03
2.673007909377539664e-03
2.676005179473558808e-03
2.679002810195917073e-03
2.682000801563886802e-03
2.684999153596642329e-03
2.687997866313261274e-03
2.690996939732724115e-03
2.693996373873914617e-03
2.696996168755619837e-03
2.699996324396531418e-03
2.702996840815242129e-03
2.705997718030249324e-03
2.708998956059953216e-03
2.712000554922659908e-03
2.715002514636577925e-03
2.718004835219818647e-03
2.721007516690395443e-03
2.724010559066223670e-03
2.727013962365121540e-03
2.730017726604809254e-03
2.733021851802908565e-03
2.736026337976941916e-03
2.739031185144332001e-03
2.742036393322404373e-03
2.745041962528384834e-03
2.748047892779399443e-03
2.751054184092473643e-03
2.754060836484532697e-03
2.757067849972401688e-03
2.760075224572806820e-03
2.763082960302374116e-03
2.766091057177631155e-03
2.769099515215004467e-03
2.772108334430819533e-03
2.775117514841300790e-03
2.778127056462571624e-03
2.781136959310654810e-03
2.784147223401472505e-03
2.787157848750847558e-03
2.790168835374499598e-03
2.793180183288048943e-03
2.796191892507016163e-03
2.799203963046821651e-03
2.802216394922786482e-03
2.805229188150132422e-03
2.808242342743979755e-03
2.811255858719349018e-03
2.814269736091158831e-03
2.817283974874228939e-03
2.820298575083278903e-03
2.823313536732925070e-03
2.826328859837682304e-03
2.829344544411960087e-03
2.832360590470067285e-03
2.835376998026212150e-03
2.838393767094502321e-03
2.841410897688945256e-03
2.844428389823448235e-03
2.847446243511816185e-03
2.850464458767749953e-03
2.853483035604847604e-03
2.856501974036604417e-03
2.859521274076413325e-03
2.862540935737566648e-03
2.865560959033254355e-03
2.868581343976563634e-03
2.871602090580477155e-03
2.874623198857874807e-03
2.877644668821533261e-03
2.880666500484128142e-03
2.883688693858232725e-03
2.886711248956314035e-03
2.889734165790734145e-03
2.892757444373751912e-03
2.895781084717524712e-03
2.898805086834103234e-03
2.901829450735434954e-03
2.904854176433364563e-03
2.907879263939633970e-03
2.910904713265879701e-03
2.913930524423634632e-03
2.916956697424324951e-03
2.919983232279273633e-03
2.923010128999700436e-03
2.926037387596719733e-03
2.929065008081342247e-03
2.932092990464477220e-03
2.935121334756928945e-03
2.938150040969398063e-03
2.941179109112479397e-03
2.944208539196662387e-03
2.947238331232331521e-03
2.950268485229765904e-03
2.953299001199142289e-03
2.956329879150532049e-03
2.959361119093902905e-03
2.962392721039113722e-03
2.965424684995916250e-03
2.968457010973958154e-03
2.971489698982783447e-03
2.974522749031832496e-03
2.977556161130441581e-03
2.980589935287842902e-03
2.983624071513164572e-03
2.986658569815429324e-03
2.989693430203552767e-03
2.992728652686346431e-03
2.995764237272516024e-03
2.998800183970661438e-03
3.001836492789277180e-03
3.004873163736753675e-03
3.007910196821373359e-03
3.010947592051311551e-03
3.013985349434637750e-03
3.017023468979313471e-03
3.020061950693194840e-03
3.023100794584032604e-03
3.026140000659469954e-03
3.029179568927045565e-03
3.032219499394191858e-03
3.035259792068237608e-03
3.038300446956404468e-03
3.041341464065808273e-03
3.044382843403460343e-03
3.047424584976267479e-03
3.050466688791027628e-03
3.053509154854431619e-03
3.056551983173064028e-03
3.059595173753404916e-03
3.062638726601827222e-03
3.065682641724596334e-03
3.068726919127869653e-03
3.071771558817697461e-03
3.074816560800021185e-03
3.077861925080677737e-03
3.080907651665397776e-03
3.083953740559804840e-03
3.087000191769415352e-03
3.090047005299639479e-03
3.093094181155779405e-03
3.096141719343030192e-03
3.099189619866481518e-03
3.102237882731113776e-03
3.105286507941801537e-03
3.108335495503313558e-03
3.111384845420309304e-03
3.114434557697342426e-03
3.117484632338861188e-03
3.120535069349208469e-03
3.123585868732619165e-03
3.126637030493220615e-03
3.129688554635033041e-03
3.132740441161969112e-03
3.135792690077834378e-03
3.138845301386325535e-03
3.141898275091033459e-03
3.144951611195439742e-03
3.148005309702916685e-03
3.151059370616727303e-03
3.154113793940027492e-03
3.157168579675864728e-03
3.160223727827177198e-03
3.163279238396795104e-03
3.166335111387441961e-03
3.169391346801736335e-03
3.172447944642187503e-03
3.175504904911198925e-03
3.178562227611068242e-03
3.181619912743986409e-03
3.184677960312037696e-03
3.187736370317197088e-03
3.190795142761332446e-03
3.193854277646202781e-03
3.196913774973459549e-03
3.199973634744645353e-03
3.203033856961196111e-03
3.206094441624442355e-03
3.209155388735605765e-03
3.212216698295801334e-03
3.215278370306036936e-03
3.218340404767213326e-03
3.221402801680122840e-03
3.224465561045450693e-03
3.227528682863774982e-03
3.230592167135567117e-03
3.233656013861191825e-03
3.236720223040905411e-03
3.239784794674858796e-03
3.242849728763094047e-03
3.245915025305544811e-03
3.248980684302039783e-03
3.252046705752297505e-03
3.255113089655929832e-03
3.258179836012440201e-03
3.261246944821223626e-03
3.264314416081568436e-03
3.267382249792652807e-03
3.270450445953546493e-03
3.273519004563212563e-03
3.276587925620504365e-03
3.279657209124168995e-03
3.282726855072846863e-03
3.285796863465068225e-03
3.288867234299256651e-03
3.291937967573729459e-03
3.295009063286692946e-03
3.298080521436245419e-03
3.301152342020375035e-03
3.304224525036963261e-03
3.307297070483781413e-03
3.310369978358492817e-03
3.313443248658651513e-03
3.316516881381703988e-03
3.319590876524987008e-03
3.322665234085729353e-03
3.325739954061052248e-03
3.328815036447972404e-03
3.331890481243398542e-03
3.334966288444130098e-03
3.338042458046860256e-03
3.341118990048175946e-03
3.344195884444556982e-03
3.347273141232375623e-03
3.350350760407896141e-03
3.353428741967271788e-03
3.356507085906549996e-03
3.359585792221672380e-03
3.362664860908474735e-03
3.365744291962684005e-03
3.368824085379916542e-03
3.371904241155677679e-03
3.374984759285365194e-03
3.378065639764269747e-03
3.381146882587574877e-03
3.384228487750356573e-03
3.387310455247580232e-03
3.390392785074102400e-03
3.393475477224670769e-03
3.396558531693924174e-03
3.399641948476392166e-03
3.402725727566499343e-03
3.405809868958562317e-03
3.408894372646790582e-03
3.411979238625284343e-03
3.415064466888034951e-03
3.418150057428924037e-03
3.421236010241725245e-03
3.424322325320105099e-03
3.427409002657621270e-03
3.430496042247721707e-03
3.433583444083746373e-03
3.436671208158924642e-03
3.439759334466378771e-03
3.442847822999123026e-03
3.445936673750064124e-03
3.449025886711999059e-03
3.452115461877619876e-03
3.455205399239510197e-03
3.458295698790143924e-03
3.461386360521887407e-03
3.464477384426999009e-03
3.467568770497627371e-03
3.470660518725813149e-03
3.473752629103489011e-03
3.476845101622478337e-03
3.479937936274496522e-03
3.483031133051153142e-03
3.486124691943950655e-03
3.489218612944281796e-03
3.492312896043428278e-03
3.495407541232562962e-03
3.498502548502750720e-03
3.501597917844948872e-03
3.504693649250008054e-03
3.507789742708671780e-03
3.510886198211576013e-03
3.513983015749247429e-03
3.517080195312103849e-03
3.520177736890455975e-03
3.523275640474507388e-03
3.526373906054353254e-03
3.529472533619981613e-03
3.532571523161269923e-03
3.535670874667987216e-03
3.538770588129794108e-03
3.541870663536244093e-03
3.544971100876782247e-03
3.548071900140747394e-03
3.551173061317371236e-03
3.554274584395777058e-03
3.557376469364978856e-03
3.560478716213884374e-03
3.563581324931294671e-03
3.566684295505902387e-03
3.569787627926293474e-03
3.572891322180945899e-03
3.575995378258230075e-03
3.579099796146408864e-03
3.582204575833639309e-03
3.585309717307970465e-03
3.588415220557346439e-03
3.591521085569602048e-03
3.594627312332463256e-03
3.597733900833550210e-03
3.600840851060375502e-03
3.603948163000344172e-03
3.607055836640751974e-03
3.610163871968787106e-03
3.613272268971530650e-03
3.616381027635957000e-03
3.619490147948933433e-03
3.622599629897217937e-03
3.625709473467461381e-03
3.628819678646206214e-03
3.631930245419884729e-03
3.635041173774822103e-03
3.638152463697236390e-03
3.641264115173239394e-03
3.644376128188838403e-03
3.647488502729931848e-03
3.650601238782311044e-03
3.653714336331659318e-03
3.656827795363552010e-03
3.659941615863458210e-03
3.663055797816737284e-03
3.666170341208641915e-03
3.669285246024317233e-03
3.672400512248802547e-03
3.675516139867032218e-03
3.678632128863834356e-03
3.681748479223929515e-03
3.684865190931931132e-03
3.687982263972345524e-03
3.691099698329571022e-03
3.694217493987899704e-03
3.697335650931516532e-03
3.700454169144499778e-03
3.703573048610820598e-03
3.706692289314342595e-03
3.709811891238825286e-03
3.712931854367922807e-03
3.716052178685184341e-03
3.719172864174054120e-03
3.722293910817871428e-03
3.725415318599870594e-03
3.728537087503182735e-03
3.731659217510830545e-03
3.734781708605731769e-03
3.737904560770695730e-03
3.741027773988423767e-03
3.744151348241510965e-03
3.747275283512447458e-03
3.750399579783617130e-03
3.753524237037296311e-03
3.756649255255653779e-03
3.759774634420752059e-03
3.762900374514549159e-03
3.766026475518895970e-03
3.769152937415541030e-03
3.772279760186124896e-03
3.775406943812179266e-03
3.778534488275128722e-03
3.781662393556290726e-03
3.784790659636877354e-03
3.787919286497996602e-03
3.791048274120651512e-03
3.794177622485738442e-03
3.797307331574046631e-03
3.800437401366258631e-03
3.803567831842949876e-03
3.806698622984589116e-03
3.809829774771537111e-03
3.812961287184051407e-03
3.816093160202281565e-03
3.819225393806272625e-03
3.822357987975965113e-03
3.825490942691193736e-03
3.828624257931688684e-03
3.831757933677076931e-03
3.834891969906879198e-03
3.838026366600509089e-03
3.841161123737274821e-03
3.844296241296380531e-03
3.847431719256926268e-03
3.850567557597904533e-03
3.853703756298204174e-03
3.856840315336610391e-03
3.859977234691804732e-03
3.863114514342365531e-03
3.866252154266764003e-03
3.869390154443367712e-03
3.872528514850439273e-03
3.875667235466135046e-03
3.878806316268506877e-03
3.881945757235504696e-03
3.885085558344973482e-03
3.888225719574655865e-03
3.891366240902189959e-03
3.894507122305111094e-03
3.897648363760850086e-03
3.900789965246734964e-03
3.903931926739989677e-03
3.907074248217734525e-03
3.910216929656987889e-03
3.913359971034664937e-03
3.916503372327576754e-03
3.919647133512429472e-03
3.922791254565823407e-03
3.925935735464257392e-03
3.929080576184128780e-03
3.932225776701729972e-03
3.935371336993250153e-03
3.938517257034772692e-03
3.941663536802277740e-03
3.944810176271644833e-03
3.947957175418650294e-03
3.951104534218969830e-03
3.954252252648176799e-03
3.957400330681741345e-03
3.960548768295028658e-03
3.963697565463298982e-03
3.966846722161708472e-03
3.969996238365309203e-03
3.973146114049053504e-03
3.976296349187793955e-03
3.979446943756281656e-03
3.982597897729162756e-03
3.985749211080980188e-03
3.988900883786174537e-03
3.992052915819083170e-03
3.995205307153941107e-03
3.998358057764885357e-03
4.001511167625949709e-03
4.004664636711065609e-03
4.007818464994063017e-03
4.010972652448673015e-03
4.014127199048522603e-03
4.017282104767136430e-03
4.020437369577936799e-03
4.023592993454241061e-03
4.026748976369263350e-03
4.029905318296112850e-03
4.033062019207799866e-03
4.036219079077229752e-03
4.039376497877202911e-03
4.042534275580418265e-03
4.045692412159474123e-03
4.048850907586867311e-03
4.052009761834996643e-03
4.055168974876160320e-03
4.058328546682558532e-03
4.061488477226290854e-03
4.064648766479357980e-03
4.067809414413659126e-03
4.070970421000991157e-03
4.074131786213051193e-03
4.077293510021437473e-03
4.080455592397645888e-03
4.083618033313072583e-03
4.086780832739013089e-03
4.089943990646663190e-03
4.093107507007122392e-03
4.096271381791391324e-03
4.099435614970368263e-03
4.102600206514847407e-03
4.105765156395522336e-03
4.108930464582985151e-03
4.112096131047730807e-03
4.115262155760151912e-03
4.118428538690538723e-03
4.121595279809080886e-03
4.124762379085867431e-03
4.127929836490888509e-03
4.131097651994035391e-03
4.134265825565103074e-03
4.137434357173786804e-03
4.140603246789679483e-03
4.143772494382275996e-03
4.146942099920971486e-03
4.150112063375058745e-03
4.153282384713734288e-03
4.156453063906095750e-03
4.159624100921142757e-03
4.162795495727774318e-03
4.165967248294793167e-03
4.169139358590904891e-03
4.172311826584713598e-03
4.175484652244726251e-03
4.178657835539349198e-03
4.181831376436889042e-03
4.185005274905554372e-03
4.188179530913456634e-03
4.191354144428610130e-03
4.194529115418929414e-03
4.197704443852234499e-03
4.200880129696247384e-03
4.204056172918593792e-03
4.207232573486803170e-03
4.210409331368309555e-03
4.213586446530447234e-03
4.216763918940451619e-03
4.219941748565463578e-03
4.223119935372528569e-03
4.226298479328594905e-03
4.229477380400514623e-03
4.232656638555040013e-03
4.235836253758826220e-03
4.239016225978430377e-03
4.242196555180314209e-03
4.245377241330841427e-03
4.248558284396276863e-03
4.251739684342789073e-03
4.254921441136453805e-03
4.258103554743251397e-03
4.261286025129065042e-03
4.264468852259679053e-03
4.267652036100781469e-03
4.270835576617966652e-03
4.274019473776731817e-03
4.277203727542478774e-03
4.280388337880513053e-03
4.283573304756043906e-03
4.286758628134181709e-03
4.289944307979943160e-03
4.293130344258248680e-03
4.296316736933925885e-03
4.299503485971704377e-03
4.302690591336214010e-03
4.305878052991991833e-03
4.309065870903479485e-03
4.312254045035020592e-03
4.315442575350862502e-03
4.318631461815155420e-03
4.321820704391953274e-03
4.325010303045215450e-03
4.328200257738808523e-03
4.331390568436501061e-03
4.334581235101968820e-03
4.337772257698793016e-03
4.340963636190457720e-03
4.344155370540348990e-03
4.347347460711759211e-03
4.350539906667887091e-03
4.353732708371837665e-03
4.356925865786624025e-03
4.360119378875169059e-03
4.363313247600303715e-03
4.366507471924766133e-03
4.369702051811198175e-03
4.372896987222148028e-03
4.376092278120067604e-03
4.379287924467318606e-03
4.382483926226171667e-03
4.385680283358806344e-03
4.388876995827313728e-03
4.392074063593692963e-03
4.395271486619847789e-03
4.398469264867590003e-03
4.401667398298637728e-03
4.404865886874616276e-03
4.408064730557055555e-03
4.411263929307392660e-03
4.414463483086970147e-03
4.417663391857038629e-03
4.420863655578755914e-03
4.424064274213189603e-03
4.427265247721315355e-03
4.430466576064016893e-03
4.433668259202089464e-03
4.436870297096238980e-03
4.440072689707084616e-03
4.443275436995151005e-03
4.446478538920867370e-03
4.449681995444570125e-03
4.452885806526505480e-03
4.456089972126828572e-03
4.459294492205601729e-03
4.462499366722796207e-03
4.465704595638293056e-03
4.468910178911878785e-03
4.472116116503248827e-03
4.475322408372011014e-03
4.478529054477681237e-03
4.481736054779686049e-03
4.484943409237364398e-03
4.488151117809965895e-03
4.491359180456653416e-03
4.494567597136503966e-03
4.497776367808503477e-03
4.500985492431551147e-03
4.504194970964461170e-03
4.507404803365957537e-03
4.510614989594674031e-03
4.513825529609158567e-03
4.517036423367869723e-03
4.520247670829177604e-03
4.523459271951366448e-03
4.526671226692629418e-03
4.529883535011070342e-03
4.533096196864708043e-03
4.536309212211474609e-03
4.539522581009215393e-03
4.542736303215688144e-03
4.545950378788562139e-03
4.549164807685424257e-03
4.552379589863771170e-03
4.555594725281011947e-03
4.558810213894469790e-03
4.562026055661381162e-03
4.565242250538893189e-03
4.568458798484066261e-03
4.571675699453874898e-03
4.574892953405206887e-03
4.578110560294864143e-03
4.581328520079559243e-03
4.584546832715918029e-03
4.587765498160480473e-03
4.590984516369698079e-03
4.594203887299941683e-03
4.597423610907496253e-03
4.600643687148561756e-03
4.603864115979255760e-03
4.607084897355612566e-03
4.610306031233579738e-03
4.613527517569019840e-03
4.616749356317706963e-03
4.619971547435331935e-03
4.623194090877502313e-03
4.626416986599743257e-03
4.629640234557497527e-03
4.632863834706123750e-03
4.636087787000897284e-03
4.639312091397008488e-03
4.642536747849564452e-03
4.645761756313588134e-03
4.648987116744020959e-03
4.652212829095720217e-03
4.655438893323460801e-03
4.658665309381935203e-03
4.661892077225750913e-03
4.665119196809433891e-03
4.668346668087429430e-03
4.671574491014097823e-03
4.674802665543715229e-03
4.678031191630473672e-03
4.681260069228481910e-03
4.684489298291765434e-03
4.687718878774269071e-03
4.690948810629857850e-03
4.694179093812317870e-03
4.697409728275354565e-03
4.700640713972597043e-03
4.703872050857593745e-03
4.707103738883813317e-03
4.710335778004644605e-03
4.713568168173396661e-03
4.716800909343296135e-03
4.720034001467490747e-03
4.723267444499051025e-03
4.726501238390965094e-03
4.729735383096144753e-03
4.732969878567422004e-03
4.736204724757549916e-03
4.739439921619200899e-03
4.742675469104970162e-03
4.745911367167373988e-03
4.749147615758852331e-03
4.752384214831765347e-03
4.755621164338395997e-03
4.758858464230950047e-03
4.762096114461553467e-03
4.765334114982257632e-03
4.768572465745034988e-03
4.771811166701779919e-03
4.775050217804311346e-03
4.778289619004372733e-03
4.781529370253630347e-03
4.784769471503673259e-03
4.788009922706015081e-03
4.791250723812093097e-03
4.794491874773269130e-03
4.797733375540830410e-03
4.800975226065988706e-03
4.804217426299877726e-03
4.807459976193558318e-03
4.810702875698015003e-03
4.813946124764159444e-03
4.817189723342829577e-03
4.820433671384785276e-03
4.823677968840713558e-03
4.826922615661228579e-03
4.830167611796869903e-03
4.833412957198105972e-03
4.836658651815333235e-03
4.839904695598872680e-03
4.843151088498971572e-03
4.846397830465805183e-03
4.849644921449475059e-03
4.852892361400009888e-03
4.856140150267362898e-03
4.859388288001410990e-03
4.862636774551959938e-03
4.865885609868744396e-03
4.869134793901426159e-03
4.872384326599592426e-03
4.875634207912758408e-03
4.878884437790368192e-03
4.882135016181794740e-03
4.885385943036339891e-03
4.888637218303233493e-03
4.891888841931634271e-03
4.895140813870627224e-03
4.898393134069225358e-03
4.901645802476372292e-03
4.904898819040938787e-03
4.908152183711724480e-03
4.911405896437459617e-03
4.914659957166805926e-03
4.917914365848360080e-03
4.921169122430648496e-03
4.924424226862131673e-03
4.927679679091196384e-03
4.930935479066160879e-03
4.934191626735272285e-03
4.937448122046711810e-03
4.940704964948593875e-03
4.943962155388966113e-03
4.947219693315806771e-03
4.950477578677025571e-03
4.953735811420468052e-03
4.956994391493910364e-03
4.960253318845060135e-03
4.963512593421558206e-03
4.966772215170978631e-03
4.970032184040828679e-03
4.973292499978547096e-03
4.976553162931505840e-03
4.979814172847007482e-03
4.983075529672287805e-03
4.986337233354516674e-03
4.989599283840802368e-03
4.992861681078189853e-03
4.996124425013659040e-03
4.999387515594121319e-03
5.002650952766422160e-03
5.005914736477342850e-03
5.009178866673600489e-03
5.012443343301849728e-03
5.015708166308679300e-03
5.018973335640609414e-03
5.022238851244098697e-03
5.025504713065542459e-03
5.028770921051275294e-03
5.032037475147568481e-03
5.035304375300630846e-03
5.038571621456607898e-03
5.041839213561583564e-03
5.045107151561577588e-03
5.048375435402550730e-03
5.051644065030403037e-03
5.054913040390971238e-03
5.058182361430029611e-03
5.061452028093290853e-03
5.064722040326405210e-03
5.067992398074961345e-03
5.071263101284488074e-03
5.074534149900456100e-03
5.077805543868277142e-03
5.081077283133300475e-03
5.084349367640814653e-03
5.087621797336046650e-03
5.090894572164162725e-03
5.094167692070268420e-03
5.097441156999408564e-03
5.100714966896569003e-03
5.103989121706676603e-03
5.107263621374599251e-03
5.110538465845146719e-03
5.113813655063069799e-03
5.117089188973061170e-03
5.120365067519755398e-03
5.123641290647729801e-03
5.126917858301504455e-03
5.130194770425543054e-03
5.133472026964247710e-03
5.136749627861963291e-03
5.140027573062975683e-03
5.143305862511514392e-03
5.146584496151754284e-03
5.149863473927812109e-03
5.153142795783746503e-03
5.156422461663559727e-03
5.159702471511199394e-03
5.162982825270559344e-03
5.166263522885475301e-03
5.169544564299724879e-03
5.172825949457028442e-03
5.176107678301052582e-03
5.179389750775411846e-03
5.182672166823667007e-03
5.185954926389327660e-03
5.189238029415848760e-03
5.192521475846632352e-03
5.195805265625030173e-03
5.199089398694339316e-03
5.202373874997804834e-03
5.205658694478620604e-03
5.208943857079930198e-03
5.212229362744822542e-03
5.215515211416330184e-03
5.218801403037429294e-03
5.222087937551044001e-03
5.225374814900046391e-03
5.228662035027259979e-03
5.231949597875459705e-03
5.235237503387368471e-03
5.238525751505658003e-03
5.241814342172956658e-03
5.245103275331848558e-03
5.248392550924866652e-03
5.251682168894494449e-03
5.254972129183169485e-03
5.258262431733278994e-03
5.261553076487159898e-03
5.264844063387096214e-03
5.268135392375319914e-03
5.271427063394013533e-03
5.274719076385310165e-03
5.278011431291291730e-03
5.281304128053995912e-03
5.284597166615415294e-03
5.287890546917494751e-03
5.291184268902128854e-03
5.294478332511165335e-03
5.297772737686407690e-03
5.301067484369611713e-03
5.304362572502490693e-03
5.307658002026712819e-03
5.310953772883893372e-03
5.314249885015600791e-03
5.317546338363361019e-03
5.320843132868654894e-03
5.324140268472921621e-03
5.327437745117558771e-03
5.330735562743918812e-03
5.334033721293313449e-03
5.337332220707014484e-03
5.340631060926246884e-03
5.343930241892188779e-03
5.347229763545974061e-03
5.350529625828695859e-03
5.353829828681401330e-03
5.357130372045095998e-03
5.360431255860739416e-03
5.363732480069244302e-03
5.367034044611485206e-03
5.370335949428295917e-03
5.373638194460475526e-03
5.376940779648781490e-03
5.380243704933929637e-03
5.383546970256592422e-03
5.386850575557398935e-03
5.390154520776937498e-03
5.393458805855753067e-03
5.396763430734350699e-03
5.400068395353199886e-03
5.403373699652731094e-03
5.406679343573338355e-03
5.409985327055380142e-03
5.413291650039177630e-03
5.416598312465013831e-03
5.419905314273129257e-03
5.423212655403723652e-03
5.426520335796960331e-03
5.429828355392961846e-03
5.433136714131816050e-03
5.436445411953570901e-03
5.439754448798235324e-03
5.443063824605781816e-03
5.446373539316146442e-03
5.449683592869233179e-03
5.452993985204911305e-03
5.456304716263018009e-03
5.459615785983358387e-03
5.462927194305706308e-03
5.466238941169805285e-03
5.469551026515368473e-03
5.472863450282077803e-03
5.476176212409582245e-03
5.479489312837494339e-03
5.482802751505396269e-03
5.486116528352838126e-03
5.489430643319340511e-03
5.492745096344391065e-03
5.496059887367446203e-03
5.499375016327930250e-03
5.502690483165231967e-03
5.506006287818705422e-03
5.509322430227674323e-03
5.512638910331428554e-03
5.515955728069223303e-03
5.519272883380290338e-03
5.522590376203828470e-03
5.525908206479007018e-03
5.529226374144965810e-03
5.532544879140811715e-03
5.535863721405622113e-03
5.539182900878442291e-03
5.542502417498289778e-03
5.545822271204157820e-03
5.549142461935011907e-03
5.552462989629786301e-03
5.555783854227387512e-03
5.559105055666695161e-03
5.562426593886559377e-03
5.565748468825803402e-03
5.569070680423223590e-03
5.572393228617594611e-03
5.575716113347662511e-03
5.579039334552150786e-03
5.582362892169756910e-03
5.585686786139153204e-03
5.589011016398985100e-03
5.592335582887877216e-03
5.595660485544435951e-03
5.598985724307244290e-03
5.602311299114858326e-03
5.605637209905807265e-03
5.608963456618594294e-03
5.612290039191700046e-03
5.615616957563579134e-03
5.618944211672663620e-03
5.622271801457363882e-03
5.625599726856068614e-03
5.628927987807141355e-03
5.632256584248925696e-03
5.635585516119737473e-03
5.638914783357874307e-03
5.642244385901610398e-03
5.645574323689200001e-03
5.648904596658877418e-03
5.652235204748854401e-03
5.655566147897323620e-03
5.658897426042456061e-03
5.662229039122404495e-03
5.665560987075302611e-03
5.668893269839262415e-03
5.672225887352382034e-03
5.675558839552748321e-03
5.678892126378429911e-03
5.682225747767478963e-03
5.685559703657932021e-03
5.688893993987809150e-03
5.692228618695109599e-03
5.695563577717820472e-03
5.698898870993914130e-03
5.702234498461349922e-03
5.705570460058071586e-03
5.708906755722008980e-03
5.712243385391073749e-03
5.715580349003161927e-03
5.718917646496158268e-03
5.722255277807931050e-03
5.725593242876338140e-03
5.728931541639222663e-03
5.732270174034414731e-03
5.735609139999728844e-03
5.738948439472967358e-03
5.742288072391923091e-03
5.745628038694375848e-03
5.748968338318093292e-03
5.752308971200837881e-03
5.755649937280359930e-03
5.758991236494398480e-03
5.762332868780682162e-03
5.765674834076931800e-03
5.769017132320859546e-03
5.772359763450173216e-03
5.775702727402567613e-03
5.779046024115728000e-03
5.782389653527329233e-03
5.785733615575033156e-03
5.789077910196488604e-03
5.792422537329337470e-03
5.795767496911212978e-03
5.799112788879744011e-03
5.802458413172549914e-03
5.805804369727240490e-03
5.809150658481416866e-03
5.812497279372675837e-03
5.815844232338607256e-03
5.819191517316792302e-03
5.822539134244806951e-03
5.825887083060221107e-03
5.829235363700594266e-03
5.832583976103481588e-03
5.835932920206431292e-03
5.839282195946988128e-03
5.842631803262689910e-03
5.845981742091070979e-03
5.849332012369663943e-03
5.852682614035996204e-03
5.856033547027588229e-03
5.859384811281950940e-03
5.862736406736590057e-03
5.866088333329002626e-03
5.869440590996677018e-03
5.872793179677097269e-03
5.876146099307739609e-03
5.879499349826074195e-03
5.882852931169565980e-03
5.886206843275679917e-03
5.889561086081876624e-03
5.892915659525612380e-03
5.896270563544339996e-03
5.899625798075507944e-03
5.902981363056560363e-03
5.906337258424935316e-03
5.909693484118068267e-03
5.913050040073391210e-03
5.916406926228329199e-03
5.919764142520307290e-03
5.923121688886751404e-03
5.926479565265084862e-03
5.929837771592724911e-03
5.933196307807083597e-03
5.936555173845577300e-03
5.939914369645623270e-03
5.943273895144637019e-03
5.946633750280032327e-03
5.949993934989224707e-03
5.953354449209631409e-03
5.956715292878671415e-03
5.960076465933762842e-03
5.963437968312322937e-03
5.966799799951763746e-03
5.970161960789492975e-03
5.973524450762917465e-03
5.976887269809443189e-03
5.980250417866476119e-03
5.983613894871421361e-03
5.986977700761690092e-03
5.990341835474689153e-03
5.993706298947824515e-03
5.997071091118503020e-03
6.000436211924128904e-03
6.003801661302109009e-03
6.007167439189845838e-03
6.010533545524739292e-03
6.013899980244190140e-03
6.017266743285600017e-03
6.020633834586371427e-03
6.024001254083903405e-03
6.027369001715594983e-03
6.030737077418846064e-03
6.034105481131054813e-03
6.037474212789623734e-03
6.040843272331955331e-03
6.044212659695452974e-03
6.047582374817518300e-03
6.050952417635554678e-03
6.054322788086970684e-03
6.057693486109175761e-03
6.061064511639580217e-03
6.064435864615599567e-03
6.067807544974651059e-03
6.071179552654157145e-03
6.074551887591542881e-03
6.077924549724231587e-03
6.081297538989654389e-03
6.084670855325251954e-03
6.088044498668466684e-03
6.091418468956742716e-03
6.094792766127530258e-03
6.098167390118281253e-03
6.101542340866450247e-03
6.104917618309494386e-03
6.108293222384872552e-03
6.111669153030049699e-03
6.115045410182493382e-03
6.118421993779676361e-03
6.121798903759077468e-03
6.125176140058178134e-03
6.128553702614465866e-03
6.131931591365435107e-03
6.135309806248586371e-03
6.138688347201421910e-03
6.142067214161443106e-03
6.145446407066151341e-03
6.148825925853051468e-03
6.152205770459650939e-03
6.155585940823458946e-03
6.158966436881983808e-03
6.162347258572737317e-03
6.165728405833234733e-03
6.169109878600993919e-03
6.172491676813535340e-03
6.175873800408382928e-03
6.179256249323066691e-03
6.182639023495119235e-03
6.186022122862076637e-03
6.189405547361478445e-03
6.192789296930871143e-03
6.196173371507803819e-03
6.199557771029830765e-03
6.202942495434509741e-03
6.206327544659402846e-03
6.209712918642074780e-03
6.213098617320096315e-03
6.216484640631040823e-03
6.219870988512484281e-03
6.223257660902002664e-03
6.226644657737175417e-03
6.230031978955581987e-03
6.233419624494804419e-03
6.236807594292427363e-03
6.240195888286035469e-03
6.243584506413213386e-03
6.246973448611551835e-03
6.250362714818643271e-03
6.253752304972082753e-03
6.257142219009472275e-03
6.260532456868420775e-03
6.263923018486544127e-03
6.267313903801460806e-03
6.270705112750791892e-03
6.274096645272168871e-03
6.277488501303224964e-03
6.280880680781595130e-03
6.284273183644914322e-03
6.287666009830820101e-03
6.291059159276949156e-03
6.294452631920940781e-03
6.297846427700440342e-03
6.301240546553096671e-03
6.304634988416560337e-03
6.308029753228486247e-03
6.311424840926535378e-03
6.314820251448375645e-03
6.318215984731674097e-03
6.321612040714102987e-03
6.325008419333336303e-03
6.328405120527053236e-03
6.331802144232939050e-03
6.335199490388678141e-03
6.338597158931960109e-03
6.341995149800472818e-03
6.345393462931908472e-03
6.348792098263963610e-03
6.352191055734333902e-03
6.355590335280717623e-03
6.358989936840817384e-03
6.362389860352333192e-03
6.365790105752970260e-03
6.369190672980432066e-03
6.372591561972427293e-03
6.375992772666665490e-03
6.379394305000856205e-03
6.382796158912709857e-03
6.386198334339942065e-03
6.389600831220272788e-03
6.393003649491421983e-03
6.396406789091117415e-03
6.399810249957087714e-03
6.403214032027064982e-03
6.406618135238782187e-03
6.410022559529973164e-03
6.413427304838371749e-03
6.416832371101718717e-03
6.420237758257760913e-03
6.423643466244247785e-03
6.427049494998933118e-03
6.430455844459575035e-03
6.433862514563937728e-03
6.437269505249787124e-03
6.440676816454891755e-03
6.444084448117023620e-03
6.447492400173954717e-03
6.450900672563452710e-03
6.454309265223290466e-03
6.457718178091239117e-03
6.461127411105072396e-03
6.464536964202566641e-03
6.467946837321495585e-03
6.471357030399634697e-03
6.474767543374758579e-03
6.478178376184640097e-03
6.481589528767046915e-03
6.485001001059740623e-03
6.488412793000483680e-03
6.491824904527036810e-03
6.495237335577161604e-03
6.498650086088623122e-03
6.502063155999187292e-03
6.505476545246613972e-03
6.508890253768663016e-03
6.512304281503091680e-03
6.515718628387653748e-03
6.519133294360095199e-03
6.522548279358159409e-03
6.525963583319589756e-03
6.529379206182127880e-03
6.532795147883514557e-03
6.536211408361487091e-03
6.539627987553781920e-03
6.543044885398138083e-03
6.546462101832290284e-03
6.549879636793971491e-03
6.553297490220912937e-03
6.556715662050844121e-03
6.560134152221485868e-03
6.563552960670552931e-03
6.566972087335758330e-03
6.570391532154809880e-03
6.573811295065411925e-03
6.577231376005269678e-03
6.580651774912082280e-03
6.584072491723546271e-03
6.587493526377352117e-03
6.590914878811182480e-03
6.594336548962712215e-03
6.597758536769610105e-03
6.601180842169537995e-03
6.604603465100145586e-03
6.608026405499075641e-03
6.611449663303967453e-03
6.614873238452457713e-03
6.618297130882181377e-03
6.621721340530769065e-03
6.625145867335841855e-03
6.628570711235012153e-03
6.631995872165884556e-03
6.635421350066054123e-03
6.638847144873108973e-03
6.642273256524631152e-03
6.645699684958190565e-03
6.649126430111346707e-03
6.652553491921647799e-03
6.655980870326629051e-03
6.659408565263815263e-03
6.662836576670719962e-03
6.666264904484846265e-03
6.669693548643689483e-03
6.673122509084736254e-03
6.676551785745461071e-03
6.679981378563329755e-03
6.683411287475799455e-03
6.686841512420316040e-03
6.690272053334309771e-03
6.693702910155200497e-03
6.697134082820398529e-03
6.700565571267308104e-03
6.703997375433316981e-03
6.707429495255799907e-03
6.710861930672123825e-03
6.714294681619647868e-03
6.717727748035717296e-03
6.721161129857666089e-03
6.724594827022813484e-03
6.728028839468467442e-03
6.731463167131920312e-03
6.734897809950448830e-03
6.738332767861317588e-03
6.741768040801775566e-03
6.745203628709058735e-03
6.748639531520383116e-03
6.752075749172948248e-03
6.755512281603939795e-03
6.758949128750532144e-03
6.762386290549877998e-03
6.765823766939117051e-03
6.769261557855375117e-03
6.772699663235765867e-03
6.776138083017384760e-03
6.779576817137312507e-03
6.783015865532614208e-03
6.786455228140335881e-03
6.789894904897510533e-03
6.793334895741150355e-03
6.796775200608251057e-03
6.800215819435784931e-03
6.803656752160703453e-03
6.807097998719940750e-03
6.810539559050406665e-03
6.813981433088986753e-03
6.817423620772550957e-03
6.820866122037946670e-03
6.824308936822003936e-03
6.827752065061537187e-03
6.831195506693340039e-03
6.834639261654182688e-03
6.838083329880816248e-03
6.841527711309975356e-03
6.844972405878370358e-03
6.848417413522690789e-03
6.851862734179601892e-03
6.855308367785744629e-03
6.858754314277734805e-03
6.862200573592165675e-03
6.865647145665607944e-03
6.869094030434613231e-03
6.872541227835710607e-03
6.875988737805402255e-03
6.879436560280166937e-03
6.882884695196453927e-03
6.886333142490684740e-03
6.889781902099255742e-03
6.893230973958535540e-03
6.896680358004864120e-03
6.900130054174551976e-03
6.903580062403887919e-03
6.907030382629132138e-03
6.910481014786517932e-03
6.913931958812248244e-03
6.917383214642496524e-03
6.920834782213409336e-03
6.924286661461104622e-03
6.927738852321676036e-03
6.931191354731193813e-03
6.934644168625702168e-03
6.938097293941215826e-03
6.941550730613718287e-03
6.945004478579163559e-03
6.948458537773475295e-03
6.951912908132544186e-03
6.955367589592227097e-03
6.958822582088349668e-03
6.962277885556706312e-03
6.965733499933055885e-03
6.969189425153128614e-03
6.972645661152620036e-03
6.976102207867193594e-03
6.979559065232479771e-03
6.983016233184075224e-03
6.986473711657546250e-03
6.989931500588422719e-03
6.993389599912200674e-03
6.996848009564337126e-03
7.000306729480250054e-03
7.003765759595323610e-03
7.007225099844909856e-03
7.010684750164327024e-03
7.014144710488850847e-03
7.017604980753720627e-03
7.021065560894141841e-03
7.024526450845279199e-03
7.027987650542255778e-03
7.031449159920156490e-03
7.034910978914031554e-03
7.038373107458893024e-03
7.041835545489713057e-03
7.045298292941423041e-03
7.048761349748911866e-03
7.052224715847025052e-03
7.055688391170566488e-03
7.059152375654299295e-03
7.062616669232942360e-03
7.066081271841172934e-03
7.069546183413623168e-03
7.073011403884879242e-03
7.076476933189483967e-03
7.079942771261933318e-03
7.083408918036676431e-03
7.086875373448119075e-03
7.090342137430615845e-03
7.093809209918477098e-03
7.097276590845965488e-03
7.100744280147294231e-03
7.104212277756627100e-03
7.107680583608079299e-03
7.111149197635716589e-03
7.114618119773550957e-03
7.118087349955544083e-03
7.121556888115613410e-03
7.125026734187625208e-03
7.128496888105391102e-03
7.131967349802667208e-03
7.135438119213161068e-03
7.138909196270528182e-03
7.142380580908372009e-03
7.145852273060238763e-03
7.149324272659620880e-03
7.152796579639961357e-03
7.156269193934648547e-03
7.159742115477019629e-03
7.163215344200361476e-03
7.166688880037902845e-03
7.170162722922816118e-03
7.173636872788217295e-03
7.177111329567166867e-03
7.180586093192669814e-03
7.184061163597674736e-03
7.187536540715068652e-03
7.191012224477680466e-03
7.194488214818278368e-03
7.197964511669573302e-03
7.201441114964225038e-03
7.204918024634837832e-03
7.208395240613960434e-03
7.211872762834088679e-03
7.215350591227658560e-03
7.218828725727049686e-03
7.222307166264580955e-03
7.225785912772518353e-03
7.229264965183068020e-03
7.232744323428374512e-03
7.236223987440519936e-03
7.239703957151531755e-03
7.243184232493375847e-03
7.246664813397958246e-03
7.250145699797125136e-03
7.253626891622660250e-03
7.257108388806287474e-03
7.260590191279669980e-03
7.264072298974406754e-03
7.267554711822032595e-03
7.271037429754018122e-03
7.274520452701772368e-03
7.278003780596638446e-03
7.281487413369890083e-03
7.284971350952735951e-03
7.288455593276322274e-03
7.291940140271734559e-03
7.295424991869988059e-03
7.298910148002027767e-03
7.302395608598731894e-03
7.305881373590914461e-03
7.309367442909323574e-03
7.312853816484638815e-03
7.316340494247468643e-03
7.319827476128349525e-03
7.323314762057747673e-03
7.326802351966062513e-03
7.330290245783624078e-03
7.333778443440696487e-03
7.337266944867480538e-03
7.340755749994105905e-03
7.344244858750631141e-03
7.347734271067039337e-03
7.351223986873241592e-03
7.354714006099077883e-03
7.358204328674316196e-03
7.361694954528658595e-03
7.365185883591734289e-03
7.368677115793095291e-03
7.372168651062219885e-03
7.375660489328513501e-03
7.379152630521307842e-03
7.382645074569866954e-03
7.386137821403382896e-03
7.389630870950972263e-03
7.393124223141670989e-03
7.396617877904447351e-03
7.400111835168192431e-03
7.403606094861724454e-03
7.407100656913782714e-03
7.410595521253026709e-03
7.414090687808038739e-03
7.417586156507323045e-03
7.421081927279306670e-03
7.424578000052339463e-03
7.428074374754689742e-03
7.431571051314551229e-03
7.435068029660036118e-03
7.438565309719177669e-03
7.442062891419929348e-03
7.445560774690164821e-03
7.449058959457681428e-03
7.452557445650196712e-03
7.456056233195344947e-03
7.459555322020679745e-03
7.463054712053673184e-03
7.466554403221713210e-03
7.470054395452107102e-03
7.473554688672080608e-03
7.477055282808773608e-03
7.480556177789247051e-03
7.484057373540480354e-03
7.487558869989373138e-03
7.491060667062744358e-03
7.494562764687330569e-03
7.498065162789785930e-03
7.501567861296680462e-03
7.505070860134495717e-03
7.508574159229629112e-03
7.512077758508393932e-03
7.515581657897018458e-03
7.519085857321645971e-03
7.522590356708333884e-03
7.526095155983053737e-03
7.529600255071688605e-03
7.533105653900035691e-03
7.536611352393808930e-03
7.540117350478638993e-03
7.543623648080069813e-03
7.547130245123558588e-03
7.550637141534474045e-03
7.554144337238099909e-03
7.557651832159633168e-03
7.561159626224179739e-03
7.564667719356756199e-03
7.568176111482286320e-03
7.571684802525605398e-03
7.575193792411459397e-03
7.578703081064501468e-03
7.582212668409291957e-03
7.585722554370304474e-03
7.589232738871918953e-03
7.592743221838425122e-03
7.596254003194025106e-03
7.599765082862829091e-03
7.603276460768856188e-03
7.606788136836031833e-03
7.610300110988186921e-03
7.613812383149059539e-03
7.617324953242301903e-03
7.620837821191477762e-03
7.624350986920054585e-03
7.627864450351402696e-03
7.631378211408798747e-03
7.634892270015426578e-03
7.638406626094373757e-03
7.641921279568633305e-03
7.645436230361100233e-03
7.648951478394575010e-03
7.652467023591756623e-03
7.655982865875250384e-03
7.659499005167562727e-03
7.663015441391096867e-03
7.666532174468157143e-03
7.670049204320951615e-03
7.673566530871592066e-03
7.677084154042091400e-03
7.680602073754366245e-03
7.684120289930229143e-03
7.687638802491392025e-03
7.691157611359466205e-03
7.694676716455965855e-03
7.698196117702300195e-03
7.701715815019776964e-03
7.705235808329603288e-03
7.708756097552887411e-03
7.712276682610637833e-03
7.715797563423757235e-03
7.719318739913045950e-03
7.722840211999201961e-03
7.726361979602820902e-03
7.729884042644391724e-03
7.733406401044306232e-03
7.736929054722856483e-03
7.740452003600237392e-03
7.743975247596542391e-03
7.747498786631760830e-03
7.751022620625774504e-03
7.754546749498357656e-03
7.758071173169183050e-03
7.761595891557814160e-03
7.765120904583712111e-03
7.768646212166239150e-03
7.772171814224651705e-03
7.775697710678103856e-03
7.779223901445642998e-03
7.782750386446213309e-03
7.786277165598653148e-03
7.789804238821694191e-03
7.793331606033967497e-03
7.796859267154000045e-03
7.800387222100214728e-03
7.803915470790926887e-03
7.807444013144350381e-03
7.810972849078590650e-03
7.814501978511644714e-03
7.818031401361407243e-03
7.821561117545668823e-03
7.825091126982111622e-03
7.828621429588310254e-03
7.832152025281730046e-03
7.835682913979732239e-03
7.839214095599565321e-03
7.842745570058365021e-03
7.846277337273152575e-03
7.849809397160843402e-03
7.853341749638245370e-03
7.856874394622053587e-03
7.860407332028848670e-03
7.863940561775105420e-03
7.867474083777187613e-03
7.871007897951342799e-03
7.874542004213709243e-03
7.878076402480314183e-03
7.881611092667077309e-03
7.885146074689802081e-03
7.888681348464180940e-03
7.892216913905788361e-03
7.895752770930084333e-03
7.899288919452412613e-03
7.902825359387999002e-03
7.906362090651958274e-03
7.909899113159297654e-03
7.913436426824908138e-03
7.916974031563571434e-03
7.920511927289953027e-03
7.924050113918603908e-03
7.927588591363955370e-03
7.931127359540319013e-03
7.934666418361891946e-03
7.938205767742760252e-03
7.941745407596898995e-03
7.945285337838173950e-03
7.948825558380329462e-03
7.952366069136990179e-03
7.955906870021669727e-03
7.959447960947765507e-03
7.962989341828553488e-03
7.966531012577189944e-03
7.970072973106714920e-03
7.973615223330053972e-03
7.977157763160009490e-03
7.980700592509269373e-03
7.984243711290398351e-03
7.987787119415850137e-03
7.991330816797960479e-03
7.994874803348950634e-03
7.998419078980927369e-03
8.001963643605882956e-03
8.005508497135684770e-03
8.009053639482083958e-03
8.012599070556711972e-03
8.016144790271085771e-03
8.019690798536597415e-03
8.023237095264514063e-03
8.026783680365988383e-03
8.030330553752058551e-03
8.033877715333639577e-03
8.037425165021519838e-03
8.040972902726362809e-03
8.044520928358714004e-03
8.048069241828999243e-03
8.051617843047521178e-03
8.055166731924466236e-03
8.058715908369901149e-03
8.062265372293766011e-03
8.065815123605877754e-03
8.069365162215937082e-03
8.072915488033528472e-03
8.076466100968108033e-03
8.080017000929010443e-03
8.083568187825450682e-03
8.087119661566518833e-03
8.090671422061180076e-03
8.094223469218276429e-03
8.097775802946528476e-03
8.101328423154533637e-03
8.104881329750757493e-03
8.108434522643535522e-03
8.111988001741067891e-03
8.115541766951429870e-03
8.119095818182568355e-03
8.122650155342307082e-03
8.126204778338350088e-03
8.129759687078273039e-03
8.133314881469523236e-03
8.136870361419423076e-03
8.140426126835170056e-03
8.143982177623835042e-03
8.147538513692362261e-03
8.151095134947565837e-03
8.154652041296133261e-03
8.158209232644632325e-03
8.161766708899502454e-03
8.165324469967052967e-03
8.168882515753468285e-03
8.172440846164797518e-03
8.175999461106963143e-03
8.179558360485759266e-03
8.183117544206846422e-03
8.186677012175756774e-03
8.190236764297892380e-03
8.193796800478523462e-03
8.197357120622784932e-03
8.200917724635676392e-03
8.204478612422067343e-03
8.208039783886697180e-03
8.211601238934173458e-03
8.215162977468971894e-03
8.218724999395432898e-03
8.222287304617765039e-03
8.225849893040046781e-03
8.229412764566226487e-03
8.232975919100113740e-03
8.236539356545379345e-03
8.240103076805564003e-03
8.243667079784078311e-03
8.247231365384199292e-03
8.250795933509072130e-03
8.254360784061713641e-03
8.257925916945017472e-03
8.261491332061741966e-03
8.265057029314506684e-03
8.268623008605795882e-03
8.272189269837956771e-03
8.275755812913201254e-03
8.279322637733607659e-03
8.282889744201119009e-03
8.286457132217549953e-03
8.290024801684579836e-03
8.293592752503752691e-03
8.297160984576480713e-03
8.300729497804039056e-03
8.304298292087572766e-03
8.307867367328086380e-03
8.311436723426449125e-03
8.315006360283401857e-03
8.318576277799553595e-03
8.322146475875381519e-03
8.325716954411224030e-03
8.329287713307284222e-03
8.332858752463628144e-03
8.336430071780177864e-03
8.340001671156720142e-03
8.343573550492902960e-03
8.347145709688235521e-03
8.350718148642086516e-03
8.354290867253687594e-03
8.357863865422138563e-03
8.361437143046403925e-03
8.365010700025307666e-03
8.368584536257531528e-03
8.372158651641627147e-03
8.375733046076005647e-03
8.379307719458941109e-03
8.382882671688579243e-03
8.386457902662925248e-03
8.390033412279842076e-03
8.393609200437050430e-03
8.397185267032121828e-03
8.400761611962483805e-03
8.404338235125419915e-03
8.407915136418074933e-03
8.411492315737460063e-03
8.415069772980452931e-03
8.418647508043790653e-03
8.422225520824073303e-03
8.425803811217760439e-03
8.429382379121174579e-03
8.432961224430499461e-03
8.436540347041786986e-03
8.440119746850950275e-03
8.443699423753758468e-03
8.447279377645833254e-03
8.450859608422659278e-03
8.454440115979575468e-03
8.458020900211776771e-03
8.461601961014319356e-03
8.465183298282118879e-03
8.468764911909953952e-03
8.472346801792460941e-03
8.475928967824139168e-03
8.479511409899343974e-03
8.483094127912295390e-03
8.486677121757062528e-03
8.490260391327563577e-03
8.493843936517579685e-03
8.497427757220751485e-03
8.501011853330573895e-03
8.504596224740392646e-03
8.508180871343414692e-03
8.511765793032704738e-03
8.515350989701186979e-03
8.518936461241632951e-03
8.522522207546668477e-03
8.526108228508778863e-03
8.529694524020307173e-03
8.533281093973449014e-03
8.536867938260252545e-03
8.540455056772623676e-03
8.544042449402324338e-03
8.547630116040974210e-03
8.551218056580055932e-03
8.554806270910913363e-03
8.558394758924744647e-03
8.561983520512600476e-03
8.565572555565380622e-03
8.569161863973849547e-03
8.572751445628631201e-03
8.576341300420207286e-03
8.579931428238910321e-03
8.583521828974920165e-03
8.587112502518270962e-03
8.590703448758845936e-03
8.594294667586377390e-03
8.597886158890453642e-03
8.601477922560519032e-03
8.605069958485866977e-03
8.608662266555650380e-03
8.612254846658876431e-03
8.615847698684413539e-03
8.619440822520982662e-03
8.623034218057157307e-03
8.626627885181361796e-03
8.630221823781876467e-03
8.633816033746832472e-03
8.637410514964215247e-03
8.641005267321864511e-03
8.644600290707477735e-03
8.648195585008610145e-03
8.651791150112667778e-03
8.655386985906907485e-03
8.658983092278433463e-03
8.662579469114207661e-03
8.666176116301044577e-03
8.669773033725607786e-03
8.673370221274413414e-03
8.676967678833824929e-03
8.680565406290058350e-03
8.684163403529178774e-03
8.687761670437107314e-03
8.691360206899619370e-03
8.694959012802342888e-03
8.698558088030758362e-03
8.702157432470191897e-03
8.705757046005823882e-03
8.709356928522683783e-03
8.712957079905648411e-03
8.716557500039441922e-03
8.720158188808632346e-03
8.723759146097640263e-03
8.727360371790740534e-03
8.730961865772064040e-03
8.734563627925595944e-03
8.738165658135175692e-03
8.741767956284491811e-03
8.745370522257085374e-03
8.748973355936341331e-03
8.752576457205497179e-03
8.756179825947639495e-03
8.759783462045698729e-03
8.763387365382456148e-03
8.766991535840549035e-03
8.770595973302463752e-03
8.774200677650540944e-03
8.777805648766965133e-03
8.781410886533768181e-03
8.785016390832831035e-03
8.788622161545880246e-03
8.792228198554493182e-03
8.795834501740098024e-03
8.799441070983970298e-03
8.803047906167232872e-03
8.806655007170857696e-03
8.810262373875665798e-03
8.813870006162330753e-03
8.817477903911380421e-03
8.821086067003188272e-03
8.824694495317978588e-03
8.828303188735835139e-03
8.831912147136687305e-03
8.835521370400313546e-03
8.839130858406330990e-03
8.842740611034209317e-03
8.846350628163267282e-03
8.849960909672670989e-03
8.853571455441437352e-03
8.857182265348434100e-03
8.860793339272376307e-03
8.864404677091829859e-03
8.868016278685209725e-03
8.871628143930776478e-03
8.875240272706636305e-03
8.878852664890744470e-03
8.882465320360903582e-03
8.886078238994765330e-03
8.889691420669833949e-03
8.893304865263457551e-03
8.896918572652831592e-03
8.900532542714993667e-03
8.904146775326828717e-03
8.907761270365074230e-03
8.911376027706321978e-03
8.914991047227004139e-03
8.918606328803403704e-03
8.922221872311644070e-03
8.925837677627689037e-03
8.929453744627348019e-03
8.933070073186277771e-03
8.936686663179980658e-03
8.940303514483811595e-03
8.943920626972972840e-03
8.947538000522508791e-03
8.951155635007312927e-03
8.954773530302127804e-03
8.958391686281536384e-03
8.962010102819972443e-03
8.965628779791711897e-03
8.969247717070872802e-03
8.972866914531425764e-03
8.976486372047193935e-03
8.980106089491849547e-03
8.983726066738913912e-03
8.987346303661747013e-03
8.990966800133550971e-03
8.994587556027382191e-03
8.998208571216149629e-03
9.001829845572607847e-03
9.005451378969360487e-03
9.009073171278858538e-03
9.012695222373396861e-03
9.016317532125110723e-03
9.019940100405974062e-03
9.023562927087806426e-03
9.027186012042271238e-03
9.030809355140874059e-03
9.034432956254969532e-03
9.038056815255764848e-03
9.041680932014312805e-03
9.045305306401522222e-03
9.048929938288144056e-03
9.052554827544776611e-03
9.056179974041870737e-03
9.059805377649717689e-03
9.063431038238457804e-03
9.067056955678080496e-03
9.070683129838422523e-03
9.074309560589164519e-03
9.077936247799830993e-03
9.081563191339793797e-03
9.085190391078277333e-03
9.088817846884349877e-03
9.092445558626925314e-03
9.096073526174761406e-03
9.099701749396459788e-03
9.103330228160465970e-03
9.106958962335071073e-03
9.110587951788415295e-03
9.114217196388489650e-03
9.117846696003130760e-03
9.121476450500027797e-03
9.125106459746712070e-03
9.128736723610572645e-03
9.132367241958845930e-03
9.135998014658612207e-03
9.139629041576799104e-03
9.143260322580178123e-03
9.146891857535368112e-03
9.150523646308842199e-03
9.154155688766920859e-03
9.157787984775777115e-03
9.161420534201434804e-03
9.165053336909763371e-03
9.168686392766481341e-03
9.172319701637149381e-03
9.175953263387182438e-03
9.179587077881851478e-03
9.183221144986273080e-03
9.186855464565407692e-03
9.190490036484061376e-03
9.194124860606880598e-03
9.197759936798350494e-03
9.201395264922807016e-03
9.205030844844433457e-03
9.208666676427260459e-03
9.212302759535164268e-03
9.215939094031863274e-03
9.219575679780923211e-03
9.223212516645757156e-03
9.226849604489623796e-03
9.230486943175630898e-03
9.234124532566735308e-03
9.237762372525741214e-03
9.241400462915296682e-03
9.245038803597895385e-03
9.248677394435876609e-03
9.252316235291432184e-03
9.255955326026608226e-03
9.259594666503298196e-03
9.263234256583244633e-03
9.266874096128035684e-03
9.270514184999108578e-03
9.274154523057746152e-03
9.277795110165076853e-03
9.281435946182083410e-03
9.285077030969597633e-03
9.288718364388298676e-03
9.292359946298714771e-03
9.296001776561218025e-03
9.299643855036022685e-03
9.303286181583192080e-03
9.306928756062638614e-03
9.310571578334122037e-03
9.314214648257251178e-03
9.317857965691483946e-03
9.321501530496129062e-03
9.325145342530351267e-03
9.328789401653159175e-03
9.332433707723407010e-03
9.336078260599798076e-03
9.339723060140883021e-03
9.343368106205063306e-03
9.347013398650596411e-03
9.350658937335592363e-03
9.354304722118018944e-03
9.357950752855696483e-03
9.361597029406290918e-03
9.365243551627319002e-03
9.368890319376137893e-03
9.372537332509955563e-03
9.376184590885836001e-03
9.379832094360690542e-03
9.383479842791279599e-03
9.387127836034214398e-03
9.390776073945958716e-03
9.394424556382821936e-03
9.398073283200967729e-03
9.401722254256407105e-03
9.405371469404998422e-03
9.409020928502454320e-03
9.412670631404331315e-03
9.416320577966036734e-03
9.419970768042821782e-03
9.423621201489785007e-03
9.427271878161875771e-03
9.430922797913890779e-03
9.434573960600474082e-03
9.438225366076118811e-03
9.441877014195167173e-03
9.445528904811808721e-03
9.449181037780083822e-03
9.452833412953883657e-03
9.456486030186951955e-03
9.460138889332881523e-03
9.463791990245114250e-03
9.467445332776939365e-03
9.471098916781493446e-03
9.474752742111767351e-03
9.478406808620606222e-03
9.482061116160711220e-03
9.485715664584639523e-03
9.489370453744797387e-03
9.493025483493445354e-03
9.496680753682693044e-03
9.500336264164502623e-03
9.503992014790680135e-03
9.507648005412878967e-03
9.511304235882599850e-03
9.514960706051196065e-03
9.518617415769869972e-03
9.522274364889666068e-03
9.525931553261479667e-03
9.529588980736060366e-03
9.533246647164006840e-03
9.536904552395768578e-03
9.540562696281644148e-03
9.544221078671791605e-03
9.547879699416219820e-03
9.551538558364781537e-03
9.555197655367175108e-03
9.558856990272953172e-03
9.562516562931524383e-03
9.566176373192146476e-03
9.569836420903924529e-03
9.573496705915814434e-03
9.577157228076628101e-03
9.580817987235035194e-03
9.584478983239557923e-03
9.588140215938571048e-03
9.591801685180303613e-03
9.595463390812832005e-03
9.599125332684090364e-03
9.602787510641875787e-03
9.606449924533846593e-03
9.610112574207508446e-03
9.613775459510224761e-03
9.617438580289221911e-03
9.621101936391578818e-03
9.624765527664226952e-03
9.628429353953945127e-03
9.632093415107366441e-03
9.635757710970974804e-03
9.639422241391113616e-03
9.643087006213982293e-03
9.646752005285632800e-03
9.650417238451967916e-03
9.654082705558748173e-03
9.657748406451593590e-03
9.661414340975978468e-03
9.665080508977227924e-03
9.668746910300521358e-03
9.672413544790894185e-03
9.676080412293239577e-03
9.679747512652306721e-03
9.683414845712697352e-03
9.687082411318874431e-03
9.690750209315153463e-03
9.694418239545705973e-03
9.698086501854557770e-03
9.701754996085587210e-03
9.705423722082528667e-03
9.709092679688977739e-03
9.712761868748384306e-03
9.716431289104045591e-03
9.720100940599120040e-03
9.723770823076629058e-03
9.727440936379453534e-03
9.731111280350326909e-03
9.734781854831835168e-03
9.738452659666427258e-03
9.742123694696406405e-03
9.745794959763931856e-03
9.749466454711020608e-03
9.753138179379543943e-03
9.756810133611236099e-03
9.760482317247696007e-03
9.764154730130375145e-03
9.767827372100577540e-03
9.771500242999466707e-03
9.775173342668065646e-03
9.778846670947255112e-03
9.782520227677780553e-03
9.786194012700248634e-03
9.789868025855122044e-03
9.793542266982717751e-03
9.797216735923215680e-03
9.800891432516651777e-03
9.804566356602916269e-03
9.808241508021755400e-03
9.811916886612766231e-03
9.815592492215410511e-03
9.819268324669011214e-03
9.822944383812754268e-03
9.826620669485683357e-03
9.830297181526705119e-03
9.833973919774587416e-03
9.837650884067964535e-03
9.841328074245335455e-03
9.845005490145058644e-03
9.848683131605352054e-03
9.852360998464287922e-03
9.856039090559794505e-03
9.859717407729659544e-03
9.863395949811538943e-03
9.867074716642944623e-03
9.870753708061258402e-03
9.874432923903714646e-03
9.878112364007407206e-03
9.881792028209296364e-03
9.885471916346215762e-03
9.889152028254860269e-03
9.892832363771784238e-03
9.896512922733404979e-03
9.900193704976001027e-03
9.903874710335720810e-03
9.907555938648573979e-03
9.911237389750436610e-03
9.914919063477046005e-03
9.918600959664004152e-03
9.922283078146779470e-03
9.925965418760699863e-03
9.929647981340952723e-03
9.933330765722583194e-03
9.937013771740504584e-03
9.940696999229491418e-03
9.944380448024182917e-03
9.948064117959079522e-03
9.951748008868546366e-03
9.955432120586818479e-03
9.959116452948000783e-03
9.962801005786059427e-03
9.966485778934826983e-03
9.970170772228007655e-03
9.973855985499172072e-03
9.977541418581755556e-03
9.981227071309056384e-03
9.984912943514240996e-03
9.988599035030347462e-03
9.992285345690282011e-03
9.995971875326819037e-03
9.999658623772595886e-03
1.000334559086011633e-02
1.000703277642175752e-02
1.001072018028976648e-02
1.001440780229625148e-02
1.001809564227318892e-02
1.002178370005242687e-02
1.002547197546567632e-02
1.002916046834451819e-02
1.003284917852040499e-02
1.003653810582466263e-02
1.004022725008849558e-02
1.004391661114297993e-02
1.004760618881906514e-02
1.005129598294756885e-02
1.005498599335918029e-02
1.005867621988446210e-02
1.006236666235384332e-02
1.006605732059762288e-02
1.006974819444597137e-02
1.007343928372893618e-02
1.007713058827643463e-02
1.008082210791825216e-02
1.008451384248404588e-02
1.008820579180334798e-02
1.009189795570556401e-02
1.009559033401997812e-02
1.009928292657575125e-02
1.010297573320191253e-02
1.010666875372736966e-02
1.011036198798090889e-02
1.011405543579118813e-02
1.011774909698674035e-02
1.012144297139597193e-02
1.012513705884715565e-02
1.012883135916843765e-02
1.013252587218783397e-02
1.013622059773324098e-02
1.013991553563242838e-02
1.014361068571303579e-02
1.014730604780257270e-02
1.015100162172843067e-02
1.015469740731788154e-02
1.015839340439808093e-02
1.016208961279605957e-02
1.016578603233872329e-02
1.016948266285284605e-02
1.017317950416508042e-02
1.017687655610195752e-02
1.018057381848989050e-02
1.018427129115517284e-02
1.018796897392397309e-02
1.019166686662234360e-02
1.019536496907620486e-02
1.019906328111135942e-02
1.020276180255348490e-02
1.020646053322813579e-02
1.021015947296073992e-02
1.021385862157659676e-02
1.021755797890087740e-02
1.022125754475863672e-02
1.022495731897481164e-02
1.022865730137421762e-02
1.023235749178154699e-02
1.023605789002136890e-02
1.023975849591812759e-02
1.024345930929614588e-02
1.024716032997962517e-02
1.025086155779265061e-02
1.025456299255919287e-02
1.025826463410310467e-02
1.026196648224812595e-02
1.026566853681787003e-02
1.026937079763582880e-02
1.027307326452537618e-02
1.027677593730976988e-02
1.028047881581214268e-02
1.028418189985551116e-02
1.028788518926277047e-02
1.029158868385669258e-02
1.029529238345993844e-02
1.029899628789505972e-02
1.030270039698449186e-02
1.030640471055055407e-02
1.031010922841544761e-02
1.031381395040125576e-02
1.031751887632994212e-02
1.032122400602335406e-02
1.032492933930322446e-02
1.032863487599117343e-02
1.033234061590870487e-02
1.033604655887720297e-02
1.033975270471794439e-02
1.034345905325209300e-02
1.034716560430069127e-02
1.035087235768467236e-02
1.035457931322486015e-02
1.035828647074196751e-02
1.036199383005659454e-02
1.036570139098923204e-02
1.036940915336025983e-02
1.037311711698994145e-02
1.037682528169843466e-02
1.038053364730578618e-02
1.038424221363192998e-02
1.038795098049668901e-02
1.039165994771976825e-02
1.039536911512076341e-02
1.039907848251916608e-02
1.040278804973436035e-02
1.040649781658562270e-02
1.041020778289211690e-02
1.041391794847289394e-02
1.041762831314689379e-02
1.042133887673294887e-02
1.042504963904977537e-02
1.042876059991598714e-02
1.043247175915009393e-02
1.043618311657048756e-02
1.043989467199545572e-02
1.044360642524317859e-02
1.044731837613171489e-02
1.045103052447901235e-02
1.045474287010290937e-02
1.045845541282114377e-02
1.046216815245134581e-02
1.046588108881102951e-02
1.046959422171760655e-02
1.047330755098837586e-02
1.047702107644051667e-02
1.048073479789109891e-02
1.048444871515709191e-02
1.048816282805536786e-02
1.049187713640269831e-02
1.049559164001574729e-02
1.049930633871107473e-02
1.050302123230513474e-02
1.050673632061426867e-02
1.051045160345471380e-02
1.051416708064260158e-02
1.051788275199395072e-02
1.052159861732467755e-02
1.052531467645058741e-02
1.052903092918737980e-02
1.053274737535065189e-02
1.053646401475589155e-02
1.054018084721848256e-02
1.054389787255371157e-02
1.054761509057676287e-02
1.055133250110271148e-02
1.055505010394653005e-02
1.055876789892309757e-02
1.056248588584719761e-02
1.056620406453351139e-02
1.056992243479661260e-02
1.057364099645096041e-02
1.057735974931090644e-02
1.058107869319070173e-02
1.058479782790449665e-02
1.058851715326633407e-02
1.059223666909015621e-02
1.059595637518981337e-02
1.059967627137905870e-02
1.060339635747154646e-02
1.060711663328082338e-02
1.061083709862033035e-02
1.061455775330341113e-02
1.061827859714330538e-02
1.062199962995315564e-02
1.062572085154601421e-02
1.062944226173483456e-02
1.063316386033247817e-02
1.063688564715171807e-02
1.064060762200523189e-02
1.064432978470560183e-02
1.064805213506532164e-02
1.065177467289680178e-02
1.065549739801235733e-02
1.065922031022420793e-02
1.066294340934448477e-02
1.066666669518523229e-02
1.067039016755840126e-02
1.067411382627584879e-02
1.067783767114933655e-02
1.068156170199053775e-02
1.068528591861104063e-02
1.068901032082234838e-02
1.069273490843587054e-02
1.069645968126291778e-02
1.070018463911471575e-02
1.070390978180240336e-02
1.070763510913702761e-02
1.071136062092955220e-02
1.071508631699084370e-02
1.071881219713167674e-02
1.072253826116273401e-02
1.072626450889459584e-02
1.072999094013774544e-02
1.073371755470257406e-02
1.073744435239937754e-02
1.074117133303837020e-02
1.074489849642967614e-02
1.074862584238332926e-02
1.075235337070928193e-02
1.075608108121739286e-02
1.075980897371743225e-02
1.076353704801908881e-02
1.076726530393196449e-02
1.077099374126556583e-02
1.077472235982931091e-02
1.077845115943253280e-02
1.078218013988447958e-02
1.078590930099431258e-02
1.078963864257110640e-02
1.079336816442384196e-02
1.079709786636142213e-02
1.080082774819267170e-02
1.080455780972633048e-02
1.080828805077104805e-02
1.081201847113538901e-02
1.081574907062782601e-02
1.081947984905675536e-02
1.082321080623048319e-02
1.082694194195723235e-02
1.083067325604514242e-02
1.083440474830226277e-02
1.083813641853656647e-02
1.084186826655593808e-02
1.084560029216817371e-02
1.084933249518098622e-02
1.085306487540200170e-02
1.085679743263875952e-02
1.086053016669872272e-02
1.086426307738926761e-02
1.086799616451769243e-02
1.087172942789121390e-02
1.087546286731695330e-02
1.087919648260194695e-02
1.088293027355315308e-02
1.088666423997745707e-02
1.089039838168166449e-02
1.089413269847250981e-02
1.089786719015664422e-02
1.090160185654063391e-02
1.090533669743097393e-02
1.090907171263408131e-02
1.091280690195630190e-02
1.091654226520389834e-02
1.092027780218305689e-02
1.092401351269988927e-02
1.092774939656043255e-02
1.093148545357065446e-02
1.093522168353645331e-02
1.093895808626364416e-02
1.094269466155797441e-02
1.094643140922512553e-02
1.095016832907070442e-02
1.095390542090024337e-02
1.095764268451920181e-02
1.096138011973296633e-02
1.096511772634685064e-02
1.096885550416609387e-02
1.097259345299585534e-02
1.097633157264122326e-02
1.098006986290721992e-02
1.098380832359878954e-02
1.098754695452080522e-02
1.099128575547805506e-02
1.099502472627524388e-02
1.099876386671700540e-02
1.100250317660789526e-02
1.100624265575240665e-02
1.100998230395495645e-02
1.101372212101988518e-02
1.101746210675145707e-02
1.102120226095387387e-02
1.102494258343126102e-02
1.102868307398767629e-02
1.103242373242711676e-02
1.103616455855351182e-02
1.103990555217071109e-02
1.104364671308249654e-02
1.104738804109258246e-02
1.105112953600461724e-02
1.105487119762219028e-02
1.105861302574882507e-02
1.106235502018797223e-02
1.106609718074301647e-02
1.106983950721727658e-02
1.107358199941400716e-02
1.107732465713639342e-02
1.108106748018755638e-02
1.108481046837055117e-02
1.108855362148836871e-02
1.109229693934393746e-02
1.109604042174012345e-02
1.109978406847971638e-02
1.110352787936544350e-02
1.110727185419996266e-02
1.111101599278586927e-02
1.111476029492569802e-02
1.111850476042192289e-02
1.112224938907695540e-02
1.112599418069314637e-02
1.112973913507278069e-02
1.113348425201807733e-02
1.113722953133120148e-02
1.114097497281425764e-02
1.114472057626929129e-02
1.114846634149828895e-02
1.115221226830317817e-02
1.115595835648582751e-02
1.115970460584804827e-02
1.116345101619159626e-02
1.116719758731817697e-02
1.117094431902944385e-02
1.117469121112699311e-02
1.117843826341235851e-02
1.118218547568701829e-02
1.118593284775239345e-02
1.118968037940984081e-02
1.119342807046066340e-02
1.119717592070611049e-02
1.120092392994737583e-02
1.120467209798559939e-02
1.120842042462186043e-02
1.121216890965718270e-02
1.121591755289253096e-02
1.121966635412880407e-02
1.122341531316684536e-02
1.122716442980745306e-02
1.123091370385137511e-02
1.123466313509931258e-02
1.123841272335191453e-02
1.124216246840977970e-02
1.124591237007344785e-02
1.124966242814340843e-02
1.125341264242010059e-02
1.125716301270389928e-02
1.126091353879513784e-02
1.126466422049408542e-02
1.126841505760095390e-02
1.127216604991590661e-02
1.127591719723905830e-02
1.127966849937046302e-02
1.128341995611013490e-02
1.128717156725803257e-02
1.129092333261406608e-02
1.129467525197809692e-02
1.129842732514993973e-02
1.130217955192935018e-02
1.130593193211603883e-02
1.130968446550966421e-02
1.131343715190983798e-02
1.131718999111611806e-02
1.132094298292801726e-02
1.132469612714499807e-02
1.132844942356647962e-02
1.133220287199182899e-02
1.133595647222036991e-02
1.133971022405138272e-02
1.134346412728409748e-02
1.134721818171768870e-02
1.135097238715128930e-02
1.135472674338398359e-02
1.135848125021481948e-02
1.136223590744280844e-02
1.136599071486692203e-02
1.136974567228607805e-02
1.137350077949914572e-02
1.137725603630495436e-02
1.138101144250228819e-02
1.138476699788989153e-02
1.138852270226646188e-02
1.139227855543064466e-02
1.139603455718104542e-02
1.139979070731622288e-02
1.140354700563469235e-02
1.140730345193493277e-02
1.141106004601538486e-02
1.141481678767444427e-02
1.141857367671047715e-02
1.142233071292180803e-02
1.142608789610671804e-02
1.142984522606345192e-02
1.143360270259021969e-02
1.143736032548519493e-02
1.144111809454651484e-02
1.144487600957229054e-02
1.144863407036058635e-02
1.145239227670943188e-02
1.145615062841682207e-02
1.145990912528071885e-02
1.146366776709904604e-02
1.146742655366970835e-02
1.147118548479058968e-02
1.147494456025954790e-02
1.147870377987440273e-02
1.148246314343293571e-02
1.148622265073290585e-02
1.148998230157203398e-02
1.149374209574801492e-02
1.149750203305851398e-02
1.150126211330116700e-02
1.150502233627358033e-02
1.150878270177333774e-02
1.151254320959799876e-02
1.151630385954510727e-02
1.152006465141217940e-02
1.152382558499670355e-02
1.152758666009614553e-02
1.153134787650793476e-02
1.153510923402946767e-02
1.153887073245810080e-02
1.154263237159115600e-02
1.154639415122592737e-02
1.155015607115968124e-02
1.155391813118965792e-02
1.155768033111307345e-02
1.156144267072712478e-02
1.156520514982898803e-02
1.156896776821580639e-02
1.157273052568469872e-02
1.157649342203275963e-02
1.158025645705704557e-02
1.158401963055458173e-02
1.158778294232236904e-02
1.159154639215737546e-02
1.159530997985654469e-02
1.159907370521679956e-02
1.160283756803503867e-02
1.160660156810814324e-02
1.161036570523295980e-02
1.161412997920632621e-02
1.161789438982506473e-02
1.162165893688597504e-02
1.162542362018582735e-02
1.162918843952136412e-02
1.163295339468931218e-02
1.163671848548638449e-02
1.164048371170926799e-02
1.164424907315462707e-02
1.164801456961909835e-02
1.165178020089929940e-02
1.165554596679183388e-02
1.165931186709327771e-02
1.166307790160019293e-02
1.166684407010912423e-02
1.167061037241658508e-02
1.167437680831907507e-02
1.167814337761306775e-02
1.168191008009501763e-02
1.168567691556135317e-02
1.168944388380848548e-02
1.169321098463280660e-02
1.169697821783068949e-02
1.170074558319848454e-02
1.170451308053251267e-02
1.170828070962907572e-02
1.171204847028445642e-02
1.171581636229492192e-02
1.171958438545671680e-02
1.172335253956606829e-02
1.172712082441918630e-02
1.173088923981226508e-02
1.173465778554148506e-02
1.173842646140300927e-02
1.174219526719298343e-02
1.174596420270753935e-02
1.174973326774280021e-02
1.175350246209487352e-02
1.175727178555985991e-02
1.176104123793383742e-02
1.176481081901286849e-02
1.176858052859300167e-02
1.177235036647027860e-02
1.177612033244071314e-02
1.177989042630029834e-02
1.178366064784499949e-02
1.178743099687075933e-02
1.179120147317350674e-02
1.179497207654915322e-02
1.179874280679358428e-02
1.180251366370267674e-02
1.180628464707228660e-02
1.181005575669826640e-02
1.181382699237646175e-02
1.181759835390271823e-02
1.182136984107287105e-02
1.182514145368274323e-02
1.182891319152815264e-02
1.183268505440490496e-02
1.183645704210878509e-02
1.184022915443556055e-02
1.184400139118098327e-02
1.184777375214080691e-02
1.185154623711077992e-02
1.185531884588664729e-02
1.185909157826414186e-02
1.186286443403899125e-02
1.186663741300691272e-02
1.187041051496361306e-02
1.187418373970478176e-02
1.187795708702609095e-02
1.188173055672319713e-02
1.188550414859174814e-02
1.188927786242737969e-02
1.189305169802571532e-02
1.189682565518236992e-02
1.190059973369294970e-02
1.190437393335305044e-02
1.190814825395825234e-02
1.191192269530413385e-02
1.191569725718626301e-02
1.191947193940019918e-02
1.192324674174148613e-02
1.192702166400566414e-02
1.193079670598826483e-02
1.193457186748480593e-02
1.193834714829080344e-02
1.194212254820176990e-02
1.194589806701321609e-02
1.194967370452065282e-02
1.195344946051956833e-02
1.195722533480544220e-02
1.196100132717374705e-02
1.196477743741994684e-02
1.196855366533949687e-02
1.197233001072784547e-02
1.197610647338043233e-02
1.197988305309268843e-02
1.198365974966004478e-02
1.198743656287791851e-02
1.199121349254171978e-02
1.199499053844685012e-02
1.199876770038870930e-02
1.200254497816268320e-02
1.200632237156415254e-02
1.201009988038849279e-02
1.201387750443107770e-02
1.201765524348727236e-02
1.202143309735243491e-02
1.202521106582193043e-02
1.202898914869111706e-02
1.203276734575535294e-02
1.203654565680997539e-02
1.204032408165032347e-02
1.204410262007172411e-02
1.204788127186949553e-02
1.205166003683894732e-02
1.205543891477539077e-02
1.205921790547414586e-02
1.206299700873052563e-02
1.206677622433983792e-02
1.207055555209738361e-02
1.207433499179845493e-02
1.207811454323833196e-02
1.208189420621228957e-02
1.208567398051559570e-02
1.208945386594352696e-02
1.209323386229134781e-02
1.209701396935431578e-02
1.210079418692768839e-02
1.210457451480670930e-02
1.210835495278661002e-02
1.211213550066260990e-02
1.211591615822992136e-02
1.211969692528375164e-02
1.212347780161930969e-02
1.212725878703179751e-02
1.213103988131640498e-02
1.213482108426832372e-02
1.213860239568273144e-02
1.214238381535479201e-02
1.214616534307966234e-02
1.214994697865249412e-02
1.215372872186843561e-02
1.215751057252262290e-02
1.216129253041018515e-02
1.216507459532623764e-02
1.216885676706590258e-02
1.217263904542429005e-02
1.217642143019650493e-02
1.218020392117764514e-02
1.218398651816279647e-02
1.218776922094703258e-02
1.219155202932541496e-02
1.219533494309301379e-02
1.219911796204489231e-02
1.220290108597610682e-02
1.220668431468172055e-02
1.221046764795679848e-02
1.221425108559640905e-02
1.221803462739562245e-02
1.222181827314951404e-02
1.222560202265315227e-02
1.222938587570160211e-02
1.223316983208992334e-02
1.223695389161317398e-02
1.224073805406641208e-02
1.224452231924469912e-02
1.224830668694308969e-02
1.225209115695662966e-02
1.225587572908035973e-02
1.225966040310931537e-02
1.226344517883853902e-02
1.226723005606307482e-02
1.227101503457796866e-02
1.227480011417826644e-02
1.227858529465900538e-02
1.228237057581522094e-02
1.228615595744192955e-02
1.228994143933414239e-02
1.229372702128686545e-02
1.229751270309509259e-02
1.230129848455381592e-02
1.230508436545802581e-02
1.230887034560271265e-02
1.231265642478286682e-02
1.231644260279347175e-02
1.232022887942949702e-02
1.232401525448591217e-02
1.232780172775768679e-02
1.233158829903977655e-02
1.233537496812712325e-02
1.233916173481465484e-02
1.234294859889728535e-02
1.234673556016993405e-02
1.235052261842751152e-02
1.235430977346491446e-02
1.235809702507703264e-02
1.236188437305874889e-02
1.236567181720494429e-02
1.236945935731050515e-02
1.237324699317032296e-02
1.237703472457928056e-02
1.238082255133224688e-02
1.238461047322408221e-02
1.238839849004963814e-02
1.239218660160375761e-02
1.239597480768128181e-02
1.239976310807704499e-02
1.240355150258587967e-02
1.240733999100260797e-02
1.241112857312204158e-02
1.241491724873899048e-02
1.241870601764825076e-02
1.242249487964460983e-02
1.242628383452285164e-02
1.243007288207774973e-02
1.243386202210407417e-02
1.243765125439659329e-02
1.244144057875006676e-02
1.244522999495924383e-02
1.244901950281887028e-02
1.245280910212368149e-02
1.245659879266840415e-02
1.246038857424774764e-02
1.246417844665641608e-02
1.246796840968909803e-02
1.247175846314047161e-02
1.247554860680521495e-02
1.247933884047799577e-02
1.248312916395345924e-02
1.248691957702624533e-02
1.249071007949097492e-02
1.249450067114224981e-02
1.249829135177467354e-02
1.250208212118283924e-02
1.250587297916133656e-02
1.250966392550474302e-02
1.251345496000762919e-02
1.251724608246455352e-02
1.252103729267007096e-02
1.252482859041871739e-02
1.252861997550502871e-02
1.253241144772353384e-02
1.253620300686874786e-02
1.253999465273518063e-02
1.254378638511732987e-02
1.254757820380967941e-02
1.255137010860671309e-02
1.255516209930290089e-02
1.255895417569270582e-02
1.256274633757057703e-02
1.256653858473094978e-02
1.257033091696825242e-02
1.257412333407690631e-02
1.257791583585132419e-02
1.258170842208591010e-02
1.258550109257505420e-02
1.258929384711314492e-02
1.259308668549454814e-02
1.259687960751361413e-02
1.260067261296468275e-02
1.260446570164208517e-02
1.260825887334013871e-02
1.261205212785313813e-02
1.261584546497536777e-02
1.261963888450108769e-02
1.262343238622454233e-02
1.262722596993996055e-02
1.263101963544156596e-02
1.263481338252357179e-02
1.263860721098016872e-02
1.264240112060552833e-02
1.264619511119381701e-02
1.264998918253919073e-02
1.265378333443578814e-02
1.265757756667773050e-02
1.266137187905912696e-02
1.266516627137407973e-02
1.266896074341667885e-02
1.267275529498100399e-02
1.267654992586112264e-02
1.268034463585108844e-02
1.268413942474493593e-02
1.268793429233668751e-02
1.269172923842035866e-02
1.269552426278995096e-02
1.269931936523944517e-02
1.270311454556280126e-02
1.270690980355395835e-02
1.271070513900683478e-02
1.271450055171533325e-02
1.271829604147333391e-02
1.272209160807470305e-02
1.272588725131327918e-02
1.272968297098287134e-02
1.273347876687727989e-02
1.273727463879028264e-02
1.274107058651563311e-02
1.274486660984706227e-02
1.274866270857828547e-02
1.275245888250299379e-02
1.275625513141486096e-02
1.276005145510752947e-02
1.276384785337461754e-02
1.276764432600972603e-02
1.277144087280643152e-02
1.277523749355829845e-02
1.277903418805887217e-02
1.278283095610168070e-02
1.278662779748023295e-02
1.279042471198801878e-02
1.279422169941851588e-02
1.279801875956517419e-02
1.280181589222142459e-02
1.280561309718066497e-02
1.280941037423627242e-02
1.281320772318159627e-02
1.281700514380996331e-02
1.282080263591467255e-02
1.282460019928899700e-02
1.282839783372618711e-02
1.283219553901947078e-02
1.283599331496205510e-02
1.283979116134711766e-02
1.284358907796781177e-02
1.284738706461726818e-02
1.285118512108858989e-02
1.285498324717485041e-02
1.285878144266910418e-02
1.286257970736437960e-02
1.286637804105367558e-02
1.287017644352996849e-02
1.287397491458620868e-02
1.287777345401532741e-02
1.288157206161023860e-02
1.288537073716382320e-02
1.288916948046892746e-02
1.289296829131837165e-02
1.289676716950495169e-02
1.290056611482143754e-02
1.290436512706057137e-02
1.290816420601506760e-02
1.291196335147760596e-02
1.291576256324085056e-02
1.291956184109742910e-02
1.292336118483994323e-02
1.292716059426096686e-02
1.293096006915303749e-02
1.293475960930865788e-02
1.293855921452030655e-02
1.294235888458042209e-02
1.294615861928141362e-02
1.294995841841564861e-02
1.295375828177546505e-02
1.295755820915316797e-02
1.296135820034102944e-02
1.296515825513129029e-02
1.296895837331615842e-02
1.297275855468780874e-02
1.297655879903838495e-02
1.298035910615999260e-02
1.298415947584469037e-02
1.298795990788450920e-02
1.299176040207144535e-02
1.299556095819746036e-02
1.299936157605448284e-02
1.300316225543440146e-02
1.300696299612906850e-02
1.301076379793029286e-02
1.301456466062984874e-02
1.301836558401946696e-02
1.302216656789082806e-02
1.302596761203557788e-02
1.302976871624532580e-02
1.303356988031163614e-02
1.303737110402602983e-02
1.304117238717998443e-02
1.304497372956493935e-02
1.304877513097228887e-02
1.305257659119339608e-02
1.305637811001957894e-02
1.306017968724211553e-02
1.306398132265224402e-02
1.306778301604116441e-02
1.307158476720002294e-02
1.307538657591991900e-02
1.307918844199190689e-02
1.308299036520700100e-02
1.308679234535616714e-02
1.309059438223032952e-02
1.309439647562037068e-02
1.309819862531713848e-02
1.310200083111142527e-02
1.310580309279398177e-02
1.310960541015551012e-02
1.311340778298667603e-02
1.311721021107809491e-02
1.312101269422034054e-02
1.312481523220394332e-02
1.312861782481939028e-02
1.313242047185712510e-02
1.313622317310754635e-02
1.314002592836100228e-02
1.314382873740779084e-02
1.314763160003815622e-02
1.315143451604230442e-02
1.315523748521039114e-02
1.315904050733252527e-02
1.316284358219875494e-02
1.316664670959908322e-02
1.317044988932346804e-02
1.317425312116181531e-02
1.317805640490397022e-02
1.318185974033972245e-02
1.318566312725880790e-02
1.318946656545090870e-02
1.319327005470566534e-02
1.319707359481267668e-02
1.320087718556148607e-02
1.320468082674158827e-02
1.320848451814242430e-02
1.321228825955338138e-02
1.321609205076378947e-02
1.321989589156292826e-02
1.322369978174002710e-02
1.322750372108427198e-02
1.323130770938480034e-02
1.323511174643069235e-02
1.323891583201097094e-02
1.324271996591460179e-02
1.324652414793049161e-02
1.325032837784748292e-02
1.325413265545436099e-02
1.325793698053985906e-02
1.326174135289265137e-02
1.326554577230136013e-02
1.326935023855455552e-02
1.327315475144075566e-02
1.327695931074841275e-02
1.328076391626591829e-02
1.328456856778160305e-02
1.328837326508374578e-02
1.329217800796057142e-02
1.329598279620025116e-02
1.329978762959090240e-02
1.330359250792058703e-02
1.330739743097730625e-02
1.331120239854901438e-02
1.331500741042361026e-02
1.331881246638894414e-02
1.332261756623279864e-02
1.332642270974290950e-02
1.333022789670695527e-02
1.333403312691256414e-02
1.333783840014730188e-02
1.334164371619868568e-02
1.334544907485417722e-02
1.334925447590118094e-02
1.335305991912703535e-02
1.335686540431902172e-02
1.336067093126435887e-02
1.336447649975020316e-02
1.336828210956365372e-02
1.337208776049175762e-02
1.337589345232150992e-02
1.337969918483984666e-02
1.338350495783364666e-02
1.338731077108973148e-02
1.339111662439485678e-02
1.339492251753572616e-02
1.339872845029897556e-02
1.340253442247118024e-02
1.340634043383884429e-02
1.341014648418841285e-02
1.341395257330627033e-02
1.341775870097874912e-02
1.342156486699211393e-02
1.342537107113256876e-02
1.342917731318625692e-02
1.343298359293926617e-02
1.343678991017762357e-02
1.344059626468729722e-02
1.344440265625418754e-02
1.344820908466412557e-02
1.345201554970287990e-02
1.345582205115614972e-02
1.345962858880958048e-02
1.346343516244875686e-02
1.346724177185919941e-02
1.347104841682636445e-02
1.347485509713564067e-02
1.347866181257234910e-02
1.348246856292174660e-02
1.348627534796902408e-02
1.349008216749930829e-02
1.349388902129765831e-02
1.349769590914907079e-02
1.350150283083847644e-02
1.350530978615073485e-02
1.350911677487064144e-02
1.351292379678292743e-02
1.351673085167225466e-02
1.352053793932321210e-02
1.352434505952031414e-02
1.352815221204800404e-02
1.353195939669066261e-02
1.353576661323259954e-02
1.353957386145804992e-02
1.354338114115117425e-02
1.354718845209606191e-02
1.355099579407674504e-02
1.355480316687718116e-02
1.355861057028126017e-02
1.356241800407280082e-02
1.356622546803554902e-02
1.357003296195318127e-02
1.357384048560930125e-02
1.357764803878744840e-02
1.358145562127110149e-02
1.358526323284366989e-02
1.358907087328850224e-02
1.359287854238888128e-02
1.359668623992801514e-02
1.360049396568904258e-02
1.360430171945503294e-02
1.360810950100898101e-02
1.361191731013381562e-02
1.361572514661239103e-02
1.361953301022749210e-02
1.362334090076183432e-02
1.362714881799806377e-02
1.363095676171876582e-02
1.363476473170646512e-02
1.363857272774360828e-02
1.364238074961257076e-02
1.364618879709566038e-02
1.364999686997510342e-02
1.365380496803305505e-02
1.365761309105159929e-02
1.366142123881275081e-02
1.366522941109844097e-02
1.366903760769052310e-02
1.367284582837077246e-02
1.367665407292089491e-02
1.368046234112252520e-02
1.368427063275722694e-02
1.368807894760648743e-02
1.369188728545172457e-02
1.369569564607427820e-02
1.369950402925540836e-02
1.370331243477630918e-02
1.370712086241810367e-02
1.371092931196184542e-02
1.371473778318851693e-02
1.371854627587902088e-02
1.372235478981418018e-02
1.372616332477475179e-02
1.372997188054141462e-02
1.373378045689477647e-02
1.373758905361536532e-02
1.374139767048362937e-02
1.374520630727993700e-02
1.374901496378457856e-02
1.375282363977777152e-02
1.375663233503965181e-02
1.376044104935027559e-02
1.376424978248962615e-02
1.376805853423760002e-02
1.377186730437402785e-02
1.377567609267866741e-02
1.377948489893119494e-02
1.378329372291120514e-02
1.378710256439821293e-02
1.379091142317165342e-02
1.379472029901088193e-02
1.379852919169517918e-02
1.380233810100374436e-02
1.380614702671568994e-02
1.380995596861005377e-02
1.381376492646579045e-02
1.381757390006177304e-02
1.382138288917680174e-02
1.382519189358960218e-02
1.382900091307883057e-02
1.383280994742306161e-02
1.383661899640079018e-02
1.384042805979042966e-02
1.384423713737031013e-02
1.384804622891868536e-02
1.385185533421373280e-02
1.385566445303355529e-02
1.385947358515618281e-02
1.386328273035956384e-02
1.386709188842156874e-02
1.387090105911999681e-02
1.387471024223256057e-02
1.387851943753688581e-02
1.388232864481052029e-02
1.388613786383093365e-02
1.388994709437552100e-02
1.389375633622160280e-02
1.389756558914642844e-02
1.390137485292717787e-02
1.390518412734094954e-02
1.390899341216476383e-02
1.391280270717556479e-02
1.391661201215021494e-02
1.392042132686549874e-02
1.392423065109812258e-02
1.392803998462471653e-02
1.393184932722182738e-02
1.393565867866591867e-02
1.393946803873337068e-02
1.394327740720048038e-02
1.394708678384346846e-02
1.395089616843847059e-02
1.395470556076154438e-02
1.395851496058866416e-02
1.396232436769571927e-02
1.396613378185852794e-02
1.396994320285282511e-02
1.397375263045426939e-02
1.397756206443844136e-02
1.398137150458084871e-02
1.398518095065692281e-02
1.398899040244200483e-02
1.399279985971134919e-02
1.399660932224013402e-02
1.400041878980344719e-02
1.400422826217628987e-02
1.400803773913358516e-02
1.401184722045017809e-02
1.401565670590084259e-02
1.401946619526026235e-02
1.402327568830303607e-02
1.402708518480368961e-02
1.403089468453666902e-02
1.403470418727633534e-02
1.403851369279696636e-02
1.404232320087274964e-02
1.404613271127778777e-02
1.404994222378611046e-02
1.405375173817166069e-02
1.405756125420830165e-02
1.406137077166980456e-02
1.406518029032985742e-02
1.406898980996207013e-02
1.407279933033997975e-02
1.407660885123703833e-02
1.408041837242661291e-02
1.408422789368198383e-02
1.408803741477635159e-02
1.409184693548283171e-02
1.409565645557446165e-02
1.409946597482419212e-02
1.410327549300489577e-02
1.410708500988936027e-02
1.411089452525029347e-02
1.411470403886032343e-02
1.411851355049200014e-02
1.412232305991778861e-02
1.412613256691007402e-02
1.412994207124116872e-02
1.413375157268329831e-02
1.413756107100860339e-02
1.414137056598913957e-02
1.414518005739687570e-02
1.414898954500368872e-02
1.415279902858137054e-02
1.415660850790163156e-02
1.416041798273608848e-02
1.416422745285628171e-02
1.416803691803367182e-02
1.417184637803963788e-02
1.417565583264547395e-02
1.417946528162238908e-02
1.418327472474151252e-02
1.418708416177390068e-02
1.419089359249052322e-02
1.419470301666227174e-02
1.419851243405995285e-02
1.420232184445428467e-02
1.420613124761590552e-02
1.420994064331537049e-02
1.421375003132315483e-02
1.421755941140964534e-02
1.422136878334514382e-02
1.422517814689986705e-02
1.422898750184395031e-02
1.423279684794744905e-02
1.423660618498033548e-02
1.424041551271250199e-02
1.424422483091376639e-02
1.424803413935386148e-02
1.425184343780243508e-02
1.425565272602905519e-02
1.425946200380319613e-02
1.426327127089425245e-02
1.426708052707153368e-02
1.427088977210427129e-02
1.427469900576161695e-02
1.427850822781262866e-02
1.428231743802627768e-02
1.428612663617145548e-02
1.428993582201697372e-02
1.429374499533156602e-02
1.429755415588388791e-02
1.430136330344251513e-02
1.430517243777593844e-02
1.430898155865256358e-02
1.431279066584071648e-02
1.431659975910863636e-02
1.432040883822448263e-02
1.432421790295632970e-02
1.432802695307217392e-02
1.433183598833993183e-02
1.433564500852743326e-02
1.433945401340242821e-02
1.434326300273258865e-02
1.434707197628550326e-02
1.435088093382868267e-02
1.435468987512954903e-02
1.435849879995545163e-02
1.436230770807365650e-02
1.436611659925135683e-02
1.436992547325566597e-02
1.437373432985361403e-02
1.437754316881214439e-02
1.438135198989812756e-02
1.438516079287835078e-02
1.438896957751951630e-02
1.439277834358823269e-02
1.439658709085101483e-02
1.440039581907428569e-02
1.440420452802439188e-02
1.440801321746758810e-02
1.441182188717004924e-02
1.441563053689787904e-02
1.441943916641709629e-02
1.442324777549363300e-02
1.442705636389333620e-02
1.443086493138196966e-02
1.443467347772522773e-02
1.443848200268872672e-02
1.444229050603800316e-02
1.444609898753850853e-02
1.444990744695561109e-02
1.445371588405458714e-02
1.445752429860064012e-02
1.446133269035889714e-02
1.446514105909440899e-02
1.446894940457213972e-02
1.447275772655697013e-02
1.447656602481369771e-02
1.448037429910703326e-02
1.448418254920160429e-02
1.448799077486194985e-02
1.449179897585252917e-02
1.449560715193772172e-02
1.449941530288183233e-02
1.450322342844908956e-02
1.450703152840363691e-02
1.451083960250952772e-02
1.451464765053073896e-02
1.451845567223115051e-02
1.452226366737455719e-02
1.452607163572468274e-02
1.452987957704516761e-02
1.453368749109956899e-02
1.453749537765136775e-02
1.454130323646396841e-02
1.454511106730067838e-02
1.454891886992472176e-02
1.455272664409923943e-02
1.455653438958729069e-02
1.456034210615184642e-02
1.456414979355579939e-02
1.456795745156196434e-02
1.457176507993307273e-02
1.457557267843177275e-02
1.457938024682063106e-02
1.458318778486213975e-02
1.458699529231870587e-02
1.459080276895265323e-02
1.459461021452622582e-02
1.459841762880159828e-02
1.460222501154086715e-02
1.460603236250604745e-02
1.460983968145907960e-02
1.461364696816182251e-02
1.461745422237604661e-02
1.462126144386343904e-02
1.462506863238560370e-02
1.462887578770407510e-02
1.463268290958031313e-02
1.463648999777570486e-02
1.464029705205155581e-02
1.464410407216908822e-02
1.464791105788944975e-02
1.465171800897370653e-02
1.465552492518285010e-02
1.465933180627779046e-02
1.466313865201935435e-02
1.466694546216829390e-02
1.467075223648528146e-02
1.467455897473091478e-02
1.467836567666572223e-02
1.468217234205015931e-02
1.468597897064460173e-02
1.468978556220933498e-02
1.469359211650456479e-02
1.469739863329041704e-02
1.470120511232694133e-02
1.470501155337411436e-02
1.470881795619183308e-02
1.471262432053991806e-02
1.471643064617811705e-02
1.472023693286610667e-02
1.472404318036348199e-02
1.472784938842976871e-02
1.473165555682440404e-02
1.473546168530675410e-02
1.473926777363610691e-02
1.474307382157167591e-02
1.474687982887259302e-02
1.475068579529791035e-02
1.475449172060660022e-02
1.475829760455755514e-02
1.476210344690958784e-02
1.476590924742143124e-02
1.476971500585174540e-02
1.477352072195911754e-02
1.477732639550206895e-02
1.478113202623903416e-02
1.478493761392836794e-02
1.478874315832834699e-02
1.479254865919716992e-02
1.479635411629296078e-02
1.480015952937376207e-02
1.480396489819753823e-02
1.480777022252218258e-02
1.481157550210551559e-02
1.481538073670527964e-02
1.481918592607912519e-02
1.482299106998462290e-02
1.482679616817927926e-02
1.483060122042052266e-02
1.483440622646570173e-02
1.483821118607209222e-02
1.484201609899690397e-02
1.484582096499726875e-02
1.484962578383024895e-02
1.485343055525282889e-02
1.485723527902192004e-02
1.486103995489434886e-02
1.486484458262686548e-02
1.486864916197614198e-02
1.487245369269876369e-02
1.487625817455123789e-02
1.488006260729000246e-02
1.488386699067141029e-02
1.488767132445172926e-02
1.489147560838715786e-02
1.489527984223381653e-02
1.489908402574774762e-02
1.490288815868491545e-02
1.490669224080120626e-02
1.491049627185243691e-02
1.491430025159435485e-02
1.491810417978263817e-02
1.492190805617289381e-02
1.492571188052065762e-02
1.492951565258138907e-02
1.493331937211046269e-02
1.493712303886317490e-02
1.494092665259475448e-02
1.494473021306035564e-02
1.494853372001506142e-02
1.495233717321388378e-02
1.495614057241177394e-02
1.495994391736360681e-02
1.496374720782417921e-02
1.496755044354820471e-02
1.497135362429033445e-02
1.497515674980515188e-02
1.497895981984716587e-02
1.498276283417081592e-02
1.498656579253046517e-02
1.499036869468040045e-02
1.499417154037483227e-02
1.499797432936790173e-02
1.500177706141367362e-02
1.500557973626613813e-02
1.500938235367921085e-02
1.501318491340673106e-02
1.501698741520247037e-02
1.502078985882012580e-02
1.502459224401331978e-02
1.502839457053560014e-02
1.503219683814043840e-02
1.503599904658123147e-02
1.503980119561130861e-02
1.504360328498393663e-02
1.504740531445231469e-02
1.505120728376958296e-02
1.505500919268880702e-02
1.505881104096298308e-02
1.506261282834503272e-02
1.506641455458779776e-02
1.507021621944405927e-02
1.507401782266653764e-02
1.507781936400787344e-02
1.508162084322063265e-02
1.508542226005731360e-02
1.508922361427034869e-02
1.509302490561209575e-02
1.509682613383483800e-02
1.510062729869078579e-02
1.510442839993207664e-02
1.510822943731077520e-02
1.511203041057887844e-02
1.511583131948831572e-02
1.511963216379095219e-02
1.512343294323857494e-02
1.512723365758289647e-02
1.513103430657556162e-02
1.513483488996814931e-02
1.513863540751217256e-02
1.514243585895907844e-02
1.514623624406024813e-02
1.515003656256698993e-02
1.515383681423053928e-02
1.515763699880204665e-02
1.516143711603258441e-02
1.516523716567315903e-02
1.516903714747471106e-02
1.517283706118810818e-02
1.517663690656415910e-02
1.518043668335359968e-02
1.518423639130709463e-02
1.518803603017523929e-02
1.519183559970856481e-02
1.519563509965752950e-02
1.519943452977252571e-02
1.520323388980387297e-02
1.520703317950181967e-02
1.521083239861653787e-02
1.521463154689812157e-02
1.521843062409660059e-02
1.522222962996193363e-02
1.522602856424400651e-02
1.522982742669264263e-02
1.523362621705759597e-02
1.523742493508854767e-02
1.524122358053510776e-02
1.524502215314681511e-02
1.524882065267314443e-02
1.525261907886350105e-02
1.525641743146722781e-02
1.526021571023359821e-02
1.526401391491182154e-02
1.526781204525103595e-02
1.527161010100032412e-02
1.527540808190870625e-02
1.527920598772513835e-02
1.528300381819850534e-02
1.528680157307763139e-02
1.529059925211127824e-02
1.529439685504814343e-02
1.529819438163686207e-02
1.530199183162599987e-02
1.530578920476406181e-02
1.530958650079949045e-02
1.531338371948067108e-02
1.531718086055592828e-02
1.532097792377351900e-02
1.532477490888162382e-02
1.532857181562835396e-02
1.533236864376175124e-02
1.533616539302979503e-02
1.533996206318038839e-02
1.534375865396137364e-02
1.534755516512052546e-02
1.535135159640556302e-02
1.535514794756413781e-02
1.535894421834384238e-02
1.536274040849220160e-02
1.536653651775667095e-02
1.537033254588464348e-02
1.537412849262343763e-02
1.537792435772031979e-02
1.538172014092248699e-02
1.538551584197707378e-02
1.538931146063114361e-02
1.539310699663169399e-02
1.539690244972565999e-02
1.540069781965990904e-02
1.540449310618124089e-02
1.540828830903639458e-02
1.541208342797204325e-02
1.541587846273480104e-02
1.541967341307122312e-02
1.542346827872779699e-02
1.542726305945095640e-02
1.543105775498705527e-02
1.543485236508237469e-02
1.543864688948312983e-02
1.544244132793547684e-02
1.544623568018551295e-02
1.545002994597926768e-02
1.545382412506270987e-02
1.545761821718174417e-02
1.546141222208221103e-02
1.546520613950989192e-02
1.546899996921049548e-02
1.547279371092966267e-02
1.547658736441296853e-02
1.548038092940593261e-02
1.548417440565401544e-02
1.548796779290261688e-02
1.549176109089707952e-02
1.549555429938268350e-02
1.549934741810464478e-02
1.550314044680811167e-02
1.550693338523818042e-02
1.551072623313987792e-02
1.551451899025816684e-02
1.551831165633793704e-02
1.552210423112402801e-02
1.552589671436120991e-02
1.552968910579418868e-02
1.553348140516761129e-02
1.553727361222606053e-02
1.554106572671405673e-02
1.554485774837605604e-02
1.554864967695644348e-02
1.555244151219953991e-02
1.555623325384959503e-02
1.556002490165079612e-02
1.556381645534728186e-02
1.556760791468312852e-02
1.557139927940234120e-02
1.557519054924885391e-02
1.557898172396653819e-02
1.558277280329921008e-02
1.558656378699063011e-02
1.559035467478449462e-02
1.559414546642442882e-02
1.559793616165399029e-02
1.560172676021668280e-02
1.560551726185595463e-02
1.560930766631519161e-02
1.561309797333772925e-02
1.561688818266685277e-02
1.562067829404579535e-02
1.562446830721774503e-02
1.562825822192584133e-02
1.563204803791316821e-02
1.563583775492275937e-02
1.563962737269758430e-02
1.564341689098056043e-02
1.564720630951454625e-02
1.565099562804234470e-02
1.565478484630669284e-02
1.565857396405026525e-02
1.566236298101566365e-02
1.566615189694543081e-02
1.566994071158206089e-02
1.567372942466798910e-02
1.567751803594559165e-02
1.568130654515718231e-02
1.568509495204501933e-02
1.568888325635130199e-02
1.569267145781818099e-02
1.569645955618773764e-02
1.570024755120199428e-02
1.570403544260291426e-02
1.570782323013240542e-02
1.571161091353230968e-02
1.571539849254440652e-02
1.571918596691042336e-02
1.572297333637202518e-02
1.572676060067081799e-02
1.573054775954834186e-02
1.573433481274608831e-02
1.573812176000548985e-02
1.574190860106791656e-02
1.574569533567467955e-02
1.574948196356704480e-02
1.575326848448622974e-02
1.575705489817339280e-02
1.576084120436963693e-02
1.576462740281601299e-02
1.576841349325351638e-02
1.577219947542309042e-02
1.577598534906561947e-02
1.577977111392192544e-02
1.578355676973277125e-02
1.578734231623886083e-02
1.579112775318085651e-02
1.579491308029935467e-02
1.579869829733488579e-02
1.580248340402792481e-02
1.580626840011887385e-02
1.581005328534808296e-02
1.581383805945585710e-02
1.581762272218245266e-02
1.582140727326806356e-02
1.582519171245282824e-02
1.582897603947683307e-02
1.583276025408012627e-02
1.583654435600269708e-02
1.584032834498447229e-02
1.584411222076532316e-02
1.584789598308505854e-02
1.585167963168343172e-02
1.585546316630014746e-02
1.585924658667486192e-02
1.586302989254717577e-02
1.586681308365663068e-02
1.587059615974270935e-02
1.587437912054484243e-02
1.587816196580242242e-02
1.588194469525477937e-02
1.588572730864118085e-02
1.588950980570085283e-02
1.589329218617296577e-02
1.589707444979664153e-02
1.590085659631096035e-02
1.590463862545496085e-02
1.590842053696764347e-02
1.591220233058796354e-02
1.591598400605482785e-02
1.591976556310708765e-02
1.592354700148354563e-02
1.592732832092295242e-02
1.593110952116401358e-02
1.593489060194537218e-02
1.593867156300562277e-02
1.594245240408332515e-02
1.594623312491698711e-02
1.595001372524506439e-02
1.595379420480596416e-02
1.595757456333804156e-02
1.596135480057960312e-02
1.596513491626891032e-02
1.596891491014418296e-02
1.597269478194358536e-02
1.597647453140524018e-02
1.598025415826722501e-02
1.598403366226758271e-02
1.598781304314431453e-02
1.599159230063536968e-02
1.599537143447865573e-02
1.599915044441201778e-02
1.600292933017324892e-02
1.600670809150009366e-02
1.601048672813023058e-02
1.601426523980128622e-02
1.601804362625084549e-02
1.602182188721645514e-02
1.602560002243560641e-02
1.602937803164574543e-02
1.603315591458428363e-02
1.603693367098859776e-02
1.604071130059602293e-02
1.604448880314385609e-02
1.604826617836934560e-02
1.605204342600969475e-02
1.605582054580206516e-02
1.605959753748357685e-02
1.606337440079131512e-02
1.606715113546231671e-02
1.607092774123355938e-02
1.607470421784197578e-02
1.607848056502445000e-02
1.608225678251783142e-02
1.608603287005892085e-02
1.608980882738446708e-02
1.609358465423116336e-02
1.609736035033566479e-02
1.610113591543457442e-02
1.610491134926445023e-02
1.610868665156180157e-02
1.611246182206308927e-02
1.611623686050473944e-02
1.612001176662312615e-02
1.612378654015459226e-02
1.612756118083544243e-02
1.613133568840194321e-02
1.613511006259031946e-02
1.613888430313674405e-02
1.614265840977733776e-02
1.614643238224817284e-02
1.615020622028527295e-02
1.615397992362461316e-02
1.615775349200213734e-02
1.616152692515374772e-02
