2.402905968268569947e-01
2.449329984113196024e-01
2.496269279063333957e-01
2.543413396343396915e-01
2.590383202106695815e-01
2.636726717649687246e-01
2.681915737089219931e-01
2.725343347249247761e-01
2.766322457990175177e-01
2.804085442396794248e-01
2.837784972751860590e-01
2.866496124549015589e-01
2.889219805368555272e-01
2.904887547190236896e-01
2.912367682797132873e-01
2.910472906394047099e-01
2.897969197056180501e-01
2.873586063820854908e-01
2.836028048094830223e-01
2.783987397303430145e-01
2.716157804096809292e-01
2.631249084237956004e-01
2.528002645860787934e-01
2.405207586410198217e-01
2.261717237267970304e-01
2.096465961278559109e-01
1.908485996901327086e-01
1.696924133720038030e-01
1.461057997523814156e-01
1.200311720793494213e-01
9.142707715609289798e-02
6.026957188847793107e-02
2.655347187218735916e-02
-9.706548723775488066e-03
-4.847502547209035090e-02
-8.969495800813216679e-02
-1.332872665214329400e-01
-1.791504642596844499e-01
-2.271605576057377507e-01
-2.771711827153479635e-01
-3.290139848515765686e-01
-3.824992436100583260e-01
-4.374167444266791605e-01
-4.935368931124143321e-01
-5.506120676346586418e-01
-6.083781977411601982e-01
-6.665565602358012320e-01
-7.248557745607726588e-01
-7.829739805559432497e-01
-8.406011777813195973e-01
-8.974217031945898038e-01
-9.531168218907201117e-01
-1.007367403728927968e+00
-1.059856657331148755e+00
-1.110272891521031147e+00
-1.158312273673691051e+00
-1.203681553996202247e+00
-1.246100724709882313e+00
-1.285305583767071269e+00
-1.321050173165273067e+00
-1.353109063431192416e+00
-1.381279457359427809e+00
-1.405383088029721339e+00
-1.425267888417180995e+00
-1.440809412673142109e+00
-1.451911991792234735e+00
-1.458509609695990195e+00
-1.460566489024590187e+00
-1.458077379473736723e+00
-1.451067545030781947e+00
-1.439592450042239902e+00
-1.423737147928958668e+00
-1.403615379662832119e+00
-1.379368392878438820e+00
-1.351163495791003255e+00
-1.319192363208765872e+00
-1.283669114980043213e+00
-1.244828189833131926e+00
-1.202922040021719541e+00
-1.158218674122646341e+00
-1.110999077085023101e+00
-1.061554537935348153e+00
-1.010183916291546913e+00
-9.571908794828879463e-01
-9.028811419538056438e-01
-8.475597383154487297e-01
-7.915283607651697473e-01
-7.350827901960599320e-01
-6.785104488452217142e-01
-6.220881006552504422e-01
-5.660797227767062623e-01
-5.107345696927335643e-01
-4.562854483575986553e-01
-4.029472197690026625e-01
-3.509155394325747523e-01
-3.003658457034373286e-01
-2.514526018328411827e-01
-2.043087939599179670e-01
-1.590456843007791721e-01
-1.157528151367404751e-01
-7.449825638159086882e-02
-3.532908624186516938e-02
1.727908133237111669e-03
3.666532583387531463e-02
6.949406106126797267e-02
1.002420458310850360e-01
1.289528482010622590e-01
1.556841490954763707e-01
1.805061216173326211e-01
2.034997377092222504e-01
2.247550269389872457e-01
2.443693123414605872e-01
2.624454477177528555e-01
2.790900799479407723e-01
2.944119589124709058e-01
3.085203160961547120e-01
3.215233314450927082e-01
3.335267059138260493e-01
3.446323552786961786e-01
3.549372383569648348e-01
3.645323304769940709e-01
3.735017504414369083e-01
3.819220467647488348e-01
3.898616464386541192e-01
3.973804667651457678e-01
4.045296885303072965e-01
4.113516862959929465e-01
4.178801095689781420e-01
4.241401061992658428e-01
4.301486778458670779e-01
4.359151553368912912e-01
4.414417806748748840e-01
4.467243811923177765e-01
4.517531201707863375e-01
4.565133080723730030e-01
4.609862578788089804e-01
4.651501680616172973e-01
4.689810168769378840e-01
4.724534519947886091e-01
4.755416604254827373e-01
4.782202043796862090e-01
4.804648100052894000e-01
4.822530969597708661e-01
4.835652385088300420e-01
4.843845431742168639e-01
4.846979507832187561e-01
4.844964374092744497e-01
4.837753254616101173e-01
4.825344970085377883e-01
4.807785099612766344e-01
4.785166186897017448e-01
4.757627020872591261e-01
4.725351037043035163e-01
4.688563897770102185e-01
4.647530323963595111e-01
4.602550259168592395e-01
4.553954458966604224e-01
4.502099603324627441e-01
4.447363033961984624e-01
4.390137224583785525e-01
4.330824091867985226e-01
4.269829252205802894e-01
4.207556331316691378e-01
4.144401424597289330e-01
4.080747805216133339e-01
4.016960963698835152e-01
3.953384059738959122e-01
3.890333854091441168e-01
3.828097177893676761e-01
3.766927986719057486e-01
3.707045033194679151e-01
3.648630181449207810e-01
3.591827374237930304e-01
3.536742250315478842e-01
3.483442399909296161e-01
3.431958234132642116e-01
3.382284434247084248e-01
3.334381938413096269e-01
3.288180413433878790e-01
3.243581154413769929e-01
3.200460345621552460e-01
3.158672616283027534e-01
3.118054818673018369e-01
3.078429955822011843e-01
3.039611184057580684e-01
3.001405818209039733e-01
2.963619270099103753e-01
2.926058851926929272e-01
2.888537383699674721e-01
2.850876547888498980e-01
2.812909940904347872e-01
2.774485777876775638e-01
2.735469216776523216e-01
2.695744274024887144e-01
2.655215313216952033e-01
2.613808095868830339e-01
2.571470392907000968e-01
2.528172163160812835e-01
2.483905312113821595e-01
2.438683052422035702e-01
2.392538893876221262e-01
2.345525296699015327e-01
2.297712026670172825e-01
2.249184254469931421e-01
2.200040446487905033e-01
2.150390094013657494e-01
2.100351331907060748e-01
2.050048496051630476e-01
1.999609668648769101e-01
1.949164259642984232e-01
1.898840668709582957e-01
1.848764071124659181e-01
1.799054364404364947e-01
1.749824310634645053e-01
1.701177901868973774e-01
1.653208972669923393e-01
1.606000076935896470e-01
1.559621640344654447e-01
1.514131394985162860e-01
1.469574095053546858e-01
1.425981508488256833e-01
1.383372673525530283e-01
1.341754404787979249e-01
1.301122026402980747e-01
1.261460309656514400e-01
1.222744586016966256e-01
1.184942006663280561e-01
1.148012914122275852e-01
1.111912294111384869e-01
1.076591272133076427e-01
1.041998620609135562e-01
1.008082244474300393e-01
9.747906118474489179e-02
9.420741012810858461e-02
9.098862376788904860e-02
8.781847933301896447e-02
8.469327345282069708e-02
8.160989954459040019e-02
7.856590678908442760e-02
7.555953995023907688e-02
7.258975951002361038e-02
6.965624228575630073e-02
6.675936290570586018e-02
6.390015711305610524e-02
6.108026806350418808e-02
5.830187725103529867e-02
5.556762190946136493e-02
5.288050107697331303e-02
5.024377265753181276e-02
4.766084391098597550e-02
4.513515809605173762e-02
4.267007982472333788e-02
4.026878185355696471e-02
3.793413576808991189e-02
3.566860914838996394e-02
3.347417136993528081e-02
3.135221022882742764e-02
2.930346118357774962e-02
2.732795081109927818e-02
2.542495557869942774e-02
2.359297707448106129e-02
2.182973410891703506e-02
2.013217177183226209e-02
1.849648765832793973e-02
1.691817447979998904e-02
1.539207839546313274e-02
1.391247180064762203e-02
1.247313927132632019e-02
1.106747496884908678e-02
9.688589645286597649e-03
8.329425006071089488e-03
6.982873454472481034e-03
5.641900780449156730e-03
4.299669437599198084e-03
2.949660068537172681e-03
1.585788925651882703e-03
2.025190778110353286e-04
-1.205036885569654975e-03
-2.641024452827058899e-03
-4.108766836745364644e-03
-5.610698260400846620e-03
-7.148312057291337888e-03
-8.722124467548747484e-03
-1.033165502368769799e-02
-1.197542370920154017e-02
-1.365096505393836868e-02
-1.535485877258132778e-02
-1.708277651134759365e-02
-1.882954394793955738e-02
-2.058921697896736597e-02
-2.235517074539159280e-02
-2.412019986827272297e-02
-2.587662822164565890e-02
-2.761642629870010579e-02
-2.933133416750766803e-02
-3.101298784382099452e-02
-3.265304709814432355e-02
-3.424332232385086244e-02
-3.577589851748363275e-02
-3.724325429362375373e-02
-3.863837400438611958e-02
-3.995485110698795972e-02
-4.118698119236839650e-02
-4.232984331186367966e-02
-4.337936823307453338e-02
-4.433239277904513220e-02
-4.518669946242084151e-02
-4.594104098696804445e-02
-4.659514926923221528e-02
-4.714972922243806236e-02
-4.760643749367104299e-02
-4.796784670422617192e-02
-4.823739606448172040e-02
-4.841932927678761767e-02
-4.851862098637615278e-02
-4.854089310240942284e-02
-4.849232260871137040e-02
-4.837954233062988912e-02
-4.820953659512101919e-02
-4.798953336216840726e-02
-4.772689476317296814e-02
-4.742900774314151580e-02
-4.710317671166977527e-02
-4.675651982416684227e-02
-4.639587040888495245e-02
-4.602768514700926461e-02
-4.565796031120585713e-02
-4.529215733499308144e-02
-4.493513857903854575e-02
-4.459111417440921737e-02
-4.426360067225637573e-02
-4.395539175208929700e-02
-4.366854131648550269e-02
-4.340435891871399776e-02
-4.316341735494889226e-02
-4.294557203823630431e-02
-4.274999150103017675e-02
-4.257519835443913936e-02
-4.241911979980458880e-02
-4.227914664312047016e-02
-4.215219963181449092e-02
-4.203480191515335251e-02
-4.192315626015459540e-02
-4.181322572010517935e-02
-4.170081632131716204e-02
-4.158166036859530651e-02
-4.145149908263656702e-02
-4.130616313345968765e-02
-4.114164988279817720e-02
-4.095419611380177877e-02
-4.074034516366725062e-02
-4.049700756661312601e-02
-4.022151431640526298e-02
-3.991166195951289380e-02
-3.956574913797382409e-02
-3.918260406527315082e-02
-3.876160272793897216e-02
-3.830267763770672101e-02
-3.780631727768627576e-02
-3.727355643241475613e-02
-3.670595765343271505e-02
-3.610558442824934183e-02
-3.547496662431626202e-02
-3.481705886827168167e-02
-3.413519267670546420e-02
-3.343302317068315432e-02
-3.271447146489589453e-02
-3.198366345411263884e-02
-3.124486628287615267e-02
-3.050242337238316323e-02
-2.976068905798469333e-02
-2.902396391556461008e-02
-2.829643172461961120e-02
-2.758209897665196350e-02
-2.688473787987458175e-02
-2.620783359489071984e-02
-2.555453660030934313e-02
-2.492762061016685210e-02
-2.432944671455308447e-02
-2.376193415719632732e-02
-2.322653818737699383e-02
-2.272423507654361061e-02
-2.225551449122271583e-02
-2.182037918588526984e-02
-2.141835204582374225e-02
-2.104849010922744956e-02
-2.070940537685171320e-02
-2.039929205387071287e-02
-2.011595962776489138e-02
-1.985687137479133502e-02
-1.961918753455375516e-02
-1.939981262337440657e-02
-1.919544603637403715e-02
-1.900263523203703578e-02
-1.881783076145454592e-02
-1.863744229379831960e-02
-1.845789478459861424e-02
-1.827568414427126198e-02
-1.808743147002641813e-02
-1.788993516228721756e-02
-1.768022020235523670e-02
-1.745558393213477583e-02
-1.721363770375980776e-02
-1.695234385010068942e-02
-1.667004749779414305e-02
-1.636550282128901301e-02
-1.603789330296791216e-02
-1.568684591787973190e-02
-1.531243898626625036e-02
-1.491520348118624203e-02
-1.449611797932411766e-02
-1.405659723740143759e-02
-1.359847460410372813e-02
-1.312397842381187417e-02
-1.263570289583269314e-02
-1.213657369078665997e-02
-1.162980872375429797e-02
-1.111887474867285890e-02
-1.060744026769018002e-02
-1.009932542145571509e-02
-9.598449485445418455e-03
-9.108776628358579430e-03
-8.634260796217888001e-03
-8.178790232774641594e-03
-7.746132665153503648e-03
-7.339881555866110442e-03
-6.963404445467068909e-03
-6.619793790119854644e-03
-6.311821212822598531e-03
-6.041895586827882546e-03
-5.812025719565457743e-03
-5.623787959309293344e-03
-5.478299258884306196e-03
-5.376196185160040698e-03
-5.317620026386122786e-03
-5.302208273168199960e-03
-5.329092631937109963e-03
-5.396903749052668620e-03
-5.503782460055103853e-03
-5.647397510664540349e-03
-5.824969607773187834e-03
-6.033301458655888037e-03
-6.268813482109412971e-03
-6.527584805855674195e-03
-6.805398950201179721e-03
-7.097793721480926028e-03
-7.400114645287392268e-03
-7.707571209205881652e-03
-8.015295282051857970e-03
-8.318400975106792286e-03
-8.612045095627263516e-03
-8.891487496500004306e-03
-9.152150415382720797e-03
-9.389676198303170337e-03
-9.599982499096713570e-03
-9.779314296717153340e-03
-9.924292005340848780e-03
-1.003195515595427592e-02
-1.009980088366154750e-02
-1.012581689955757008e-02
-1.010850837157718785e-02
-1.004691842119919548e-02
-9.940641952530535411e-03
-9.789832613222432950e-03
-9.595202859683540225e-03
-9.358017042735792060e-03
-9.080077685456744083e-03
-8.763705130170454383e-03
-8.411710777774791814e-03
-8.027364355487972766e-03
-7.614355710655834261e-03
-7.176751524744416633e-03
-6.718947596885885623e-03
-6.245617338568370570e-03
-5.761657241545386013e-03
-5.272130018353442769e-03
-4.782206117636318005e-03
-4.297104547642522851e-03
-3.822033583648898163e-03
-3.362132336357526782e-03
-2.922413901383759307e-03
-2.507710781392454447e-03
-2.122623290065968338e-03
-1.771471616163583420e-03
-1.458252119849837462e-03
-1.186598404373362999e-03
-9.597476143885529977e-04
-7.805122622529877966e-04
-6.512579446803811508e-04
-5.738871291766515018e-04
-5.498291136789039066e-04
-5.800361271347349509e-04
-6.649855205688865985e-04
-8.046878841406817848e-04
-9.987008385055433628e-04
-1.246148149027848312e-03
-1.545743771628823801e-03
-1.895820298038959498e-03
-2.294361349248609169e-03
-2.739037245721433807e-03
-3.227243394660194147e-03
-3.756140678650311988e-03
-4.322697207160023855e-03
-4.923730789754730656e-03
-5.555951338643377174e-03
-6.216002653138414866e-03
-6.900502876403922722e-03
-7.606083057092501327e-03
-8.329423253455200266e-03
-9.067285672996718698e-03
-9.816544419015358833e-03
-1.057421142640851616e-02
-1.133745839231496341e-02
-1.210363436384917848e-02
-1.287027884552470122e-02
-1.363513050978167399e-02
-1.439613135561761473e-02
-1.515142652353959271e-02
-1.589935986795135148e-02
-1.663846562043136065e-02
-1.736745646377303373e-02
-1.808520823474266126e-02
-1.879074195400894445e-02
-1.948320338467725982e-02
-2.016184081572524461e-02
-2.082598156701265246e-02
-2.147500774670486196e-02
-2.210833183977329447e-02
-2.272537268376620748e-02
-2.332553238242354721e-02
-2.390817466029935418e-02
-2.447260518801032750e-02
-2.501805421039935903e-02
-2.554366206873059236e-02
-2.604846777073794445e-02
-2.653140093017151285e-02
-2.699127740128799691e-02
-2.742679859716199917e-02
-2.783655461796864100e-02
-2.821903118086741338e-02
-2.857262023029563322e-02
-2.889563421636549834e-02
-2.918632366205780107e-02
-2.944289774075595223e-02
-2.966354754601326776e-02
-2.984647174695621852e-02
-2.998990406337862305e-02
-3.009214200220535276e-02
-3.015157659071918475e-02
-3.016672234361617716e-02
-3.013624695494872621e-02
-3.005900023337692781e-02
-2.993404175015928342e-02
-2.976066653450056346e-02
-2.953842841541186315e-02
-2.926716057825096487e-02
-2.894699286583118231e-02
-2.857836544740106899e-02
-2.816203852942040370e-02
-2.769909795906512831e-02
-2.719095633503569934e-02
-2.663934970691418311e-02
-2.604632978117292150e-02
-2.541425161344231312e-02
-2.474575685506736830e-02
-2.404375291843500323e-02
-2.331138798974698167e-02
-2.255202260904098574e-02
-2.176919776769534187e-02
-2.096660031989703438e-02
-2.014802596074137184e-02
-1.931734025438494248e-02
-1.847843844378822473e-02
-1.763520449745164739e-02
-1.679146997847499531e-02
-1.595097331374997415e-02
-1.511732009674167550e-02
-1.429394500796291739e-02
-1.348407584831805631e-02
-1.269070014748950419e-02
-1.191653508193009359e-02
-1.116400087723959378e-02
-1.043519814192402952e-02
-9.731889543187178040e-03
-9.055486016175163383e-03
-8.407037653675640543e-03
-7.787229610563742473e-03
-7.196382833940204518e-03
-6.634459698659884823e-03
-6.101074511224667367e-03
-5.595508579487303534e-03
-5.116729723301356725e-03
-4.663415967425563885e-03
-4.233982956658325324e-03
-3.826614736535123573e-03
-3.439297456979573554e-03
-3.069855454236789048e-03
-2.715989245104320337e-03
-2.375314790032073513e-03
-2.045403457552287616e-03
-1.723822244095611200e-03
-1.408173500024031272e-03
-1.096133632184511991e-03
-7.854902635588519510e-04
-4.741772780986542907e-04
-1.603072577136661848e-04
1.577991631757793103e-04
4.815874238984303637e-04
8.122470031399914043e-04
1.150693624096195888e-03
1.497555737095817132e-03
1.853165672146568806e-03
2.217555497641585886e-03
2.590457573704781601e-03
2.971309862978657387e-03
3.359265839617367987e-03
3.753208821711975871e-03
4.151770604846878251e-03
4.553353951423699808e-03
4.956158709232609712e-03
5.358211139795700066e-03
5.757395962060169597e-03
6.151490602935888626e-03
6.538201258765810424e-03
6.915200111962432200e-03
7.280163135103781546e-03
7.630807956076453985e-03
7.964931207187855161e-03
8.280444710160870733e-03
8.575410097430022707e-03
8.848071159310520392e-03
9.096883495114024484e-03
9.320541052556013256e-03
9.517999005704986040e-03
9.688492752084967158e-03
9.831552579435937078e-03
9.947013842299505526e-03
1.003502241003900383e-02
1.009603528457523464e-02
1.013081632311006730e-02
1.014042710073728530e-02
1.012621305803805549e-02
1.008978493479024789e-02
1.003299595498902824e-02
9.957914843500059732e-03
9.866795232133367469e-03
9.762041751501802575e-03
9.646173318570698541e-03
9.521784149152270546e-03
9.391503049947630063e-03
9.257951579895593724e-03
9.123701771211393044e-03
8.991234014375609068e-03
8.862895626846868657e-03
8.740860929099219037e-03
8.627093385357321315e-03
8.523310398516394451e-03
8.430951368569243598e-03
8.351149545539541044e-03
8.284708213111412201e-03
8.232081560846765331e-03
8.193360738007532049e-03
8.168265335739378213e-03
8.156140510687030082e-03
8.155959912986942076e-03
8.166334624302825501e-03
8.185527912195667694e-03
8.211475781596337328e-03
8.241813201798215902e-03
8.273905608914952983e-03
8.304885495343751825e-03
8.331693506749787356e-03
8.351123645227880032e-03
8.359871873157535480e-03
8.354587648974230382e-03
8.331927547362831532e-03
8.288610305258377678e-03
8.221472524743755894e-03
8.127524130016454754e-03
8.004002860186073057e-03
7.848426922410150358e-03
7.658644990750519861e-03
7.432882839600269548e-03
7.169785686593027792e-03
6.868455717610533369e-03
6.528483979931744112e-03
6.149976072730109836e-03
5.733571193224241969e-03
5.280453979629487829e-03
4.792358919047845674e-03
4.271567063312018374e-03
3.720894780666922363e-03
3.143674713200388451e-03
2.543728916720377001e-03
1.925334320705867795e-03
1.293181013465127252e-03
6.523236084755303869e-04
8.126291029811786196e-06
-6.337978859063445568e-04
-1.267652663570839307e-03
-1.887528422473707355e-03
-2.487475190714721202e-03
-3.061578077666926839e-03
-3.604033986541032436e-03
-4.109228673935289011e-03
-4.571812892557410545e-03
-4.986776738969702326e-03
-5.349521019910537072e-03
-5.655924699401754935e-03
-5.902407240275972002e-03
-6.085985123203319427e-03
-6.204321404750525251e-03
-6.255767674659140805e-03
-6.239397675519263615e-03
-6.155031926621938945e-03
-6.003252940761184819e-03
-5.785410564581998719e-03
-5.503617384090902891e-03
-5.160733910816572151e-03
-4.760343789553925058e-03
-4.306719068725200529e-03
-3.804775973131392132e-03
-3.260021660384321111e-03
-2.678492554737801033e-03
-2.066684982218937750e-03
-1.431478999635726543e-03
-7.800564143669900478e-04
-1.198139319711528385e-04
5.417271974243940925e-04
1.197014014721728328e-03
1.838555790400796426e-03
2.459017886049908331e-03
3.051314234069850157e-03
3.608696934204855614e-03
4.124842032750116946e-03
4.593930025807231761e-03
5.010720022515540405e-03
5.370616418474146760e-03
5.669727223241573071e-03
5.904913150796329765e-03
6.073826684720225015e-03
6.174940589350561698e-03
6.207565323419188090e-03
6.171855205210317885e-03
6.068803151756629183e-03
5.900223960388258949e-03
5.668726460032531833e-03
5.377674842827992983e-03
5.031139696818252849e-03
4.633839406757397569e-03
4.191072824241230503e-03
3.708644117927543254e-03
3.192780929212285772e-03
2.650046859223359214e-03
2.087249692753383526e-03
1.511346652516892082e-03
9.293481305797247471e-04
3.482211253024473582e-04
-2.252061283946548375e-04
-7.843368782455194472e-04
-1.322894603694999829e-03
-1.835006615863258314e-03
-2.315281108216021844e-03
-2.758876733901533679e-03
-3.161563496724539585e-03
-3.519774305194686616e-03
-3.830646264545762084e-03
-4.092051263953357630e-03
-4.302615357399033197e-03
-4.461726762207806479e-03
-4.569532354852928573e-03
-4.626922773176262056e-03
-4.635506432238111797e-03
-4.597572920002237010e-03
-4.516046321490897394e-03
-4.394429275281721073e-03
-4.236738619395583744e-03
-4.047433684661496354e-03
-3.831338477024759642e-03
-3.593558797820360293e-03
-3.339395805283664181e-03
-3.074257180001529251e-03
-2.803567418744180254e-03
-2.532678639642381609e-03
-2.266783301235346642e-03
-2.010830143086963628e-03
-1.769444624142422432e-03
-1.546855251317238696e-03
-1.346826757098748247e-03
-1.172601225368671753e-03
-1.026848069117683275e-03
-9.116236390237210602e-04
-8.283408806931918771e-04
-7.777497331588545870e-04
-7.599283542482847785e-04
-7.742854219904510369e-04
-8.195732875251010401e-04
-8.939118237242298310e-04
-9.948225269430636432e-04
-1.119272307200258870e-03
-1.263726219870428026e-03
-1.424208314650598486e-03
-1.596369554018208306e-03
-1.775561825966550083e-03
-1.956916681147001600e-03
-2.135427667150225760e-03
-2.306034959496717097e-03
-2.463710833981922615e-03
-2.603544757484225255e-03
-2.720826656600278462e-03
-2.811127147556735564e-03
-2.870373399997808161e-03
-2.894919523010295367e-03
-2.881610257364599845e-03
-2.827837166359350052e-03
-2.731586322708428379e-03
-2.591476882280021286e-03
-2.406789887436521728e-03
-2.177486862955314156e-03
-1.904218023500460748e-03
-1.588319962453666823e-03
-1.231802754031380677e-03
-8.373269206878900753e-04
-4.081705651829683145e-04
5.181296453460163437e-05
5.382459796419125338e-04
1.046285292206570018e-03
1.570687900346906486e-03
2.105882701362229038e-03
2.646046986824944231e-03
3.185186598601780130e-03
3.717218541740968923e-03
4.236054769705620802e-03
4.735685968948992984e-03
5.210264032688617479e-03
5.654182029972759302e-03
6.062150555629950560e-03
6.429269244889853664e-03
6.751092555095211320e-03
7.023688895699086235e-03
7.243692221209652518e-03
7.408345366913199684e-03
7.515534739615394033e-03
7.563815796512949989e-03
7.552429091627795889e-03
7.481306708008656110e-03
7.351069132931052456e-03
7.163012682299827599e-03
6.919087822928188247e-03
6.621868770600671320e-03
6.274514933202652439e-03
5.880724770914227788e-03
5.444683010812546679e-03
4.971001868025638412e-03
4.464657264628212920e-03
3.930921053890869613e-03
3.375290285158849633e-03
2.803414522387342751e-03
2.221022216082630101e-03
1.633847284843425226e-03
1.047556936654784818e-03
4.676815956992717133e-04
-1.004520412288605150e-04
-6.517838335226423634e-04
-1.181578300854823661e-03
-1.685477144828548572e-03
-2.159545703627551317e-03
-2.600312682978569989e-03
-3.004802803030194851e-03
-3.370562090184279005e-03
-3.695675676030462774e-03
-3.978777864150132709e-03
-4.219054650636966906e-03
-4.416238894255144175e-03
-4.570598257968684977e-03
-4.682916343503336527e-03
-4.754467350865459151e-03
-4.786985042314902128e-03
-4.782626248195576829e-03
-4.743929848517736136e-03
-4.673771870557790094e-03
-4.575317300346466200e-03
-4.451969518541389580e-03
-4.307318105588099980e-03
-4.145085637336942512e-03
-3.969074403715448611e-03
-3.783113737965766027e-03
-3.591008627836904561e-03
-3.396490377915506887e-03
-3.203169692041679673e-03
-3.014492953355398224e-03
-2.833702168216436883e-03
-2.663798924812288589e-03
-2.507512787138908242e-03
-2.367274339836971005e-03
-2.245193077206749169e-03
-2.143040330453918705e-03
-2.062237233908562409e-03
-2.003847746374435353e-03
-1.968576636211340214e-03
-1.956772248638569221e-03
-1.968433775888871716e-03
-2.003222940287594563e-03
-2.060479677936001217e-03
-2.139241363502261770e-03
-2.238265379052462728e-03
-2.356054471051620240e-03
-2.490884499172417010e-03
-2.640834126402283929e-03
-2.803816038440694845e-03
-2.977609137791561566e-03
-3.159891358745780653e-03
-3.348272588332757739e-03
-3.540327368953890240e-03
-3.733626904628787983e-03
-3.925769974698550997e-03
-4.114412591215176225e-03
-4.297295849368203829e-03
-4.472271931459890007e-03
-4.637327811629139013e-03
-4.790606647088726557e-03
-4.930426553837770690e-03
-5.055296777415573678e-03
-5.163931027496847757e-03
-5.255257991348744571e-03
-5.328429075086581895e-03
-5.382823215491591706e-03
-5.418048958688354358e-03
-5.433943745366679942e-03
-5.430570638080134752e-03
-5.408212498175039330e-03
-5.367363701628186969e-03
-5.308719643914321107e-03
-5.233164230835859326e-03
-5.141755370022770694e-03
-5.035708830105079144e-03
-4.916380505952986681e-03
-4.785247424286468224e-03
-4.643887645904191432e-03
-4.493959256226531807e-03
-4.337178670720484921e-03
-4.175298526378556224e-03
-4.010085323851143857e-03
-3.843297021559911701e-03
-3.676660829264459182e-03
-3.511851513788643003e-03
-3.350470271028282206e-03
-3.194024444301013250e-03
-3.043908330947906783e-03
-2.901385200409947133e-03
-2.767570811023563424e-03
-2.643418577579787192e-03
-2.529706543466827585e-03
-2.427026261895314559e-03
-2.335773907887328006e-03
-2.256143627478507906e-03
-2.188123207937999869e-03
-2.131492277613690305e-03
-2.085823046689735515e-03
-2.050483709573059678e-03
-2.024644426141963653e-03
-2.007285992287030467e-03
-1.997211040405582564e-03
-1.993057826795792756e-03
-1.993316489200493667e-03
-1.996347572208660107e-03
-2.000402812834462581e-03
-2.003647783190755632e-03
-2.004186415857039157e-03
-2.000086882698971519e-03
-1.989408778898180564e-03
-1.970231216444518797e-03
-1.940681430771784653e-03
-1.898963640843581583e-03
-1.843387717112818713e-03
-1.772397340343021986e-03
-1.684597158277488472e-03
-1.578778536869648646e-03
-1.453943706518768262e-03
-1.309327731412959382e-03
-1.144417968165297719e-03
-9.589706319566129776e-04
-7.530242348037441890e-04
-5.269095282428233910e-04
-2.812558046467513589e-04
-1.699319820023939822e-05
2.646491124684634635e-04
5.621488424582605408e-04
8.737007871396797578e-04
1.197231239327959783e-03
1.530416609434010790e-03
1.870706000138930075e-03
2.215347638931970155e-03
2.561418856345072746e-03
2.905859292556395562e-03
3.245506973452713835e-03
3.577136842351634049e-03
3.897501125694949071e-03
4.203371274962912699e-03
4.491580648909918212e-03
4.759067493577831022e-03
5.002917590190355743e-03
5.220405939820460181e-03
5.409036832847225959e-03
5.566581709706559279e-03
5.691114277275288388e-03
5.781042213397820373e-03
5.835134877660311248e-03
5.852546740434034535e-03
5.832835995659250983e-03
5.775977820494649501e-03
5.682372249988632863e-03
5.552846237738331796e-03
5.388649860697108766e-03
5.191446591229398506e-03
4.963297686789999198e-03
4.706640754508756470e-03
4.424262691665347379e-03
4.119267389645432480e-03
3.795038569354045391e-03
3.455198181342010021e-03
3.103560842712353024e-03
2.744085060506354107e-03
2.380821852647554970e-03
2.017861403832249458e-03
1.659278742136680810e-03
1.309078897313048929e-03
9.711427300634987297e-04
6.491738441913315989e-04
3.466477547304554359e-04
6.676383750063343014e-05
-1.875989880387114771e-04
-4.139223528829650894e-04
-6.100835218491706263e-04
-7.743848718175899400e-04
-9.055773542716147231e-04
-1.002877472925536948e-03
-1.065977499992598393e-03
-1.095048670664028594e-03
-1.090737272911088303e-03
-1.054153684487853498e-03
-9.868543492486257958e-04
-8.908171354154726914e-04
-7.684101166824094725e-04
-6.223544481612075649e-04
-4.556818064155955311e-04
-2.716869492580016175e-04
-7.387619217300348505e-05
1.340873421043900287e-04
3.484410841606273672e-04
5.653819378197343050e-04
7.811258372886888211e-04
9.919670438117210269e-04
1.194336281106787639e-03
1.384856699782949533e-03
1.560396791544435601e-03
1.718119431365865710e-03
1.855526140376829222e-03
1.970496004961535489e-03
2.061318407776061533e-03
2.126719179318041757e-03
2.165879606745969334e-03
2.178448003440705549e-03
2.164543635615583713e-03
2.124752812699882802e-03
2.060117311505704242e-03
1.972115171662433813e-03
1.862634191499353649e-03
1.733938536425594455e-03
1.588628994462012653e-03
1.429597413479451531e-03
1.259976164172009428e-03
1.083083405343486082e-03
9.023649587655280246e-04
7.213338414459493763e-04
5.435084582764967759e-04
3.723504817258696683e-04
2.112033664924574253e-04
6.323266135469864677e-05
-6.863099554005197838e-05
-1.817450674258818560e-04
-2.738036979698477516e-04
-3.428807764980774768e-04
-3.874667069236789846e-04
-4.064982254311652545e-04
-3.993807627490924715e-04
-3.660028037109629997e-04
-3.067420432393884542e-04
-2.224631524776162004e-04
-1.145070388213479849e-04
1.532817142433097446e-05
1.648142485703946527e-04
3.313276421295926837e-04
5.118914294400616315e-04
7.032238005538161627e-04
9.017922404066448967e-04
1.103872614740708524e-03
1.305612132301466706e-03
1.503095183900733049e-03
1.692410968163879023e-03
1.869721725385236873e-03
2.031330446678041805e-03
2.173746893959448839e-03
2.293750772274708808e-03
2.388450927866491835e-03
2.455339451290670157e-03
2.492339922742775084e-03
2.497848556709795012e-03
2.470767719828139818e-03
2.410531058900197265e-03
2.317119682291658798e-03
2.191068942196650136e-03
2.033465621159242457e-03
1.845935469802738533e-03
1.630621084570148911e-03
1.390150378595585157e-03
1.127596072127893742e-03
8.464266112754732221e-04
5.504492972572366761e-04
2.437464813120808287e-04
-6.939428624140528683e-05
-3.845549920742331526e-04
-6.972658031668783549e-04
-1.003086170753901725e-03
-1.297687238454710464e-03
-1.576934165314087827e-03
-1.836966993251922323e-03
-2.074278675771815822e-03
-2.285788962056558085e-03
-2.468912881601992987e-03
-2.621622537307040108e-03
-2.742501110590762296e-03
-2.830788050660493042e-03
-2.886414571876533882e-03
-2.910028636466948423e-03
-2.903008805451389937e-03
-2.867466634461199662e-03
-2.806237124770359897e-03
-2.722857345204685985e-03
-2.621533248535372514e-03
-2.507094908697951163e-03
-2.384940724089435870e-03
-2.260971129179320960e-03
-2.141512648749058310e-03
-2.033233368652142409e-03
-1.943050822155816719e-03
-1.878033551590347705e-03
-1.845297735512979164e-03
-1.851900368214508003e-03
-1.904730387678400111e-03
-2.010399505939957851e-03
-2.175134234279705019e-03
-2.404670732794416538e-03
-2.704154071590057079e-03
-3.078043527111313724e-03
-3.530025304260254147e-03
-4.062934094847838601e-03
-4.678684746673821525e-03
-5.378215215285937073e-03
-6.161441774310916740e-03
-7.027227303771387858e-03
-7.973363372671769117e-03
-8.996566538880734418e-03
-1.009248900465204921e-02
-1.125574388719622655e-02
-1.247994488278942639e-02
-1.375775983327426864e-02
-1.508097795844841847e-02
-1.644058962444331848e-02
-1.782687799694463934e-02
-1.922952119183207395e-02
-2.063770398734558059e-02
-2.204023747603078148e-02
-2.342568506014502255e-02
-2.478249333583397440e-02
-2.609912601481851474e-02
-2.736419922299346275e-02
-2.856661622627248986e-02
-2.969569998977262398e-02
-3.074132155513952316e-02
-3.169402272493804240e-02
-3.254513119613879762e-02
-3.328686671317535734e-02
-3.391243680233228808e-02
-3.441612062771442354e-02
-3.479333997988942606e-02
-3.504071630483718974e-02
-3.515611303267265203e-02
-3.513866265161016966e-02
-3.498877803617374271e-02
-3.470814790728537352e-02
-3.429971654788865204e-02
-3.376764799176847076e-02
-3.311727501165508125e-02
-3.235503374728054826e-02
-3.148838488079989950e-02
-3.052572223560435019e-02
-2.947627020625217045e-02
-2.834997123747431610e-02
-2.715736505681460439e-02
-2.590946113553966451e-02
-2.461760605054517589e-02
-2.329334766222915243e-02
-2.194829784177146359e-02
-2.059399562342973874e-02
-1.924177256534873731e-02
-1.790262205253975031e-02
-1.658707435051642518e-02
-1.530507899887222772e-02
-1.406589605196466655e-02
-1.287799767621659874e-02
-1.174898113480163028e-02
-1.068549440016177549e-02
-9.693175361420261829e-03
-8.776605124540873965e-03
-7.939276082579894631e-03
-7.183575013638363212e-03
-6.510781212092800127e-03
-5.921079626032737034e-03
-5.413588615975084735e-03
-4.986401802757686394e-03
-4.636643293883965095e-03
-4.360535342621868829e-03
-4.153477278209040044e-03
-4.010134595118170289e-03
-3.924536715857584318e-03
-3.890181904053417565e-03
-3.900147835948042634e-03
-3.947206103059915615e-03
-4.023938855633684905e-03
-4.122856032653438377e-03
-4.236511293716068924e-03
-4.357614966227184305e-03
-4.479142434884017879e-03
-4.594436358259054720e-03
-4.697301261030105597e-03
-4.782089091030427772e-03
-4.843774673411243778e-03
-4.878019878918483931e-03
-4.881225730196237129e-03
-4.850571703933029624e-03
-4.784041792910415439e-03
-4.680437075188463927e-03
-4.539374639967593342e-03
-4.361273048816302275e-03
-4.147324739169492083e-03
-3.899455886218555160e-03
-3.620274433394417291e-03
-3.313007206358835159e-03
-2.981427318480887097e-03
-2.629773048628182824e-03
-2.262659534305116842e-03
-1.884984839154085984e-03
-1.501832030573631554e-03
-1.118368705908555361e-03
-7.397457983401148135e-04
-3.709974394718993816e-04
-1.694342111319419511e-05
3.179041247437492767e-04
6.294281372076708080e-04
9.139867104161237014e-04
1.168484562681806546e-03
1.390434492540601041e-03
1.578007888055736347e-03
1.730073428157958247e-03
1.846223256570482226e-03
1.926786076601075086e-03
1.972826956624967615e-03
1.986133856916517081e-03
1.969190938898421686e-03
1.925139142128321672e-03
1.857724617069388476e-03
1.771235827091106451e-03
1.670430355419448738e-03
1.560452702605954686e-03
1.446744288374193907e-03
1.334947353521270591e-03
1.230804233621860195e-03
1.140053841014347603e-03
1.068327133598717367e-03
1.021043454608447148e-03
1.003309483689340288e-03
1.019822716214196113e-03
1.074781107652751427e-03
1.171800700531501482e-03
1.313842717020689312e-03
1.503151589308894098e-03
1.741205087826394387e-03
2.028677688765022878e-03
2.365418065952758220e-03
2.750441151147484890e-03
3.181935267392828250e-03
3.657284427742199095e-03
4.173105606780074840e-03
4.725300609576485629e-03
5.309121868537341853e-03
5.919251190927489470e-03
6.549890296726135902e-03
7.194861828953740164e-03
7.847719161565241616e-03
8.501863272977073366e-03
9.150664732337280421e-03
9.787588604346227419e-03
1.040632035211649584e-02
1.100089042134167264e-02
1.156579531480621779e-02
1.209611283209339506e-02
1.258760949060656019e-02
1.303683800340095511e-02
1.344122291025475271e-02
1.379913256851641491e-02
1.410993610396519236e-02
1.437404384201231532e-02
1.459293025423069774e-02
1.476913866990217997e-02
1.490626724621907546e-02
1.500893615454298828e-02
1.508273601523761782e-02
1.513415821207129107e-02
1.517050782767677929e-02
1.519980047229966408e-02
1.523064434133966118e-02
1.527210931448788785e-02
1.533358510521215176e-02
1.542463071434832696e-02
1.555481746944786109e-02
1.573356843400378763e-02
1.596999678712864024e-02
1.627274587520343915e-02
1.664983391780363101e-02
1.710850598281150187e-02
1.765509598821955045e-02
1.829490132503612879e-02
1.903207237918969411e-02
1.986951935690794632e-02
2.080883812773152985e-02
2.185025685878877466e-02
2.299260467534767691e-02
2.423330338474018880e-02
2.556838267341681945e-02
2.699251907831608580e-02
2.849909837440992022e-02
3.008030082166152086e-02
3.172720812335785151e-02
3.342993064037293183e-02
3.517775297541317348e-02
3.695929587061776850e-02
3.876269167248808101e-02
4.057577068101211881e-02
4.238625536329959642e-02
4.418195914063449692e-02
4.595098635795303449e-02
4.768193001694821798e-02
4.936406375901541271e-02
5.098752477265171973e-02
5.254348432909521083e-02
5.402430262683041717e-02
5.542366510054288348e-02
5.673669757293269694e-02
5.796005800326709673e-02
5.909200278310362126e-02
6.013242603664260832e-02
6.108287106435978525e-02
6.194651316305469640e-02
6.272811384541143731e-02
6.343394683993595906e-02
6.407169689225100662e-02
6.465033273166635730e-02
6.517995614748502142e-02
6.567162959866421068e-02
6.613718515366009965e-02
6.658901788027922486e-02
6.703986726518547379e-02
6.750259036275860214e-02
6.798993074831796712e-02
6.851428729665362538e-02
6.908748690831385819e-02
6.972056543692579933e-02
7.042356085711237723e-02
7.120532256468416199e-02
7.207334035114434934e-02
7.303359654362950870e-02
7.409044420719120005e-02
7.524651388731014301e-02
7.650265101964809356e-02
7.785788544389467269e-02
7.930943396678889756e-02
8.085273625068188641e-02
8.248152388054785789e-02
8.418792157141040400e-02
8.596257911131512108e-02
8.779483182916089645e-02
8.967288711097001763e-02
9.158403356783675897e-02
9.351486942967746074e-02
9.545154594901789080e-02
9.738002165058680382e-02
9.928632263195524832e-02
1.011568041551261093e-01
1.029784086247741010e-01
1.047389151909624977e-01
1.064271760633890007e-01
1.080333350794509678e-01
1.095490240985986380e-01
1.109675335234704963e-01
1.122839532214560815e-01
1.134952810266871420e-01
1.146004965852478463e-01
1.156005986173477412e-01
1.164986047541049646e-01
1.172995136186864712e-01
1.180102295797503809e-01
1.186394513946746054e-01
1.191975266139142786e-01
1.196962744182800131e-01
1.201487801500376457e-01
1.205691654493845633e-01
1.209723385263917622e-01
1.213737292452256450e-01
1.217890145052003131e-01
1.222338394034700737e-01
1.227235399740898847e-01
1.232728730354492319e-01
1.238957591597589780e-01
1.246050441675733700e-01
1.254122842523868187e-01
1.263275597470941980e-01
1.273593216385413007e-01
1.285142747204837121e-01
1.297973000691779177e-01
1.312114190898307498e-01
1.327578004944861834e-01
1.344358104952202981e-01
1.362431055649505618e-01
1.381757663022556981e-01
1.402284697879746245e-01
1.423946970155079705e-01
1.446669709424127093e-01
1.470371200185161542e-01
1.494965611144097872e-01
1.520365952151478128e-01
1.546487085716912180e-01
1.573248718452954220e-01
1.600578289944932231e-01
1.628413680823802556e-01
1.656705657329906600e-01
1.685419974060526627e-01
1.714539059673299004e-01
1.744063215459220884e-01
1.774011261788946692e-01
1.804420578391345009e-01
1.835346492906407556e-01
1.866860984203862761e-01
1.899050676320058195e-01
1.932014117051259749e-01
1.965858345710529975e-01
2.000694769293023811e-01
2.036634383191935904e-01
2.073782386850135662e-01
2.112232259408589052e-01
2.152059372886378497e-01
2.193314237905319708e-01
2.236015486403073738e-01
2.280142707983468797e-01
2.325629265827373615e-01
2.372355226384692262e-01
2.420140542531566685e-01
2.468738634493464479e-01
2.517830513161637973e-01
2.567019588932447083e-01
2.615827307446945693e-01
2.663689747801736840e-01
2.709955306565402511e-01
2.753883584156506248e-01
2.794645575432990747e-01
2.831325249334852856e-01
2.862922586429881844e-01
2.888358121737358841e-01
2.906479022324809924e-01
2.916066702530025756e-01
2.915845960455981101e-01
2.904495592638712265e-01
2.880660418956437763e-01
2.842964628006174888e-01
2.790026327753679647e-01
2.720473162755563945e-01
2.632958840002133649e-01
2.526180383679137442e-01
2.398895919126618481e-01
2.249942775622412461e-01
2.078255679222263119e-01
1.882884799868957681e-01
1.663013409265625964e-01
1.417974901377951624e-01
1.147268928394117177e-01
8.505764067229469594e-02
5.277731552295095857e-02
1.789419400141644897e-02
-1.956172888343157834e-02
-5.953791636788272751e-02
-1.019586843179810104e-01
-1.467248286278866332e-01
-1.937134981574434034e-01
-2.427783226164771657e-01
-2.937498020608454441e-01
-3.464359613789729231e-01
-4.006232695840559188e-01
-4.560778204621327436e-01
-5.125467676300421438e-01
-5.697600036468165596e-01
-6.274320693874461119e-01
-6.852642767713169603e-01
-7.429470248260355847e-01
-8.001622862063384467e-01
-8.565862386920297666e-01
-9.118920140010641218e-01
-9.657525343470515500e-01
-1.017843405335318696e+00
-1.067845832953798091e+00
-1.115449531451175424e+00
-1.160355588721740050e+00
-1.202279255733214480e+00
-1.240952627327301716e+00
-1.276127182544736227e+00
-1.307576154186035122e+00
-1.335096699128227149e+00
-1.358511843122491625e+00
-1.377672176485457811e+00
-1.392457279910273238e+00
-1.402776862972031635e+00
-1.408571601247984084e+00
-1.409813661758184677e+00
-1.406506910199496252e+00
-1.398686797317475028e+00
-1.386419925621183991e+00
-1.369803301989161115e+00
-1.348963285018011771e+00
-1.324054240319691766e+00
-1.295256919961757847e+00
-1.262776585990958989e+00
-1.226840901047788979e+00
-1.187697611718515844e+00
-1.145612052738137265e+00
-1.100864502222272501e+00
-1.053747419864580648e+00
-1.004562601011325551e+00
-9.536182803027868360e-01
-9.012262192204134603e-01
-8.476988113790810964e-01
-7.933462388233524232e-01
-7.384737118293630553e-01
-6.833788229457119501e-01
-6.283490442842407653e-01
-5.736593948935275744e-01
-5.195703024962412542e-01
-4.663256808105620266e-01
-4.141512408365781162e-01
-3.632530511114680505e-01
-3.138163583297444714e-01
-2.660046763674369097e-01
-2.199591479154824891e-01
-1.757981795137148195e-01
-1.336173470649095196e-01
-9.348956545212665226e-02
-5.546551263500661827e-02
-1.957429526876154624e-02
1.417565959537744717e-02
4.579550537496820256e-02
7.531468979065987501e-02
1.027795044273568242e-01
1.282514941664663344e-01
1.518057520747985167e-01
1.735291260931191293e-01
1.935183641882862737e-01
2.118782250967992942e-01
2.287195810399503260e-01
2.441575384596780807e-01
2.583096014962236731e-01
2.712939017550031195e-01
2.832275162778737365e-01
2.942248934663354576e-01
3.043964046253596623e-01
3.138470364981309491e-01
3.226752374485702402e-01
3.309719274279230294e-01
3.388196790786963120e-01
3.462920744821071373e-01
3.534532392735805217e-01
3.603575533918880747e-01
3.670495348439175021e-01
3.735638904340483624e-01
3.799257251246073719e-01
3.861508996959506779e-01
3.922465242394138074e-01
3.982115735309970095e-01
4.040376088604869520e-01
4.097095898952357040e-01
4.152067593155654990e-01
4.205035824428687841e-01
4.255707237503557616e-01
4.303760425314354654e-01
4.348855900688302634e-01
4.390645913308398596e-01
4.428783952984699512e-01
4.462933789641650439e-01
4.492777914147781937e-01
4.518025258112948195e-01
4.538418089045773707e-01
4.553737994323420746e-01
4.563810884184555938e-01
4.568510964723196954e-01
4.567763651845181960e-01
4.561547413547676899e-01
4.549894548466805744e-01
4.532890926354804506e-01
4.510674732196969239e-01
4.483434271581056008e-01
4.451404910420282968e-01
4.414865232967717934e-01
4.374132511751684937e-01
4.329557594180771796e-01
4.281519316707693146e-01
4.230418560442453235e-01
4.176672064665541972e-01
4.120706116731294166e-01
4.062950233742231854e-01
4.003830946904028965e-01
3.943765797041246524e-01
3.883157638004451351e-01
3.822389340694221094e-01
3.761818976694015215e-01
3.701775552310211381e-01
3.642555349045157875e-01
3.584418917094110424e-01
3.527588753285285650e-01
3.472247682761951948e-01
3.418537949840171897e-01
3.366561011822931104e-01
3.316378016572663623e-01
3.268010934102714149e-01
3.221444300300326247e-01
3.176627523442485668e-01
3.133477693773906170e-01
3.091882831649332974e-01
3.051705500985022468e-01
3.012786714437755142e-01
2.974950051032378973e-01
2.938005906883910945e-01
2.901755800405838026e-01
2.865996654469571414e-01
2.830524979560519183e-01
2.795140889741747348e-01
2.759651885403107685e-01
2.723876344241833447e-01
2.687646669036850566e-01
2.650812049587812358e-01
2.613240802630783510e-01
2.574822264169477348e-01
2.535468217233937116e-01
2.495113845943931763e-01
2.453718217341863128e-01
2.411264299645323739e-01
2.367758534395435210e-01
2.323229987328118418e-01
2.277729109502495408e-01
2.231326146459796933e-01
2.184109238101599182e-01
2.136182256851820171e-01
2.087662433136221463e-01
2.038677821488915631e-01
1.989364659473233932e-01
1.939864674407907330e-01
1.890322389599636277e-01
1.840882480592203052e-01
1.791687229979290474e-01
1.742874124420283333e-01
1.694573634534859707e-01
1.646907212072423465e-01
1.599985535637515888e-01
1.553907027482218373e-01
1.508756660684452966e-01
1.464605067038764752e-01
1.421507953114930778e-01
1.379505822950482796e-01
1.338624001500287874e-01
1.298872946562757702e-01
1.260248832778816108e-01
1.222734385253011202e-01
1.186299937865765430e-01
1.150904686947468170e-01
1.116498107635668230e-01
1.083021499605742732e-01
1.050409626047412032e-01
1.018592410873870591e-01
9.874966571040511010e-02
9.570477514738492952e-02
9.271713231635267394e-02
8.977948228795651353e-02
8.688489947368507882e-02
8.402692147370612041e-02
8.119966732548009047e-02
7.839793837690971212e-02
7.561730027888492744e-02
7.285414510173596203e-02
7.010573300231043303e-02
6.737021335507305253e-02
6.464662556806945182e-02
6.193488014540308312e-02
5.923572135529698440e-02
5.655067254431224433e-02
5.388196604075017049e-02
5.123245953022370625e-02
4.860554116693561327e-02
4.600502573432962983e-02
4.343504426380602468e-02
4.089992973451032215e-02
3.840410132392342579e-02
3.595194978806826730e-02
3.354772639729108191e-02
3.119543766036944610e-02
2.889874787849210092e-02
2.666089153709417375e-02
2.448459705862302341e-02
2.237202342627825358e-02
2.032471055240192212e-02
1.834354429245264179e-02
1.642873652878618432e-02
1.457982041552655789e-02
1.279566059275059897e-02
1.107447779841842610e-02
9.413887297066245857e-03
7.810949902089011319e-03
6.262234406736651507e-03
4.763889878951882081e-03
3.311726231273264074e-03
1.901301236355405939e-03
5.280120393164037694e-04
-8.128106366635291530e-04
-2.125807694498688116e-03
-3.415498176512145063e-03
-4.686188894418901775e-03
-5.941889143880333540e-03
-7.186231951472618965e-03
-8.422403482546952230e-03
-9.653082023273978560e-03
-1.088038742181599537e-02
-1.210584204765677643e-02
-1.333034385341095966e-02
-1.455415201438289320e-02
-1.577688524568312059e-02
-1.699753274086887589e-02
-1.821447733188463758e-02
-1.942553048179045810e-02
-2.062797821266115425e-02
-2.181863696096823443e-02
-2.299391833823756850e-02
-2.414990144545463291e-02
-2.528241131224478674e-02
-2.638710201220667573e-02
-2.745954277763315576e-02
-2.849530562128871694e-02
-2.949005276109566143e-02
-3.043962226735228913e-02
-3.134011040225721106e-02
-3.218794932785834506e-02
-3.297997863304916871e-02
-3.371350949954447090e-02
-3.438638061257320855e-02
-3.499700462018297958e-02
-3.554440463420204671e-02
-3.602824016500218857e-02
-3.644882217781668376e-02
-3.680711691861445617e-02
-3.710473874593045451e-02
-3.734393218182075619e-02
-3.752754345665244157e-02
-3.765898225939497829e-02
-3.774217427663149882e-02
-3.778150559988534274e-02
-3.778175969893251412e-02
-3.774804838461966877e-02
-3.768573773100189483e-02
-3.760037025244423320e-02
-3.749758458664684269e-02
-3.738303400683620076e-02
-3.726230509536274105e-02
-3.714083772827832947e-02
-3.702384772625022524e-02
-3.691625318291757302e-02
-3.682260561525188547e-02
-3.674702693936711395e-02
-3.669315306820102734e-02
-3.666408489283700528e-02
-3.666234724731742833e-02
-3.668985638047805170e-02
-3.674789628416620657e-02
-3.683710400237317356e-02
-3.695746406629508291e-02
-3.710831190452659745e-02
-3.728834617345529873e-02
-3.749564951950064284e-02
-3.772771736435893281e-02
-3.798149440780382302e-02
-3.825341797371296926e-02
-3.853946751534228360e-02
-3.883521960917966226e-02
-3.913590756243932184e-02
-3.943648485341779558e-02
-3.973169141398980031e-02
-4.001612191314277839e-02
-4.028429511548029668e-02
-4.053072343656181908e-02
-4.074998193102936928e-02
-4.093677584071976627e-02
-4.108600577444108254e-02
-4.119283004280087368e-02
-4.125272333611736120e-02
-4.126153109008547093e-02
-4.121551921464104706e-02
-4.111141853865916962e-02
-4.094646363444286868e-02
-4.071842575485509069e-02
-4.042563960658027145e-02
-4.006702379076907544e-02
-3.964209484499906649e-02
-3.915097485511454672e-02
-3.859439270080140816e-02
-3.797367906862292308e-02
-3.729075527317182726e-02
-3.654811622839648083e-02
-3.574880781957396475e-02
-3.489639894838130613e-02
-3.399494864745833400e-02
-3.304896863825221298e-02
-3.206338174724538553e-02
-3.104347657174679614e-02
-2.999485895306724936e-02
-2.892340069715870418e-02
-2.783518600045123068e-02
-2.673645612423405232e-02
-2.563355288079878155e-02
-2.453286130060358325e-02
-2.344075211780337689e-02
-2.236352459279955518e-02
-2.130735004247924155e-02
-2.027821673568959426e-02
-1.928187647096525972e-02
-1.832379344382657760e-02
-1.740909581878069892e-02
-1.654253044809403037e-02
-1.572842103227840155e-02
-1.497063023605973986e-02
-1.427252604396543958e-02
-1.363695272823079938e-02
-1.306620657737726961e-02
-1.256201688330827251e-02
-1.212553220477906313e-02
-1.175731199566945086e-02
-1.145732386159321534e-02
-1.122494652119465641e-02
-1.105897837576490933e-02
-1.095765168600611010e-02
-1.091865236650773133e-02
-1.093914502269660236e-02
-1.101580318652055530e-02
-1.114484450642937510e-02
-1.132207050026666495e-02
-1.154291056710199034e-02
-1.180246968203851714e-02
-1.209557950130821236e-02
-1.241685230466218516e-02
-1.276073718570691282e-02
-1.312157792559618535e-02
-1.349367196820052892e-02
-1.387132984372177122e-02
-1.424893438838385588e-02
-1.462099911147074667e-02
-1.498222505428866216e-02
-1.532755552560579292e-02
-1.565222808509176416e-02
-1.595182309937800622e-02
-1.622230840805838695e-02
-1.646007951835012223e-02
-1.666199492478967481e-02
-1.682540594458482169e-02
-1.694818091619317360e-02
-1.702872336979353515e-02
-1.706598399820881753e-02
-1.705946618998108177e-02
-1.700922510790934747e-02
-1.691586044335314717e-02
-1.678050272713636076e-02
-1.660479350709406776e-02
-1.639085960735546868e-02
-1.614128182458763466e-02
-1.585905844495130376e-02
-1.554756397017812743e-02
-1.521050376015817621e-02
-1.485186493824007352e-02
-1.447586437008586448e-02
-1.408689429356808735e-02
-1.368946635234045105e-02
-1.328815468912298604e-02
-1.288753875992638097e-02
-1.249214670188743617e-02
-1.210639997106745420e-02
-1.173455980588240972e-02
-1.138067626726050295e-02
-1.104854048687410779e-02
-1.074164064783059321e-02
-1.046312224546189044e-02
-1.021575302968136256e-02
-1.000189313044017557e-02
-9.823470604345230922e-03
-9.681962607994627421e-03
-9.578382438078130931e-03
-9.513272499005177157e-03
-9.486703251250502150e-03
-9.498277990250875505e-03
-9.547143332740282498e-03
-9.632005186457221965e-03
-9.751149940319031595e-03
-9.902470536178624091e-03
-1.008349696408812612e-02
-1.029143071774570560e-02
-1.052318282941059821e-02
-1.077541474782216582e-02
-1.104458159448381757e-02
-1.132697726392942715e-02
-1.161878067903832600e-02
-1.191610264842775380e-02
-1.221503274513466644e-02
-1.251168558522407041e-02
-1.280224605532252757e-02
-1.308301284210642255e-02
-1.335043984753670442e-02
-1.360117501269434044e-02
-1.383209616180222645e-02
-1.404034349628782534e-02
-1.422334853238046114e-02
-1.437885906134289682e-02
-1.450496012646775891e-02
-1.460009075575914063e-02
-1.466305649073069810e-02
-1.469303754887709389e-02
-1.468959281638245427e-02
-1.465265965680445995e-02
-1.458254968702354763e-02
-1.447994070705662176e-02
-1.434586492960697110e-02
-1.418169391509842801e-02
-1.398912037273744580e-02
-1.377013709101552498e-02
-1.352701341446742311e-02
-1.326226950629396696e-02
-1.297864878200950291e-02
-1.267908899076541918e-02
-1.236669199111556372e-02
-1.204469274108555497e-02
-1.171642781764935942e-02
-1.138530375132214278e-02
-1.105476548450427636e-02
-1.072826517651893213e-02
-1.040923166488567919e-02
-1.010104079427694319e-02
-9.806986772838057614e-03
-9.530254838505926307e-03
-9.273895315061411737e-03
-9.040799241876130640e-03
-8.833675624210736085e-03
-8.655030514049696228e-03
-8.507147887384143223e-03
-8.392072410566497886e-03
-8.311594178448801148e-03
-8.267235365777838088e-03
-8.260238894076791377e-03
-8.291559105560619702e-03
-8.361854314872105981e-03
-8.471481426438507226e-03
-8.620492513476822258e-03
-8.808633282403516979e-03
-9.035343453153025020e-03
-9.299759025787016076e-03
-9.600716470266144192e-03
-9.936758660359991044e-03
-1.030614267327232755e-02
-1.070684933209629930e-02
-1.113659448525571201e-02
-1.159284199977566980e-02
-1.207281843020297646e-02
-1.257352927274790408e-02
-1.309177681793462222e-02
-1.362417944159539408e-02
-1.416719238440546785e-02
-1.471712983911588335e-02
-1.527018829508452330e-02
-1.582247100492630704e-02
-1.637001354177661586e-02
-1.690881023379181211e-02
-1.743484130529740148e-02
-1.794410060025709852e-02
-1.843262373886444400e-02
-1.889651647010474889e-02
-1.933198303803824319e-02
-1.973535434251062065e-02
-2.010311573530709772e-02
-2.043193407330023970e-02
-2.071868389143568384e-02
-2.096047249237285512e-02
-2.115466359430994564e-02
-2.129889939724226994e-02
-2.139112082278834398e-02
-2.142958565044463665e-02
-2.141288439588874895e-02
-2.133995369604301667e-02
-2.121008708633033771e-02
-2.102294292388827077e-02
-2.077854939618277441e-02
-2.047730656503141469e-02
-2.011998515009361457e-02
-1.970772229785202126e-02
-1.924201407890768767e-02
-1.872470494914935460e-02
-1.815797402713252920e-02
-1.754431845006512378e-02
-1.688653389148701139e-02
-1.618769228887738040e-02
-1.545111712262116355e-02
-1.468035635806630955e-02
-1.387915347675927613e-02
-1.305141661593649249e-02
-1.220118624644089822e-02
-1.133260175413703351e-02
-1.044986724994602725e-02
-9.557216828165331773e-03
-8.658879790843182142e-03
-7.759046037682943049e-03
-6.861832100002410000e-03
-5.971248084738027539e-03
-5.091165948445013426e-03
-4.225289303296637933e-03
-3.377125222398316695e-03
-2.549958125225226194e-03
-1.746826190945490040e-03
-9.705004032203940400e-04
-2.234665504711484457e-04
4.920897776757733036e-04
1.174295086562909948e-03
1.821596513449679671e-03
2.432767033142567859e-03
3.006907401529282983e-03
3.543444765958188129e-03
4.042128002948754822e-03
4.503019847057023947e-03
4.926486088156364906e-03
5.313181774015673757e-03
5.664034844591548691e-03
5.980227277321375351e-03
6.263174050089005684e-03
6.514500091567555946e-03
6.736015591718776986e-03
6.929690054715965768e-03
7.097625219769817563e-03
7.242027296628280805e-03
7.365178774437621673e-03
7.469410175482066490e-03
7.557071993770674533e-03
7.630507208330186350e-03
7.692024581154707254e-03
7.743873077698019969e-03
7.788217734800391596e-03
7.827117068260044941e-03
7.862502286305660115e-03
7.896158583619026713e-03
7.929708580305535118e-03
7.964598063244052173e-03
8.002084193734621681e-03
8.043226184860485101e-03
8.088878555343596496e-03
8.139686955299589577e-03
8.196086548879731593e-03
8.258302906632604412e-03
8.326355331824573588e-03
8.400062566780896328e-03
8.479050756276541520e-03
8.562763496893228965e-03
8.650473870360712858e-03
8.741298154240823015e-03
8.834211119300845044e-03
8.928062795471005536e-03
9.021596302952673146e-03
9.113466641276485661e-03
9.202260156864526877e-03
9.286514502845902991e-03
9.364738812228918727e-03
9.435433896123690892e-03
9.497112195583998911e-03
9.548317371804075984e-03
9.587643229340300083e-03
9.613751816551887111e-03
9.625390511897279067e-03
9.621407879402819885e-03
9.600768271226935852e-03
9.562565036744732558e-03
9.506032021882316468e-03
9.430553430902845896e-03
9.335672010453868394e-03
9.221095409407199447e-03
9.086700692495416551e-03
8.932537042198760921e-03
8.758826612409544021e-03
8.565963532924525045e-03
8.354511175231955911e-03
8.125197720694718115e-03
7.878910056345654958e-03
7.616686166695045904e-03
7.339705998124481691e-03
7.049281101600544941e-03
6.746843033153669678e-03
6.433930698758424417e-03
6.112176809736492682e-03
5.783293559470182102e-03
5.449057680281693163e-03
5.111295093301142928e-03
4.771865279830798424e-03
4.432645456042568106e-03
4.095514826627768591e-03
3.762338993181612093e-03
3.434954686416880412e-03
3.115154957979066053e-03
2.804674932724438973e-03
2.505178309346436320e-03
2.218244634319090601e-03
1.945357534511410816e-03
1.687893914707830735e-03
1.447114206121871086e-03
1.224153773542247144e-03
1.020015450928656595e-03
8.355634466902932571e-04
6.715183450179160012e-04
5.284533123595959968e-04
4.067917114958459522e-04
3.068058734755949686e-04
2.286170622525810707e-04
1.721965931117480587e-04
1.373681492994373050e-04
1.238111454232375635e-04
1.310650547999741623e-04
1.585347210322105244e-04
2.054965681833778959e-04
2.711055243335330268e-04
3.544027461296442067e-04
4.543239300889964009e-04
5.697081681201433909e-04
6.993072740407986574e-04
8.417955489694868391e-04
9.957797503811153389e-04
1.159809304058330957e-03
1.332386636918120966e-03
1.511977627180552137e-03
1.697022008683649790e-03
1.885943695209677971e-03
2.077161037304767460e-03
2.269096828420179204e-03
2.460188067942436271e-03
2.648895489893613158e-03
2.833712674064354630e-03
3.013174876235937081e-03
3.185867409048284606e-03
3.350433584623726049e-03
3.505582197931561908e-03
3.650094480907586751e-03
3.782830560514872844e-03
3.902735322886566067e-03
4.008843843126388799e-03
4.100286086143973760e-03
4.176291101274281874e-03
4.236190535217287077e-03
4.279421542353676125e-03
4.305529007851372977e-03
4.314167177175929138e-03
4.305100531040995972e-03
4.278204007782074325e-03
4.233462489219059696e-03
4.170969711357422685e-03
4.090926325571416118e-03
3.993637323813930932e-03
3.879508733673988578e-03
3.749043719644181132e-03
3.602837894415022307e-03
3.441574041189779214e-03
3.266016160960295931e-03
3.077003052737323652e-03
2.875441220751797766e-03
2.662297315988196647e-03
2.438590133753281482e-03
2.205382282273539267e-03
1.963771539013299712e-03
1.714881920562574651e-03
1.459854688055481743e-03
1.199839231983241281e-03
9.359840137051847215e-04
6.694276421342637302e-04
4.012903041683922437e-04
1.326654600895641487e-04
-1.353880403420113735e-04
-4.018532901598848104e-04
-6.657619564022093390e-04
-9.262001922794848305e-04
-1.182313770576734089e-03
-1.433312284747082204e-03
-1.678472368337573413e-03
-1.917139918003969061e-03
-2.148731297027148615e-03
-2.372733431699445856e-03
-2.588702817625644723e-03
-2.796263504102234568e-03
-2.995103940290658531e-03
-3.184972931639358865e-03
-3.365674687018187054e-03
-3.537062892002384388e-03
-3.699034093215827768e-03
-3.851520504724661575e-03
-3.994482274686027116e-03
-4.127899373741235854e-03
-4.251763369483020985e-03
-4.366069097892057507e-03
-4.470806475863505630e-03
-4.565952720289727026e-03
-4.651465029969654823e-03
-4.727273903748887944e-03
-4.793277346728389357e-03
-4.849336117689032229e-03
-4.895270063437325014e-03
-4.930855744339041405e-03
-4.955825512138085052e-03
-4.969868079834706236e-03
-4.972630603101974196e-03
-4.963722427720854667e-03
-4.942720413675165576e-03
-4.909175885967518096e-03
-4.862623127597697111e-03
-4.802589338722548611e-03
-4.728606004769643663e-03
-4.640221440115522081e-03
-4.537014410216419665e-03
-4.418608583265357971e-03
-4.284687623007176795e-03
-4.135010627815983823e-03
-3.969427734575062434e-03
-3.787895490941445373e-03
-3.590491748188929990e-03
-3.377429847331882978e-03
-3.149071668554515816e-03
-2.905939307272077318e-03
-2.648725098546075591e-03
-2.378299711752986795e-03
-2.095717986292973487e-03
-1.802222354070051515e-03
-1.499243633921521976e-03
-1.188398996808644539e-03
-8.714869583849462571e-04
-5.504794026666178083e-04
-2.275105028916399742e-04
9.513743281278590333e-05
4.150511037689492110e-04
7.297063264402001712e-04
1.036490828577101399e-03
1.332729542908903976e-03
1.615712308785950636e-03
1.882723458233572606e-03
2.131073105568271828e-03
2.358129636896559838e-03
2.561353039486838432e-03
2.738328586997507835e-03
2.886800476398362729e-03
3.004704906327501299e-03
3.090201995193472655e-03
3.141706201699514915e-03
3.157914611418619674e-03
3.137832756303256688e-03
3.080797424993719173e-03
2.986495987008068627e-03
2.854981951264180633e-03
2.686686389435090708e-03
2.482424879417276416e-03
2.243399764799235314e-03
1.971197584397389475e-03
1.667781566555204568e-03
1.335479104733045463e-03
9.769642212502931307e-04
5.952351670174790051e-04
1.935874138807177854e-04
-2.244178067006877253e-04
-6.549891208114495215e-04
-1.094144306238747921e-03
-1.537752815054205203e-03
-1.981581198312727405e-03
-2.421340640402002819e-03
-2.852736122629549557e-03
-3.271516562972222146e-03
-3.673525316132121750e-03
-4.054750303293767899e-03
-4.411373108963701460e-03
-4.739816385631331550e-03
-5.036788825842380968e-03
-5.299327227926794136e-03
-5.524834873707881386e-03
-5.711115718614837890e-03
-5.856403958808722998e-03
-5.959388368930657216e-03
-6.019231169112726314e-03
-6.035581008058949273e-03
-6.008579896435752889e-03
-5.938864018171187073e-03
-5.827558128372560022e-03
-5.676263790270261525e-03
-5.487041384350948431e-03
-5.262386277383569212e-03
-5.005199305148319046e-03
-4.718752008955815792e-03
-4.406647014354530233e-03
-4.072774100119309904e-03
-3.721262533783268808e-03
-3.356430374990983668e-03
-2.982731243928704243e-03
-2.604699452980667983e-03
-2.226894211847315827e-03
-1.853843611801044488e-03
-1.489989159285316431e-03
-1.139631540433287205e-03
-8.068785676941502829e-04
-4.955957655808813922e-04
-2.093604693157622386e-04
4.858016424791665813e-05
2.753465180384445958e-04
4.684587712705294777e-04
6.258637362370414329e-04
7.459558264309598761e-04
8.275919880062475873e-04
8.701004261646051860e-04
8.732830151924450470e-04
8.374114565870034851e-04
7.632172323727546724e-04
6.518755739640982568e-04
5.049838782110763159e-04
3.245346605659907616e-04
1.128837042097716420e-04
-1.272861976798544471e-04
-3.930053104025521137e-04
-6.810602089967506120e-04
-9.880396376889977617e-04
-1.310382238156547127e-03
-1.644425403721754518e-03
-1.986454591478004940e-03
-2.332752477108091752e-03
-2.679647138746044013e-03
-3.023558624980987944e-03
-3.361043287507682782e-03
-3.688835280959484528e-03
-4.003884749999840099e-03
-4.303392042967555363e-03
-4.584837767174295906e-03
-4.846008197945380312e-03
-5.085015780649413189e-03
-5.300314536337355151e-03
-5.490710283610829474e-03
-5.655365758129181700e-03
-5.793800337264176648e-03
-5.905884883686536406e-03
-5.991831697306468189e-03
-6.052179855803676602e-03
-6.087776292989981707e-03
-6.099753107632471805e-03
-6.089501392930419740e-03
-6.058642140770131163e-03
-6.008994739679042116e-03
-5.942543593330289198e-03
-5.861403479217993685e-03
-5.767784116675365308e-03
-5.663954575655521205e-03
-5.552208043897468442e-03
-5.434827531965344752e-03
-5.314052918754232947e-03
-5.192049989559374343e-03
-5.070881671538637371e-03
-4.952481929627713247e-03
-4.838632742549826143e-03
-4.730944275436470454e-03
-4.630838503496837941e-03
-4.539536411862523518e-03
-4.458048903387866295e-03
-4.387171357078879959e-03
-4.327481790719461471e-03
-4.279342609339133185e-03
-4.242905712604588125e-03
-4.218120661929483997e-03
-4.204745744564406841e-03
-4.202361644947857217e-03
-4.210387369065002848e-03
-4.228097961949320652e-03
-4.254643768467744093e-03
-4.289070876275997805e-03
-4.330342046070335960e-03
-4.377358008978688916e-03
-4.428978717975283474e-03
-4.484044077495814851e-03
-4.541393798359051950e-03
-4.599886098498161963e-03
-4.658414981302391386e-03
-4.715925747334126159e-03
-4.771428645504552021e-03
-4.824010373036413495e-03
-4.872843366875603648e-03
-4.917192727215228924e-03
-4.956420898582364343e-03
-4.989989996025472399e-03
-5.017461872726001679e-03
-5.038496081106334269e-03
-5.052845703402079891e-03
-5.060351488324119247e-03
-5.060934323381192923e-03
-5.054586277038200341e-03
-5.041360536836307984e-03
-5.021360442976535547e-03
-4.994728024268558879e-03
-4.961632209221634483e-03
-4.922256989301329079e-03
-4.876789846095953146e-03
-4.825410799700649046e-03
-4.768282152118134484e-03
-4.705539306854765458e-03
-4.637282747749146838e-03
-4.563571386861415939e-03
-4.484417475184378915e-03
-4.399783132641619902e-03
-4.309578527440246533e-03
-4.213661839821125459e-03
-4.111840928379397082e-03
-4.003876650002779862e-03
-3.889487817377146068e-03
-3.768357607765179286e-03
-3.640141376369306330e-03
-3.504475667665801070e-03
-3.360988154587052443e-03
-3.209308483049201025e-03
-3.049079617787264166e-03
-2.879969626239055856e-03
-2.701683453804547188e-03
-2.513974616116655073e-03
-2.316656529572256543e-03
-2.109613219659112714e-03
-1.892809214935599555e-03
-1.666298426892644366e-03
-1.430231817923625004e-03
-1.184863760476434187e-03
-9.305567882142054114e-04
-6.677847665750242037e-04
-3.971344414283154464e-04
-1.193052145023940476e-04
1.648928103562958527e-04
4.545425517909364556e-04
7.486253542842640852e-04
1.046028066973854042e-03
1.345551525588128310e-03
1.645920549585205839e-03
1.945795163434574631e-03
2.243782907805200524e-03
2.538452126754549201e-03
2.828345859457375398e-03
3.111996279081909178e-03
3.387939499811406640e-03
3.654730444996866744e-03
3.910957559135641928e-03
4.155257265420479740e-03
4.386327898946241859e-03
4.602942911526497136e-03
4.803963208148765221e-03
4.988348406187600136e-03
5.155167030388982559e-03
5.303605375287592100e-03
5.432974979257240537e-03
5.542718645907165724e-03
5.632414952875808289e-03
5.701781341294529480e-03
5.750675531473629226e-03
5.779095481921673293e-03
5.787177868771423844e-03
5.775195178956043889e-03
5.743551405128443331e-03
5.692776443902205878e-03
5.623519412503000074e-03
5.536540833592448925e-03
5.432703980447747827e-03
5.312965375796738568e-03
5.178364619809261611e-03
5.030013710790441107e-03
4.869085903756839757e-03
4.696804409689233663e-03
4.514430820178488325e-03
4.323253556411671070e-03
4.124576464843212990e-03
3.919707611161954083e-03
3.709948341316180852e-03
3.496582745264099380e-03
3.280867578551863780e-03
3.064022822939436227e-03
2.847222731280636254e-03
2.631587595783500128e-03
2.418176276222144729e-03
2.207979349498053433e-03
2.001913115459671468e-03
1.800814375386648389e-03
1.605435999816080296e-03
1.416443336059053067e-03
1.234411419685532132e-03
1.059823013437527234e-03
8.930674688301217445e-04
7.344404353708193067e-04
5.841443577900168891e-04
4.422898029440531587e-04
3.088975482283617220e-04
1.839014657949312580e-04
6.715224588648621761e-05
-4.157815572402146740e-05
-1.425913870188724795e-04
-2.362567177787581790e-04
-3.230044543260323069e-04
-4.033187248222014484e-04
-4.777295591746737744e-04
-5.468043954242865403e-04
-6.111391593416512199e-04
-6.713487787594063505e-04
-7.280573554200830662e-04
-7.818880157391381886e-04
-8.334525212224686572e-04
-8.833407878628783813e-04
-9.321103263505992054e-04
-9.802759027480651734e-04
-1.028299360843114600e-03
-1.076579738724858229e-03
-1.125444026756755849e-03
-1.175138501273679517e-03
-1.225820800999092436e-03
-1.277553029110729517e-03
-1.330295934465500207e-03
-1.383904238284163705e-03
-1.438123307404470287e-03
-1.492587414473923579e-03
-1.546819449585389158e-03
-1.600232424160118313e-03
-1.652132610135966656e-03
-1.701724472456870663e-03
-1.748117508875710437e-03
-1.790334832943693815e-03
-1.827323620014905357e-03
-1.857967260342895761e-03
-1.881099124537262456e-03
-1.895517974792130687e-03
-1.900004713341075721e-03
-1.893340327719898828e-03
-1.874324953623042207e-03
-1.841797632904341184e-03
-1.794656652981130480e-03
-1.731880161790839718e-03
-1.652546705984742417e-03
-1.555855475711161087e-03
-1.441145867068278083e-03
-1.307916072034169975e-03
-1.155840361064179849e-03
-9.847847414523247175e-04
-7.948206607211668077e-04
-5.862365283695448017e-04
-3.595467268098049163e-04
-1.154978449488275755e-04
1.449279992333138390e-04
4.205129205982128973e-04
7.098064202882352043e-04
1.011131781732588783e-03
1.322595919890110026e-03
1.642102569485140136e-03
1.967368813039559444e-03
2.295944825376529559e-03
2.625236654900058204e-03
2.952531842133687863e-03
3.275027567864059394e-03
3.589861015744407694e-03
3.894141592311691717e-03
4.184984596511590223e-03
4.459545946351912288e-03
4.715057388936550430e-03
4.948861785832899332e-03
5.158447915060067682e-03
5.341484279480171286e-03
5.495851420642702476e-03
5.619672186083268621e-03
5.711339449460263451e-03
5.769540870926325067e-03
5.793280215503857425e-03
5.781894818598396629e-03
5.735068792084626471e-03
5.652841798528443484e-03
5.535613018173467063e-03
5.384140259431726902e-03
5.199533943986075178e-03
4.983246148023210212e-03
4.737054590721913316e-03
4.463041661751181687e-03
4.163568793583091905e-03
3.841246403004863839e-03
3.498899691105891458e-03
3.139530819253458227e-03
2.766277863486070986e-03
2.382371112972508399e-03
1.991087264318328835e-03
1.595702192587884283e-03
1.199442957437066044e-03
8.054396830092489011e-04
4.166780740595159229e-04
3.595325125971057388e-05
-3.341744195695923016e-04
-6.914206615024034086e-04
-1.033815375437025647e-03
-1.359736642821876952e-03
-1.667940128245173513e-03
-1.957583446326487640e-03
-2.228244852698603017e-03
-2.479936085391799393e-03
-2.713108994977291195e-03
-2.928655643589460865e-03
-3.127901812882131170e-03
-3.312593994975802664e-03
-3.484879803311352955e-03
-3.647282054543720623e-03
-3.802666668831727968e-03
-3.954204898975887880e-03
-4.105330157768091910e-03
-4.259690162467109215e-03
-4.421094832657975100e-03
-4.593460715587842184e-03
-4.780752567098887906e-03
-4.986923088265165886e-03
-5.215851343517141463e-03
-5.471280953382982176e-03
-5.756758896579281144e-03
-6.075575667702007125e-03
-6.430707701546662693e-03
-6.824763004431934170e-03
-7.259930767452065815e-03
-7.737935623440316338e-03
-8.259997374550449509e-03
-8.826796777364930707e-03
-9.438447975043071439e-03
-1.009447803028812492e-02
-1.079381393840686196e-02
-1.153477741949036385e-02
-1.231508765401119650e-02
-1.313187213494183998e-02
-1.398168541412350523e-02
-1.486053578537689483e-02
-1.576391947533794732e-02
-1.668686207870609742e-02
-1.762396678091723845e-02
-1.856946874054941216e-02
-1.951729507731396820e-02
-2.046112959265071474e-02
-2.139448151721658198e-02
-2.231075745062545065e-02
-2.320333550401885991e-02
-2.406564063459662103e-02
-2.489122042930636686e-02
-2.567382016766295641e-02
-2.640745615689614814e-02
-2.708648653554153463e-02
-2.770567845156317321e-02
-2.826027080882235337e-02
-2.874603168923568763e-02
-2.915930975755471818e-02
-2.949707887231191317e-02
-2.975697531245154182e-02
-2.993732713362047895e-02
-3.003717522977072951e-02
-3.005628579896450422e-02
-2.999515399493066573e-02
-2.985499872781420885e-02
-2.963774863448294730e-02
-2.934601937969871094e-02
-2.898308262656875203e-02
-2.855282689674309982e-02
-2.805971100790827927e-02
-2.750871054879177463e-02
-2.690525815752605951e-02
-2.625517834314849280e-02
-2.556461765873341285e-02
-2.483997117695783616e-02
-2.408780619235323731e-02
-2.331478418449361295e-02
-2.252758197174534530e-02
-2.173281316301014371e-02
-2.093695098648236386e-02
-2.014625327675701599e-02
-1.936669080586260472e-02
-1.860387978889077240e-02
-1.786301949319008681e-02
-1.714883573345011430e-02
-1.646553088394133238e-02
-1.581674114645854543e-02
-1.520550159255093688e-02
-1.463421942149610924e-02
-1.410465566498052617e-02
-1.361791569493836507e-02
-1.317444841141499935e-02
-1.277405419624123156e-02
-1.241590150782672861e-02
-1.209855176475210618e-02
-1.181999210796100958e-02
-1.157767567816415932e-02
-1.136856861538001855e-02
-1.118920323085176305e-02
-1.103573649192085213e-02
-1.090401303991243159e-02
-1.078963181401657902e-02
-1.068801518414082968e-02
-1.059447978570279662e-02
-1.050430797885023443e-02
-1.041281892179884809e-02
-1.031543814261412333e-02
-1.020776476199219095e-02
-1.008563531632000049e-02
-9.945183387520980384e-03
-9.782894080823285876e-03
-9.595652689498249815e-03
-9.380786900671643502e-03
-9.136101787799215390e-03
-8.859907355584362501e-03
-8.551038155187146508e-03
-8.208864825585937899e-03
-7.833297273525947901e-03
-7.424779684431498730e-03
-6.984277530646114396e-03
-6.513256647895414655e-03
-6.013654831953711005e-03
-5.487846626450436013e-03
-4.938601664128920189e-03
-4.369037322966931938e-03
-3.782566480223780673e-03
-3.182841219494307334e-03
-2.573693418982411427e-03
-1.959073125614625450e-03
-1.342985743052806233e-03
-7.294290055866589281e-04
-1.223306968642038229e-04
4.745118193172052782e-04
1.057489353763501564e-03
1.623235011535023370e-03
2.168673943067493757e-03
2.691067797131169344e-03
3.188053336171573805e-03
3.657674641157182549e-03
4.098408419932975111e-03
4.509181987304760643e-03
4.889383851179172902e-03
5.238866715336723025e-03
5.557942911858111332e-03
5.847372614813382483e-03
6.108344873573025476e-03
6.342452007675055195e-03
6.551657879443588059e-03
6.738260701050835695e-03
6.904850984565643994e-03
7.054265549595335055e-03
7.189538364165465670e-03
7.313849264133105883e-03
7.430471379002935930e-03
7.542718286206138122e-03
7.653891846460255527e-03
7.767231737891058460e-03
7.885867474430315743e-03
8.012773885556954967e-03
8.150730839464079974e-03
8.302287953847771809e-03
8.469734679669044600e-03
8.655076610703667586e-03
8.860018216229783097e-03
9.085952271047732440e-03
9.333956007099597843e-03
9.604794272745955860e-03
9.898929273662121497e-03
1.021653674784209730e-02
1.055752809729404440e-02
1.092157803220278507e-02
1.130815704443944789e-02
1.171656802307584344e-02
1.214598594925895073e-02
1.259550008156105558e-02
1.306415753708183199e-02
1.355100726054890223e-02
1.405514332321491922e-02
1.457574671829261516e-02
1.511212455787126589e-02
1.566374569969907968e-02
1.623027211976814377e-02
1.681158507657870907e-02
1.740780543424470458e-02
1.801930753567766025e-02
1.864672630202305129e-02
1.929095723917463243e-02
1.995314913044239982e-02
2.063468946217682579e-02
2.133718274369743317e-02
2.206242209088434339e-02
2.281235449133998949e-02
2.358904039963465385e-02
2.439460837215608538e-02
2.523120573810841774e-02
2.610094619780209402e-02
2.700585541486704919e-02
2.794781584054322962e-02
2.892851180468270986e-02
2.994937631858735419e-02
3.101154064181002590e-02
3.211578777137745477e-02
3.326251116170927252e-02
3.445167953956945750e-02
3.568280892046969688e-02
3.695494258305567770e-02
3.826663982673972342e-02
3.961597380842821897e-02
4.100053903222840301e-02
4.241746857972886892e-02
4.386346117143929968e-02
4.533481763539520815e-02
4.682748653820663354e-02
4.833711830022745931e-02
4.985912696602246702e-02
5.138875867265123992e-02
5.292116570951024834e-02
5.445148475960961965e-02
5.597491804058540160e-02
5.748681580603644259e-02
5.898275850515226348e-02
6.045863716423528073e-02
6.191073028839926690e-02
6.333577555581722252e-02
6.473103498995705363e-02
6.609435196354680742e-02
6.742419889081588402e-02
6.871971418123470898e-02
6.998072769798002746e-02
7.120777369680002244e-02
7.240209080916697182e-02
7.356560866845716917e-02
7.470092115006854439e-02
7.581124632698300891e-02
7.690037359708618014e-02
7.797259869789026354e-02
7.903264759726340294e-02
8.008559038581471168e-02
8.113674660727902832e-02
8.219158371650626960e-02
8.325561040364301557e-02
8.433426671093403881e-02
8.543281303296357265e-02
8.655622012022323730e-02
8.770906224580057864e-02
8.889541563845657079e-02
9.011876427928042221e-02
9.138191509167967186e-02
9.268692433623897109e-02
9.403503699553589223e-02
9.542664040105645895e-02
9.686123352218420357e-02
9.833741278164552513e-02
9.985287506401407942e-02
1.014044381746952161e-01
1.029880788359502919e-01
1.045989877608182184e-01
1.062316411426708906e-01
1.078798875906725879e-01
1.095370490998060081e-01
1.111960343891673919e-01
1.128494627245663351e-01
1.144897959705172552e-01
1.161094767187893229e-01
1.177010696996030059e-01
1.192574039567383809e-01
1.207717130413078904e-01
1.222377706139990833e-01
1.236500186790767120e-01
1.250036858200719581e-01
1.262948932173835748e-01
1.275207460977442198e-01
1.286794087590430180e-01
1.297701613589463399e-01
1.307934373507380066e-01
1.317508405220787771e-01
1.326451411438747396e-01
1.334802510243879026e-01
1.342611779648993364e-01
1.349939601829410474e-01
1.356855819423330167e-01
1.363438719354632123e-01
1.369773865213390618e-01
1.375952799002247151e-01
1.382071640044433558e-01
1.388229610025322469e-01
1.394527513043907485e-01
1.401066204620448064e-01
1.407945081931935294e-01
1.415260628149249966e-01
1.423105042246441410e-01
1.431564985443307403e-01
1.440720472819317921e-01
1.450643934505365662e-01
1.461399469094687709e-01
1.473042307759942493e-01
1.485618499309584173e-01
1.499164826211377421e-01
1.513708951835336103e-01
1.529269796189763608e-01
1.545858129750187770e-01
1.563477369974514974e-01
1.582124557895851769e-01
1.601791487355017363e-01
1.622465954130230537e-01
1.644133087667689341e-01
1.666776722203862082e-01
1.690380762593398922e-01
1.714930497249205488e-01
1.740413806901269511e-01
1.766822219048832798e-01
1.794151757405975656e-01
1.822403539760439062e-01
1.851584074720392381e-01
1.881705217469781810e-01
1.912783745618150399e-01
1.944840524256429559e-01
1.977899236255693804e-01
2.011984659840822809e-01
2.047120487073042505e-01
2.083326683764784026e-01
2.120616403344658119e-01
2.158992476619770173e-01
2.198443510890585317e-01
2.238939640469853887e-01
2.280427984340623604e-01
2.322827872983073139e-01
2.366025920056461784e-01
2.409871019519771729e-01
2.454169359810645656e-01
2.498679550809475569e-01
2.543107965170911533e-01
2.587104401108430429e-01
2.630258172897698699e-01
2.672094738300644923e-01
2.712072968555198638e-01
2.749583164872451135e-01
2.783945919566551130e-01
2.814411910504655001e-01
2.840162712254774569e-01
2.860312693796943084e-01
2.873912059883184655e-01
2.879951078728805181e-01
2.877365525483325803e-01
2.865043349925067151e-01
2.841832562062364675e-01
2.806550308360993284e-01
2.757993093620968450e-01
2.694948084427957746e-01
2.616205405790602567e-01
2.520571332024635347e-01
2.406882247637750494e-01
2.274019239199839837e-01
2.120923163577189963e-01
1.946610023477748086e-01
1.750186467688418235e-01
1.530865225228974225e-01
1.287980272134288673e-01
1.021001526677820515e-01
7.295488655870016603e-02
4.134052530627294053e-02
7.252877861375860852e-03
-2.929365937201854064e-02
-6.826517525211794890e-02
-1.096074820782139692e-01
-1.532455350824144524e-01
-1.990830477892965300e-01
-2.470023154115139619e-01
-2.968642562925275508e-01
-3.485086790158443693e-01
-4.017547800832443339e-01
-4.564018742653709326e-01
-5.122303568025357023e-01
-5.690028938861926289e-01
-6.264658346435639791e-01
-6.843508348944509212e-01
-7.423766802794616870e-01
-8.002512933594071454e-01
-8.576739067321054177e-01
-9.143373816855636660e-01
-9.699306495967431330e-01
-1.024141251592702417e+00
-1.076657949892319444e+00
-1.127173383122762829e+00
-1.175386736920056352e+00
-1.221006400156222194e+00
-1.263752577140215161e+00
-1.303359826020412893e+00
-1.339579494234811152e+00
-1.372182022590149097e+00
-1.400959090874137614e+00
-1.425725579542142629e+00
-1.446321323865497943e+00
-1.462612639387308233e+00
-1.474493599826165235e+00
-1.481887051820437007e+00
-1.484745353571337523e+00
-1.483050827937851590e+00
-1.476815923910880457e+00
-1.466083083804453846e+00
-1.450924317226276461e+00
-1.431440486103583654e+00
-1.407760308915858127e+00
-1.380039095502065161e+00
-1.348457227020765536e+00
-1.313218398879690385e+00
-1.274547647043271947e+00
-1.232689181004429591e+00
-1.187904048721927452e+00
-1.140467660900137625e+00
-1.090667203383006267e+00
-1.038798967898269865e+00
-9.851656318188506400e-01
-9.300735183765017622e-01
-8.738298684060447075e-01
-8.167401543572958555e-01
-7.591054664843450706e-01
-7.012200000529809074e-01
-6.433686704194625516e-01
-5.858248811602835282e-01
-5.288484682902291345e-01
-4.726838407772327444e-01
-4.175583348444854015e-01
-3.636807968638331445e-01
-3.112404060838058206e-01
-2.604057455024385015e-01
-2.113241256846830896e-01
-1.641211632351370076e-01
-1.189006119877584894e-01
-7.574444216015191467e-02
-3.471315928990264393e-02
4.153648096374271646e-03
4.083654561968172447e-02
7.533529138668686176e-02
1.076676938933745636e-01
1.378683098848624000e-01
1.659870041690225118e-01
1.920873944981051074e-01
2.162452057650648962e-01
2.385465581380086242e-01
2.590862140568171434e-01
2.779658087766156971e-01
2.952920885465620260e-01
3.111751798295632199e-01
3.257269117412801562e-01
3.390592124448311706e-01
3.512825982544485193e-01
3.625047728004829328e-01
3.728293509336413902e-01
3.823547199523970597e-01
3.911730484327396451e-01
3.993694501296650712e-01
4.070213080666281735e-01
4.141977613677081949e-01
4.209593547851876449e-01
4.273578484246390863e-01
4.334361828498392022e-01
4.392285926643338945e-01
4.447608594875346877e-01
4.500506935148947396e-01
4.551082311702633332e-01
4.599366351175415701e-01
4.645327817849668195e-01
4.688880206217835300e-01
4.729889890838472888e-01
4.768184664425085817e-01
4.803562502881381646e-01
4.835800394338822805e-01
4.864663073818301098e-01
4.889911515422933896e-01
4.911311042338764032e-01
4.928638927460191055e-01
4.941691370100854686e-01
4.950289750287854562e-01
4.954286076730675115e-01
4.953567564283944402e-01
4.948060291810225109e-01
4.937731910587895845e-01
4.922593390282379855e-01
4.902699807708587043e-01
4.878150200654457480e-01
4.849086523584737463e-01
4.815691757122419481e-01
4.778187238113284496e-01
4.736829286422270524e-01
4.691905217432101871e-01
4.643728834667704142e-01
4.592635504058223406e-01
4.538976917489318530e-01
4.483115653103481035e-01
4.425419640564589030e-01
4.366256639969042230e-01
4.305988836483223281e-01
4.244967647795350740e-01
4.183528838743659772e-01
4.121988023611518059e-01
4.060636629909884499e-01
3.999738386808684987e-01
3.939526389124711758e-01
3.880200775953356884e-01
3.821927051380247242e-01
3.764835060430015701e-01
3.709018623103947365e-01
3.654535814483692024e-01
3.601409870006174740e-01
3.549630682407169946e-01
3.499156847383460001e-01
3.449918205317474285e-01
3.401818819714513276e-01
3.354740326301535180e-01
3.308545580261365027e-01
3.263082526867658872e-01
3.218188219285408880e-01
3.173692903474225613e-01
3.129424094108346210e-01
3.085210566858523906e-01
3.040886194059076453e-01
2.996293557967115162e-01
2.951287278861836061e-01
2.905737006182200211e-01
2.859530023437791835e-01
2.812573428912600870e-01
2.764795864423516547e-01
2.716148769208981406e-01
2.666607148983701769e-01
2.616169858844152873e-01
2.564859405774601586e-01
2.512721287223207978e-01
2.459822889778292831e-01
2.406251980910326660e-01
2.352114830376575705e-01
2.297534007254921351e-01
2.242645900997618513e-01
2.187598020085265438e-01
2.132546125648330237e-01
2.077651256795177426e-01
2.023076707241652228e-01
1.968985010226414478e-01
1.915534989682209921e-01
1.862878931405215488e-01
1.811159924177745406e-01
1.760509418022308259e-01
1.711045040889114521e-01
1.662868708312341681e-01
1.616065056287749324e-01
1.570700218674777326e-01
1.526820966022411630e-01
1.484454213742325834e-01
1.443606901214948279e-01
1.404266236138879964e-01
1.366400293337610150e-01
1.329958948042305467e-01
1.294875120523530654e-01
1.261066302223568525e-01
1.228436330343929128e-01
1.196877371998682354e-01
1.166272078395199918e-01
1.136495866061251053e-01
1.107419278937682161e-01
1.078910388926238306e-01
1.050837189530854920e-01
1.023069939746355239e-01
9.954834156558177438e-02
9.679590315611961981e-02
9.403867954947110752e-02
9.126670674543536921e-02
8.847120926932125484e-02
8.564472884787444062e-02
8.278122659064994504e-02
7.987615751874939385e-02
7.692651675088661711e-02
7.393085723600895109e-02
7.088927932469341053e-02
6.780339313787761557e-02
6.467625515164210359e-02
6.151228067056325327e-02
5.831713448520518817e-02
5.509760219693542876e-02
5.186144507419584299e-02
4.861724147534673274e-02
4.537421809081049889e-02
4.214207436571645177e-02
3.893080335471721387e-02
3.575051241722152634e-02
3.261124698136394495e-02
2.952282059911773629e-02
2.649465396515375548e-02
2.353562571440329446e-02
2.065393740899984509e-02
1.785699459119311980e-02
1.515130568708568555e-02
1.254240006004474217e-02
1.003476606670382874e-02
7.631809677293243874e-03
5.335833673633990498e-03
3.148037282340927778e-03
1.068535469700807343e-03
-9.036030560632278465e-04
-2.770300462172964676e-03
-4.534398675646347278e-03
-6.199574365882462579e-03
-7.770242094938409685e-03
-9.251447938240812616e-03
-1.064875586577962614e-02
-1.196812927691550191e-02
-1.321581020049741872e-02
-1.439819842666422919e-02
-1.552173313666072550e-02
-1.659277903761324433e-02
-1.761751901364267195e-02
-1.860185538433802716e-02
-1.955132120821759245e-02
-2.047100311002534798e-02
-2.136547678002919878e-02
-2.223875581771127263e-02
-2.309425472085481490e-02
-2.393476601253959404e-02
-2.476245165628427475e-02
-2.557884828788729512e-02
-2.638488574843936285e-02
-2.718091806070951216e-02
-2.796676578545561481e-02
-2.874176834740675701e-02
-2.950484513138600801e-02
-3.025456360233839959e-02
-3.098921268998222969e-02
-3.170687986440039186e-02
-3.240553007660870732e-02
-3.308308471238623899e-02
-3.373749882803273037e-02
-3.436683518075427102e-02
-3.496933329488120801e-02
-3.554347226046659924e-02
-3.608802598144339457e-02
-3.660210983921173555e-02
-3.708521785715303276e-02
-3.753724980460870081e-02
-3.795852763650590933e-02
-3.834980121407532971e-02
-3.871224332149211106e-02
-3.904743412736161323e-02
-3.935733559451342484e-02
-3.964425655136225024e-02
-3.991080921865662601e-02
-4.015985820015477437e-02
-4.039446297914698475e-02
-4.061781541405456303e-02
-4.083317347780344303e-02
-4.104379248949683451e-02
-4.125285553913660141e-02
-4.146340449131410977e-02
-4.167827282425595053e-02
-4.190002192854579144e-02
-4.213088199187089988e-02
-4.237269873906761991e-02
-4.262688713597859863e-02
-4.289439287020287844e-02
-4.317566248649853250e-02
-4.347062274245180880e-02
-4.377866961754926789e-02
-4.409866718776004474e-02
-4.442895643246504156e-02
-4.476737383742753623e-02
-4.511127944641502019e-02
-4.545759389295211256e-02
-4.580284371024898049e-02
-4.614321416335358250e-02
-4.647460865519507933e-02
-4.679271354748990724e-02
-4.709306741807482710e-02
-4.737113334686280514e-02
-4.762237316623499361e-02
-4.784232219853839368e-02
-4.802666324421731026e-02
-4.817129859899674932e-02
-4.827241882921213395e-02
-4.832656712883131450e-02
-4.833069819948246360e-02
-4.828223067534793272e-02
-4.817909221785156293e-02
-4.801975652675759959e-02
-4.780327182845407752e-02
-4.752928022776874151e-02
-4.719802776530448996e-02
-4.681036500070073075e-02
-4.636773824920461390e-02
-4.587217160206050193e-02
-4.532624015811681506e-02
-4.473303488122211402e-02
-4.409611971666813762e-02
-4.341948183115282300e-02
-4.270747564512649558e-02
-4.196476182987105008e-02
-4.119624209915528912e-02
-4.040699093113304941e-02
-3.960218531348378562e-02
-3.878703374624079686e-02
-3.796670542392283076e-02
-3.714626083139709739e-02
-3.633058482352558710e-02
-3.552432315854051059e-02
-3.473182345073823341e-02
-3.395708131391845380e-02
-3.320369260291338581e-02
-3.247481228245299029e-02
-3.177312048638824410e-02
-3.110079618655400141e-02
-3.045949878232432836e-02
-2.985035770104478917e-02
-2.927397014845179932e-02
-2.873040676925457323e-02
-2.821922512251151885e-02
-2.773949050019828069e-02
-2.728980372427739984e-02
-2.686833543705632529e-02
-2.647286611376836740e-02
-2.610083112715813961e-02
-2.574937003009777903e-02
-2.541537939815313729e-02
-2.509556818411327536e-02
-2.478651474277601685e-02
-2.448472464317523467e-02
-2.418668839438937665e-02
-2.388893812808253955e-02
-2.358810248707512644e-02
-2.328095881887464261e-02
-2.296448205106226687e-02
-2.263588953016896360e-02
-2.229268117698797111e-02
-2.193267451255441827e-02
-2.155403406789006132e-02
-2.115529485741719437e-02
-2.073537978248847502e-02
-2.029361067972861726e-02
-1.982971305384660307e-02
-1.934381451287421963e-02
-1.883643718400694264e-02
-1.830848419070271738e-02
-1.776122060682593443e-02
-1.719624928418459278e-02
-1.661548202058445514e-02
-1.602110655453586885e-02
-1.541555006965201167e-02
-1.480143977610723881e-02
-1.418156117613981852e-02
-1.355881486978409434e-02
-1.293617234012636903e-02
-1.231663159217565202e-02
-1.170317324271292515e-02
-1.109871777068473057e-02
-1.050608448256831577e-02
-9.927952818038177432e-03
-9.366826494103433487e-03
-8.825001035238644320e-03
-8.304535075611208308e-03
-7.807225761838239297e-03
-7.334588620310838677e-03
-6.887842021423921587e-03
-6.467896392768833838e-03
-6.075348245319476051e-03
-5.710479103869708917e-03
-5.373259132620275894e-03
-5.063355222683795301e-03
-4.780143595098314095e-03
-4.522726436143908665e-03
-4.289952229947400185e-03
-4.080439389488505625e-03
-3.892602893748066221e-03
-3.724683293439444952e-03
-3.574777639617427068e-03
-3.440871841251257317e-03
-3.320873816834308753e-03
-3.212647101515675972e-03
-3.114044210970245020e-03
-3.022939189008850332e-03
-2.937259043197298393e-03
-2.855013454943871633e-03
-2.774322371053843106e-03
-2.693440963949579516e-03
-2.610781844497067281e-03
-2.524934062556126457e-03
-2.434678675038131311e-03
-2.339000688573357120e-03
-2.237097362538274965e-03
-2.128382658200262366e-03
-2.012487925870226277e-03
-1.889258893227891605e-03
-1.758749111468474848e-03
-1.621209975418372567e-03
-1.477077584476484389e-03
-1.326956735574853861e-03
-1.171602395714757073e-03
-1.011898980362640468e-03
-8.488379731691032088e-04
-6.834941159022527328e-04
-5.170008051129954679e-04
-3.505250357973328942e-04
-1.852424359385868100e-04
-2.231281334066435564e-05
1.371433829702791850e-04
2.920671349367535779e-04
4.414811640131294365e-04
5.845081138512568403e-04
7.203861121620663615e-04
8.484816947769952640e-04
9.682996246517557156e-04
1.079489568379434980e-03
1.181849402623555379e-03
1.275325198794023457e-03
1.360007805266013042e-03
1.436126170160106083e-03
1.504037311067313353e-03
1.564213378706628185e-03
1.617225912319989649e-03
1.663727585502418945e-03
1.704431791759720679e-03
1.740090424586862757e-03
1.771470239321773369e-03
1.799328346659443334e-03
1.824387143921177290e-03
1.847309240324137430e-03
1.868672983738551381e-03
1.888948781735844563e-03
1.908476899631483988e-03
1.927447264626263928e-03
1.945881454481229126e-03
1.963617463928167550e-03
1.980297376566534252e-03
1.995358535699953608e-03
2.008028264794759279e-03
2.017322401071559856e-03
2.022047779778776613e-03
2.020808669023896852e-03
2.012017209822601193e-03
1.993907829455840441e-03
1.964555427020379767e-03
1.921897148440587831e-03
1.863757462833358618e-03
1.787876294844193640e-03
1.691939767514122513e-03
1.573613111722503826e-03
1.430575322827663158e-03
1.260555068722796343e-03
1.061367205585703319e-03
8.309494789635901322e-04
5.673987272309844072e-04
2.690060812412534358e-04
-6.570932793665732559e-05
-4.379689465493059007e-04
-8.487058633112835176e-04
-1.298539137961253779e-03
-1.787751626859560320e-03
-2.316271769369376322e-03
-2.883659783729826918e-03
-3.489098382460054017e-03
-4.131388287584129848e-03
-4.808948737533914539e-03
-5.519823013631589871e-03
-6.261688899497474398e-03
-7.031874128655792207e-03
-7.827376599085379000e-03
-8.644889066124343199e-03
-9.480828118375722591e-03
-1.033136702391164279e-02
-1.119247199893017193e-02
-1.205994143682584049e-02
-1.292944763112489903e-02
-1.379658028264420591e-02
-1.465689141540777243e-02
-1.550594092993568679e-02
-1.633934211126600311e-02
-1.715280672362930539e-02
-1.794218878979436660e-02
-1.870352669355318520e-02
-1.943308279514947487e-02
-2.012738029668065601e-02
-2.078323662885344508e-02
-2.139779304260107720e-02
-2.196853997169298522e-02
-2.249333791879449748e-02
-2.297043353175300465e-02
-2.339847074406303795e-02
-2.377649680799710438e-02
-2.410396331171725526e-02
-2.438072210577528487e-02
-2.460701628220483828e-02
-2.478346651438563183e-02
-2.491105285937892863e-02
-2.499109236719356669e-02
-2.502521304962721654e-02
-2.501532446977412436e-02
-2.496358539379061117e-02
-2.487236916953649082e-02
-2.474422730452915248e-02
-2.458185173946111218e-02
-2.438803649236552171e-02
-2.416563919059999330e-02
-2.391754303018929148e-02
-2.364661972082152119e-02
-2.335569398446789985e-02
-2.304750998228019196e-02
-2.272470019865515528e-02
-2.238975717312734898e-02
-2.204500845843212001e-02
-2.169259494961910464e-02
-2.133445292563023593e-02
-2.097229997393284737e-02
-2.060762487386758046e-02
-2.024168142156309094e-02
-1.987548629234060435e-02
-1.950982065521571912e-02
-1.914523552403974913e-02
-1.878206055620803075e-02
-1.842041624268699052e-02
-1.806022888136183530e-02
-1.770124815110700120e-02
-1.734306692395799071e-02
-1.698514281657923300e-02
-1.662682118005361781e-02
-1.626735897846797591e-02
-1.590594918376818379e-02
-1.554174519233166886e-02
-1.517388490709111089e-02
-1.480151412713552952e-02
-1.442380874554198382e-02
-1.403999544960482342e-02
-1.364937069646557886e-02
-1.325131756406335709e-02
-1.284532037140487942e-02
-1.243097682916134705e-02
-1.200800767338680922e-02
-1.157626359483788538e-02
-1.113572943829741792e-02
-1.068652585674343715e-02
-1.022890835251917541e-02
-9.763263869511897702e-03
-9.290105082918335283e-03
-8.810062562197382846e-03
-8.323875169810718982e-03
-7.832378700929553197e-03
-7.336493255058461685e-03
-6.837209648875673153e-03
-6.335574995843754748e-03
-5.832677913040336566e-03
-5.329633647008419350e-03
-4.827569306117612466e-03
-4.327609704800157962e-03
-3.830863807472049617e-03
-3.338412256921330801e-03
-2.851296157255227195e-03
-2.370507094286971022e-03
-1.896978810444103656e-03
-1.431580528575689083e-03
-9.751119564050538631e-04
-5.283001103230342303e-04
-9.179782451657098757e-05
3.338159680392589973e-04
7.480343139438586086e-04
1.150418806924152770e-03
1.540594761157894257e-03
1.918245144089637637e-03
2.283103506811149340e-03
2.634946091891274093e-03
2.973583344498231720e-03
3.298851067246049221e-03
3.610601496805123690e-03
3.908694481949743019e-03
4.192989053234012081e-03
4.463335493382568006e-03
4.719568285877413262e-03
4.961500015952706802e-03
5.188916444005767063e-03
5.401572856147035528e-03
5.599191754476835065e-03
5.781462135274812418e-03
5.948040284819830839e-03
6.098552031687112275e-03
6.232596585174559820e-03
6.349751807381439316e-03
6.449580895761819650e-03
6.531640405657198820e-03
6.595489233378284966e-03
6.640698703989244937e-03
6.666863375574020104e-03
6.673612414554976925e-03
6.660621339506437102e-03
6.627623789447575908e-03
6.574423315214129350e-03
6.500904739180091325e-03
6.407044885704825214e-03
6.292922554692230788e-03
6.158727481239043532e-03
6.004768016646730606e-03
5.831477447572442491e-03
5.639418847155792773e-03
5.429288118261927157e-03
5.201915372632445397e-03
4.958264420309769181e-03
4.699430431323678263e-03
4.426635707826615841e-03
4.141223566132957654e-03
3.844650494136592125e-03
3.538476583723700487e-03
3.224354379685751611e-03
2.904016293392759455e-03
2.579260746113530654e-03
2.251937226659717767e-03
1.923930416760004022e-03
1.597143771291030480e-03
1.273482564687615070e-03
9.548367876589343092e-04
6.430640588183310054e-04
3.399727532160419096e-04
4.730561001171403594e-05
-2.332758848117319581e-04
-5.002062579517592379e-04
-7.520297040679420559e-04
-9.874125735420179271e-04
-1.205154362505963779e-03
-1.404197194979309648e-03
-1.583633807099168187e-03
-1.742713715416579394e-03
-1.880847744071113695e-03
-1.997610836842788999e-03
-2.092743061417212235e-03
-2.166148934028477510e-03
-2.217895119913307258e-03
-2.248206579341770293e-03
-2.257461240584402330e-03
-2.246183359496404987e-03
-2.215035632250456164e-03
-2.164810225452588541e-03
-2.096418947957025877e-03
-2.010882610347979483e-03
-1.909319777663043369e-03
-1.792935130083491563e-03
-1.663007492530056653e-03
-1.520877808150783179e-03
-1.367937020691583055e-03
-1.205614216056486538e-03
-1.035364908202812424e-03
-8.586598483973514016e-04
-6.769742321320773408e-04
-4.917774481883865683e-04
-3.045234402859302845e-04
-1.166417865443195674e-04
7.047059626510709409e-05
2.554570758950595552e-04
4.370081339940209172e-04
6.138675587696769409e-04
7.848379730655926549e-04
9.487856844969719651e-04
1.104644997159740091e-03
1.251421923818620300e-03
1.388197425638248040e-03
1.514130195888996897e-03
1.628459037872375011e-03
1.730504968718609565e-03
1.819672934220859786e-03
1.895453264086039997e-03
1.957422925164973605e-03
2.005246505649406052e-03
2.038677085248347468e-03
2.057556835142326269e-03
2.061817508703189025e-03
2.051480505649060006e-03
2.026656960759771597e-03
1.987547432387892950e-03
1.934441221216985770e-03
1.867715410979304668e-03
1.787833435950522817e-03
1.695343216313199538e-03
1.590874764209990579e-03
1.475137181287455379e-03
1.348915074640028760e-03
1.213064266325728641e-03
1.068506810661323542e-03
9.162253100404216168e-04
7.572564052250654052e-04
5.926836044915119580e-04
4.236293373437953870e-04
2.512462475242207378e-04
7.670788849466314671e-05
-9.880123108322932533e-05
-2.740961134002694666e-04
-4.480020718661162187e-04
-6.193660341765756241e-04
-7.870679192068962731e-04
-9.500320798853797381e-04
-1.107238636689437689e-03
-1.257734600847161023e-03
-1.400644566958964519e-03
-1.535180818709738380e-03
-1.660652740530273478e-03
-1.776475109883656660e-03
-1.882175514562800609e-03
-1.977400430482203954e-03
-2.061919939748536098e-03
-2.135630991545666661e-03
-2.198558981727259144e-03
-2.250857669043287990e-03
-2.292807369113394368e-03
-2.324811317498649312e-03
-2.347390328114930171e-03
-2.361175523315236710e-03
-2.366899461947727032e-03
-2.365385563906547556e-03
-2.357536022852057839e-03
-2.344318330201434954e-03
-2.326750517392317183e-03
-2.305885433618869249e-03
-2.282794139430023832e-03
-2.258548707847798584e-03
-2.234204710846613828e-03
-2.210783589166235782e-03
-2.189255183973940876e-03
-2.170520766542104966e-03
-2.155396819554227395e-03
-2.144599880405139922e-03
-2.138732554368103032e-03
-2.138271146529968896e-03
-2.143555051034874790e-03
-2.154778035876477992e-03
-2.171981770558633739e-03
-2.195051558727478293e-03
-2.223714605458040373e-03
-2.257540728353440648e-03
-2.295945612010761704e-03
-2.338196638520403502e-03
-2.383421155821726332e-03
-2.430617298061472573e-03
-2.478667069492187548e-03
-2.526351585327002176e-03
-2.572368298302135387e-03
-2.615349900083551414e-03
-2.653884731565897288e-03
-2.686538371957057202e-03
-2.711876129279401203e-03
-2.728485973235028270e-03
-2.735001735863576595e-03
-2.730126084607077241e-03
-2.712652960479003915e-03
-2.681489124614220860e-03
-2.635674519168601081e-03
-2.574401022901658034e-03
-2.497029302739328833e-03
-2.403103456909748501e-03
-2.292363289084760423e-03
-2.164753929966106022e-03
-2.020432550623222322e-03
-1.859772098440408156e-03
-1.683362004907848963e-03
-1.492005745924873325e-03
-1.286715251284641223e-03
-1.068702193772981101e-03
-8.393663678050374303e-04
-6.002811398085145184e-04
-3.531763105821589168e-04
-9.991852723437485279e-05
1.575104969538129002e-04
4.170376344508568535e-04
6.765234086094525350e-04
9.337882401503358812e-04
1.186639474379149210e-03
1.432898834882180041e-03
1.670429789199799229e-03
1.897164490014083792e-03
2.111129844819618125e-03
2.310472369485315654e-03
2.493481465500710110e-03
2.658610759630933296e-03
2.804497147178030159e-03
2.929977293323752716e-03
3.034101429353436470e-03
3.116144147336309764e-03
3.175611970279399419e-03
3.212247728119876564e-03
3.226031697897171341e-03
3.217179425285650145e-03
3.186136315604163900e-03
3.133569081762146644e-03
3.060354205462281242e-03
2.967563619187498468e-03
2.856447842186352146e-03
2.728416903308403339e-03
2.585019231082684270e-03
2.427918937185982728e-03
2.258871920332069204e-03
2.079701074029887027e-03
1.892271017551285786e-03
1.698462820124272072e-03
1.500148982778720360e-03
1.299169198046775569e-03
1.097307138164180674e-03
8.962687269652105547e-04
6.976622016583186679e-04
5.029801758057840869e-04
3.135840389929465109e-04
1.306908359545027069e-04
-4.463711910314570097e-05
-2.114998552587911179e-04
-3.691644338234381694e-04
-5.170667981443237979e-04
-6.548107607116865955e-04
-7.821641231727224702e-04
-8.990521486595683901e-04
-1.005548584378655264e-03
-1.101864399130832476e-03
-1.188334419108930595e-03
-1.265402209867423459e-03
-1.333603586227835201e-03
-1.393548943677447045e-03
-1.445904878190715703e-03
-1.491375360211314198e-03
-1.530682811370690259e-03
-1.564549628102546034e-03
-1.593680166505478989e-03
-1.618743889983933950e-03
-1.640359737608545728e-03
-1.659082097923463917e-03
-1.675388629537319287e-03
-1.689670122689477172e-03
-1.702222612085621967e-03
-1.713241833702231496e-03
-1.722820151053367638e-03
-1.730945926128610009e-03
-1.737505447414625179e-03
-1.742287266210893956e-03
-1.744988891052892763e-03
-1.745225618422340886e-03
-1.742541485740966125e-03
-1.736421837056779070e-03
-1.726307499509896612e-03
-1.711610245084289363e-03
-1.691729187898122081e-03
-1.666067699527462457e-03
-1.634050658375833407e-03
-1.595141604236241560e-03
-1.548859527907187452e-03
-1.494794836104857251e-03
-1.432624234970046638e-03
-1.362124231040110151e-03
-1.283183018290113804e-03
-1.195810419480910569e-03
-1.100145644486437164e-03
-9.964627462092075314e-04
-8.851737144496055459e-04
-7.668289442518670153e-04
-6.421150769296508692e-04
-5.118503206834592797e-04
-3.769771573162151957e-04
-2.385526676978329253e-04
-9.773649509938392215e-05
4.422336072492607151e-05
1.860065559552828219e-04
3.262382111238121339e-04
4.635080449874771848e-04
5.963905216592511969e-04
7.234657372777365423e-04
8.433407363933121455e-04
9.546707982944758987e-04
1.056180420140409104e-03
1.146683536640200063e-03
1.225102758077782888e-03
1.290487199709842081e-03
1.342028629125561643e-03
1.379075591566131373e-03
1.401145362623829960e-03
1.407933498059702089e-03
1.399320681423418030e-03
1.375376878506244516e-03
1.336362562585066216e-03
1.282727198795264104e-03
1.215104784271263871e-03
1.134306555246610048e-03
1.041311013698663574e-03
9.372513998626621351e-04
8.234007460209822509e-04
7.011548260635162583e-04
5.720132185109389573e-04
4.375587068559308847e-04
2.994354729491585372e-04
1.593263579179023191e-04
1.892954527613353570e-05
-1.200649254946453790e-04
-2.559985524710906967e-04
-3.872671908322404218e-04
-5.123429974588002839e-04
-6.297950913266419379e-04
-7.383087738216323340e-04
-8.367029189703962394e-04
-9.239451857295292135e-04
-9.991650030525024706e-04
-1.061663999097083077e-03
-1.110923831448450225e-03
-1.146611239577763732e-03
-1.168580363318170480e-03
-1.176872165771134914e-03
-1.171711108879469653e-03
-1.153499211029184682e-03
-1.122807465312169409e-03
-1.080364911046388394e-03
-1.027045422633268527e-03
-9.638525889124957688e-04
-8.919029498288687414e-04
-8.124077112968515132e-04
-7.266534215280306443e-04
-6.359818365892042514e-04
-5.417694017652519229e-04
-4.454065918300716283e-04
-3.482773704119901696e-04
-2.517393122387289145e-04
-1.571044949545032240e-04
-6.562159944699998701e-05
2.154065643164759851e-05
1.033084276160255502e-04
1.787158413651905163e-04
2.469160333026135072e-04
3.071900656019537108e-04
3.589535501110689654e-04
4.017610446205660763e-04
4.353081549638761227e-04
4.594312890735586553e-04
4.741051785996112304e-04
4.794383634928197193e-04
4.756666539863570078e-04
4.631447204561769449e-04
4.423361345531057328e-04
4.138019815244177229e-04
3.781883203263615781e-04
3.362127459652168018e-04
2.886503051003951937e-04
2.363190162879550327e-04
1.800653084023102861e-04
1.207495725054825205e-04
5.923220472606963177e-05
-3.639742108917822379e-06
-6.704501727350060199e-05
-1.301995548041800328e-04
-1.923665929873166877e-04
-2.528654077376296422e-04
-3.110785227268402257e-04
-3.664573742578400425e-04
-4.185262630141211269e-04
-4.668846590535929877e-04
-5.112079278643133365e-04
-5.512464176323306556e-04
-5.868230931522996647e-04
-6.178297176150685747e-04
-6.442218387317861150e-04
-6.660126361276095782e-04
-6.832658873296602268e-04
-6.960882324154889613e-04
-7.046209184173484515e-04
-7.090312577454693311e-04
-7.095039763184349518e-04
-7.062327483721652331e-04
-6.994120588827833652e-04
-6.892296025990520079e-04
-6.758594514950483877e-04
-6.594560720012403610e-04
-6.401493092015334225e-04
-6.180406372270614125e-04
-5.932006008495076255e-04
-5.656675013815035385e-04
-5.354473673521567079e-04
-5.025153360644486582e-04
-4.668182643087487446e-04
-4.282785102627513041e-04
-3.867988396567830054e-04
-3.422683382459295394e-04
-2.945691096878538568e-04
-2.435837339210253144e-04
-1.892031019243965869e-04
-1.313346055416065900e-04
-6.991036916917304134e-05
-4.895304285618208413e-06
6.370521090433689645e-05
1.358382468086719659e-04
2.113969927705123706e-04
2.902154396340964602e-04
3.720643232553077964e-04
4.566483357545165112e-04
5.436047226795061305e-04
6.325035970944486172e-04
7.228497914089011041e-04
8.140863965605480692e-04
9.055999729275567576e-04
9.967274312253650813e-04
1.086764507744688137e-03
1.174975651570289237e-03
1.260605248238511056e-03
1.342890039055061498e-03
1.421072428819038875e-03
1.494414593683330910e-03
1.562212976474581204e-03
1.623813037588992892e-03
1.678623856891469203e-03
1.726132409784860572e-03
1.765917109220770326e-03
1.797660404179252753e-03
1.821160008191083065e-03
1.836338666635414915e-03
1.843252050445031267e-03
1.842094705181490308e-03
1.833203654465180230e-03
1.817059664490333409e-03
1.794285908919675048e-03
1.765643992409342538e-03
1.732027373678606203e-03
1.694452046293997002e-03
1.654044620971032104e-03
1.612027930060062637e-03
1.569704225811670035e-03
1.528436173305141709e-03
1.489625949111000793e-03
1.454692687025549783e-03
1.425048583965099090e-03
1.402074059432193440e-03
1.387092350566053326e-03
1.381343898560939785e-03
1.385960989238775847e-03
1.401943027787174584e-03
1.430133074006843504e-03
1.471195817163908383e-03
1.525597527636038874e-03
1.593588420634987728e-03
1.675187751769700818e-03
1.770172047166306429e-03
1.878066679343657784e-03
1.998141048876341495e-03
2.129407696304098409e-03
2.270625352531082525e-03
2.420306093315230216e-03
2.576726545068945811e-03
2.737943142423811087e-03
2.901811343635299269e-03
3.066008594097529259e-03
3.228060840050756431e-03
3.385372199457400456e-03
3.535257533472689184e-03
3.674977397454721757e-03
3.801774974935528094e-03
3.912914419312274114e-03
4.005720160416552378e-03
4.077616464213174897e-03
4.126166743809711428e-03
4.149112008428199917e-03
4.144407725962506381e-03
4.110258726452878202e-03
4.045151299276936868e-03
3.947882121665569760e-03
3.817583421084665661e-03
3.653743869019641065e-03
3.456224865501683705e-03
3.225271777218115428e-03
2.961519850667160541e-03
2.665994656102418144e-03
2.340106835713046726e-03
1.985641074475161943e-03
1.604739471555663866e-03
1.199879249620134725e-03
7.738451237370129335e-04
3.296965219907973567e-04
-1.292698455803402565e-04
-5.995617539173886705e-04
-1.077537036436496554e-03
-1.559452245369615051e-03
-2.041513959994448960e-03
-2.519931821351873227e-03
-2.990972751910345347e-03
-3.451015574440823887e-03
-3.896605069502692698e-03
-4.324504898320927909e-03
-4.731748407148073099e-03
-5.115686778833878831e-03
-5.474033508896811520e-03
-5.804904668480732194e-03
-6.106854291887200276e-03
-6.378904187297227552e-03
-6.620567723213882823e-03
-6.831867082786272777e-03
-7.013343614005717805e-03
-7.166061093746875325e-03
-7.291601618887868022e-03
-7.392054068175646885e-03
-7.469995204306327172e-03
-7.528463505329303571e-03
-7.570925934432125477e-03
-7.601238075784572806e-03
-7.623597926012553282e-03
-7.642494057624838605e-03
-7.662648692911084615e-03
-7.688956284434047758e-03
-7.726418485463805094e-03
-7.780076340342332794e-03
-7.854940519018917613e-03
-7.955920567656276157e-03
-8.087754060847595142e-03
-8.254936705307193770e-03
-8.461654175577501200e-03
-8.711716822173766125e-03
-9.008498102479292613e-03
-9.354877573652673264e-03
-9.753189207765541532e-03
-1.020517596391254736e-02
-1.071195116611293845e-02
-1.127396738544546480e-02
-1.189099315570971149e-02
-1.256209811217542244e-02
-1.328564674925006121e-02
-1.405930106155634657e-02
-1.488003206925696265e-02
-1.574414019283203528e-02
-1.664728422520483919e-02
-1.758451877618697964e-02
-1.855033969565856797e-02
-1.953873697742198115e-02
-2.054325459363205014e-02
-2.155705643521589956e-02
-2.257299763384833929e-02
-2.358370050394165141e-02
-2.458163406477384058e-02
-2.555919612952908468e-02
-2.650879696950085920e-02
-2.742294362088942145e-02
-2.829432365863792168e-02
-2.911588739703699358e-02
-2.988092752516165532e-02
-3.058315510862364556e-02
-3.121677100541702873e-02
-3.177653180710696829e-02
-3.225780944644801584e-02
-3.265664378405717244e-02
-3.296978733446676718e-02
-3.319474162367824777e-02
-3.332978481223462797e-02
-3.337399006299493487e-02
-3.332723458584636866e-02
-3.319019903273474209e-02
-3.296435742971294547e-02
-3.265195771790530693e-02
-3.225599303793425660e-02
-3.178016431249735402e-02
-3.122883442743521615e-02
-3.060697470912760940e-02
-2.992010439954803647e-02
-2.917422373152997808e-02
-2.837574172874959486e-02
-2.753139939782884085e-02
-2.664818945523266674e-02
-2.573327361418854126e-02
-2.479389841451516696e-02
-2.383731070913214581e-02
-2.287067394928765998e-02
-2.190098623592853094e-02
-2.093500129527482365e-02
-1.997915329963240519e-02
-1.903948656749727616e-02
-1.812159095467476624e-02
-1.723054383164965286e-02
-1.637085931615964857e-02
-1.554644547330179261e-02
-1.476056994654154596e-02
-1.401583440670167713e-02
-1.331415819758822831e-02
-1.265677130527364386e-02
-1.204421671789616607e-02
-1.147636214058430151e-02
-1.095242066711392924e-02
-1.047098036561811690e-02
-1.003004208966798774e-02
-9.627065118914986119e-03
-9.259019890264546387e-03
-8.922446959307944389e-03
-8.613521517822493936e-03
-8.328122488728825074e-03
-8.061905045133353070e-03
-7.810375681304054449e-03
-7.568968721846269961e-03
-7.333123076384289070e-03
-7.098358296727232987e-03
-6.860348540255559527e-03
-6.614993670384014361e-03
-6.358486263528311151e-03
-6.087373624643396125e-03
-5.798613845705854510e-03
-5.489624999287648528e-03
-5.158326958374862513e-03
-4.803174978155111061e-03
-4.423184525421303831e-03
-4.017947156718262511e-03
-3.587637023525671286e-03
-3.133007825738778722e-03
-2.655380366334453377e-03
-2.156620844333477418e-03
-1.639110070240850075e-03
-1.105704123156322919e-03
-5.596869664846745125e-04
-4.715767139972205079e-06
5.552403061092043126e-04
1.115966990636686317e-03
1.673076359836028282e-03
2.222081832081460907e-03
2.758475565589951859e-03
3.277807037734548762e-03
3.775761589136415741e-03
4.248237685307019659e-03
4.691421744550406878e-03
5.101859168321917423e-03
5.476520527295384785e-03
5.812861809675558267e-03
6.108877584622018735e-03
6.363146419930082974e-03
6.574867479478897422e-03
6.743887722558329634e-03
6.870719153141239231e-03
6.956545739565384370e-03
7.003219789789950217e-03
7.013247652681031848e-03
6.989764863499374307e-03
6.936501046542635496e-03
6.857734884961713163e-03
6.758239947689727127e-03
6.643221967592496079e-03
6.518248479935172257e-03
6.389171875369279580e-03
6.262047035639998517e-03
6.143044732012025930e-03
6.038362263103429044e-03
5.954132584321083707e-03
5.896333383027769354e-03
5.870697618567821338e-03
5.882626935181379559e-03
5.937109463992632820e-03
6.038643151129714434e-03
6.191166217203817115e-03
6.397995695390608015e-03
6.661775349337250955e-03
6.984433698108851070e-03
7.367153061083322844e-03
7.810350212094338378e-03
8.313669133267588898e-03
8.875985935426674786e-03
9.495426223893667014e-03
1.016939452715402356e-02
1.089461558292410641e-02
1.166718675717344153e-02
1.248264095661159173e-02
1.333601904067876869e-02
1.422195058831909366e-02
1.513474182987177910e-02
1.606846919698092305e-02
1.701707714604519528e-02
1.797447854671150452e-02
1.893465591070478751e-02
1.989176186358131149e-02
2.084021716409895433e-02
2.177480447522213425e-02
2.269075636467443938e-02
2.358383600655299464e-02
2.445040901542513967e-02
2.528750532647555671e-02
2.609286974556995070e-02
2.686500041326201141e-02
2.760317429015132426e-02
2.830745935398600033e-02
2.897871293011687957e-02
2.961856626839319204e-02
3.022939553832939760e-02
3.081427958656143481e-02
3.137694520421101252e-02
3.192170076507046955e-02
3.245335927185612201e-02
3.297715229488834554e-02
3.349863604465823375e-02
3.402359144216474812e-02
3.455791977241625540e-02
3.510753585731993948e-02
3.567826071233497209e-02
3.627571550057685779e-02
3.690521881396444798e-02
3.757168925899334599e-02
3.827955493356250544e-02
3.903267179414565691e-02
3.983425217048711109e-02
4.068680503810501864e-02
4.159208925002302881e-02
4.255108046270930644e-02
4.356395272618032721e-02
4.463007498317869692e-02
4.574802279260783283e-02
4.691560511272432898e-02
4.812990572072614603e-02
4.938733865296230513e-02
5.068371663947041084e-02
5.201433145291210758e-02
5.337404461170344727e-02
5.475738687126066595e-02
5.615866470520177595e-02
5.757207163470289685e-02
5.899180243184502792e-02
6.041216801630439059e-02
6.182770877544802729e-02
6.323330415421597739e-02
6.462427626376664180e-02
6.599648553138688645e-02
6.734641634252025444e-02
6.867125102092629108e-02
6.996893045964866498e-02
7.123820011607755187e-02
7.247864027761334593e-02
7.369067983266698596e-02
7.487559310947557167e-02
7.603547957348590070e-02
7.717322660108172361e-02
7.829245580152148498e-02
7.939745378665294395e-02
8.049308853174802492e-02
8.158471281292019317e-02
8.267805629376107079e-02
8.377910839416252697e-02
8.489399409292310017e-02
8.602884486112309659e-02
8.718966738797037652e-02
8.838221252885590518e-02
8.961184710797047426e-02
9.088343108376595314e-02
9.220120262228947983e-02
9.356867346083994064e-02
9.498853665044008909e-02
9.646258885196269672e-02
9.799166882170927406e-02
9.957561352311616876e-02
1.012132330801173291e-01
1.029023052220845308e-01
1.046395897268058844e-01
1.064208628436167509e-01
1.082409714587110189e-01
1.100939060426987248e-01
1.119728914370863304e-01
1.138704938500069846e-01
1.157787423931525561e-01
1.176892628755720899e-01
1.195934217180659870e-01
1.214824771425728617e-01
1.233477349131124473e-01
1.251807058505405856e-01
1.269732620755762154e-01
1.287177890794702351e-01
1.304073306245694674e-01
1.320357237887322122e-01
1.335977214921627576e-01
1.350891001726463314e-01
1.365067504717793756e-01
1.378487491222611938e-01
1.391144106666467317e-01
1.403043179292185194e-01
1.414203307534406817e-01
1.424655726700156944e-01
1.434443959291258064e-01
1.443623254647664889e-01
1.452259831726664674e-01
1.460429938363997093e-01
1.468218748159375309e-01
1.475719116597700442e-01
1.483030223093511624e-01
1.490256126910181889e-01
1.497504268008179040e-01
1.504883942468411007e-01
1.512504785417236597e-01
1.520475292237838116e-01
1.528901408947977159e-01
1.537885220204371350e-01
1.547523761067296499e-01
1.557907976183822985e-01
1.569121846070837822e-01
1.581241694966953604e-01
1.594335690419158291e-01
1.608463540638863654e-01
1.623676388897042355e-01
1.640016899657104621e-01
1.657519524453812676e-01
1.676210930422281642e-01
1.696110569351230724e-01
1.717231359923424572e-01
1.739580451424561358e-01
1.763160032195972837e-01
1.787968143195130255e-01
1.813999456476309280e-01
1.841245973326953722e-01
1.869697599261164744e-01
1.899342552206062240e-01
1.930167560604505728e-01
1.962157813565246767e-01
1.995296625010469782e-01
2.029564781981866017e-01
2.064939551095457126e-01
2.101393324113964012e-01
2.138891891393965572e-01
2.177392339244939856e-01
2.216840578557586761e-01
2.257168518530402179e-01
2.298290910909735751e-01
2.340101899985795042e-01
2.382471321375128348e-01
2.425240804177674347e-01
2.468219740449584809e-01
2.511181193113815047e-01
2.553857820713340554e-01
2.595937905562772929e-01
2.637061576434221455e-01
2.676817320814435797e-01
2.714738884302387856e-01
2.750302656257904710e-01
2.782925638501549948e-01
2.811964093939347542e-01
2.836712963672569643e-01
2.856406140013104111e-01
2.870217668294732238e-01
2.877263946207242462e-01
2.876606973668338063e-01
2.867258696114287075e-01
2.848186467667249699e-01
2.818319643364886606e-01
2.776557297017879233e-01
2.721777038195754006e-01
2.652844888452772221e-01
2.568626154651387772e-01
2.467997220570084527e-01
2.349858158395644603e-01
2.213146045957585517e-01
2.056848856253017666e-01
1.880019772256864563e-01
1.681791766748975125e-01
1.461392271837689272e-01
1.218157753659550313e-01
9.515480021347196005e-02
6.611599380385679847e-02
3.467407371439071989e-02
8.200071544302800714e-04
-3.543787285646944618e-02
-7.407287834558017037e-02
-1.150391225450992788e-01
-1.582708382639731182e-01
-2.036818742785935221e-01
-2.511653833704835526e-01
-3.005937139989000584e-01
-3.518185152335043253e-01
-4.046710622444638639e-01
-4.589628069712292646e-01
-5.144861558783285771e-01
-5.710154738015301712e-01
-6.283083102989871493e-01
-6.861068415359760087e-01
-7.441395180383303387e-01
-8.021229059197774180e-01
-8.597637061191482077e-01
-9.167609337734833330e-01
-9.728082373451790721e-01
-1.027596334920443555e+00
-1.080815543049442828e+00
-1.132158371953621234e+00
-1.181322159276677608e+00
-1.228011713902319446e+00
-1.271941940426339013e+00
-1.312840414646716747e+00
-1.350449880507696321e+00
-1.384530639539373054e+00
-1.414862804587105893e+00
-1.441248390859656281e+00
-1.463513219026670642e+00
-1.481508606991322363e+00
-1.495112829487144523e+00
-1.504232326904828554e+00
-1.508802647937218744e+00
-1.508789113504398038e+00
-1.504187192953435837e+00
-1.495022586597880787e+00
-1.481351012625361285e+00
-1.463257699695201586e+00
-1.440856590088523959e+00
-1.414289262067912833e+00
-1.383723583303755333e+00
-1.349352110657126902e+00
-1.311390254661122690e+00
-1.270074229688944900e+00
-1.225658813778340406e+00
-1.178414944118657770e+00
-1.128627176138586874e+00
-1.076591035725935619e+00
-1.022610295163422833e+00
-9.669942044948853788e-01
-9.100547098758798858e-01
-8.521036908191592651e-01
-7.934502474556213159e-01
-7.343980681624112661e-01
-6.752429065879254066e-01
-6.162701953961632340e-01
-5.577528222135584857e-01
-4.999490904532246649e-01
-4.431008856180643773e-01
-3.874320644397571956e-01
-3.331470812555450411e-01
-2.804298627327850291e-01
-2.294429386968248885e-01
-1.803268335904456288e-01
-1.331997193193498463e-01
-8.815732722911734376e-02
-4.527311316661592616e-02
-4.598666994884733142e-03
3.383564547569039432e-02
7.001982309083322475e-02
1.039631694761091324e-01
1.356930524507280744e-01
1.652535040558658075e-01
1.927036843843229486e-01
2.181162335374739747e-01
2.415755369858057777e-01
2.631759298782325174e-01
2.830198665277181558e-01
3.012160803432682998e-01
3.178777593867540552e-01
3.331207616527115944e-01
3.470618930019323534e-01
3.598172686592304714e-01
3.715007779659429965e-01
3.822226695560891341e-01
3.920882719544357409e-01
4.011968622668034001e-01
4.096406928368180878e-01
4.175041832575728806e-01
4.248632823312102902e-01
4.317850019690500085e-01
4.383271223446389420e-01
4.445380649601640699e-01
4.504569278636590957e-01
4.561136751016292012e-01
4.615294702586795195e-01
4.667171421011989119e-01
4.716817687211590782e-01
4.764213651088575197e-01
4.809276580414100222e-01
4.851869314765684948e-01
4.891809248456799319e-01
4.928877667076571600e-01
4.962829261215405685e-01
4.993401644462990285e-01
5.020324709757465476e-01
5.043329665799571870e-01
5.062157608156689914e-01
5.076567489802514821e-01
5.086343373880389818e-01
5.091300866487331600e-01
5.091292644227644049e-01
5.086213010690616709e-01
5.076001435194070766e-01
5.060645046564667959e-01
5.040180073119653326e-01
5.014692238760046772e-01
4.984316145442396206e-01
4.949233684659827270e-01
4.909671540220496566e-01
4.865897859376627221e-01
4.818218177329855467e-01
4.766970694796252017e-01
4.712521015229271804e-01
4.655256456143622712e-01
4.595580050830378460e-01
4.533904360678482903e-01
4.470645217971361274e-01
4.406215516908070784e-01
4.341019165603207108e-01
4.275445306995714345e-01
4.209862907396725862e-01
4.144615803996357095e-01
4.080018288891631428e-01
4.016351298557199745e-01
3.953859262469437419e-01
3.892747653261493523e-01
3.833181265486756417e-01
3.775283236729576886e-01
3.719134810416902526e-01
3.664775828033105531e-01
3.612205923478128411e-01
3.561386381058056494e-01
3.512242608174400149e-01
3.464667163613701084e-01
3.418523272664995560e-01
3.373648754817377138e-01
3.329860282947909034e-01
3.286957889910473996e-01
3.244729635597574102e-01
3.202956345662568705e-01
3.161416336623432133e-01
3.119890042504588346e-01
3.078164462303156212e-01
3.036037352298486813e-01
2.993321095833244017e-01
2.949846187974825562e-01
2.905464283483716881e-01
2.860050763138637375e-01
2.813506786719632280e-01
2.765760806810843020e-01
2.716769531627612477e-01
2.666518333124590634e-01
2.615021108617701651e-01
2.562319612050386053e-01
2.508482281103910361e-01
2.453602595907764805e-01
2.397797009710411209e-01
2.341202502230378957e-01
2.283973809059628157e-01
2.226280387647985304e-01
2.168303181307141003e-01
2.110231245990821236e-01
2.052258305152962758e-01
1.994579297796115480e-01
1.937386983511716065e-01
1.880868664684429703e-01
1.825203082883783134e-01
1.770557542672510365e-01
1.717085309318180375e-01
1.664923320750111568e-01
1.614190247402709222e-01
1.564984927718331975e-01
1.517385196651385992e-01
1.471447119605235609e-01
1.427204634336712574e-01
1.384669597723288126e-01
1.343832225019958859e-01
1.304661903699333714e-01
1.267108356622368426e-01
1.231103124158050427e-01
1.196561329123432826e-01
1.163383684987906175e-01
1.131458703857519121e-01
1.100665057732431729e-01
1.070874045745033032e-01
1.041952118930559862e-01
1.013763414608632174e-01
9.861722535660469302e-02
9.590455550484150438e-02
9.322551267032036515e-02
9.056797916410105898e-02
8.792073173302236699e-02
8.527361170345321151e-02
8.261766979834611613e-02
7.994528374780925095e-02
7.725024732603026634e-02
7.452782998230819689e-02
7.177480683190753941e-02
6.898945938015602075e-02
6.617154783640741278e-02
6.332225637630338466e-02
6.044411335910406663e-02
5.754088858381510574e-02
5.461747043801809531e-02
5.167972574504083039e-02
4.873434565686342312e-02
4.578868091644424515e-02
4.285056994903438388e-02
3.992816346908424630e-02
3.702974886275730432e-02
3.416357800128482641e-02
3.133770157357543273e-02
2.855981290577833814e-02
2.583710426094786711e-02
2.317613783487177184e-02
2.058273360700668686e-02
1.806187568755274891e-02
1.561763855234742267e-02
1.325313399394480000e-02
1.097047908247012100e-02
8.770785356148225187e-03
6.654168605784901644e-03
4.619778715155593331e-03
2.665848176081001952e-03
7.897577981680034597e-04
-1.011882100793304665e-03
-2.743137210023843461e-03
-4.408643636644076283e-03
-6.013493695078149515e-03
-7.563115649564497271e-03
