CH11
-0.39359394
-0.39338607
-0.3931786
-0.39297155
-0.3927649
-0.39255863
-0.39235276
-0.39214727
-0.3919422
-0.39173755
-0.39153326
-0.39132938
-0.39112592
-0.39092284
-0.39072016
-0.39051786
-0.39031598
-0.3901145
-0.3899134
-0.38971272
-0.38951242
-0.38931254
-0.38911304
-0.38891396
-0.38871524
-0.38851696
-0.38831905
-0.38812155
-0.38792443
-0.38772774
-0.38753143
-0.3873355
-0.38714
-0.3869449
-0.3867502
-0.38655588
-0.38636196
-0.38616842
-0.3859753
-0.3857826
-0.38559026
-0.38539833
-0.38520682
-0.3850157
-0.38482496
-0.3846346
-0.38444468
-0.38425514
-0.38406602
-0.38387728
-0.38368893
-0.383501
-0.38331345
-0.3831263
-0.38293955
-0.3827532
-0.38256726
-0.3823817
-0.38219655
-0.3820118
-0.38182744
-0.38164347
-0.38145992
-0.38127676
-0.38109398
-0.38091162
-0.38072965
-0.3805481
-0.38036692
-0.38018614
-0.38000578
-0.3798258
-0.3796462
-0.37946704
-0.37928826
-0.3791099
-0.37893188
-0.37875432
-0.3785771
-0.37840033
-0.37822393
-0.37804794
-0.37787235
-0.37769717
-0.37752235
-0.37734798
-0.37717396
-0.37700036
-0.37682715
-0.37665436
-0.37648195
-0.37630993
-0.37613833
-0.37596712
-0.3757963
-0.37562588
-0.37545586
-0.37528625
-0.37511703
-0.3749482
-0.3747798
-0.37461177
-0.37444413
-0.3742769
-0.37411007
-0.37394363
-0.3737776
-0.373612
-0.37344673
-0.3732819
-0.37311745
-0.37295341
-0.37278977
-0.3726265
-0.37246367
-0.37230122
-0.3721392
-0.37197754
-0.37181628
-0.37165543
-0.37149498
-0.3713349
-0.37117526
-0.371016
-0.37085712
-0.37069866
-0.3705406
-0.37038293
-0.37022564
-0.3700688
-0.3699123
-0.36975622
-0.36960056
-0.36944526
-0.3692904
-0.36913592
-0.36898184
-0.36882815
-0.36867487
-0.36852196
-0.3683695
-0.36821738
-0.36806569
-0.3679144
-0.36776352
-0.36761302
-0.3674629
-0.3673132
-0.3671639
-0.367015
-0.3668665
-0.36671838
-0.36657068
-0.36642337
-0.36627644
-0.36612993
-0.3659838
-0.3658381
-0.3656928
-0.36554787
-0.36540332
-0.3652592
-0.3651155
-0.36497214
-0.36482924
-0.3646867
-0.36454457
-0.36440283
-0.3642615
-0.36412054
-0.36398003
-0.36383986
-0.36370012
-0.3635608
-0.36342183
-0.3632833
-0.36314514
-0.3630074
-0.36287004
-0.3627331
-0.36259654
-0.36246037
-0.36232463
-0.36218926
-0.3620543
-0.36191973
-0.36178556
-0.36165178
-0.3615184
-0.36138546
-0.36125287
-0.3611207
-0.36098891
-0.36085755
-0.36072657
-0.360596
-0.3604658
-0.36033604
-0.36020663
-0.36007765
-0.35994905
-0.35982087
-0.35969308
-0.35956568
-0.3594387
-0.3593121
-0.35918587
-0.35906008
-0.3589347
-0.35880968
-0.35868508
-0.35856086
-0.35843706
-0.35831365
-0.35819063
-0.35806802
-0.3579458
-0.357824
-0.35770258
-0.35758156
-0.35746092
-0.3573407
-0.3572209
-0.35710144
-0.3569824
-0.3568638
-0.35674557
-0.35662773
-0.35651028
-0.35639325
-0.3562766
-0.35616037
-0.35604453
-0.35592908
-0.35581404
-0.3556994
-0.35558513
-0.35547128
-0.35535783
-0.3552448
-0.35513213
-0.35501987
-0.35490802
-0.35479656
-0.3546855
-0.35457483
-0.35446456
-0.3543547
-0.35424522
-0.35413617
-0.35402748
-0.3539192
-0.35381132
-0.35370386
-0.35359678
-0.35349008
-0.3533838
-0.35327792
-0.35317245
-0.35306737
-0.35296267
-0.3528584
-0.35275447
-0.352651
-0.3525479
-0.35244521
-0.3523429
-0.352241
-0.3521395
-0.35203838
-0.35193768
-0.3518374
-0.35173747
-0.35163796
-0.35153887
-0.35144013
-0.3513418
-0.3512439
-0.3511464
-0.35104927
-0.35095254
-0.3508562
-0.3507603
-0.35066476
-0.35056964
-0.35047492
-0.35038057
-0.35028666
-0.3501931
-0.35009998
-0.35000724
-0.3499149
-0.34982297
-0.34973142
-0.34964028
-0.34954953
-0.34945917
-0.34936923
-0.34927967
-0.34919053
-0.34910175
-0.34901342
-0.34892544
-0.34883788
-0.34875074
-0.34866396
-0.3485776
-0.34849164
-0.34840608
-0.3483209
-0.3482361
-0.34815174
-0.34806776
-0.3479842
-0.34790102
-0.34781826
-0.34773585
-0.34765387
-0.3475723
-0.34749112
-0.34741032
-0.3473299
-0.34724993
-0.34717035
-0.34709114
-0.34701234
-0.34693396
-0.34685597
-0.34677836
-0.34670115
-0.34662434
-0.34654793
-0.34647194
-0.34639633
-0.3463211
-0.3462463
-0.3461719
-0.34609786
-0.34602425
-0.34595102
-0.3458782
-0.3458058
-0.34573376
-0.34566215
-0.34559092
-0.34552008
-0.34544966
-0.34537962
-0.34530997
-0.34524074
-0.3451719
-0.34510347
-0.34503543
-0.34496778
-0.34490055
-0.3448337
-0.34476724
-0.3447012
-0.34463555
-0.34457028
-0.34450543
-0.34444097
-0.34437692
-0.34431326
-0.34425
-0.34418714
-0.34412467
-0.3440626
-0.34400094
-0.34393966
-0.3438788
-0.34381834
-0.34375826
-0.34369856
-0.34363928
-0.34358042
-0.34352192
-0.34346387
-0.34340617
-0.3433489
-0.343292
-0.34323552
-0.3431794
-0.34312373
-0.34306842
-0.34301353
-0.34295905
-0.34290493
-0.34285125
-0.34279794
-0.34274504
-0.34269252
-0.34264043
-0.34258872
-0.3425374
-0.34248647
-0.34243596
-0.34238586
-0.34233615
-0.34228683
-0.3422379
-0.34218937
-0.34214124
-0.34209353
-0.3420462
-0.34199926
-0.34195274
-0.3419066
-0.34186086
-0.34181553
-0.3417706
-0.34172606
-0.34168193
-0.34163818
-0.34159485
-0.3415519
-0.34150934
-0.3414672
-0.34142545
-0.34138408
-0.34134313
-0.34130257
-0.34126243
-0.34122267
-0.3411833
-0.34114435
-0.3411058
-0.3410676
-0.34102985
-0.34099248
-0.3409555
-0.34091893
-0.34088275
-0.340847
-0.3408116
-0.34077662
-0.34074205
-0.34070787
-0.34067407
-0.3406407
-0.3406077
-0.34057513
-0.34054294
-0.34051114
-0.34047976
-0.34044874
-0.34041816
-0.34038797
-0.34035817
-0.34032875
-0.34029976
-0.34027115
-0.34024295
-0.34021512
-0.34018773
-0.3401607
-0.34013408
-0.3401079
-0.34008205
-0.34005666
-0.34003162
-0.340007
-0.33998278
-0.33995897
-0.33993554
-0.3399125
-0.33988985
-0.33986765
-0.3398458
-0.33982438
-0.33980334
-0.33978269
-0.33976245
-0.3397426
-0.33972317
-0.33970413
-0.33968547
-0.33966723
-0.33964938
-0.33963192
-0.33961487
-0.3395982
-0.33958197
-0.3395661
-0.33955064
-0.3395356
-0.33952093
-0.33950666
-0.3394928
-0.33947933
-0.33946624
-0.33945358
-0.3394413
-0.33942944
-0.33941796
-0.33940688
-0.3393962
-0.33938593
-0.33937603
-0.33936656
-0.33935747
-0.33934876
-0.33934048
-0.33933258
-0.3393251
-0.339318
-0.3393113
-0.339305
-0.3392991
-0.3392936
-0.3392885
-0.3392838
-0.3392795
-0.3392756
-0.33927208
-0.33926895
-0.33926624
-0.33926395
-0.339262
-0.33926052
-0.3392594
-0.33925867
-0.33925834
-0.3392584
-0.33925888
-0.33925977
-0.33926103
-0.3392627
-0.33926478
-0.33926722
-0.33927009
-0.33927336
-0.33927703
-0.33928108
-0.33928552
-0.33929038
-0.33929566
-0.3393013
-0.33930734
-0.3393138
-0.33932066
-0.3393279
-0.33933553
-0.33934358
-0.339352
-0.33936086
-0.3393701
-0.33937973
-0.33938977
-0.3394002
-0.33941102
-0.33942226
-0.33943388
-0.33944592
-0.33945835
-0.33947116
-0.33948436
-0.33949798
-0.33951202
-0.33952644
-0.33954126
-0.33955646
-0.33957207
-0.33958808
-0.3396045
-0.33962128
-0.3396385
-0.33965608
-0.3396741
-0.3396925
-0.3397113
-0.3397305
-0.33975008
-0.33977008
-0.33979046
-0.33981127
-0.33983245
-0.33985403
-0.33987603
-0.3398984
-0.33992118
-0.33994436
-0.33996794
-0.33999193
-0.34001628
-0.34004107
-0.34006622
-0.3400918
-0.34011778
-0.34014413
-0.3401709
-0.34019807
-0.34022564
-0.3402536
-0.34028193
-0.3403107
-0.34033984
-0.3403694
-0.34039935
-0.3404297
-0.34046045
-0.3404916
-0.34052315
-0.34055507
-0.34058744
-0.34062016
-0.3406533
-0.3406867
-0.34072024
-0.34075388
-0.34078765
-0.34082153
-0.34085554
-0.34088963
-0.34092388
-0.34095824
-0.3409927
-0.3410273
-0.34106198
-0.34109682
-0.34113175
-0.3411668
-0.341202
-0.34123728
-0.34127268
-0.34130824
-0.34134388
-0.34137964
-0.34141552
-0.34145153
-0.34148765
-0.3415239
-0.3415602
-0.3415967
-0.3416333
-0.34167
-0.3417068
-0.34174377
-0.34178084
-0.341818
-0.34185532
-0.34189272
-0.34193027
-0.3419679
-0.34200567
-0.34204355
-0.34208158
-0.3421197
-0.34215793
-0.3421963
-0.34223476
-0.34227335
-0.34231207
-0.3423509
-0.34238985
-0.34242892
-0.34246808
-0.3425074
-0.34254682
-0.34258634
-0.342626
-0.34266576
-0.34270567
-0.34274566
-0.3427858
-0.34282604
-0.3428664
-0.34290686
-0.34294748
-0.3429882
-0.34302902
-0.34306997
-0.34311104
-0.34315223
-0.34319353
-0.34323496
-0.3432765
-0.34331813
-0.34335992
-0.34340182
-0.3434438
-0.34348595
-0.3435282
-0.34357056
-0.34361306
-0.34365565
-0.34369835
-0.3437412
-0.34378415
-0.34382722
-0.3438704
-0.3439137
-0.34395716
-0.3440007
-0.34404436
-0.34408814
-0.344132
-0.34417602
-0.34422016
-0.34426442
-0.3443088
-0.34435326
-0.34439787
-0.3444426
-0.34448743
-0.3445324
-0.34457746
-0.34462264
-0.34466797
-0.3447134
-0.34475893
-0.34480458
-0.3448504
-0.3448963
-0.3449423
-0.34498844
-0.3450347
-0.34508106
-0.34512755
-0.34517416
-0.34522086
-0.3452677
-0.34531468
-0.34536174
-0.34540895
-0.34545627
-0.3455037
-0.34555125
-0.3455989
-0.34564668
-0.3456946
-0.3457426
-0.34579074
-0.34583902
-0.3458874
-0.34593588
-0.3459845
-0.34603322
-0.34608206
-0.34613103
-0.3461801
-0.34622929
-0.3462786
-0.34632805
-0.3463776
-0.34642726
-0.34647706
-0.34652695
-0.346577
-0.34662712
-0.3466774
-0.34672776
-0.34677824
-0.34682888
-0.3468796
-0.34693044
-0.3469814
-0.3470325
-0.3470837
-0.347135
-0.34718645
-0.347238
-0.34728968
-0.34734148
-0.3473934
-0.3474454
-0.34749755
-0.34754983
-0.3476022
-0.3476547
-0.3477073
-0.34776005
-0.3478129
-0.34786588
-0.34791896
-0.34797215
-0.34802547
-0.3480789
-0.3481325
-0.34818617
-0.34823996
-0.34829387
-0.3483479
-0.34840205
-0.3484563
-0.34851068
-0.3485652
-0.34861982
-0.34867454
-0.3487294
-0.34878436
-0.34883946
-0.34889466
-0.34895
-0.34900543
-0.349061
-0.34911668
-0.34917247
-0.34922838
-0.3492844
-0.3493406
-0.34939685
-0.34945324
-0.34950975
-0.34956637
-0.34962308
-0.34967995
-0.34973693
-0.34979403
-0.34985122
-0.34990856
-0.34996602
-0.35002357
-0.35008126
-0.35013905
-0.350197
-0.350255
-0.35031316
-0.35037145
-0.35042983
-0.35048833
-0.35054696
-0.3506057
-0.35066456
-0.35072353
-0.35078263
-0.35084185
-0.3509012
-0.35096064
-0.35102022
-0.35107988
-0.3511397
-0.35119963
-0.35125965
-0.35131982
-0.35138008
-0.3514405
-0.351501
-0.3515616
-0.35162237
-0.35168323
-0.3517442
-0.3518053
-0.3518665
-0.35192788
-0.35198933
-0.3520509
-0.35211256
-0.35217437
-0.3522363
-0.35229835
-0.35236052
-0.35242277
-0.35248518
-0.3525477
-0.35261032
-0.35267308
-0.35273594
-0.35279894
-0.35286203
-0.35292524
-0.3529886
-0.35305205
-0.35311562
-0.3531793
-0.3532431
-0.35330704
-0.35337108
-0.35343525
-0.35349953
-0.35356393
-0.35362846
-0.3536931
-0.35375786
-0.3538227
-0.3538877
-0.35395283
-0.35401803
-0.3540834
-0.35414883
-0.3542144
-0.3542801
-0.35434592
-0.35441184
-0.3544779
-0.35454407
-0.35461035
-0.35467675
-0.35474327
-0.3548099
-0.35487667
-0.35494354
-0.35501054
-0.35507765
-0.35514486
-0.3552122
-0.35527968
-0.35534725
-0.35541496
-0.3554828
-0.3555507
-0.35561875
-0.35568693
-0.3557552
-0.35582364
-0.35589215
-0.3559608
-0.35602954
-0.3560984
-0.3561674
-0.35623652
-0.35630575
-0.3563751
-0.35644457
-0.35651416
-0.35658386
-0.3566537
-0.3567236
-0.35679367
-0.35686386
-0.35693413
-0.35700455
-0.35707507
-0.35714573
-0.35721648
-0.35728735
-0.35735837
-0.35742947
-0.3575007
-0.35757205
-0.3576435
-0.3577151
-0.3577868
-0.35785863
-0.35793057
-0.35800263
-0.3580748
-0.3581471
-0.3582195
-0.35829204
-0.3583647
-0.35843745
-0.35851035
-0.35858333
-0.35865647
-0.3587297
-0.35880306
-0.35887653
-0.3589501
-0.3590238
-0.35909766
-0.3591716
-0.35924566
-0.35931984
-0.35939413
-0.35946855
-0.35954309
-0.35961774
-0.35969248
-0.35976738
-0.3598424
-0.35991752
-0.35999274
-0.3600681
-0.36014357
-0.36021918
-0.36029488
-0.36037073
-0.36044666
-0.36052272
-0.36059892
-0.36067522
-0.36075163
-0.36082816
-0.3609048
-0.36098158
-0.36105847
-0.36113548
-0.3612126
-0.36128986
-0.36136723
-0.36144468
-0.3615223
-0.3616
-0.36167783
-0.3617558
-0.36183384
-0.36191204
-0.36199033
-0.36206877
-0.3621473
-0.36222595
-0.36230475
-0.36238363
-0.36246264
-0.36254176
-0.362621
-0.36270037
-0.36277986
-0.36285946
-0.36293918
-0.36301902
-0.36309898
-0.36317903
-0.36325923
-0.36333954
-0.36341995
-0.3635005
-0.36358115
-0.36366194
-0.36374283
-0.3638238
-0.36390474
-0.36398572
-0.36406666
-0.3641476
-0.36422855
-0.3643095
-0.36439043
-0.36447138
-0.3645523
-0.36463323
-0.36471415
-0.36479506
-0.36487597
-0.3649569
-0.3650378
-0.3651187
-0.3651996
-0.3652805
-0.3653614
-0.36544228
-0.3655232
-0.36560407
-0.36568493
-0.3657658
-0.3658467
-0.36592755
-0.36600843
-0.36608928
-0.36617014
-0.366251
-0.36633185
-0.3664127
-0.36649355
-0.36657438
-0.36665523
-0.36673605
-0.36681688
-0.3668977
-0.36697853
-0.36705935
-0.36714017
-0.367221
-0.3673018
-0.3673826
-0.3674634
-0.3675442
-0.367625
-0.3677058
-0.3677866
-0.36786735
-0.36794814
-0.3680289
-0.36810967
-0.36819047
-0.36827123
-0.368352
-0.36843276
-0.3685135
-0.36859426
-0.368675
-0.36875576
-0.3688365
-0.36891723
-0.36899796
-0.3690787
-0.36915943
-0.36924013
-0.36932087
-0.36940157
-0.36948228
-0.369563
-0.36964372
-0.3697244
-0.3698051
-0.3698858
-0.36996648
-0.37004718
-0.37012786
-0.37020853
-0.3702892
-0.37036988
-0.37045056
-0.37053123
-0.3706119
-0.37069255
-0.3707732
-0.37085387
-0.37093452
-0.37101516
-0.3710958
-0.37117642
-0.37125707
-0.3713377
-0.37141833
-0.37149894
-0.37157956
-0.37166017
-0.3717408
-0.3718214
-0.37190202
-0.3719826
-0.37206322
-0.3721438
-0.3722244
-0.372305
-0.37238556
-0.37246615
-0.37254673
-0.37262732
-0.37270787
-0.37278846
-0.372869
-0.37294957
-0.37303013
-0.37311068
-0.37319124
-0.37327176
-0.37335232
-0.37343284
-0.37351337
-0.37359393
-0.37367445
-0.37375498
-0.37383547
-0.373916
-0.37399653
-0.37407702
-0.37415755
-0.37423804
-0.37431854
-0.37439904
-0.37447953
-0.37456
-0.3746405
-0.374721
-0.37480146
-0.37488192
-0.3749624
-0.37504286
-0.37512332
-0.3752038
-0.37528425
-0.3753647
-0.37544516
-0.3755256
-0.37560603
-0.37568647
-0.3757669
-0.37584734
-0.37592778
-0.37600818
-0.37608862
-0.37616903
-0.37624943
-0.37632984
-0.37641025
-0.37649065
-0.37657106
-0.37665147
-0.37673184
-0.37681225
-0.37689263
-0.376973
-0.37705338
-0.37713376
-0.37721413
-0.37729448
-0.37737486
-0.3774552
-0.37753558
-0.37761593
-0.37769628
-0.37777662
-0.37785697
-0.37793732
-0.37801763
-0.37809798
-0.3781783
-0.37825862
-0.37833893
-0.37841925
-0.37849957
-0.37857988
-0.3786602
-0.3787405
-0.3788208
-0.3789011
-0.37898138
-0.37906167
-0.37914196
-0.37922224
-0.3793025
-0.3793828
-0.37946305
-0.37954333
-0.3796236
-0.37970385
-0.3797841
-0.37986436
-0.37994462
-0.38002485
-0.3801051
-0.38018534
-0.38026556
-0.3803458
-0.38042602
-0.38050625
-0.38058648
-0.3806667
-0.3807469
-0.38082713
-0.38090733
-0.38098752
-0.38106772
-0.38114792
-0.38122812
-0.38130832
-0.3813885
-0.38146868
-0.38154885
-0.38162902
-0.3817092
-0.38178936
-0.38186952
-0.3819497
-0.38202986
-0.38211
-0.38219017
-0.3822703
-0.38235044
-0.38243058
-0.38251072
-0.38259086
-0.38267097
-0.3827511
-0.38283122
-0.38291135
-0.38299146
-0.38307157
-0.38315168
-0.3832318
-0.38331187
-0.38339198
-0.38347206
-0.38355216
-0.38363224
-0.38371232
-0.3837924
-0.38387248
-0.38395256
-0.3840326
-0.3841127
-0.38419273
-0.3842728
-0.38435286
-0.3844329
-0.38451296
-0.38459298
-0.38467303
-0.38475308
-0.3848331
-0.38491312
-0.38499317
-0.38507318
-0.3851532
-0.3852332
-0.3853132
-0.38539323
-0.38547322
-0.38555324
-0.38563323
-0.38571322
-0.3857932
-0.3858732
-0.3859532
-0.38603315
-0.38611314
-0.3861931
-0.3862731
-0.38635305
-0.386433
-0.38651296
-0.3865929
-0.38667285
-0.3867528
-0.38683274
-0.3869127
-0.38699263
-0.38707256
-0.3871525
-0.38723242
-0.38731232
-0.38739225
-0.38747215
-0.38755208
-0.38763198
-0.38771188
-0.38779178
-0.38787168
-0.38795158
-0.38803148
-0.38811135
-0.38819125
-0.38827112
-0.388351
-0.38843086
-0.38851073
-0.3885906
-0.38867047
-0.3887503
-0.38883018
-0.38891003
-0.38898987
-0.3890697
-0.38914955
-0.3892294
-0.38930923
-0.38938904
-0.38946888
-0.3895487
-0.38962853
-0.38970834
-0.38978815
-0.38986796
-0.38994774
-0.39002755
-0.39010736
-0.39018714
-0.39026693
-0.39034674
-0.39042652
-0.3905063
-0.39058605
-0.39066583
-0.3907456
-0.39082536
-0.39090514
-0.3909849
-0.39106464
-0.3911444
-0.39122415
-0.3913039
-0.39138362
-0.39146337
-0.3915431
-0.3916228
-0.39170256
-0.39178228
-0.391862
-0.3919417
-0.39202142
-0.39210114
-0.39218083
-0.39226052
-0.39234024
-0.39241993
-0.39249963
-0.3925793
-0.39265898
-0.39273867
-0.39281833
-0.39289802
-0.39297768
-0.39305735
-0.393137
-0.39321667
-0.39329633
-0.39337596
-0.39345562
-0.39353526
-0.3936149
-0.39369455
-0.39377418
-0.3938538
-0.39393342
-0.39401305
-0.39409268
-0.39417228
-0.39425188
-0.3943315
-0.39441112
-0.39449072
-0.39457032
-0.3946499
-0.3947295
-0.39480907
-0.39488867
-0.39496824
-0.3950478
-0.3951274
-0.39520696
-0.39528653
-0.3953661
-0.39544564
-0.39552522
-0.39560476
-0.3956843
-0.39576384
-0.3958434
-0.39592293
-0.39600247
-0.39608198
-0.39616153
-0.3962409
-0.39631984
-0.3963984
-0.39647654
-0.3965543
-0.39663163
-0.39670855
-0.39678508
-0.3968612
-0.39693692
-0.39701223
-0.39708713
-0.39716163
-0.39723575
-0.39730942
-0.3973827
-0.3974556
-0.39752808
-0.39760014
-0.39767182
-0.39774308
-0.39781392
-0.39788437
-0.3979544
-0.39802405
-0.39809328
-0.39816213
-0.39823055
-0.39829856
-0.39836618
-0.3984334
-0.39850017
-0.39856657
-0.3986326
-0.39869815
-0.39876333
-0.39882812
-0.3988925
-0.39895645
-0.39902002
-0.39908317
-0.39914593
-0.39920828
-0.3992702
-0.39933175
-0.39939287
-0.39945358
-0.3995139
-0.39957383
-0.39963335
-0.39969245
-0.39975113
-0.39980942
-0.39986733
-0.39992478
-0.3999819
-0.40003854
-0.4000948
-0.4001507
-0.40020612
-0.4002612
-0.40031582
-0.40037006
-0.4004239
-0.40047732
-0.40053037
-0.40058297
-0.40063518
-0.400687
-0.4007384
-0.4007894
-0.40083998
-0.40089017
-0.40093997
-0.40098935
-0.40103832
-0.4010869
-0.40113506
-0.4011828
-0.40123016
-0.4012771
-0.40132365
-0.40136978
-0.4014155
-0.40146083
-0.40150574
-0.40155026
-0.40159437
-0.4016381
-0.4016814
-0.40172428
-0.40176675
-0.40180886
-0.40185052
-0.4018918
-0.40193266
-0.40197313
-0.40201318
-0.40205285
-0.40209207
-0.40213093
-0.40216935
-0.4022074
-0.40224501
-0.40228224
-0.40231904
-0.40235546
-0.40239146
-0.40242708
-0.40246227
-0.40249705
-0.40253145
-0.40256542
-0.40259898
-0.40263215
-0.40266493
-0.40269727
-0.40272924
-0.40276077
-0.40279192
-0.40282267
-0.40285298
-0.4028829
-0.40291244
-0.40294155
-0.40297025
-0.40299857
-0.40302646
-0.40305397
-0.40308106
-0.40310773
-0.40313402
-0.4031599
-0.40318537
-0.40321043
-0.40323508
-0.40325934
-0.40328318
-0.40330663
-0.40332967
-0.4033523
-0.40337452
-0.40339634
-0.40341777
-0.40343878
-0.40345937
-0.40347958
-0.4034994
-0.40351877
-0.40353775
-0.40355635
-0.40357453
-0.4035923
-0.40360963
-0.4036266
-0.40364316
-0.4036593
-0.40367505
-0.4036904
-0.40370533
-0.40371984
-0.40373397
-0.40374768
-0.403761
-0.4037739
-0.40378642
-0.40379852
-0.4038102
-0.4038215
-0.40383238
-0.40384284
-0.4038529
-0.40386257
-0.40387183
-0.4038807
-0.40388915
-0.4038972
-0.40390483
-0.40391207
-0.4039189
-0.4039253
-0.40393132
-0.40393695
-0.40394214
-0.40394694
-0.40395135
-0.40395534
-0.40395892
-0.4039621
-0.40396488
-0.40396726
-0.40396923
-0.40397078
-0.40397194
-0.4039727
-0.40397304
-0.40397298
-0.4039725
-0.40397164
-0.40397036
-0.40396866
-0.40396658
-0.4039641
-0.4039612
-0.4039579
-0.40395418
-0.40395007
-0.40394557
-0.40394065
-0.4039353
-0.40392956
-0.40392342
-0.4039169
-0.40390995
-0.4039026
-0.4038948
-0.40388668
-0.4038781
-0.40386912
-0.40385973
-0.40384996
-0.40383977
-0.40382916
-0.40381816
-0.40380675
-0.40379494
-0.40378273
-0.4037701
-0.40375707
-0.40374365
-0.4037298
-0.40371555
-0.40370092
-0.40368587
-0.4036704
-0.40365455
-0.40363827
-0.40362158
-0.4036045
-0.403587
-0.40356913
-0.40355083
-0.40353215
-0.403513
-0.40349352
-0.4034736
-0.4034533
-0.40343255
-0.40341142
-0.40338987
-0.40336794
-0.40334558
-0.40332285
-0.4032997
-0.40327612
-0.40325215
-0.40322778
-0.40320298
-0.4031778
-0.40315223
-0.4031262
-0.40309983
-0.403073
-0.4030458
-0.40301818
-0.40299016
-0.40296173
-0.4029329
-0.40290368
-0.40287402
-0.40284398
-0.40281352
-0.40278268
-0.40275142
-0.40271974
-0.40268767
-0.40265518
-0.4026223
-0.40258902
-0.40255532
-0.40252122
-0.4024867
-0.4024518
-0.4024165
-0.40238076
-0.40234464
-0.4023081
-0.40227118
-0.40223384
-0.40219608
-0.40215793
-0.40211937
-0.40208042
-0.40204105
-0.40200126
-0.4019611
-0.4019205
-0.40187952
-0.40183812
-0.40179634
-0.4017541
-0.40171152
-0.4016685
-0.40162507
-0.40158126
-0.40153703
-0.4014924
-0.40144736
-0.4014019
-0.40135604
-0.4013098
-0.40126312
-0.40121606
-0.40116858
-0.40112072
-0.40107244
-0.40102375
-0.40097466
-0.40092516
-0.40087524
-0.40082493
-0.4007742
-0.4007231
-0.40067157
-0.40061966
-0.40056732
-0.40051457
-0.40046144
-0.40040788
-0.40035394
-0.40029955
-0.4002448
-0.40018964
-0.40013406
-0.40007806
-0.40002167
-0.3999649
-0.39990768
-0.39985007
-0.39979208
-0.39973366
-0.39967483
-0.39961562
-0.39955598
-0.39949596
-0.39943552
-0.39937466
-0.39931342
-0.39925176
-0.3991897
-0.39912724
-0.39906436
-0.3990011
-0.3989374
-0.39887333
-0.39880884
-0.39874393
-0.39867863
-0.39861292
-0.39854681
-0.3984803
-0.39841336
-0.39834604
-0.3982783
-0.39821017
-0.39814162
-0.39807266
-0.3980033
-0.39793357
-0.3978634
-0.39779282
-0.39772186
-0.39765048
-0.3975787
-0.39750648
-0.3974339
-0.3973609
-0.3972875
-0.39721367
-0.39713946
-0.39706483
-0.3969898
-0.39691436
-0.39683855
-0.39676228
-0.39668563
-0.3966086
-0.39653113
-0.39645326
-0.396375
-0.39629632
-0.39621723
-0.39613774
-0.39605784
-0.39597756
-0.39589685
-0.39581576
-0.39573425
-0.39565232
-0.39557
-0.39548728
-0.39540413
-0.3953206
-0.39523667
-0.3951525
-0.39506847
-0.39498457
-0.39490077
-0.39481708
-0.39473355
-0.3946501
-0.3945668
-0.3944836
-0.39440054
-0.39431757
-0.39423475
-0.39415205
-0.39406946
-0.39398697
-0.39390463
-0.3938224
-0.3937403
-0.3936583
-0.39357644
-0.3934947
-0.3934131
-0.3933316
-0.3932502
-0.39316893
-0.3930878
-0.39300677
-0.3929259
-0.3928451
-0.39276445
-0.3926839
-0.3926035
-0.3925232
-0.392443
-0.39236295
-0.39228302
-0.3922032
-0.39212352
-0.39204395
-0.3919645
-0.39188516
-0.39180595
-0.39172685
-0.3916479
-0.39156905
-0.3914903
-0.39141172
-0.39133322
-0.39125487
-0.3911766
-0.3910985
-0.39102048
-0.3909426
-0.39086485
-0.39078718
-0.39070967
-0.39063227
-0.390555
-0.39047784
-0.3904008
-0.39032388
-0.39024708
-0.3901704
-0.39009383
-0.39001742
-0.3899411
-0.3898649
-0.38978884
-0.38971287
-0.38963705
-0.38956133
-0.38948575
-0.38941026
-0.38933492
-0.3892597
-0.3891846
-0.3891096
-0.38903472
-0.38895997
-0.38888535
-0.38881084
-0.38873646
-0.38866222
-0.38858807
-0.38851404
-0.38844013
-0.38836637
-0.3882927
-0.38821915
-0.38814574
-0.38807243
-0.38799927
-0.3879262
-0.38785326
-0.38778046
-0.38770777
-0.38763517
-0.38756272
-0.3874904
-0.38741818
-0.3873461
-0.38727412
-0.38720226
-0.38713053
-0.3870589
-0.38698745
-0.38691607
-0.3868448
-0.3867737
-0.3867027
-0.38663182
-0.38656104
-0.3864904
-0.38641986
-0.38634947
-0.3862792
-0.386209
-0.38613898
-0.38606906
-0.38599926
-0.38592958
-0.38586003
-0.3857906
-0.38572127
-0.38565207
-0.385583
-0.38551405
-0.3854452
-0.38537648
-0.3853079
-0.38523942
-0.3851711
-0.38510284
-0.38503474
-0.38496673
-0.38489887
-0.38483113
-0.3847635
-0.384696
-0.3846286
-0.38456133
-0.3844942
-0.38442716
-0.38436025
-0.3842935
-0.38422683
-0.38416028
-0.38409385
-0.38402754
-0.38396138
-0.3838953
-0.38382939
-0.38376355
-0.38369787
-0.38363227
-0.38356683
-0.3835015
-0.38343626
-0.38337117
-0.3833062
-0.38324136
-0.38317662
-0.383112
-0.38304752
-0.38298315
-0.3829189
-0.38285476
-0.38279077
-0.38272688
-0.3826631
-0.38259947
-0.38253593
-0.38247252
-0.38240924
-0.3823461
-0.38228303
-0.38222012
-0.38215733
-0.38209462
-0.38203207
-0.38196963
-0.3819073
-0.38184512
-0.38178304
-0.38172108
-0.38165924
-0.38159752
-0.38153592
-0.38147447
-0.3814131
-0.38135186
-0.38129076
-0.38122976
-0.3811689
-0.38110813
-0.38104752
-0.380987
-0.3809266
-0.38086635
-0.3808062
-0.38074616
-0.38068625
-0.38062647
-0.3805668
-0.38050726
-0.38044783
-0.38038853
-0.38032934
-0.3802703
-0.38021135
-0.38015252
-0.38009384
-0.38003525
-0.37997678
-0.37991846
-0.37986025
-0.37980214
-0.37974417
-0.3796863
-0.37962857
-0.37957096
-0.37951347
-0.3794561
-0.37939885
-0.37934172
-0.3792847
-0.37922782
-0.37917104
-0.3791144
-0.37905785
-0.37900147
-0.37894517
-0.378889
-0.37883297
-0.37877703
-0.37872124
-0.37866554
-0.37861
-0.37855455
-0.3784992
-0.37844402
-0.37838894
-0.378334
-0.37827915
-0.37822443
-0.37816983
-0.37811536
-0.378061
-0.37800676
-0.37795264
-0.37789863
-0.37784478
-0.37779102
-0.37773737
-0.37768388
-0.37763047
-0.37757722
-0.37752405
-0.37747103
-0.37741813
-0.37736532
-0.37731266
-0.37726012
-0.3772077
-0.3771554
-0.3771032
-0.37705114
-0.3769992
-0.37694737
-0.37689567
-0.37684408
-0.37679264
-0.3767413
-0.37669006
-0.37663898
-0.376588
-0.37653714
-0.3764864
-0.3764358
-0.37638527
-0.3763349
-0.37628466
-0.37623453
-0.3761845
-0.3761346
-0.37608483
-0.37603518
-0.37598565
-0.37593624
-0.37588695
-0.3758378
-0.37578875
-0.3757398
-0.375691
-0.37564233
-0.37559375
-0.37554532
-0.37549698
-0.3754488
-0.3754007
-0.37535274
-0.3753049
-0.3752572
-0.37520957
-0.3751621
-0.37511474
-0.3750675
-0.37502038
-0.3749734
-0.3749265
-0.37487975
-0.37483314
-0.37478662
-0.3747402
-0.37469393
-0.3746478
-0.37460175
-0.37455586
-0.37451005
-0.3744644
-0.37441882
-0.3743734
-0.3743281
-0.37428293
-0.37423784
-0.3741929
-0.37414807
-0.37410337
-0.37405878
-0.37401432
-0.37396997
-0.37392578
-0.37388167
-0.37383768
-0.3737938
-0.3737501
-0.37370646
-0.37366298
-0.3736196
-0.37357634
-0.3735332
-0.37349018
-0.3734473
-0.3734045
-0.37336186
-0.37331933
-0.37327692
-0.37323463
-0.37319246
-0.3731504
-0.37310848
-0.37306666
-0.37302497
-0.3729834
-0.37294197
-0.37290064
-0.37285942
-0.37281835
-0.37277737
-0.37273654
-0.3726958
-0.3726552
-0.3726147
-0.37257436
-0.37253413
-0.372494
-0.37245402
-0.3724141
-0.37237436
-0.37233472
-0.3722952
-0.37225583
-0.37221655
-0.3721774
-0.37213835
-0.37209943
-0.37206066
-0.37202197
-0.37198344
-0.371945
-0.3719067
-0.3718685
-0.37183043
-0.37179247
-0.37175465
-0.37171695
-0.37167937
-0.3716419
-0.37160456
-0.37156734
-0.37153023
-0.37149325
-0.37145638
-0.37141964
-0.371383
-0.3713465
-0.37131014
-0.37127388
-0.37123773
-0.37120172
-0.3711658
-0.37113005
-0.37109438
-0.37105885
-0.37102345
-0.37098816
-0.37095302
-0.370918
-0.3708831
-0.37084833
-0.37081373
-0.37077922
-0.37074485
-0.3707106
-0.3706765
-0.3706425
-0.3706087
-0.37057495
-0.37054136
-0.37050793
-0.37047458
-0.3704414
-0.37040833
-0.3703754
-0.37034258
-0.37030992
-0.37027737
-0.37024495
-0.37021267
-0.37018052
-0.3701485
-0.37011662
-0.37008485
-0.3700532
-0.3700217
-0.36999035
-0.36995912
-0.369928
-0.369897
-0.36986616
-0.36983544
-0.36980486
-0.3697744
-0.36974406
-0.36971387
-0.3696838
-0.36965388
-0.36962405
-0.3695944
-0.36956483
-0.36953542
-0.36950615
-0.36947697
-0.36944795
-0.36941907
-0.3693903
-0.36936167
-0.36933318
-0.3693048
-0.36927655
-0.36924845
-0.36922047
-0.3691926
-0.36916488
-0.3691373
-0.36910984
-0.3690825
-0.3690553
-0.36902824
-0.3690013
-0.36897448
-0.3689478
-0.36892125
-0.36889485
-0.36886856
-0.3688424
-0.36881638
-0.36879048
-0.3687647
-0.36873907
-0.36871356
-0.3686882
-0.36866295
-0.36863783
-0.36861286
-0.368588
-0.36856326
-0.36853868
-0.3685142
-0.3684899
-0.3684657
-0.3684416
-0.36841768
-0.36839387
-0.36837018
-0.36834663
-0.3683232
-0.36829993
-0.36827677
-0.36825374
-0.36823082
-0.36820805
-0.36818543
-0.36816293
-0.36814055
-0.3681183
-0.36809617
-0.36807418
-0.36805233
-0.3680306
-0.36800903
-0.36798754
-0.3679662
-0.36794502
-0.36792395
-0.367903
-0.3678822
-0.3678615
-0.36784095
-0.36782053
-0.36780024
-0.36778006
-0.36776003
-0.36774015
-0.36772037
-0.36770073
-0.36768124
-0.36766183
-0.36764258
-0.36762348
-0.3676045
-0.36758563
-0.3675669
-0.36754832
-0.36752984
-0.3675115
-0.3674933
-0.3674752
-0.36745727
-0.36743945
-0.36742178
-0.36740422
-0.3673868
-0.3673695
-0.36735234
-0.3673353
-0.3673184
-0.36730164
-0.36728498
-0.36726847
-0.36725208
-0.36723584
-0.36721972
-0.36720374
-0.36718786
-0.36717215
-0.36715654
-0.36714107
-0.36712572
-0.36711052
-0.36709544
-0.3670805
-0.36706567
-0.367051
-0.36703643
-0.367022
-0.3670077
-0.36699355
-0.3669795
-0.36696562
-0.36695182
-0.3669382
-0.36692467
-0.3669113
-0.36689803
-0.36688492
-0.36687192
-0.36685905
-0.36684632
-0.36683372
-0.36682126
-0.36680892
-0.3667967
-0.36678463
-0.36677268
-0.36676085
-0.36674917
-0.3667376
-0.3667262
-0.3667149
-0.36670372
-0.3666927
-0.36668178
-0.366671
-0.36666036
-0.36664984
-0.36663944
-0.36662918
-0.36661905
-0.36660907
-0.3665992
-0.36658946
-0.36657986
-0.36657038
-0.36656106
-0.36655185
-0.36654276
-0.36653382
-0.366525
-0.3665163
-0.36650774
-0.3664993
-0.366491
-0.36648282
-0.36647478
-0.36646688
-0.3664591
-0.36645144
-0.36644393
-0.36643654
-0.3664293
-0.36642218
-0.36641517
-0.3664083
-0.36640155
-0.36639497
-0.36638847
-0.36638212
-0.36637592
-0.36636984
-0.36636388
-0.36635807
-0.36635235
-0.3663468
-0.36634138
-0.36633608
-0.3663309
-0.36632586
-0.36632094
-0.36631617
-0.36631152
-0.366307
-0.3663026
-0.36629835
-0.3662942
-0.3662902
-0.36628634
-0.3662826
-0.366279
-0.36627552
-0.36627218
-0.36626896
-0.36626586
-0.3662629
-0.36626008
-0.3662574
-0.36625484
-0.3662524
-0.3662501
-0.36624792
-0.36624587
-0.36624396
-0.36624217
-0.3662405
-0.36623898
-0.3662376
-0.36623633
-0.3662352
-0.3662342
-0.36623335
-0.3662326
-0.36623198
-0.3662315
-0.36623114
-0.36623093
-0.36623085
-0.36623088
-0.36623105
-0.36623135
-0.3662318
-0.36623237
-0.36623305
-0.3662339
-0.36623484
-0.3662359
-0.36623713
-0.36623847
-0.36623994
-0.36624154
-0.3662433
-0.36624515
-0.36624715
-0.3662493
-0.36625153
-0.3662539
-0.36625645
-0.3662591
-0.36626187
-0.3662648
-0.36626783
-0.366271
-0.3662743
-0.36627772
-0.36628127
-0.36628497
-0.36628878
-0.36629274
-0.36629683
-0.36630103
-0.36630538
-0.36630985
-0.36631444
-0.36631918
-0.36632407
-0.36632904
-0.36633417
-0.36633942
-0.3663448
-0.36635032
-0.366356
-0.36636174
-0.36636767
-0.3663737
-0.36637986
-0.36638618
-0.36639258
-0.36639914
-0.36640584
-0.36641267
-0.3664196
-0.36642668
-0.3664339
-0.36644125
-0.3664487
-0.3664563
-0.36646405
-0.36647192
-0.3664799
-0.366488
-0.36649626
-0.36650464
-0.36651316
-0.3665218
-0.3665306
-0.36653948
-0.36654854
-0.3665577
-0.366567
-0.3665764
-0.36658597
-0.36659566
-0.36660546
-0.3666154
-0.3666255
-0.3666357
-0.36664605
-0.3666565
-0.36666712
-0.36667785
-0.3666887
-0.3666997
-0.3667108
-0.36672208
-0.36673343
-0.36674497
-0.3667566
-0.36676836
-0.36678028
-0.3667923
-0.36680448
-0.36681676
-0.3668292
-0.36684173
-0.36685443
-0.36686724
-0.36688018
-0.36689326
-0.36690646
-0.36691982
-0.36693326
-0.36694688
-0.3669606
-0.36697444
-0.36698845
-0.36700255
-0.3670168
-0.3670312
-0.3670457
-0.36706033
-0.36707512
-0.36709002
-0.36710504
-0.3671202
-0.3671355
-0.3671509
-0.36716646
-0.36718214
-0.36719796
-0.3672139
-0.36722997
-0.36724618
-0.3672625
-0.36727896
-0.36729556
-0.36731228
-0.36732915
-0.36734614
-0.36736324
-0.36738047
-0.3673978
-0.36741516
-0.36743262
-0.36745015
-0.36746776
-0.36748543
-0.3675032
-0.36752105
-0.36753896
-0.36755693
-0.367575
-0.36759314
-0.36761135
-0.36762962
-0.367648
-0.36766642
-0.36768493
-0.36770353
-0.36772218
-0.36774093
-0.36775976
-0.36777866
-0.3677976
-0.36781666
-0.36783576
-0.36785495
-0.36787423
-0.36789358
-0.367913
-0.3679325
-0.36795205
-0.36797172
-0.36799142
-0.36801124
-0.3680311
-0.36805105
-0.36807108
-0.36809117
-0.36811134
-0.3681316
-0.36815193
-0.36817232
-0.3681928
-0.36821336
-0.36823398
-0.3682547
-0.36827546
-0.36829633
-0.36831725
-0.36833826
-0.36835933
-0.3683805
-0.36840174
-0.36842304
-0.3684444
-0.36846587
-0.36848742
-0.36850902
-0.3685307
-0.36855248
-0.3685743
-0.36859623
-0.3686182
-0.36864027
-0.3686624
-0.36868462
-0.3687069
-0.36872926
-0.3687517
-0.36877424
-0.36879683
-0.36881948
-0.3688422
-0.36886504
-0.36888793
-0.3689109
-0.36893395
-0.36895707
-0.36898026
-0.36900353
-0.36902687
-0.3690503
-0.3690738
-0.36909738
-0.36912102
-0.36914474
-0.36916855
-0.36919242
-0.36921638
-0.3692404
-0.3692645
-0.36928868
-0.36931294
-0.36933726
-0.36936167
-0.36938614
-0.3694107
-0.3694353
-0.36946002
-0.3694848
-0.36950967
-0.3695346
-0.36955962
-0.36958468
-0.36960986
-0.36963508
-0.3696604
-0.36968577
-0.36971125
-0.3697368
-0.3697624
-0.36978808
-0.36981383
-0.36983967
-0.3698656
-0.36989158
-0.36991763
-0.3699438
-0.36997
-0.36999628
-0.37002265
-0.3700491
-0.3700756
-0.37010223
-0.37012887
-0.37015563
-0.37018245
-0.37020934
-0.3702363
-0.37026337
-0.3702905
-0.37031767
-0.37034497
-0.3703723
-0.3703997
-0.37042722
-0.3704548
-0.37048244
-0.3705102
-0.37053797
-0.37056586
-0.37059382
-0.37062183
-0.37064993
-0.37067813
-0.37070638
-0.37073472
-0.37076312
-0.37079158
-0.37082016
-0.37084877
-0.3708775
-0.37090626
-0.37093514
-0.37096408
-0.37099308
-0.37102216
-0.3710513
-0.37108055
-0.37110987
-0.37113926
-0.37116873
-0.37119827
-0.3712279
-0.37125757
-0.37128732
-0.37131718
-0.3713471
-0.37137708
-0.37140715
-0.37143728
-0.3714675
-0.3714978
-0.37152818
-0.3715586
-0.37158912
-0.37161973
-0.3716504
-0.37168115
-0.37171197
-0.37174287
-0.37177384
-0.3718049
-0.371836
-0.3718672
-0.3718985
-0.37192985
-0.37196127
-0.37199277
-0.37202436
-0.372056
-0.37208772
-0.37211952
-0.3721514
-0.37218335
-0.3722154
-0.3722475
-0.37227967
-0.37231195
-0.3723443
-0.37237668
-0.37240916
-0.3724417
-0.37247437
-0.37250707
-0.37253985
-0.37257272
-0.37260565
-0.37263867
-0.37267175
-0.37270492
-0.37273815
-0.37277147
-0.37280485
-0.37283832
-0.37287188
-0.3729055
-0.37293917
-0.37297294
-0.3730068
-0.3730407
-0.37307468
-0.37310877
-0.3731429
-0.37317714
-0.3732114
-0.3732458
-0.37328023
-0.37331477
-0.37334937
-0.37338403
-0.37341878
-0.37345362
-0.37348852
-0.37352347
-0.37355852
-0.37359366
-0.37362885
-0.37366414
-0.3736995
-0.37373492
-0.37377042
-0.373806
-0.37384167
-0.3738774
-0.3739132
-0.37394908
-0.37398502
-0.37402108
-0.37405717
-0.37409335
-0.37412962
-0.37416595
-0.37420237
-0.37423885
-0.37427542
-0.37431204
-0.37434876
-0.37438554
-0.3744224
-0.37445936
-0.37449637
-0.37453344
-0.3745706
-0.37460786
-0.37464517
-0.37468258
-0.37472004
-0.3747576
-0.3747952
-0.3748329
-0.37487066
-0.3749085
-0.37494642
-0.3749844
-0.3750225
-0.37506065
-0.37509885
-0.37513715
-0.37517554
-0.37521398
-0.37525252
-0.3752911
-0.3753298
-0.37536854
-0.37540737
-0.37544626
-0.37548524
-0.37552428
-0.3755634
-0.37560263
-0.3756419
-0.37568125
-0.37572068
-0.3757602
-0.37579978
-0.37583944
-0.37587917
-0.37591898
-0.37595886
-0.37599882
-0.37603885
-0.37607896
-0.37611917
-0.37615943
-0.37619975
-0.37624016
-0.37628067
-0.37632123
-0.37636185
-0.37640256
-0.37644336
-0.37648422
-0.37652516
-0.37656617
-0.37660727
-0.37664846
-0.37668967
-0.376731
-0.3767724
-0.37681386
-0.3768554
-0.37689704
-0.37693873
-0.3769805
-0.37702236
-0.37706426
-0.37710628
-0.37714833
-0.3771905
-0.37723273
-0.37727502
-0.3773174
-0.37735984
-0.37740237
-0.37744498
-0.37748766
-0.3775304
-0.37757322
-0.37761614
-0.3776591
-0.37770218
-0.3777453
-0.3777885
-0.3778318
-0.37787515
-0.37791857
-0.37796208
-0.37800568
-0.37804934
-0.37809306
-0.37813687
-0.37818077
-0.37822473
-0.37826878
-0.3783129
-0.37835705
-0.37840134
-0.37844566
-0.3784901
-0.3785346
-0.37857914
-0.37862378
-0.3786685
-0.37871328
-0.37875816
-0.3788031
-0.3788481
-0.3788932
-0.37893838
-0.37898362
-0.37902895
-0.37907434
-0.3791198
-0.37916535
-0.37921098
-0.3792567
-0.37930247
-0.3793483
-0.37939423
-0.37944022
-0.37948632
-0.37953246
-0.37957868
-0.379625
-0.37967137
-0.37971783
-0.37976435
-0.37981096
-0.37985763
-0.3799044
-0.3799512
-0.37999812
-0.38004512
-0.38009217
-0.3801393
-0.3801865
-0.3802338
-0.38028115
-0.3803286
-0.3803761
-0.3804237
-0.38047135
-0.38051912
-0.38056704
-0.38061517
-0.38066345
-0.3807119
-0.38076055
-0.38080937
-0.38085833
-0.3809075
-0.38095683
-0.38100636
-0.38105604
-0.3811059
-0.38115594
-0.38120613
-0.38125652
-0.38130707
-0.3813578
-0.3814087
-0.38145977
-0.38151103
-0.38156247
-0.38161406
-0.38166586
-0.3817178
-0.38176993
-0.38182223
-0.3818747
-0.38192734
-0.38198018
-0.38203317
-0.38208634
-0.38213968
-0.3821932
-0.3822469
-0.3823008
-0.38235483
-0.38240904
-0.38246346
-0.38251802
-0.38257274
-0.38262767
-0.38268277
-0.38273802
-0.3827935
-0.3828491
-0.3829049
-0.38296086
-0.38301697
-0.3830733
-0.38312978
-0.38318646
-0.3832433
-0.3833003
-0.3833575
-0.38341483
-0.38347238
-0.38353008
-0.383588
-0.38364604
-0.38370427
-0.3837627
-0.38382125
-0.38388002
-0.38393894
-0.38399804
-0.38405734
-0.38411677
-0.3841764
-0.38423622
-0.3842962
-0.38435635
-0.38441667
-0.38447717
-0.38453785
-0.3845987
-0.38465974
-0.38472092
-0.38478228
-0.38484386
-0.38490558
-0.38496748
-0.38502955
-0.38509178
-0.38515422
-0.3852168
-0.38527957
-0.3853425
-0.38540563
-0.38546893
-0.3855324
-0.38559604
-0.38565984
-0.38572386
-0.38578802
-0.38585234
-0.38591686
-0.38598156
-0.3860464
-0.38611147
-0.38617668
-0.38624206
-0.38630763
-0.38637334
-0.38643926
-0.38650534
-0.38657162
-0.38663805
-0.38670465
-0.38677144
-0.38683838
-0.38690552
-0.3869728
-0.38704032
-0.38710797
-0.3871758
-0.3872438
-0.38731197
-0.38738033
-0.38744885
-0.38751757
-0.38758644
-0.3876555
-0.38772473
-0.3877941
-0.3878637
-0.38793343
-0.38800335
-0.38807344
-0.38814372
-0.38821417
-0.3882848
-0.38835558
-0.38842657
-0.3884977
-0.38856903
-0.38864052
-0.3887122
-0.38878402
-0.38885605
-0.38892823
-0.38900062
-0.38907316
-0.38914588
-0.38921875
-0.38929182
-0.38936505
-0.38943848
-0.38951206
-0.38958582
-0.38965976
-0.38973388
-0.38980815
-0.38988262
-0.38995725
-0.39003205
-0.39010704
-0.3901822
-0.39025754
-0.39033306
-0.39040872
-0.39048457
-0.3905606
-0.3906368
-0.39071319
-0.39078975
-0.3908665
-0.39094338
-0.39102045
-0.3910977
-0.39117512
-0.39125273
-0.3913305
-0.39140847
-0.3914866
-0.39156488
-0.39164335
-0.391722
-0.39180082
-0.39187983
-0.39195898
-0.39203835
-0.39211786
-0.39219755
-0.39227742
-0.39235747
-0.3924377
-0.39251807
-0.39259866
-0.3926794
-0.3927603
-0.3928414
-0.39292267
-0.3930041
-0.39308572
-0.3931675
-0.39324945
-0.3933316
-0.3934139
-0.3934964
-0.39357907
-0.3936619
-0.39374492
-0.3938281
-0.39391145
-0.393995
-0.3940787
-0.39416257
-0.39424664
-0.39433086
-0.39441526
-0.39449984
-0.3945846
-0.39466953
-0.39475462
-0.3948399
-0.39492536
-0.39501098
-0.39509678
-0.39518276
-0.39526892
-0.39535525
-0.39544174
-0.3955284
-0.39561528
-0.3957023
-0.39578947
-0.39587685
-0.3959644
-0.39605212
-0.39614
-0.3962281
-0.39631632
-0.39640474
-0.39649335
-0.39658213
-0.39667106
-0.39676017
-0.39684945
-0.39693892
-0.39702857
-0.3971184
-0.39720836
-0.39729854
-0.39738888
-0.3974794
-0.39757007
-0.39766094
-0.397752
-0.39784318
-0.39793456
-0.39802614
-0.39811787
-0.39820978
-0.39830184
-0.3983941
-0.39848655
-0.39857915
-0.39867193
-0.39876488
-0.398858
-0.39895132
-0.3990448
-0.39913845
-0.39923227
-0.3993263
-0.39942047
-0.39951482
-0.39960933
-0.39970404
-0.3997989
-0.39989397
-0.3999892
-0.40008458
-0.40018016
-0.40027592
-0.40037182
-0.40046793
-0.4005642
-0.40066063
-0.40075725
-0.40085405
-0.40095103
-0.40104815
-0.4011455
-0.40124297
-0.40134063
-0.40143847
-0.4015365
-0.4016347
-0.40173304
-0.4018316
-0.4019303
-0.4020292
-0.40212825
-0.4022275
-0.40232688
-0.40242648
-0.40252623
-0.4026262
-0.4027263
-0.40282658
-0.40292704
-0.40302765
-0.40312847
-0.40322945
-0.4033306
-0.40343192
-0.40353343
-0.4036351
-0.40373698
-0.403839
-0.4039412
-0.40404359
-0.40414613
-0.40424886
-0.40435177
-0.40445483
-0.4045581
-0.4046615
-0.4047651
-0.40486887
-0.40497282
-0.40507695
-0.40518126
-0.40528572
-0.40539038
-0.4054952
-0.4056002
-0.40570536
-0.40581068
-0.4059162
-0.4060219
-0.40612778
-0.40623382
-0.40634003
-0.40644643
-0.406553
-0.40665972
-0.40676665
-0.40687373
-0.406981
-0.40708843
-0.40719604
-0.40730384
-0.40741178
-0.40751994
-0.40762824
-0.40773672
-0.40784538
-0.40795422
-0.40806323
-0.4081724
-0.40828174
-0.4083913
-0.408501
-0.40861088
-0.40872094
-0.40883115
-0.40894157
-0.40905213
-0.40916288
-0.40927383
-0.40938494
-0.4094962
-0.40960765
-0.4097193
-0.40983108
-0.40994304
-0.4100552
-0.41016752
-0.41028002
-0.4103927
-0.41050553
-0.41061854
-0.41073176
-0.41084513
-0.41095868
-0.41107237
-0.41118628
-0.41130036
-0.4114146
-0.411529
-0.4116436
-0.41175836
-0.4118733
-0.4119884
-0.4121037
-0.41221917
-0.4123348
-0.4124506
-0.4125666
-0.41268277
-0.41279912
-0.41291562
-0.4130323
-0.41314915
-0.41326618
-0.4133834
-0.4135008
-0.41361836
-0.41373608
-0.41385397
-0.41397205
-0.41409007
-0.41420743
-0.41432407
-0.41444004
-0.41455528
-0.41466984
-0.4147837
-0.41489685
-0.41500932
-0.41512108
-0.41523212
-0.4153425
-0.41545218
-0.41556114
-0.4156694
-0.415777
-0.41588387
-0.41599005
-0.41609553
-0.4162003
-0.4163044
-0.4164078
-0.4165105
-0.41661248
-0.41671377
-0.41681436
-0.41691425
-0.41701347
-0.41711196
-0.41720977
-0.41730687
-0.41740328
-0.417499
-0.41759402
-0.41768834
-0.41778195
-0.41787487
-0.41796708
-0.4180586
-0.41814944
-0.41823956
-0.418329
-0.41841772
-0.41850576
-0.4185931
-0.41867974
-0.4187657
-0.41885093
-0.41893548
-0.4190193
-0.41910246
-0.41918492
-0.41926667
-0.41934773
-0.41942808
-0.41950774
-0.41958672
-0.41966498
-0.41974255
-0.4198194
-0.4198956
-0.41997105
-0.42004582
-0.4201199
-0.42019328
-0.42026597
-0.42033795
-0.42040923
-0.42047983
-0.42054972
-0.42061892
-0.4206874
-0.4207552
-0.4208223
-0.4208887
-0.4209544
-0.4210194
-0.42108372
-0.42114732
-0.42121023
-0.42127246
-0.42133397
-0.42139477
-0.4214549
-0.4215143
-0.42157304
-0.42163107
-0.4216884
-0.42174503
-0.42180097
-0.4218562
-0.42191073
-0.42196456
-0.4220177
-0.42207015
-0.42212188
-0.42217293
-0.4222233
-0.42227295
-0.4223219
-0.42237014
-0.4224177
-0.42246458
-0.4225107
-0.4225562
-0.42260095
-0.42264503
-0.4226884
-0.42273107
-0.42277303
-0.4228143
-0.4228549
-0.42289478
-0.42293397
-0.42297244
-0.42301023
-0.42304733
-0.42308372
-0.4231194
-0.4231544
-0.4231887
-0.4232223
-0.4232552
-0.4232874
-0.42331892
-0.4233497
-0.42337984
-0.42340925
-0.42343795
-0.42346597
-0.4234933
-0.4235199
-0.42354584
-0.42357105
-0.42359558
-0.42361942
-0.42364255
-0.423665
-0.4236867
-0.42370775
-0.42372808
-0.42374775
-0.42376667
-0.4237849
-0.42380247
-0.42381933
-0.4238355
-0.42385092
-0.42386568
-0.42387974
-0.4238931
-0.42390576
-0.42391774
-0.423929
-0.4239396
-0.42394945
-0.42395863
-0.4239671
-0.42397487
-0.42398196
-0.42398834
-0.423994
-0.423999
-0.4240033
-0.42400688
-0.42400977
-0.42401198
-0.42401347
-0.42401427
-0.42401436
-0.42401376
-0.42401248
-0.4240105
-0.4240078
-0.4240044
-0.42400032
-0.42399552
-0.42399004
-0.42398387
-0.423977
-0.42396942
-0.42396113
-0.42395216
-0.4239425
-0.42393214
-0.42392108
-0.4239093
-0.42389685
-0.42388368
-0.42386982
-0.42385527
-0.42384002
-0.42382407
-0.4238074
-0.42379007
-0.42377204
-0.4237533
-0.42373386
-0.4237137
-0.42369288
-0.42367133
-0.42364913
-0.42362618
-0.42360255
-0.42357823
-0.42355323
-0.42352748
-0.42350107
-0.42347395
-0.42344615
-0.42341763
-0.42338842
-0.4233585
-0.4233279
-0.4232966
-0.4232646
-0.4232319
-0.4231985
-0.4231644
-0.42312962
-0.42309412
-0.42305794
-0.42302105
-0.42298347
-0.42294517
-0.4229062
-0.42286652
-0.42282614
-0.42278507
-0.4227433
-0.42270082
-0.42265767
-0.4226138
-0.42256925
-0.42252398
-0.42247802
-0.42243135
-0.422384
-0.42233595
-0.4222872
-0.42223775
-0.4221876
-0.42213675
-0.42208523
-0.42203298
-0.42198002
-0.4219264
-0.42187205
-0.42181703
-0.4217613
-0.4217049
-0.42164776
-0.4215899
-0.4215314
-0.4214722
-0.42141226
-0.42135164
-0.42129034
-0.42122832
-0.42116562
-0.42110223
-0.42103812
-0.4209733
-0.4209078
-0.4208416
-0.4207747
-0.4207071
-0.42063883
-0.42056984
-0.42050016
-0.42042977
-0.4203587
-0.4202869
-0.4202144
-0.42014125
-0.42006737
-0.4199928
-0.41991752
-0.41984156
-0.41976488
-0.4196875
-0.41960946
-0.4195307
-0.41945124
-0.4193711
-0.41929024
-0.41920868
-0.41912642
-0.41904348
-0.41895983
-0.4188755
-0.41879046
-0.41870472
-0.4186183
-0.41853115
-0.41844332
-0.41835478
-0.41826555
-0.41817564
-0.418085
-0.4179937
-0.41790166
-0.41780895
-0.41771552
-0.4176214
-0.4175266
-0.4174311
-0.41733488
-0.41723797
-0.41714036
-0.41704208
-0.41694307
-0.41684338
-0.41674298
-0.4166419
-0.41654012
-0.41643763
-0.41633442
-0.41623056
-0.41612595
-0.4160207
-0.4159147
-0.41580802
-0.41570064
-0.41559258
-0.4154838
-0.41537434
-0.4152642
-0.41515332
-0.41504177
-0.4149295
-0.41481656
-0.4147029
-0.41458854
-0.41447347
-0.41435775
-0.41424128
-0.41412416
-0.41400632
-0.41388777
-0.41376853
-0.4136486
-0.41352797
-0.41340664
-0.4132846
-0.41316187
-0.41303846
-0.41291434
-0.4127895
-0.412664
-0.41253778
-0.41241086
-0.41228324
-0.41215494
-0.41202593
-0.41189623
-0.4117658
-0.4116347
-0.41150293
-0.41137043
-0.4112372
-0.41110334
-0.41096875
-0.41083345
-0.41069746
-0.4105608
-0.4104234
-0.41028532
-0.41014653
-0.41000706
-0.4098669
-0.40972602
-0.40958443
-0.4094422
-0.40929922
-0.40915555
-0.4090112
-0.40886614
-0.40872037
-0.40857393
-0.40842676
-0.4082789
-0.40813035
-0.40798113
-0.40783116
-0.40768054
-0.40752918
-0.40737715
-0.40722442
-0.407071
-0.40691686
-0.406762
-0.4066065
-0.40645027
-0.40629333
-0.4061357
-0.4059774
-0.40581837
-0.40565866
-0.40549827
-0.40533715
-0.40517533
-0.40501282
-0.40484962
-0.40468597
-0.40452266
-0.40435964
-0.40419698
-0.40403467
-0.40387267
-0.40371105
-0.40354973
-0.40338877
-0.40322816
-0.4030679
-0.40290794
-0.40274835
-0.40258908
-0.40243015
-0.40227157
-0.40211335
-0.40195546
-0.4017979
-0.40164068
-0.4014838
-0.40132725
-0.40117106
-0.4010152
-0.40085968
-0.4007045
-0.40054968
-0.40039518
-0.40024102
-0.4000872
-0.39993373
-0.3997806
-0.3996278
-0.39947534
-0.39932323
-0.39917147
-0.39902002
-0.39886892
-0.39871818
-0.39856777
-0.39841768
-0.39826795
-0.39811856
-0.3979695
-0.3978208
-0.39767244
-0.3975244
-0.39737672
-0.39722934
-0.39708236
-0.39693567
-0.39678934
-0.39664334
-0.3964977
-0.39635238
-0.39620742
-0.3960628
-0.39591852
-0.39577454
-0.39563096
-0.39548767
-0.39534476
-0.39520216
-0.3950599
-0.39491802
-0.39477643
-0.39463523
-0.39449432
-0.39435378
-0.3942136
-0.39407372
-0.3939342
-0.393795
-0.39365616
-0.39351764
-0.39337948
-0.39324167
-0.39310417
-0.39296702
-0.39283022
-0.39269376
-0.39255765
-0.39242184
-0.39228642
-0.3921513
-0.39201656
-0.39188212
-0.39174804
-0.3916143
-0.3914809
-0.39134783
-0.39121512
-0.39108273
-0.3909507
-0.39081898
-0.39068764
-0.3905566
-0.39042592
-0.3902956
-0.3901656
-0.39003593
-0.38990662
-0.38977763
-0.389649
-0.3895207
-0.38939273
-0.38926512
-0.38913783
-0.3890109
-0.3888843
-0.38875806
-0.38863215
-0.38850656
-0.38838133
-0.38825643
-0.3881319
-0.38800767
-0.38788378
-0.38776025
-0.38763705
-0.3875142
-0.3873917
-0.38726953
-0.38714767
-0.3870262
-0.38690504
-0.38678423
-0.38666373
-0.3865436
-0.38642383
-0.38630438
-0.38618526
-0.3860665
-0.38594806
-0.38582996
-0.3857122
-0.38559482
-0.38547772
-0.385361
-0.3852446
-0.38512856
-0.38501284
-0.38489747
-0.38478246
-0.38466775
-0.3845534
-0.3844394
-0.38432574
-0.3842124
-0.38409942
-0.38398677
-0.38387448
-0.3837625
-0.38365087
-0.3835396
-0.38342863
-0.38331804
-0.38320777
-0.38309783
-0.38298824
-0.38287902
-0.3827701
-0.38266155
-0.3825533
-0.38244542
-0.3823379
-0.38223067
-0.38212383
-0.38201728
-0.3819111
-0.38180527
-0.38169977
-0.3815946
-0.38148978
-0.3813853
-0.38128117
-0.38117737
-0.3810739
-0.38097078
-0.380868
-0.38076556
-0.38066345
-0.38056168
-0.38046026
-0.3803592
-0.38025844
-0.38015804
-0.380058
-0.37995827
-0.37985888
-0.37975985
-0.37966114
-0.3795628
-0.37946478
-0.3793671
-0.37926978
-0.37917277
-0.37907612
-0.3789798
-0.3788838
-0.37878817
-0.3786929
-0.37859794
-0.37850332
-0.37840903
-0.3783151
-0.3782215
-0.37812826
-0.37803534
-0.37794277
-0.37785053
-0.37775865
-0.3776671
-0.37757587
-0.377485
-0.37739447
-0.3773043
-0.37721443
-0.3771249
-0.37703574
-0.3769469
-0.3768584
-0.37677026
-0.37668246
-0.376595
-0.37650785
-0.37642106
-0.3763346
-0.3762485
-0.37616274
-0.3760773
-0.3759922
-0.37590748
-0.37582305
-0.37573898
-0.37565526
-0.37557188
-0.37548882
-0.37540612
-0.37532374
-0.37524173
-0.37516004
-0.37507868
-0.37499768
-0.37491703
-0.37483668
-0.3747567
-0.37467706
-0.37459776
-0.37451878
-0.37444016
-0.37436187
-0.37428394
-0.37420633
-0.37412906
-0.37405214
-0.37397557
-0.3738993
-0.3738234
-0.37374786
-0.37367263
-0.37359774
-0.3735232
-0.373449
-0.37337515
-0.37330163
-0.37322843
-0.3731556
-0.3730831
-0.37301093
-0.3729391
-0.37286764
-0.3727965
-0.3727257
-0.37265524
-0.37258512
-0.37251535
-0.3724459
-0.3723768
-0.37230805
-0.37223962
-0.37217155
-0.3721038
-0.37203643
-0.37196937
-0.37190264
-0.37183627
-0.37177023
-0.37170455
-0.3716392
-0.37157416
-0.3715095
-0.37144515
-0.37138116
-0.3713175
-0.3712542
-0.37119123
-0.3711286
-0.3710663
-0.37100434
-0.3709427
-0.37088144
-0.37082052
-0.37075993
-0.37069967
-0.37063977
-0.3705802
-0.37052095
-0.37046206
-0.37040353
-0.3703453
-0.37028745
-0.3702299
-0.3701727
-0.37011588
-0.37005934
-0.3700032
-0.36994734
-0.36989185
-0.36983672
-0.3697819
-0.36972743
-0.3696733
-0.36961952
-0.36956608
-0.36951298
-0.3694602
-0.36940777
-0.36935568
-0.36930394
-0.36925253
-0.36920148
-0.36915076
-0.36910036
-0.36905032
-0.3690006
-0.36895123
-0.3689022
-0.36885354
-0.3688052
-0.3687572
-0.36870953
-0.3686622
-0.3686152
-0.36856857
-0.36852226
-0.3684763
-0.36843067
-0.3683854
-0.36834046
-0.36829585
-0.3682516
-0.36820766
-0.3681641
-0.36812085
-0.36807796
-0.3680354
-0.36799318
-0.3679513
-0.36790976
-0.36786854
-0.36782768
-0.36778718
-0.367747
-0.36770716
-0.36766765
-0.3676285
-0.36758968
-0.3675512
-0.36751306
-0.36747527
-0.3674378
-0.3674007
-0.36736393
-0.36732748
-0.3672914
-0.36725563
-0.36722022
-0.36718515
-0.3671504
-0.367116
-0.36708197
-0.36704823
-0.36701486
-0.36698183
-0.36694914
-0.36691678
-0.36688477
-0.3668531
-0.36682177
-0.36679077
-0.36676013
-0.36672983
-0.36669984
-0.36667022
-0.36664093
-0.36661196
-0.36658335
-0.3665551
-0.36652714
-0.36649957
-0.3664723
-0.3664454
-0.36641884
-0.36639255
-0.36636648
-0.36634055
-0.3663148
-0.3662892
-0.36626378
-0.3662385
-0.3662134
-0.3661885
-0.36616373
-0.36613914
-0.36611474
-0.36609048
-0.3660664
-0.36604246
-0.3660187
-0.3659951
-0.3659717
-0.36594844
-0.36592537
-0.36590245
-0.36587968
-0.36585712
-0.36583468
-0.36581245
-0.36579037
-0.36576846
-0.3657467
-0.36572513
-0.3657037
-0.36568245
-0.36566138
-0.36564046
-0.36561972
-0.36559916
-0.36557874
-0.3655585
-0.36553842
-0.3655185
-0.36549875
-0.3654792
-0.36545977
-0.36544055
-0.36542147
-0.36540255
-0.3653838
-0.36536524
-0.36534685
-0.3653286
-0.36531052
-0.36529264
-0.36527488
-0.36525732
-0.36523992
-0.3652227
-0.36520562
-0.36518872
-0.36517197
-0.3651554
-0.365139
-0.3651228
-0.3651067
-0.36509082
-0.36507508
-0.36505952
-0.36504412
-0.3650289
-0.36501384
-0.36499894
-0.3649842
-0.36496964
-0.36495525
-0.36494103
-0.36492696
-0.36491308
-0.36489934
-0.36488578
-0.3648724
-0.36485916
-0.3648461
-0.36483324
-0.3648205
-0.36480796
-0.36479557
-0.36478335
-0.36477128
-0.36475942
-0.36474767
-0.36473614
-0.36472476
-0.36471352
-0.36470246
-0.3646916
-0.3646809
-0.36467034
-0.36465994
-0.3646497
-0.36463967
-0.3646298
-0.3646201
-0.36461052
-0.36460117
-0.36459196
-0.3645829
-0.36457402
-0.3645653
-0.36455676
-0.3645484
-0.3645402
-0.36453214
-0.36452425
-0.36451656
-0.36450902
-0.36450163
-0.3644944
-0.36448738
-0.36448053
-0.36447382
-0.36446726
-0.3644609
-0.3644547
-0.36444867
-0.3644428
-0.36443707
-0.36443156
-0.36442617
-0.36442098
-0.36441594
-0.3644111
-0.36440638
-0.36440185
-0.36439747
-0.3643933
-0.36438924
-0.3643854
-0.3643817
-0.36437815
-0.3643748
-0.3643716
-0.36436856
-0.3643657
-0.364363
-0.36436048
-0.36435813
-0.36435592
-0.3643539
-0.36435205
-0.36435035
-0.36434883
-0.3643475
-0.3643463
-0.36434525
-0.36434442
-0.36434373
-0.3643432
-0.36434284
-0.36434266
-0.36434263
-0.36434278
-0.3643431
-0.36434358
-0.36434424
-0.36434504
-0.36434603
-0.3643472
-0.3643485
-0.36435
-0.36435163
-0.36435345
-0.36435544
-0.3643576
-0.36435992
-0.3643624
-0.36436504
-0.36436787
-0.36437085
-0.364374
-0.36437732
-0.36438084
-0.36438447
-0.36438832
-0.3643923
-0.36439645
-0.36440077
-0.36440527
-0.36440992
-0.36441475
-0.36441976
-0.3644249
-0.36443025
-0.36443573
-0.3644414
-0.36444724
-0.36445323
-0.3644594
-0.3644657
-0.3644722
-0.3644789
-0.3644857
-0.3644927
-0.3644999
-0.36450723
-0.3645147
-0.3645224
-0.36453024
-0.36453822
-0.3645464
-0.36455473
-0.36456323
-0.3645719
-0.36458075
-0.36458975
-0.36459893
-0.36460826
-0.36461776
-0.36462745
-0.3646373
-0.3646473
-0.36465746
-0.3646678
-0.36467832
-0.364689
-0.36469984
-0.36471087
-0.36472204
-0.36473337
-0.3647449
-0.36475658
-0.36476842
-0.36478043
-0.36479262
-0.36480495
-0.36481747
-0.36483017
-0.364843
-0.36485603
-0.3648692
-0.36488256
-0.3648961
-0.36490977
-0.36492363
-0.36493763
-0.36495182
-0.36496618
-0.3649807
-0.3649954
-0.36501023
-0.36502525
-0.36504045
-0.3650558
-0.36507133
-0.36508703
-0.3651029
-0.3651189
-0.3651351
-0.36515146
-0.36516798
-0.36518466
-0.36520153
-0.36521858
-0.36523575
-0.36525312
-0.36527064
-0.36528835
-0.3653062
-0.36532423
-0.36534244
-0.3653608
-0.36537933
-0.36539805
-0.3654169
-0.36543593
-0.36545515
-0.3654745
-0.36549404
-0.36551374
-0.36553362
-0.36555365
-0.36557385
-0.36559424
-0.36561477
-0.36563545
-0.36565635
-0.3656774
-0.36569858
-0.36571994
-0.3657415
-0.36576322
-0.3657851
-0.36580712
-0.36582935
-0.3658517
-0.36587426
-0.36589697
-0.36591983
-0.3659429
-0.3659661
-0.36598948
-0.36601302
-0.36603674
-0.3660606
-0.36608467
-0.3661089
-0.36613327
-0.3661578
-0.36618254
-0.36620742
-0.36623245
-0.36625767
-0.36628306
-0.36630863
-0.36633435
-0.36636022
-0.36638626
-0.3664125
-0.3664389
-0.36646545
-0.36649215
-0.36651906
-0.3665461
-0.36657333
-0.36660072
-0.3666283
-0.366656
-0.3666839
-0.36671194
-0.3667402
-0.36676857
-0.36679715
-0.36682588
-0.36685476
-0.3668838
-0.36691305
-0.36694244
-0.366972
-0.36700174
-0.36703163
-0.3670617
-0.36709192
-0.36712232
-0.3671529
-0.36718363
-0.36721453
-0.3672456
-0.36727685
-0.36730823
-0.36733982
-0.36737153
-0.36740345
-0.36743551
-0.36746776
-0.36750016
-0.36753273
-0.36756548
-0.36759838
-0.36763144
-0.3676647
-0.3676981
-0.36773166
-0.36776543
-0.3677993
-0.3678334
-0.36786765
-0.36790204
-0.36793664
-0.36797136
-0.3680063
-0.36804137
-0.36807662
-0.36811203
-0.3681476
-0.36818334
-0.36821926
-0.36825535
-0.3682916
-0.368328
-0.3683646
-0.36840135
-0.36843827
-0.36847535
-0.3685126
-0.36855003
-0.3685876
-0.36862537
-0.36866328
-0.36870137
-0.36873963
-0.36877805
-0.36881664
-0.3688554
-0.3688943
-0.3689334
-0.36897266
-0.3690121
-0.36905167
-0.36909142
-0.36913136
-0.36917144
-0.3692117
-0.36925215
-0.36929274
-0.3693335
-0.36937442
-0.36941552
-0.36945677
-0.369498
-0.36953932
-0.36958066
-0.369622
-0.3696634
-0.36970478
-0.36974624
-0.3697877
-0.36982918
-0.36987072
-0.36991227
-0.36995384
-0.36999545
-0.37003708
-0.37007874
-0.3701204
-0.37016213
-0.37020388
-0.37024564
-0.37028745
-0.37032926
-0.37037113
-0.370413
-0.37045494
-0.37049687
-0.37053883
-0.37058082
-0.37062284
-0.3706649
-0.37070698
-0.3707491
-0.37079123
-0.37083337
-0.37087557
-0.3709178
-0.37096003
-0.37100232
-0.3710446
-0.37108693
-0.3711293
-0.37117168
-0.3712141
-0.37125653
-0.371299
-0.3713415
-0.37138402
-0.37142658
-0.37146914
-0.37151176
-0.3715544
-0.37159705
-0.37163976
-0.37168247
-0.3717252
-0.371768
-0.3718108
-0.37185362
-0.37189648
-0.37193936
-0.37198228
-0.37202522
-0.3720682
-0.3721112
-0.3721542
-0.37219727
-0.37224036
-0.37228346
-0.3723266
-0.37236977
-0.37241295
-0.37245616
-0.37249944
-0.3725427
-0.372586
-0.37262934
-0.3726727
-0.3727161
-0.3727595
-0.37280294
-0.37284642
-0.3728899
-0.37293345
-0.372977
-0.3730206
-0.3730642
-0.37310785
-0.3731515
-0.3731952
-0.37323892
-0.37328267
-0.37332645
-0.37337026
-0.3734141
-0.37345794
-0.37350184
-0.37354577
-0.3735897
-0.37363368
-0.37367767
-0.37372172
-0.37376577
-0.37380984
-0.37385395
-0.37389812
-0.3739423
-0.37398648
-0.3740307
-0.37407494
-0.37411922
-0.37416354
-0.37420788
-0.37425223
-0.37429664
-0.37434104
-0.3743855
-0.37442997
-0.37447447
-0.374519
-0.37456357
-0.37460816
-0.37465277
-0.37469742
-0.37474206
-0.37478676
-0.3748315
-0.37487626
-0.37492102
-0.37496585
-0.37501067
-0.37505555
-0.37510043
-0.37514538
-0.37519032
-0.3752353
-0.3752803
-0.37532532
-0.37537038
-0.37541547
-0.3754606
-0.37550575
-0.3755509
-0.3755961
-0.37564135
-0.3756866
-0.3757319
-0.37577718
-0.3758225
-0.3758679
-0.3759133
-0.3759587
-0.37600416
-0.37604964
-0.37609515
-0.37614068
-0.37618625
-0.37623182
-0.37627745
-0.3763231
-0.37636876
-0.37641448
-0.3764602
-0.37650597
-0.37655175
-0.37659755
-0.3766434
-0.37668926
-0.37673515
-0.37678108
-0.37682703
-0.37687302
-0.37691903
-0.37696508
-0.37701112
-0.37705722
-0.37710333
-0.3771495
-0.37719566
-0.37724188
-0.3772881
-0.37733436
-0.37738064
-0.37742695
-0.3774733
-0.37751967
-0.37756607
-0.3776125
-0.37765896
-0.37770543
-0.37775195
-0.37779847
-0.37784505
-0.37789163
-0.37793827
-0.3779849
-0.37803158
-0.37807828
-0.378125
-0.37817177
-0.37821856
-0.37826538
-0.37831223
-0.3783591
-0.37840602
-0.37845293
-0.3784999
-0.37854686
-0.3785939
-0.37864092
-0.378688
-0.3787351
-0.3787822
-0.37882936
-0.37887654
-0.37892374
-0.37897098
-0.37901825
-0.37906554
-0.37911287
-0.3791602
-0.37920758
-0.37925497
-0.3793024
-0.37934986
-0.37939736
-0.37944487
-0.3794924
-0.37953997
-0.37958756
-0.37963519
-0.37968284
-0.37973052
-0.37977824
-0.37982598
-0.37987372
-0.37992153
-0.37996936
-0.3800172
-0.38006508
-0.38011298
-0.3801609
-0.38020888
-0.38025686
-0.38030487
-0.3803529
-0.380401
-0.3804491
-0.38049722
-0.38054538
-0.38059354
-0.38064176
-0.38069
-0.38073826
-0.38078657
-0.38083488
-0.38088322
-0.38093162
-0.38098
-0.38102844
-0.3810769
-0.3811254
-0.3811739
-0.38122246
-0.38127103
-0.3813196
-0.38136825
-0.38141692
-0.38146558
-0.3815143
-0.38156304
-0.38161182
-0.3816606
-0.38170943
-0.38175827
-0.38180715
-0.38185605
-0.381905
-0.38195395
-0.38200295
-0.38205197
-0.38210103
-0.38215008
-0.3821992
-0.38224834
-0.3822975
-0.38234666
-0.3823959
-0.38244513
-0.3824944
-0.38254368
-0.382593
-0.38264236
-0.38269174
-0.38274115
-0.3827906
-0.38284007
-0.38288957
-0.38293907
-0.38298863
-0.3830382
-0.3830878
-0.38313743
-0.3831871
-0.38323677
-0.3832865
-0.38333625
-0.38338602
-0.38343582
-0.38348565
-0.3835355
-0.38358536
-0.38363528
-0.38368523
-0.38373518
-0.3837852
-0.3838352
-0.38388526
-0.38393533
-0.38398543
-0.38403556
-0.38408574
-0.38413593
-0.38418615
-0.3842364
-0.38428664
-0.38433695
-0.38438728
-0.38443765
-0.38448802
-0.38453844
-0.38458887
-0.38463935
-0.38468984
-0.38474035
-0.38479093
-0.3848415
-0.3848921
-0.38494274
-0.3849934
-0.3850441
-0.38509482
-0.38514555
-0.38519633
-0.38524714
-0.38529795
-0.38534883
-0.3853997
-0.38545063
-0.38550156
-0.38555253
-0.38560352
-0.38565457
-0.38570562
-0.3857567
-0.3858078
-0.38585892
-0.3859101
-0.3859613
-0.38601252
-0.38606375
-0.38611504
-0.38616633
-0.38621768
-0.38626903
-0.3863204
-0.38637185
-0.3864233
-0.38647476
-0.38652626
-0.38657779
-0.38662934
-0.3866809
-0.38673252
-0.38678417
-0.38683584
-0.38688752
-0.38693926
-0.386991
-0.38704276
-0.3870946
-0.3871464
-0.38719827
-0.38725016
-0.38730207
-0.38735402
-0.387406
-0.387458
-0.38751003
-0.3875621
-0.38761416
-0.38766629
-0.38771844
-0.3877706
-0.38782278
-0.38787502
-0.38792726
-0.38797954
-0.38803184
-0.38808417
-0.38813654
-0.38818893
-0.38824135
-0.3882938
-0.38834628
-0.38839877
-0.38845128
-0.38850376
-0.3885562
-0.3886087
-0.38866115
-0.3887136
-0.38876602
-0.38881847
-0.3888709
-0.38892332
-0.3889757
-0.3890281
-0.3890805
-0.3891329
-0.38918525
-0.3892376
-0.38928998
-0.38934234
-0.38939467
-0.389447
-0.38949934
-0.38955164
-0.38960394
-0.38965625
-0.38970855
-0.38976082
-0.3898131
-0.38986537
-0.3899176
-0.3899699
-0.39002213
-0.39007434
-0.3901266
-0.3901788
-0.390231
-0.3902832
-0.39033538
-0.39038756
-0.39043975
-0.39049193
-0.3905441
-0.39059624
-0.39064837
-0.39070052
-0.39075264
-0.39080474
-0.39085686
-0.39090896
-0.39096105
-0.39101315
-0.3910652
-0.39111727
-0.39116934
-0.3912214
-0.39127344
-0.39132547
-0.3913775
-0.3914295
-0.39148152
-0.39153352
-0.39158553
-0.3916375
-0.39168948
-0.39174145
-0.39179343
-0.39184538
-0.39189732
-0.39194924
-0.39200118
-0.3920531
-0.392105
-0.3921569
-0.3922088
-0.3922607
-0.39231256
-0.39236444
-0.3924163
-0.39246815
-0.39251998
-0.39257184
-0.39262366
-0.3926755
-0.3927273
-0.39277908
-0.39283088
-0.39288267
-0.39293444
-0.39298624
-0.39303797
-0.39308974
-0.39314148
-0.39319322
-0.39324495
-0.39329666
-0.3933484
-0.39340007
-0.39345178
-0.39350346
-0.39355516
-0.3936068
-0.3936585
-0.39371014
-0.39376178
-0.39381343
-0.39386505
-0.39391667
-0.39396828
-0.3940199
-0.3940715
-0.39412308
-0.39417467
-0.39422622
-0.39427778
-0.39432934
-0.3943809
-0.39443243
-0.39448395
-0.39453548
-0.394587
-0.3946385
-0.39469
-0.39474148
-0.39479297
-0.39484444
-0.3948959
-0.39494735
-0.39499882
-0.39505026
-0.39510167
-0.3951531
-0.3952045
-0.39525592
-0.39530733
-0.3953587
-0.3954101
-0.39546147
-0.39551282
-0.3955642
-0.39561555
-0.39566687
-0.39571822
-0.39576954
-0.39582086
-0.39587215
-0.39592344
-0.39597476
-0.39602602
-0.3960773
-0.39612857
-0.39617983
-0.39623106
-0.39628232
-0.39633355
-0.39638478
-0.39643598
-0.39648718
-0.39653838
-0.39658958
-0.39664078
-0.39669195
-0.3967431
-0.39679426
-0.3968454
-0.39689654
-0.39694768
-0.39699882
-0.39704993
-0.39710104
-0.39715213
-0.39720324
-0.39725432
-0.3973054
-0.39735645
-0.3974075
-0.39745855
-0.3975096
-0.39756063
-0.39761168
-0.39766267
-0.3977137
-0.39776468
-0.39781567
-0.39786667
-0.39791766
-0.39796862
-0.39801958
-0.3980705
-0.39812148
-0.3981724
-0.39822334
-0.39827424
-0.39832515
-0.39837605
-0.39842695
-0.39847782
-0.39852872
-0.39857957
-0.39863044
-0.39868128
-0.39873213
-0.39878297
-0.3988338
-0.39888462
-0.39893544
-0.39898622
-0.39903703
-0.39908782
-0.3991386
-0.39918935
-0.3992401
-0.39929086
-0.3993416
-0.39939234
-0.3994431
-0.3994938
-0.3995445
-0.3995952
-0.3996459
-0.3996966
-0.39974728
-0.39979795
-0.3998486
-0.39989924
-0.3999499
-0.40000054
-0.40005118
-0.40010178
-0.40015242
-0.400203
-0.4002536
-0.4003042
-0.40035477
-0.40040535
-0.4004559
-0.40050647
-0.400557
-0.40060753
-0.40065807
-0.4007086
-0.4007591
-0.40080962
-0.4008601
-0.4009106
-0.40096107
-0.40101153
-0.401062
-0.40111247
-0.4011629
-0.40121335
-0.40126377
-0.4013142
-0.4013646
-0.40141502
-0.40146542
-0.4015158
-0.40156618
-0.40161654
-0.4016669
-0.40171728
-0.4017676
-0.40181795
-0.40186828
-0.40191862
-0.40196893
-0.40201923
-0.40206954
-0.40211982
-0.4021701
-0.40222037
-0.40227064
-0.4023209
-0.40237114
-0.40242139
-0.4024716
-0.40252182
-0.40257204
-0.40262225
-0.40267244
-0.40272266
-0.4027728
-0.402823
-0.40287316
-0.40292332
-0.40297347
-0.4030236
-0.40307373
-0.40312386
-0.40317398
-0.40322408
-0.40327418
-0.40332428
-0.40337437
-0.40342444
-0.4034745
-0.40352455
-0.40357462
-0.40362465
-0.4036747
-0.4037247
-0.40377474
-0.40382475
-0.40387473
-0.40392473
-0.4039747
-0.4040247
-0.40407464
-0.40412462
-0.40417457
-0.4042245
-0.40427443
-0.40432435
-0.40437427
-0.4044242
-0.40447408
-0.40452397
-0.40457386
-0.40462375
-0.4046736
-0.40472347
-0.40477332
-0.40482315
-0.40487298
-0.4049228
-0.40497264
-0.40502244
-0.40507224
-0.40512204
-0.4051718
-0.4052216
-0.40527138
-0.40532112
-0.4053709
-0.40542063
-0.40547037
-0.40552008
-0.4055698
-0.4056195
-0.4056692
-0.40571892
-0.4057686
-0.40581828
-0.40586793
-0.4059176
-0.40596727
-0.4060169
-0.40606654
-0.40611616
-0.40616578
-0.4062154
-0.406265
-0.40631458
-0.40636417
-0.40641376
-0.40646333
-0.4065129
-0.40656245
-0.40661198
-0.4066615
-0.40671104
-0.40676057
-0.40681008
-0.40685958
-0.40690908
-0.40695858
-0.40700805
-0.40705752
-0.40710697
-0.40715644
-0.40720588
-0.40725532
-0.40730473
-0.40735418
-0.4074036
-0.40745297
-0.40750238
-0.40755177
-0.40760115
-0.4076505
-0.40769988
-0.40774924
-0.4077986
-0.4078479
-0.40789723
-0.40794656
-0.40799588
-0.40804517
-0.4080945
-0.40814376
-0.40819305
-0.40824232
-0.40829158
-0.40834084
-0.40839007
-0.40843934
-0.40848857
-0.40853778
-0.40858698
-0.4086362
-0.4086854
-0.4087346
-0.40878376
-0.40883294
-0.4088821
-0.40893117
-0.40897974
-0.4090278
-0.40907532
-0.40912232
-0.40916878
-0.40921474
-0.40926015
-0.40930504
-0.40934938
-0.40939322
-0.4094365
-0.4094793
-0.40952152
-0.40956324
-0.40960443
-0.40964508
-0.40968522
-0.40972483
-0.4097639
-0.40980244
-0.40984046
-0.40987796
-0.4099149
-0.40995133
-0.40998724
-0.41002262
-0.4100575
-0.4100918
-0.41012558
-0.41015884
-0.4101916
-0.4102238
-0.4102555
-0.41028664
-0.41031727
-0.41034734
-0.41037694
-0.41040596
-0.41043448
-0.41046247
-0.41048992
-0.41051683
-0.41054323
-0.4105691
-0.41059446
-0.41061926
-0.41064355
-0.41066733
-0.41069055
-0.41071326
-0.41073543
-0.41075706
-0.4107782
-0.4107988
-0.41081885
-0.41083837
-0.41085738
-0.41087586
-0.4108938
-0.41091123
-0.41092813
-0.4109445
-0.41096032
-0.41097564
-0.41099042
-0.41100466
-0.4110184
-0.4110316
-0.41104427
-0.4110564
-0.41106802
-0.41107908
-0.41108966
-0.41109967
-0.41110918
-0.41111815
-0.41112658
-0.4111345
-0.4111419
-0.41114876
-0.41115507
-0.4111609
-0.41116616
-0.4111709
-0.41117513
-0.41117883
-0.411182
-0.4111846
-0.41118672
-0.4111883
-0.41118935
-0.41118985
-0.41118985
-0.41118932
-0.41118827
-0.41118667
-0.41118455
-0.4111819
-0.41117874
-0.411175
-0.41117078
-0.41116604
-0.41116074
-0.41115493
-0.41114858
-0.41114172
-0.4111343
-0.41112638
-0.41111794
-0.41110894
-0.41109943
-0.4110894
-0.4110788
-0.41106772
-0.4110561
-0.41104394
-0.41103128
-0.41101804
-0.4110043
-0.41099006
-0.41097525
-0.41095993
-0.41094407
-0.4109277
-0.41091082
-0.41089338
-0.4108754
-0.4108569
-0.4108379
-0.41081834
-0.41079828
-0.41077766
-0.41075653
-0.41073486
-0.4107127
-0.41068998
-0.41066673
-0.41064295
-0.41061866
-0.41059384
-0.41056848
-0.41054258
-0.41051617
-0.41048923
-0.41046175
-0.41043377
-0.41040525
-0.4103762
-0.4103466
-0.4103165
-0.41028586
-0.4102547
-0.410223
-0.4101908
-0.41015804
-0.41012475
-0.41009095
-0.41005662
-0.41002175
-0.40998635
-0.40995044
-0.409914
-0.409877
-0.4098395
-0.40980148
-0.40976292
-0.40972382
-0.4096842
-0.40964407
-0.4096034
-0.4095622
-0.40952048
-0.40947822
-0.40943542
-0.40939212
-0.40934828
-0.4093039
-0.40925902
-0.40921357
-0.40916765
-0.40912116
-0.40907416
-0.4090266
-0.40897855
-0.40892994
-0.40888083
-0.40883118
-0.408781
-0.4087303
-0.40867907
-0.4086273
-0.408575
-0.4085222
-0.40846884
-0.40841496
-0.40836057
-0.40830562
-0.40825015
-0.40819418
-0.40813765
-0.4080806
-0.40802306
-0.40796494
-0.40790632
-0.40784717
-0.40778747
-0.40772727
-0.40766653
-0.40760526
-0.40754345
-0.40748113
-0.40741828
-0.4073549
-0.407291
-0.40722656
-0.4071616
-0.4070961
-0.40703008
-0.40696353
-0.40689644
-0.40682885
-0.4067607
-0.40669203
-0.40662286
-0.40655312
-0.40648288
-0.4064121
-0.4063408
-0.40626898
-0.40619662
-0.40612373
-0.40605032
-0.40597636
-0.4059019
-0.4058269
-0.40575138
-0.40567532
-0.40559873
-0.4055216
-0.40544397
-0.4053658
-0.40528712
-0.40520787
-0.40512812
-0.40504786
-0.40496704
-0.4048857
-0.40480384
-0.40472144
-0.40463853
-0.40455508
-0.4044711
-0.40438658
-0.40430155
-0.404216
-0.4041299
-0.4040433
-0.40395615
-0.40386847
-0.40378025
-0.40369153
-0.40360227
-0.40351248
-0.40342218
-0.4033313
-0.40323994
-0.40314806
-0.4030556
-0.40296265
-0.4028692
-0.40277517
-0.40268064
-0.40258557
-0.40248996
-0.40239385
-0.4022972
-0.4022
-0.4021023
-0.40200406
-0.4019053
-0.401806
-0.4017062
-0.4016058
-0.40150496
-0.40140355
-0.40130162
-0.40119913
-0.40109617
-0.40099263
-0.4008886
-0.40078402
-0.4006789
-0.40057328
-0.40046713
-0.40036044
-0.4002532
-0.40014547
-0.4000372
-0.3999284
-0.39981908
-0.39970922
-0.39959884
-0.3994879
-0.39937648
-0.3992645
-0.399152
-0.399039
-0.39892545
-0.39881137
-0.39869675
-0.39858162
-0.39846596
-0.39834976
-0.39823303
-0.39811578
-0.397998
-0.3978797
-0.39776087
-0.3976415
-0.39752162
-0.39740118
-0.39728025
-0.39715877
-0.39703676
-0.39691424
-0.3967912
-0.3966676
-0.39654347
-0.39641884
-0.39629367
-0.39616796
-0.39604172
-0.39591497
-0.3957877
-0.3956599
-0.39553154
-0.39540267
-0.39527327
-0.39514336
-0.3950129
-0.39488193
-0.39475042
-0.39461836
-0.3944858
-0.3943527
-0.3942191
-0.39408493
-0.39395025
-0.39381507
-0.39367932
-0.39354306
-0.39340627
-0.39326894
-0.3931311
-0.39299273
-0.39285383
-0.3927144
-0.39257443
-0.39243394
-0.39229295
-0.3921514
-0.39200932
-0.3918667
-0.3917236
-0.39157993
-0.39143574
-0.39129105
-0.3911458
-0.39100003
-0.39085373
-0.39070693
-0.39055955
-0.39041167
-0.39026326
-0.39011434
-0.38996488
-0.38981488
-0.38966435
-0.3895133
-0.38936174
-0.38920963
-0.38905698
-0.38890383
-0.38875014
-0.3885959
-0.38844118
-0.3882859
-0.3881301
-0.38797376
-0.3878169
-0.38765952
-0.3875016
-0.38734317
-0.38718417
-0.3870247
-0.38686466
-0.38670412
-0.38654304
-0.38638142
-0.38621926
-0.3860566
-0.3858934
-0.38572967
-0.38556558
-0.38540184
-0.38523862
-0.3850758
-0.3849135
-0.38475165
-0.38459027
-0.38442934
-0.3842689
-0.38410893
-0.38394943
-0.38379037
-0.3836318
-0.3834737
-0.38331607
-0.3831589
-0.3830022
-0.38284597
-0.3826902
-0.3825349
-0.38238007
-0.38222572
-0.38207182
-0.3819184
-0.38176546
-0.38161296
-0.38146093
-0.3813094
-0.38115832
-0.3810077
-0.38085756
-0.3807079
-0.38055867
-0.38040993
-0.38026166
-0.38011384
-0.37996653
-0.37981966
-0.37967324
-0.37952733
-0.37938187
-0.37923688
-0.37909234
-0.37894827
-0.37880468
-0.37866157
-0.3785189
-0.37837672
-0.378235
-0.37809378
-0.377953
-0.37781268
-0.37767282
-0.37753347
-0.37739456
-0.37725613
-0.37711814
-0.37698063
-0.3768436
-0.37670705
-0.37657094
-0.3764353
-0.37630016
-0.37616545
-0.37603125
-0.37589747
-0.3757642
-0.37563136
-0.375499
-0.37536713
-0.37523574
-0.37510478
-0.3749743
-0.37484428
-0.37471473
-0.37458566
-0.37445706
-0.37432894
-0.37420127
-0.37407407
-0.37394732
-0.37382105
-0.37369525
-0.37356994
-0.3734451
-0.3733207
-0.37319678
-0.3730733
-0.37295032
-0.3728278
-0.37270576
-0.37258416
-0.37246308
-0.3723424
-0.37222224
-0.37210253
-0.3719833
-0.37186453
-0.3717462
-0.37162837
-0.371511
-0.37139413
-0.3712777
-0.37116173
-0.37104622
-0.3709312
-0.37081665
-0.37070256
-0.37058893
-0.37047577
-0.3703631
-0.37025088
-0.37013912
-0.37002784
-0.36991704
-0.36980668
-0.36969683
-0.36958742
-0.36947846
-0.36937
-0.369262
-0.36915445
-0.3690474
-0.3689408
-0.36883467
-0.368729
-0.36862382
-0.3685191
-0.36841482
-0.36831105
-0.36820772
-0.36810488
-0.3680025
-0.36790058
-0.36779913
-0.36769816
-0.36759764
-0.3674976
-0.36739802
-0.36729893
-0.3672003
-0.36710212
-0.3670044
-0.36690718
-0.3668104
-0.36671412
-0.36661828
-0.36652294
-0.36642805
-0.3663336
-0.36623967
-0.36614618
-0.36605316
-0.3659606
-0.3658685
-0.3657769
-0.36568576
-0.36559507
-0.36550486
-0.36541513
-0.36532587
-0.36523706
-0.36514872
-0.36506087
-0.36497346
-0.36488652
-0.36480007
-0.36471406
-0.36462852
-0.36454347
-0.3644589
-0.36437476
-0.3642911
-0.36420792
-0.36412522
-0.36404297
-0.3639612
-0.36387986
-0.36379904
-0.36371866
-0.36363873
-0.3635593
-0.36348033
-0.36340183
-0.3633238
-0.36324623
-0.36316913
-0.3630925
-0.36301634
-0.36294064
-0.36286542
-0.36279067
-0.36271638
-0.36264256
-0.3625692
-0.36249632
-0.3624239
-0.36235195
-0.3622805
-0.36220947
-0.36213893
-0.36206886
-0.36199924
-0.3619301
-0.36186144
-0.36179322
-0.3617255
-0.36165825
-0.36159143
-0.36152512
-0.36145926
-0.36139387
-0.36132893
-0.36126447
-0.36120048
-0.36113697
-0.3610739
-0.36101133
-0.36094922
-0.3608876
-0.3608264
-0.3607657
-0.36070547
-0.36064568
-0.36058637
-0.36052755
-0.36046916
-0.36041126
-0.36035383
-0.36029688
-0.36024037
-0.36018434
-0.3601288
-0.36007372
-0.3600191
-0.35996494
-0.35991123
-0.35985804
-0.3598053
-0.35975298
-0.3597012
-0.35964984
-0.35959896
-0.35954857
-0.35949862
-0.35944915
-0.35940015
-0.3593516
-0.35930353
-0.35925594
-0.35920882
-0.35916215
-0.35911596
-0.35907024
-0.35902497
-0.35898018
-0.35893586
-0.35889202
-0.35884863
-0.35880572
-0.35876325
-0.3587213
-0.35867977
-0.35863873
-0.35859814
-0.35855806
-0.35851842
-0.35847923
-0.35844055
-0.3584023
-0.35836455
-0.35832724
-0.3582904
-0.35825405
-0.35821816
-0.35818273
-0.35814777
-0.3581133
-0.35807928
-0.35804573
-0.35801265
-0.35798
-0.3579479
-0.3579162
-0.357885
-0.35785425
-0.35782397
-0.35779417
-0.35776484
-0.35773596
-0.35770756
-0.35767964
-0.35765216
-0.3576252
-0.35759863
-0.3575726
-0.357547
-0.35752186
-0.35749722
-0.35747305
-0.35744932
-0.35742608
-0.35740328
-0.357381
-0.35735914
-0.35733774
-0.35731685
-0.3572964
-0.35727644
-0.35725692
-0.3572379
-0.35721934
-0.35720122
-0.3571836
-0.35716644
-0.35714975
-0.3571335
-0.35711774
-0.35710245
-0.35708764
-0.35707328
-0.35705942
-0.35704598
-0.35703304
-0.35702056
-0.35700855
-0.356997
-0.35698593
-0.35697532
-0.35696518
-0.35695553
-0.35694632
-0.3569376
-0.3569293
-0.35692152
-0.3569142
-0.35690734
-0.35690093
-0.356895
-0.35688955
-0.35688457
-0.35688004
-0.356876
-0.3568724
-0.3568693
-0.35686666
-0.35686448
-0.35686275
-0.35686153
-0.35686076
-0.35686043
-0.3568606
-0.35686123
-0.35686234
-0.35686392
-0.35686594
-0.35686845
-0.35687143
-0.35687485
-0.35687876
-0.35688314
-0.356888
-0.3568933
-0.35689908
-0.35690534
-0.35691205
-0.35691923
-0.3569269
-0.35693502
-0.3569436
-0.35695267
-0.3569622
-0.3569722
-0.35698265
-0.3569936
-0.357005
-0.35701686
-0.3570292
-0.357042
-0.35705528
-0.35706902
-0.35708323
-0.3570979
-0.35711306
-0.35712868
-0.35714474
-0.3571613
-0.35717833
-0.3571958
-0.35721377
-0.35723218
-0.35725108
-0.35727045
-0.35729027
-0.35731056
-0.35733134
-0.35735258
-0.35737428
-0.35739645
-0.35741907
-0.3574422
-0.35746577
-0.3574898
-0.35751432
-0.35753924
-0.35756436
-0.35758957
-0.3576149
-0.3576404
-0.357666
-0.3576917
-0.35771757
-0.35774353
-0.35776964
-0.35779586
-0.35782224
-0.3578487
-0.35787532
-0.35790205
-0.3579289
-0.3579559
-0.35798302
-0.35801026
-0.35803762
-0.3580651
-0.35809273
-0.35812047
-0.35814834
-0.35817632
-0.35820445
-0.35823268
-0.35826105
-0.35828957
-0.35831818
-0.35834694
-0.35837582
-0.35840482
-0.35843393
-0.3584632
-0.35849258
-0.3585221
-0.3585517
-0.35858145
-0.35861135
-0.35864136
-0.3586715
-0.35870177
-0.35873213
-0.35876265
-0.3587933
-0.35882407
-0.35885495
-0.35888597
-0.35891712
-0.35894838
-0.3589798
-0.3590113
-0.35904294
-0.3590747
-0.35910663
-0.35913864
-0.3591708
-0.35920307
-0.3592355
-0.359268
-0.35930067
-0.35933346
-0.35936636
-0.35939938
-0.35943255
-0.35946584
-0.35949925
-0.35953277
-0.35956645
-0.35960025
-0.35963416
-0.3596682
-0.35970235
-0.35973665
-0.35977107
-0.3598056
-0.3598403
-0.35987508
-0.35991
-0.35994506
-0.35998026
-0.36001554
-0.36005098
-0.36008653
-0.3601222
-0.360158
-0.36019394
-0.36023
-0.36026618
-0.36030248
-0.36033893
-0.3603755
-0.36041218
-0.360449
-0.36048594
-0.360523
-0.36056018
-0.36059752
-0.36063495
-0.36067253
-0.3607102
-0.36074805
-0.360786
-0.36082405
-0.36086226
-0.36090058
-0.36093903
-0.36097762
-0.3610163
-0.36105514
-0.36109412
-0.3611332
-0.3611724
-0.36121172
-0.36125118
-0.36129078
-0.36133048
-0.36137033
-0.3614103
-0.36145037
-0.36149058
-0.36153093
-0.3615714
-0.361612
-0.3616527
-0.36169356
-0.36173454
-0.36177564
-0.36181685
-0.3618582
-0.36189967
-0.36194128
-0.361983
-0.36202487
-0.36206684
-0.36210895
-0.36215118
-0.36219352
-0.36223602
-0.36227864
-0.36232138
-0.36236423
-0.3624072
-0.36245033
-0.36249357
-0.36253694
-0.36258042
-0.36262405
-0.3626678
-0.36271167
-0.36275566
-0.36279976
-0.36284402
-0.3628884
-0.3629329
-0.36297753
-0.36302227
-0.36306715
-0.36311215
-0.36315727
-0.36320254
-0.36324793
-0.36329344
-0.36333907
-0.3633848
-0.3634307
-0.36347672
-0.36352286
-0.3635691
-0.3636155
-0.36366203
-0.36370867
-0.36375543
-0.36380234
-0.36384934
-0.3638965
-0.3639438
-0.36399117
-0.3640387
-0.36408633
-0.36413413
-0.36418203
-0.36423004
-0.3642782
-0.36432648
-0.36437488
-0.36442342
-0.3644721
-0.36452085
-0.36456978
-0.3646188
-0.36466798
-0.36471725
-0.36476666
-0.36481622
-0.36486587
-0.36491567
-0.3649656
-0.36501563
-0.3650658
-0.3651161
-0.36516652
-0.36521706
-0.36526775
-0.36531854
-0.36536947
-0.36542052
-0.3654717
-0.365523
-0.36557442
-0.36562598
-0.36567765
-0.36572948
-0.3657814
-0.36583346
-0.36588565
-0.36593798
-0.3659904
-0.36604297
-0.36609566
-0.36614847
-0.3662014
-0.36625448
-0.36630768
-0.366361
-0.36641446
-0.366468
-0.36652172
-0.36657554
-0.36662948
-0.36668357
-0.36673775
-0.36679208
-0.36684653
-0.36690113
-0.36695585
-0.36701065
-0.3670656
-0.3671207
-0.3671759
-0.36723125
-0.3672867
-0.3673423
-0.36739802
-0.36745384
-0.3675098
-0.3675659
-0.36762214
-0.36767846
-0.36773494
-0.36779153
-0.36784828
-0.3679051
-0.3679621
-0.3680192
-0.3680764
-0.36813375
-0.36819124
-0.36824885
-0.36830658
-0.36836442
-0.36842242
-0.36848053
-0.36853877
-0.36859712
-0.3686556
-0.3687142
-0.36877295
-0.3688318
-0.3688908
-0.36894992
-0.36900917
-0.36906853
-0.36912802
-0.36918765
-0.36924738
-0.36930725
-0.36936727
-0.36942738
-0.36948764
-0.36954802
-0.36960852
-0.36966914
-0.3697299
-0.36979076
-0.36985177
-0.36991292
-0.36997417
-0.37003556
-0.37009707
-0.3701587
-0.37022045
-0.37028235
-0.37034437
-0.3704065
-0.37046877
-0.37053117
-0.37059367
-0.3706563
-0.3707191
-0.370782
-0.37084502
-0.37090817
-0.37097144
-0.37103483
-0.37109837
-0.371162
-0.37122577
-0.3712897
-0.37135372
-0.37141788
-0.37148216
-0.37154657
-0.3716111
-0.37167576
-0.37174055
-0.37180546
-0.3718705
-0.37193567
-0.37200096
-0.37206638
-0.3721319
-0.37219757
-0.37226337
-0.3723293
-0.37239534
-0.3724615
-0.3725278
-0.37259424
-0.3726608
-0.37272745
-0.37279427
-0.37286118
-0.37292823
-0.3729954
-0.37306273
-0.37313017
-0.3731977
-0.37326542
-0.37333322
-0.37340114
-0.3734692
-0.3735374
-0.3736057
-0.37367415
-0.37374273
-0.37381142
-0.37388024
-0.37394917
-0.37401825
-0.37408742
-0.37415677
-0.3742262
-0.37429577
-0.37436548
-0.3744353
-0.37450525
-0.37457535
-0.37464553
-0.37471586
-0.37478632
-0.37485692
-0.3749276
-0.37499845
-0.3750694
-0.3751405
-0.37521172
-0.37528306
-0.3753545
-0.3754261
-0.37549782
-0.37556967
-0.3756416
-0.37571374
-0.37578595
-0.37585828
-0.37593076
-0.37600335
-0.37607607
-0.37614894
-0.3762219
-0.376295
-0.37636822
-0.3764416
-0.37651506
-0.37658867
-0.3766624
-0.37673628
-0.37681025
-0.37688437
-0.3769586
-0.37703297
-0.37710744
-0.37718207
-0.3772568
-0.37733167
-0.37740666
-0.3774818
-0.377557
-0.37763238
-0.3777079
-0.3777835
-0.37785926
-0.37793514
-0.37801108
-0.37808713
-0.37816328
-0.37823948
-0.3783158
-0.3783922
-0.37846866
-0.37854525
-0.3786219
-0.37869865
-0.37877545
-0.37885237
-0.37892938
-0.37900648
-0.37908363
-0.37916088
-0.37923825
-0.37931567
-0.3793932
-0.3794708
-0.3795485
-0.37962627
-0.37970415
-0.37978208
-0.37986013
-0.37993824
-0.38001648
-0.38009477
-0.38017315
-0.38025162
-0.38033018
-0.38040882
-0.38048756
-0.3805664
-0.3806453
-0.38072428
-0.38080338
-0.38088253
-0.38096178
-0.3810411
-0.38112053
-0.38120005
-0.38127965
-0.38135934
-0.38143912
-0.38151896
-0.38159892
-0.38167894
-0.38175908
-0.38183928
-0.38191956
-0.38199994
-0.3820804
-0.38216096
-0.3822416
-0.3823223
-0.38240314
-0.38248405
-0.38256502
-0.38264608
-0.38272724
-0.3828085
-0.38288984
-0.38297126
-0.38305274
-0.38313434
-0.38321602
-0.38329777
-0.38337964
-0.38346156
-0.38354358
-0.38362572
-0.3837079
-0.3837902
-0.38387257
-0.383955
-0.38403755
-0.3841202
-0.3842029
-0.38428572
-0.3843686
-0.38445157
-0.38453463
-0.38461778
-0.384701
-0.38478434
-0.38486776
-0.38495126
-0.38503483
-0.3851185
-0.38520226
-0.38528612
-0.38537005
-0.38545406
-0.38553816
-0.38562235
-0.38570663
-0.385791
-0.38587543
-0.38595998
-0.3860446
-0.38612932
-0.3862141
-0.38629898
-0.38638395
-0.386469
-0.38655415
-0.3866394
-0.3867247
-0.3868101
-0.3868956
-0.38698116
-0.38706684
-0.38715258
-0.3872384
-0.38732433
-0.38741034
-0.38749644
-0.38758263
-0.38766888
-0.38775524
-0.3878417
-0.38792822
-0.38801482
-0.38810152
-0.38818833
-0.3882752
-0.38836217
-0.3884492
-0.38853633
-0.38862357
-0.38871086
-0.38879827
-0.38888574
-0.38897333
-0.38906097
-0.3891487
-0.38923654
-0.38932446
-0.38941246
-0.38950053
-0.3895887
-0.389677
-0.38976532
-0.38985375
-0.3899423
-0.3900309
-0.39011958
-0.39020836
-0.39029723
-0.3903862
-0.3904752
-0.39056435
-0.39065355
-0.39074287
-0.39083225
-0.3909217
-0.3910113
-0.39110094
-0.39119068
-0.39128047
-0.3913704
-0.3914604
-0.39155048
-0.39164063
-0.39173087
-0.39182124
-0.39191166
-0.39200217
-0.39209276
-0.39218345
-0.39227423
-0.3923651
-0.39245602
-0.39254707
-0.39263818
-0.3927294
-0.3928207
-0.39291206
-0.39300352
-0.39309508
-0.39318672
-0.39327845
-0.39337027
-0.39346215
-0.39355415
-0.3936462
-0.39373836
-0.39383063
-0.39392295
-0.39401537
-0.39410788
-0.39420047
-0.39429316
-0.3943859
-0.39447877
-0.3945717
-0.39466473
-0.39475784
-0.39485103
-0.3949443
-0.39503768
-0.39513114
-0.3952247
-0.39531833
-0.39541206
-0.39550585
-0.39559975
-0.39569372
-0.39578778
-0.39588192
-0.3959762
-0.3960705
-0.3961649
-0.3962594
-0.396354
-0.39644867
-0.3965434
-0.39663827
-0.3967332
-0.3968282
-0.3969233
-0.3970185
-0.39711377
-0.39720914
-0.3973046
-0.39740014
-0.39749575
-0.39759147
-0.39768726
-0.39778316
-0.39787912
-0.39797518
-0.39807132
-0.39816755
-0.39826387
-0.39836028
-0.39845675
-0.39855334
-0.39865
-0.39874676
-0.3988436
-0.3989405
-0.3990375
-0.3991346
-0.3992318
-0.39932907
-0.39942643
-0.39952385
-0.3996214
-0.399719
-0.39981672
-0.3999145
-0.40001237
-0.40011033
-0.40020838
-0.40030652
-0.40040475
-0.40050307
-0.40060145
-0.40069994
-0.4007985
-0.40089718
-0.4009959
-0.40109473
-0.40119365
-0.40129265
-0.40139174
-0.40149093
-0.40159017
-0.40168953
-0.40178895
-0.4018885
-0.4019881
-0.40208778
-0.40218756
-0.40228742
-0.40238738
-0.40248743
-0.40258756
-0.4026878
-0.40278807
-0.40288848
-0.40298894
-0.4030895
-0.40319014
-0.40329087
-0.4033917
-0.4034926
-0.4035936
-0.4036947
-0.40379587
-0.4038971
-0.40399843
-0.40409988
-0.4042014
-0.40430298
-0.40440467
-0.40450644
-0.4046083
-0.40471026
-0.4048123
-0.4049144
-0.40501663
-0.4051189
-0.40522128
-0.40532377
-0.40542632
-0.40552896
-0.4056317
-0.4057345
-0.4058374
-0.40594038
-0.40604344
-0.40614662
-0.40624985
-0.4063532
-0.40645662
-0.40656012
-0.40666372
-0.4067674
-0.40687117
-0.406975
-0.40707895
-0.407183
-0.4072871
-0.40739128
-0.4074956
-0.40759996
-0.4077044
-0.40780896
-0.4079136
-0.4080183
-0.4081231
-0.408228
-0.40833297
-0.40843806
-0.4085432
-0.40864843
-0.40875375
-0.40885916
-0.40896466
-0.40907025
-0.40917593
-0.4092817
-0.40938753
-0.40949348
-0.40959948
-0.40970558
-0.4098118
-0.40991807
-0.41002443
-0.4101309
-0.4102374
-0.41034403
-0.41045076
-0.41055754
-0.41066444
-0.4107714
-0.41087845
-0.41098562
-0.41109285
-0.41120017
-0.41130757
-0.41141504
-0.41152263
-0.4116303
-0.41173804
-0.4118459
-0.4119538
-0.4120618
-0.4121699
-0.4122781
-0.41238636
-0.41249472
-0.41260317
-0.4127117
-0.4128203
-0.41292903
-0.4130378
-0.41314667
-0.41325566
-0.4133647
-0.41347384
-0.41358307
-0.41369236
-0.41380176
-0.41391125
-0.4140208
-0.41413048
-0.4142402
-0.41435003
-0.41445997
-0.41456997
-0.41468006
-0.41479024
-0.41490048
-0.41501084
-0.4151213
-0.4152318
-0.41534242
-0.4154531
-0.41556388
-0.41567475
-0.41578546
-0.41589606
-0.4160065
-0.41611683
-0.416227
-0.41633704
-0.41644692
-0.41655666
-0.41666627
-0.41677573
-0.41688505
-0.41699424
-0.4171033
-0.4172122
-0.41732094
-0.41742957
-0.41753805
-0.41764638
-0.4177546
-0.41786262
-0.41797054
-0.41807833
-0.41818595
-0.41829345
-0.4184008
-0.418508
-0.41861507
-0.418722
-0.4188288
-0.41893542
-0.41904193
-0.4191483
-0.4192545
-0.4193606
-0.41946653
-0.41957232
-0.419678
-0.4197835
-0.41988888
-0.41999412
-0.4200992
-0.42020416
-0.42030898
-0.42041364
-0.42051816
-0.42062256
-0.4207268
-0.4208309
-0.4209349
-0.4210387
-0.42114237
-0.42124593
-0.42134932
-0.42145258
-0.4215557
-0.42165866
-0.4217615
-0.4218642
-0.42196676
-0.42206916
-0.42217144
-0.42227358
-0.42237556
-0.42247742
-0.4225791
-0.42268068
-0.42278212
-0.4228834
-0.42298454
-0.42308554
-0.4231864
-0.42328712
-0.4233877
-0.42348814
-0.42358842
-0.4236886
-0.4237886
-0.42388847
-0.42398822
-0.4240878
-0.42418724
-0.42428657
-0.42438573
-0.42448476
-0.42458364
-0.4246824
-0.424781
-0.42487946
-0.42497778
-0.42507598
-0.425174
-0.4252719
-0.42536965
-0.42546728
-0.42556477
-0.4256621
-0.4257593
-0.42585635
-0.42595324
-0.42605
-0.42614666
-0.42624313
-0.42633948
-0.42643568
-0.42653176
-0.4266277
-0.42672348
-0.42681912
-0.4269146
-0.42700997
-0.4271052
-0.42720026
-0.4272952
-0.42739
-0.42748466
-0.42757916
-0.42767355
-0.42776778
-0.42786187
-0.4279558
-0.42804962
-0.4281433
-0.4282368
-0.4283302
-0.42842343
-0.42851654
-0.42860952
-0.42870232
-0.428795
-0.42888755
-0.42897996
-0.4290722
-0.42916432
-0.4292563
-0.42934814
-0.4294398
-0.42953137
-0.4296228
-0.42971405
-0.4298052
-0.42989618
-0.429987
-0.43007773
-0.4301683
-0.43025872
-0.430349
-0.43043914
-0.43052915
-0.430619
-0.4307087
-0.4307983
-0.43088773
-0.43097702
-0.4310662
-0.43115517
-0.43124405
-0.4313328
-0.43142137
-0.43150982
-0.43159813
-0.4316863
-0.43177432
-0.4318622
-0.43194994
-0.43203756
-0.43212503
-0.43221232
-0.43229952
-0.43238655
-0.43247345
-0.4325602
-0.4326468
-0.4327333
-0.43281963
-0.43290582
-0.43299186
-0.43307778
-0.43316355
-0.43324918
-0.43333465
-0.43342
-0.4335052
-0.43359026
-0.4336752
-0.43376
-0.43384463
-0.43392912
-0.4340135
-0.4340977
-0.43418178
-0.4342657
-0.4343495
-0.43443316
-0.43451667
-0.43460003
-0.43468326
-0.43476635
-0.4348493
-0.4349321
-0.43501478
-0.4350973
-0.43517968
-0.43526193
-0.435344
-0.43542597
-0.4355078
-0.4355895
-0.435671
-0.43575242
-0.43583366
-0.43591478
-0.43599576
-0.43607658
-0.4361573
-0.4362378
-0.43631822
-0.4363985
-0.4364786
-0.4365586
-0.43663844
-0.43671817
-0.4367977
-0.43687713
-0.43695644
-0.43703556
-0.43711457
-0.43719342
-0.43727213
-0.43735072
-0.43742913
-0.43750742
-0.4375856
-0.43766358
-0.43774146
-0.43781918
-0.4378968
-0.4379742
-0.43805152
-0.4381287
-0.43820572
-0.4382826
-0.43835935
-0.43843594
-0.4385124
-0.4385887
-0.4386649
-0.43874094
-0.43881682
-0.43889257
-0.43896818
-0.43904367
-0.439119
-0.43919417
-0.43926924
-0.43934414
-0.4394189
-0.43949354
-0.439568
-0.43964237
-0.43971658
-0.43979064
-0.43986455
-0.43993834
-0.44001195
-0.44008547
-0.4401588
-0.44023204
-0.4403051
-0.44037804
-0.44045082
-0.44052348
-0.44059598
-0.44066834
-0.4407406
-0.44081268
-0.44088462
-0.4409564
-0.4410281
-0.4410996
-0.441171
-0.44124222
-0.44131333
-0.4413843
-0.4414551
-0.4415258
-0.4415963
-0.4416667
-0.44173697
-0.44180706
-0.44187704
-0.44194686
-0.44201654
-0.4420861
-0.4421555
-0.44222477
-0.4422939
-0.44236287
-0.44243172
-0.4425004
-0.442569
-0.4426374
-0.4427057
-0.44277382
-0.44284183
-0.44290966
-0.4429774
-0.44304496
-0.4431124
-0.44317967
-0.44324684
-0.44331384
-0.4433807
-0.44344744
-0.44351402
-0.44358045
-0.44364676
-0.44371292
-0.44377893
-0.44384483
-0.44391057
-0.44397616
-0.4440416
-0.44410694
-0.4441721
-0.44423714
-0.44430202
-0.44436678
-0.4444314
-0.44449586
-0.4445602
-0.4446244
-0.44468844
-0.44475234
-0.4448161
-0.4448797
-0.44494322
-0.44500655
-0.44506976
-0.4451328
-0.44519573
-0.4452585
-0.44532114
-0.44538364
-0.44544598
-0.44550818
-0.44557026
-0.4456322
-0.445694
-0.44575563
-0.44581714
-0.4458785
-0.44593975
-0.4460008
-0.44606176
-0.44612256
-0.44618323
-0.44624373
-0.4463041
-0.44636437
-0.44642445
-0.44648442
-0.44654423
-0.4466039
-0.44666344
-0.44672284
-0.44678208
-0.44684118
-0.44690016
-0.446959
-0.44701767
-0.4470762
-0.4471346
-0.44719288
-0.447251
-0.447309
-0.44736683
-0.44742453
-0.44748208
-0.4475395
-0.44759676
-0.44765392
-0.4477109
-0.44776776
-0.44782448
-0.44788104
-0.44793746
-0.44799376
-0.4480499
-0.4481059
-0.44816178
-0.4482175
-0.4482731
-0.44832852
-0.4483838
-0.44843897
-0.448494
-0.44854888
-0.44860363
-0.4486582
-0.44871268
-0.44876698
-0.44882116
-0.4488752
-0.44892904
-0.44898254
-0.44903558
-0.4490882
-0.44914037
-0.44919214
-0.44924346
-0.44929436
-0.4493448
-0.44939485
-0.44944447
-0.44949365
-0.44954237
-0.4495907
-0.44963858
-0.44968605
-0.44973308
-0.44977966
-0.44982582
-0.44987157
-0.44991687
-0.44996172
-0.4500062
-0.45005018
-0.45009378
-0.45013693
-0.45017964
-0.45022193
-0.4502638
-0.45030522
-0.45034623
-0.4503868
-0.45042694
-0.45046666
-0.45050594
-0.45054477
-0.45058322
-0.4506212
-0.45065877
-0.45069587
-0.4507326
-0.45076886
-0.45080468
-0.45084012
-0.45087507
-0.4509096
-0.45094374
-0.45097744
-0.4510107
-0.45104352
-0.4510759
-0.4511079
-0.45113942
-0.45117053
-0.4512012
-0.45123145
-0.45126125
-0.45129064
-0.4513196
-0.45134813
-0.45137623
-0.4514039
-0.45143113
-0.45145792
-0.4514843
-0.45151025
-0.45153576
-0.45156085
-0.4515855
-0.45160973
-0.4516335
-0.45165688
-0.4516798
-0.4517023
-0.45172438
-0.45174602
-0.45176724
-0.451788
-0.45180836
-0.45182827
-0.45184776
-0.45186684
-0.45188546
-0.45190367
-0.45192143
-0.45193878
-0.45195568
-0.45197216
-0.45198822
-0.45200384
-0.452019
-0.4520338
-0.4520481
-0.452062
-0.45207545
-0.4520885
-0.4521011
-0.4521133
-0.45212504
-0.45213634
-0.45214725
-0.4521577
-0.45216772
-0.45217732
-0.45218647
-0.4521952
-0.4522035
-0.45221138
-0.45221883
-0.45222586
-0.45223242
-0.4522386
-0.4522443
-0.45224962
-0.45225447
-0.45225888
-0.4522629
-0.45226648
-0.4522696
-0.45227233
-0.45227462
-0.45227647
-0.45227787
-0.45227888
-0.45227945
-0.45227957
-0.45227927
-0.45227852
-0.45227736
-0.45227578
-0.45227376
-0.4522713
-0.45226842
-0.4522651
-0.4522614
-0.45225722
-0.4522526
-0.45224756
-0.4522421
-0.4522362
-0.4522299
-0.45222315
-0.45221597
-0.45220834
-0.4522003
-0.45219183
-0.45218292
-0.4521736
-0.45216382
-0.45215362
-0.452143
-0.45213196
-0.45212045
-0.45210856
-0.4520962
-0.45208344
-0.45207024
-0.4520566
-0.45204252
-0.45202804
-0.4520131
-0.45199773
-0.45198196
-0.45196572
-0.4519491
-0.451932
-0.4519145
-0.45189655
-0.4518782
-0.45185938
-0.45184016
-0.4518205
-0.4518004
-0.4517799
-0.45175895
-0.45173755
-0.45171574
-0.4516935
-0.45167083
-0.45164773
-0.4516242
-0.45160025
-0.45157585
-0.45155102
-0.45152578
-0.4515001
-0.45147398
-0.45144743
-0.45142046
-0.45139307
-0.45136523
-0.45133695
-0.45130828
-0.45127913
-0.4512496
-0.45121962
-0.4511892
-0.45115834
-0.45112708
-0.45109537
-0.45106322
-0.45103067
-0.45099768
-0.45096424
-0.4509304
-0.45089608
-0.45086136
-0.45082623
-0.45079064
-0.45075464
-0.4507182
-0.45068133
-0.45064405
-0.45060632
-0.45056814
-0.45052958
-0.45049053
-0.4504511
-0.4504112
-0.4503709
-0.45033017
-0.45028898
-0.4502474
-0.45020536
-0.4501629
-0.45012
-0.4500767
-0.45003295
-0.44998875
-0.44994414
-0.4498991
-0.44985363
-0.44980773
-0.4497614
-0.44971463
-0.44966742
-0.4496198
-0.44957176
-0.44952327
-0.44947436
-0.449425
-0.44937524
-0.44932503
-0.4492744
-0.44922334
-0.44917184
-0.4491199
-0.44906756
-0.44901475
-0.44896156
-0.4489079
-0.44885382
-0.4487993
-0.4487444
-0.448689
-0.44863322
-0.448577
-0.44852033
-0.44846323
-0.4484057
-0.44834778
-0.4482894
-0.4482306
-0.44817135
-0.44811168
-0.44805157
-0.44799104
-0.44793007
-0.4478687
-0.44780686
-0.4477446
-0.44768193
-0.4476188
-0.44755527
-0.44749132
-0.44742692
-0.44736207
-0.4472968
-0.4472311
-0.44716498
-0.44709843
-0.44703147
-0.44696406
-0.4468962
-0.44682792
-0.44675922
-0.44669008
-0.44662052
-0.44655052
-0.4464801
-0.44640926
-0.44633797
-0.44626623
-0.4461941
-0.4461215
-0.44604853
-0.44597507
-0.44590122
-0.44582692
-0.44575217
-0.44567704
-0.44560143
-0.4455254
-0.44544896
-0.4453721
-0.4452948
-0.44521704
-0.44513887
-0.44506028
-0.44498125
-0.4449018
-0.4448219
-0.44474158
-0.4446608
-0.44457963
-0.44449803
-0.444416
-0.44433352
-0.4442506
-0.4441673
-0.4440835
-0.44399932
-0.4439147
-0.44382966
-0.44374418
-0.44365826
-0.44357193
-0.44348514
-0.44339794
-0.4433103
-0.44322222
-0.44313374
-0.4430448
-0.44295546
-0.44286567
-0.44277546
-0.44268483
-0.44259375
-0.44250223
-0.4424103
-0.44231793
-0.44222513
-0.4421319
-0.44203824
-0.44194415
-0.44184965
-0.4417547
-0.44165933
-0.44156352
-0.4414673
-0.4413706
-0.4412735
-0.44117597
-0.441078
-0.44097963
-0.4408808
-0.44078156
-0.44068187
-0.44058177
-0.44048122
-0.44038025
-0.44027886
-0.44017702
-0.44007477
-0.43997207
-0.43986896
-0.4397654
-0.4396614
-0.439557
-0.43945214
-0.43934688
-0.43924117
-0.43913504
-0.43902847
-0.43892148
-0.43881407
-0.43870622
-0.43859792
-0.4384892
-0.43838006
-0.43827048
-0.43816048
-0.43805003
-0.43793917
-0.4378279
-0.43771616
-0.437604
-0.43749142
-0.4373784
-0.43726495
-0.43715107
-0.43703675
-0.436922
-0.43680686
-0.43669125
-0.43657523
-0.43645877
-0.43634188
-0.43622455
-0.4361068
-0.43598863
-0.43587002
-0.435751
-0.4356315
-0.43551165
-0.4353918
-0.43527213
-0.43515253
-0.43503308
-0.43491372
-0.43479452
-0.43467543
-0.43455645
-0.4344376
-0.43431887
-0.43420026
-0.4340818
-0.43396342
-0.4338452
-0.43372706
-0.43360907
-0.4334912
-0.43337345
-0.43325582
-0.4331383
-0.43302092
-0.43290368
-0.43278652
-0.43266952
-0.4325526
-0.43243584
-0.4323192
-0.43220267
-0.43208626
-0.43196997
-0.43185383
-0.43173778
-0.43162188
-0.43150607
-0.4313904
-0.43127486
-0.43115944
-0.43104413
-0.43092895
-0.43081388
-0.43069893
-0.43058413
-0.43046942
-0.43035486
-0.43024042
-0.43012607
-0.43001187
-0.4298978
-0.42978385
-0.42967
-0.42955628
-0.4294427
-0.42932922
-0.42921588
-0.42910266
-0.42898953
-0.42887655
-0.4287637
-0.42865098
-0.42853835
-0.42842585
-0.4283135
-0.42820123
-0.4280891
-0.42797711
-0.42786524
-0.42775348
-0.42764184
-0.42753032
-0.42741892
-0.42730767
-0.4271965
-0.4270855
-0.42697456
-0.4268638
-0.42675313
-0.4266426
-0.42653218
-0.4264219
-0.42631173
-0.42620167
-0.42609176
-0.42598194
-0.42587227
-0.4257627
-0.42565328
-0.42554396
-0.42543477
-0.4253257
-0.42521676
-0.42510793
-0.42499924
-0.42489064
-0.4247822
-0.42467386
-0.42456564
-0.42445755
-0.42434958
-0.42424175
-0.42413402
-0.4240264
-0.42391893
-0.42381158
-0.42370433
-0.42359722
-0.42349023
-0.42338336
-0.42327663
-0.42317
-0.4230635
-0.42295712
-0.42285085
-0.42274472
-0.4226387
-0.42253283
-0.42242706
-0.4223214
-0.42221588
-0.4221105
-0.4220052
-0.42190006
-0.421795
-0.4216901
-0.42158532
-0.42148066
-0.4213761
-0.42127168
-0.42116737
-0.42106318
-0.42095914
-0.42085522
-0.4207514
-0.4206477
-0.42054415
-0.4204407
-0.42033738
-0.42023417
-0.4201311
-0.42002815
-0.4199253
-0.4198226
-0.41972
-0.41961753
-0.4195152
-0.41941297
-0.41931087
-0.41920888
-0.41910705
-0.4190053
-0.4189037
-0.4188022
-0.41870084
-0.4185996
-0.4184985
-0.4183975
-0.4182966
-0.41819584
-0.4180952
-0.4179947
-0.4178943
-0.41779405
-0.4176939
-0.4175939
-0.41749397
-0.41739422
-0.41729456
-0.41719502
-0.4170956
-0.41699633
-0.41689715
-0.4167981
-0.4166992
-0.4166004
-0.41650173
-0.41640317
-0.41630474
-0.41620642
-0.41610822
-0.41601017
-0.41591224
-0.4158144
-0.4157167
-0.41561913
-0.41552168
-0.41542435
-0.41532713
-0.41523007
-0.4151331
-0.41503623
-0.41493952
-0.41484293
-0.41474646
-0.41465008
-0.41455388
-0.41445777
-0.41436177
-0.4142659
-0.41417018
-0.41407454
-0.41397905
-0.4138837
-0.4137884
-0.41369328
-0.41359827
-0.4135034
-0.41340864
-0.41331398
-0.41321948
-0.41312507
-0.4130308
-0.41293666
-0.4128426
-0.4127487
-0.41265494
-0.41256127
-0.41246772
-0.4123743
-0.412281
-0.4121878
-0.41209477
-0.41200185
-0.41190904
-0.41181636
-0.4117238
-0.41163135
-0.41153902
-0.41144684
-0.41135475
-0.4112628
-0.411171
-0.4110793
-0.41098768
-0.4108962
-0.4108049
-0.41071367
-0.41062257
-0.4105316
-0.41044074
-0.41035002
-0.41025943
-0.41016892
-0.41007856
-0.4099883
-0.4098982
-0.40980822
-0.40971833
-0.4096286
-0.40953895
-0.40944946
-0.40936008
-0.4092708
-0.40918165
-0.40909266
-0.40900376
-0.40891498
-0.40882632
-0.4087378
-0.40864938
-0.4085611
-0.40847296
-0.40838492
-0.408297
-0.4082092
-0.40812153
-0.40803397
-0.40794656
-0.40785924
-0.40777206
-0.407685
-0.40759808
-0.40751123
-0.40742454
-0.407338
-0.40725154
-0.4071652
-0.407079
-0.4069929
-0.40690696
-0.40682113
-0.4067354
-0.4066498
-0.40656433
-0.406479
-0.40639377
-0.40630865
-0.40622368
-0.4061388
-0.40605408
-0.40596947
-0.40588498
-0.40580058
-0.40571636
-0.40563223
-0.40554821
-0.40546432
-0.40538058
-0.40529692
-0.40521342
-0.40513003
-0.40504676
-0.4049636
-0.40488058
-0.40479767
-0.4047149
-0.40463224
-0.4045497
-0.40446728
-0.404385
-0.40430284
-0.4042208
-0.40413886
-0.40405706
-0.40397537
-0.4038938
-0.40381238
-0.40373105
-0.40364987
-0.4035688
-0.40348783
-0.403407
-0.40332633
-0.40324575
-0.40316528
-0.40308493
-0.40300474
-0.40292463
-0.40284467
-0.40276483
-0.4026851
-0.4026055
-0.40252602
-0.40244666
-0.4023674
-0.40228832
-0.4022093
-0.40213045
-0.4020517
-0.40197307
-0.40189457
-0.4018162
-0.40173793
-0.4016598
-0.4015818
-0.4015039
-0.40142614
-0.40134847
-0.40127096
-0.40119356
-0.40111628
-0.40103912
-0.40096208
-0.40088516
-0.40080836
-0.4007317
-0.40065515
-0.40057874
-0.40050244
-0.40042627
-0.4003502
-0.40027428
-0.40019846
-0.40012276
-0.40004718
-0.39997175
-0.39989644
-0.39982122
-0.39974615
-0.3996712
-0.39959636
-0.39952165
-0.39944705
-0.39937258
-0.39929825
-0.399224
-0.39914992
-0.39907596
-0.39900208
-0.39892834
-0.39885473
-0.39878124
-0.3987079
-0.39863464
-0.3985615
-0.39848852
-0.39841563
-0.39834288
-0.39827025
-0.39819774
-0.39812535
-0.39805308
-0.39798093
-0.39790893
-0.397837
-0.39776525
-0.39769357
-0.39762205
-0.39755064
-0.39747936
-0.3974082
-0.39733714
-0.3972662
-0.39719543
-0.39712474
-0.39705423
-0.39698404
-0.39691427
-0.39684492
-0.396776
-0.39670748
-0.39663938
-0.3965717
-0.3965044
-0.39643756
-0.3963711
-0.39630505
-0.39623946
-0.39617425
-0.39610946
-0.3960451
-0.39598113
-0.39591756
-0.39585444
-0.39579174
-0.39572942
-0.39566752
-0.39560607
-0.395545
-0.39548436
-0.39542413
-0.3953643
-0.39530492
-0.3952459
-0.39518735
-0.3951292
-0.39507145
-0.3950141
-0.39495718
-0.3949007
-0.39484462
-0.39478895
-0.39473367
-0.39467883
-0.3946244
-0.39457038
-0.3945168
-0.3944636
-0.39441082
-0.3943585
-0.39430654
-0.394255
-0.39420387
-0.39415318
-0.3941029
-0.39405304
-0.39400357
-0.39395452
-0.3939059
-0.3938577
-0.39380988
-0.3937625
-0.39371553
-0.39366898
-0.39362285
-0.3935771
-0.3935318
-0.3934869
-0.39344242
-0.39339834
-0.39335468
-0.39331144
-0.39326862
-0.3932262
-0.3931842
-0.3931426
-0.39310145
-0.39306068
-0.39302036
-0.39298043
-0.3929409
-0.3929018
-0.39286312
-0.39282486
-0.392787
-0.39274958
-0.39271253
-0.39267594
-0.39263973
-0.39260396
-0.3925686
-0.39253363
-0.3924991
-0.39246497
-0.39243126
-0.39239797
-0.39236507
-0.3923326
-0.39230055
-0.39226893
-0.3922377
-0.39220688
-0.39217648
-0.3921465
-0.39211693
-0.3920878
-0.39205906
-0.39203072
-0.39200282
-0.3919753
-0.39194822
-0.39192158
-0.39189532
-0.3918695
-0.39184406
-0.39181906
-0.39179444
-0.39177027
-0.39174652
-0.39172316
-0.3917002
-0.3916777
-0.3916556
-0.3916339
-0.39161262
-0.39159176
-0.39157128
-0.39155126
-0.39153165
-0.39151242
-0.39149365
-0.39147526
-0.3914573
-0.39143974
-0.3914226
-0.39140588
-0.39138958
-0.3913737
-0.3913582
-0.39134315
-0.39132848
-0.39131427
-0.39130044
-0.39128703
-0.39127403
-0.39126146
-0.3912493
-0.39123756
-0.3912262
-0.3912153
-0.3912048
-0.3911947
-0.39118502
-0.39117575
-0.39116693
-0.3911585
-0.39115044
-0.39114285
-0.39113566
-0.3911289
-0.39112252
-0.3911166
-0.39111105
-0.39110592
-0.3911012
-0.39109692
-0.39109305
-0.3910896
-0.39108655
-0.39108393
-0.3910817
-0.3910799
-0.3910785
-0.39107752
-0.39107695
-0.3910768
-0.39107707
-0.39107776
-0.39107886
-0.39108038
-0.3910823
-0.39108464
-0.39108738
-0.39109057
-0.39109415
-0.39109814
-0.39110255
-0.39110738
-0.39111263
-0.3911183
-0.39112434
-0.39113083
-0.39113772
-0.39114505
-0.39115277
-0.3911609
-0.39116946
-0.39117843
-0.39118782
-0.39119762
-0.3912078
-0.39121845
-0.3912295
-0.39124095
-0.39125282
-0.3912651
-0.39127782
-0.39129093
-0.39130446
-0.39131838
-0.39133275
-0.39134753
-0.3913627
-0.3913783
-0.39139432
-0.39141074
-0.39142758
-0.39144486
-0.3914625
-0.3914806
-0.3914991
-0.39151803
-0.39153734
-0.3915571
-0.39157724
-0.39159784
-0.39161882
-0.39164022
-0.39166203
-0.39168426
-0.3917069
-0.39172995
-0.39175344
-0.3917773
-0.39180163
-0.39182633
-0.39185145
-0.39187703
-0.39190298
-0.39192936
-0.39195612
-0.39198333
-0.39201096
-0.39203897
-0.39206743
-0.39209628
-0.39212558
-0.39215526
-0.39218536
-0.39221588
-0.3922468
-0.39227816
-0.3923099
-0.3923421
-0.39237466
-0.3924077
-0.3924411
-0.39247492
-0.39250916
-0.39254382
-0.3925789
-0.3926144
-0.3926503
-0.39268664
-0.39272335
-0.39276052
-0.39279807
-0.39283603
-0.39287442
-0.39291325
-0.39295247
-0.39299208
-0.39303213
-0.3930726
-0.39311346
-0.39315477
-0.39319646
-0.3932386
-0.39328113
-0.39332408
-0.39336744
-0.39341122
-0.39345542
-0.39350003
-0.39354503
-0.39359048
-0.39363632
-0.39368257
-0.39372927
-0.39377636
-0.39382386
-0.39387178
-0.39392012
-0.39396888
-0.39401802
-0.39406762
-0.3941176
-0.39416802
-0.39421883
-0.39427006
-0.3943217
-0.39437377
-0.39442626
-0.39447916
-0.39453247
-0.39458618
-0.39464033
-0.39469486
-0.39474985
-0.39480522
-0.394861
-0.39491722
-0.39497384
-0.3950309
-0.39508834
-0.3951462
-0.39520448
-0.39526317
-0.3953223
-0.3953818
-0.39544174
-0.3955021
-0.39556286
-0.39562404
-0.39568564
-0.39574766
-0.39581007
-0.39587292
-0.39593616
-0.39599985
-0.39606392
-0.39612842
-0.39619333
-0.39625865
-0.3963244
-0.39639056
-0.3964571
-0.3965241
-0.39659148
-0.3966593
-0.39672753
-0.39679617
-0.39686522
-0.3969347
-0.39700457
-0.39707488
-0.39714557
-0.3972167
-0.39728823
-0.3973602
-0.39743257
-0.39750534
-0.39757857
-0.39765218
-0.39772618
-0.39780062
-0.3978755
-0.39795077
-0.39802644
-0.39810255
-0.39817905
-0.39825597
-0.3983333
-0.3984111
-0.39848924
-0.39856783
-0.39864683
-0.39872625
-0.39880607
-0.39888632
-0.39896697
-0.39904806
-0.39912954
-0.39921144
-0.39929375
-0.39937648
-0.39945963
-0.39954317
-0.39962715
-0.39971152
-0.39979634
-0.39988154
-0.39996716
-0.40005323
-0.4001397
-0.40022656
-0.40031382
-0.40040153
-0.40048966
-0.40057817
-0.40066713
-0.40075648
-0.40084627
-0.40093645
-0.40102705
-0.40111807
-0.4012095
-0.40130135
-0.4013936
-0.40148628
-0.40157935
-0.40167287
-0.40176678
-0.4018611
-0.40195587
-0.40205103
-0.4021466
-0.40224257
-0.40233898
-0.40243578
-0.4025326
-0.40262935
-0.40272602
-0.40282264
-0.4029192
-0.40301567
-0.40311208
-0.4032084
-0.4033047
-0.40340087
-0.403497
-0.40359306
-0.40368906
-0.403785
-0.40388083
-0.40397665
-0.40407234
-0.404168
-0.4042636
-0.4043591
-0.40445453
-0.4045499
-0.4046452
-0.40474042
-0.4048356
-0.4049307
-0.40502572
-0.40512067
-0.40521556
-0.4053104
-0.40540513
-0.40549982
-0.40559444
-0.40568897
-0.40578344
-0.40587786
-0.40597218
-0.40606645
-0.40616065
-0.4062548
-0.40634885
-0.40644285
-0.40653676
-0.4066306
-0.4067244
-0.40681812
-0.40691176
-0.40700534
-0.40709886
-0.4071923
-0.40728566
-0.40737894
-0.4074722
-0.40756536
-0.40765843
-0.40775147
-0.40784442
-0.40793732
-0.40803012
-0.40812287
-0.40821555
-0.40830818
-0.4084007
-0.4084932
-0.40858558
-0.4086779
-0.40877017
-0.40886238
-0.4089545
-0.40904656
-0.40913856
-0.40923047
-0.40932232
-0.4094141
-0.4095058
-0.40959746
-0.40968904
-0.40978053
-0.40987197
-0.40996334
-0.41005465
-0.41014588
-0.41023704
-0.41032812
-0.41041914
-0.4105101
-0.410601
-0.4106918
-0.41078255
-0.41087323
-0.41096383
-0.41105437
-0.41114485
-0.41123524
-0.41132557
-0.41141585
-0.41150603
-0.41159615
-0.4116862
-0.4117762
-0.41186613
-0.41195598
-0.41204575
-0.41213545
-0.4122251
-0.41231468
-0.41240418
-0.41249362
-0.412583
-0.41267228
-0.4127615
-0.41285068
-0.41293976
-0.41302878
-0.41311774
-0.4132066
-0.41329542
-0.41338417
-0.41347283
-0.41356143
-0.41364998
-0.41373846
-0.41382685
-0.4139152
-0.41400343
-0.41409165
-0.41417977
-0.4142678
-0.41435578
-0.4144437
-0.41453156
-0.41461933
-0.41470703
-0.41479468
-0.41488224
-0.41496977
-0.41505718
-0.41514456
-0.41523185
-0.4153191
-0.41540623
-0.4154933
-0.41558033
-0.4156673
-0.41575417
-0.41584098
-0.4159277
-0.4160144
-0.416101
-0.41618752
-0.416274
-0.4163604
-0.41644672
-0.416533
-0.41661918
-0.41670528
-0.41679135
-0.41687733
-0.41696325
-0.41704908
-0.41713485
-0.41722056
-0.4173062
-0.41739178
-0.41747728
-0.4175627
-0.41764808
-0.41773337
-0.41781858
-0.41790375
-0.41798884
-0.41807383
-0.4181588
-0.41824368
-0.41832846
-0.41841322
-0.4184979
-0.4185825
-0.41866702
-0.41875148
-0.41883588
-0.41892022
-0.41900447
-0.41908866
-0.41917276
-0.41925684
-0.4193408
-0.4194247
-0.41950855
-0.41959232
-0.41967604
-0.41975966
-0.41984323
-0.41992673
-0.42001018
-0.42009354
-0.4201768
-0.42026004
-0.4203432
-0.42042628
-0.42050928
-0.42059222
-0.4206751
-0.42075792
-0.42084065
-0.42092332
-0.42100593
-0.42108846
-0.42117092
-0.42125332
-0.42133564
-0.4214179
-0.4215001
-0.4215822
-0.42166424
-0.42174622
-0.42182812
-0.42190996
-0.42199174
-0.42207345
-0.42215508
-0.42223665
-0.42231813
-0.42239955
-0.4224809
-0.4225622
-0.42264342
-0.42272457
-0.42280567
-0.42288667
-0.4229676
-0.4230485
-0.4231293
-0.42321002
-0.4232907
-0.4233713
-0.42345184
-0.42353228
-0.42361268
-0.423693
-0.42377326
-0.42385343
-0.42393354
-0.42401358
-0.42409357
-0.42417347
-0.4242533
-0.4243331
-0.4244128
-0.42449242
-0.424572
-0.42465147
-0.4247309
-0.42481026
-0.42488953
-0.42496875
-0.4250479
-0.425127
-0.425206
-0.42528495
-0.4253638
-0.4254426
-0.42552134
-0.42560002
-0.4256786
-0.42575714
-0.4258356
-0.425914
-0.4259923
-0.42607054
-0.42614874
-0.42622685
-0.4263049
-0.42638287
-0.42646077
-0.42653862
-0.42661637
-0.42669407
-0.4267717
-0.42684928
-0.42692676
-0.4270042
-0.42708153
-0.42715883
-0.42723602
-0.42731318
-0.42739025
-0.42746726
-0.4275442
-0.42762107
-0.42769787
-0.4277746
-0.42785126
-0.42792785
-0.42800438
-0.42808086
-0.42815724
-0.42823356
-0.4283098
-0.42838597
-0.4284621
-0.42853814
-0.4286141
-0.42869002
-0.42876583
-0.42884162
-0.42891732
-0.42899293
-0.42906848
-0.42914397
-0.4292194
-0.42929476
-0.42937005
-0.42944524
-0.4295204
-0.42959547
-0.42967048
-0.4297454
-0.42982027
-0.42989507
-0.42996982
-0.43004447
-0.43011907
-0.43019357
-0.43026805
-0.43034244
-0.43041673
-0.43049097
-0.43056515
-0.43063927
-0.4307133
-0.4307873
-0.43086118
-0.43093503
-0.4310088
-0.4310825
-0.4311561
-0.43122965
-0.43130314
-0.43137655
-0.43144992
-0.4315232
-0.4315964
-0.43166953
-0.4317426
-0.43181562
-0.43188855
-0.43196142
-0.43203422
-0.43210694
-0.4321796
-0.4322522
-0.4323247
-0.43239716
-0.43246955
-0.43254188
-0.43261412
-0.4326863
-0.4327584
-0.43283042
-0.4329024
-0.4329743
-0.43304613
-0.4331179
-0.43318957
-0.43326122
-0.43333277
-0.43340424
-0.43347567
-0.43354702
-0.43361828
-0.4336895
-0.43376064
-0.43383172
-0.4339027
-0.43397364
-0.4340445
-0.4341153
-0.43418604
-0.43425667
-0.43432727
-0.4343978
-0.43446824
-0.43453863
-0.43460894
-0.43467918
-0.43474934
-0.43481946
-0.4348895
-0.43495944
-0.43502936
-0.43509918
-0.43516895
-0.43523863
-0.43530825
-0.4353778
-0.43544728
-0.43551672
-0.43558604
-0.43565533
-0.43572453
-0.43579367
-0.43586275
-0.43593174
-0.43600067
-0.43606955
-0.43613836
-0.43620712
-0.43627584
-0.43634447
-0.43641305
-0.43648157
-0.43655002
-0.43661842
-0.43668675
-0.436755
-0.43682322
-0.43689138
-0.43695948
-0.4370275
-0.4370955
-0.43716338
-0.43723124
-0.43729904
-0.43736678
-0.43743443
-0.43750206
-0.43756962
-0.4376371
-0.43770453
-0.4377719
-0.4378392
-0.43790644
-0.43797365
-0.43804076
-0.43810785
-0.43817484
-0.43824178
-0.4383087
-0.4383755
-0.4384423
-0.438509
-0.43857563
-0.4386422
-0.43870875
-0.4387752
-0.4388416
-0.43890795
-0.43897423
-0.43904045
-0.4391066
-0.43917271
-0.43923876
-0.43930474
-0.43937066
-0.43943653
-0.43950233
-0.43956807
-0.43963376
-0.43969938
-0.43976495
-0.43983045
-0.43989587
-0.43996125
-0.44002658
-0.44009185
-0.44015703
-0.44022217
-0.44028726
-0.44035226
-0.44041723
-0.4404821
-0.44054696
-0.44061172
-0.44067645
-0.4407411
-0.4408057
-0.44087023
-0.44093472
-0.44099912
-0.4410635
-0.44112778
-0.441192
-0.44125617
-0.4413203
-0.44138435
-0.44144833
-0.44151226
-0.44157612
-0.44163996
-0.4417037
-0.4417674
-0.44183102
-0.4418946
-0.4419581
-0.44202155
-0.44208494
-0.44214827
-0.44221154
-0.44227475
-0.4423379
-0.44240096
-0.442464
-0.44252697
-0.44258988
-0.44265273
-0.4427155
-0.44277823
-0.4428409
-0.4429035
-0.44296604
-0.44302854
-0.44309095
-0.44315332
-0.4432156
-0.44327787
-0.44334003
-0.44340217
-0.44346422
-0.44352624
-0.44358817
-0.44365007
-0.44371188
-0.44377363
-0.44383535
-0.44389698
-0.44395855
-0.44402006
-0.44408152
-0.44414294
-0.44420427
-0.44426554
-0.44432676
-0.4443879
-0.444449
-0.44451004
-0.44457102
-0.44463193
-0.4446928
-0.4447536
-0.44481432
-0.444875
-0.44493562
-0.44499618
-0.44505668
-0.4451171
-0.44517747
-0.4452378
-0.44529805
-0.44535822
-0.44541836
-0.44547844
-0.44553843
-0.4455984
-0.44565827
-0.4457181
-0.4457779
-0.4458376
-0.44589725
-0.44595683
-0.44601634
-0.44607583
-0.44613522
-0.4461946
-0.44625387
-0.44631308
-0.44637227
-0.44643137
-0.4464904
-0.4465494
-0.44660833
-0.4466672
-0.446726
-0.44678473
-0.44684342
-0.44690204
-0.4469606
-0.4470191
-0.44707754
-0.44713593
-0.44719425
-0.4472525
-0.44731072
-0.44736886
-0.44742694
-0.44748497
-0.4475429
-0.4476008
-0.44765866
-0.44771644
-0.44777417
-0.4478318
-0.44788942
-0.44794697
-0.44800442
-0.44806185
-0.4481192
-0.4481765
-0.44823372
-0.4482909
-0.44834802
-0.4484051
-0.44846207
-0.44851902
-0.44857588
-0.4486327
-0.44868946
-0.44874614
-0.44880277
-0.44885936
-0.44891587
-0.4489723
-0.4490287
-0.44908506
-0.44914132
-0.44919753
-0.44925368
-0.44930977
-0.4493658
-0.44942176
-0.44947767
-0.44953352
-0.4495893
-0.44964504
-0.4497007
-0.44975632
-0.44981188
-0.44986734
-0.44992277
-0.44997814
-0.45003346
-0.45008868
-0.45014387
-0.450199
-0.45025408
-0.45030907
-0.45036402
-0.4504189
-0.45047373
-0.4505285
-0.4505832
-0.45063785
-0.45069242
-0.45074692
-0.4508014
-0.4508558
-0.45091015
-0.45096442
-0.45101863
-0.4510728
-0.4511269
-0.45118093
-0.4512349
-0.45128885
-0.4513427
-0.4513965
-0.45145023
-0.4515039
-0.45155752
-0.45161107
-0.45166457
-0.451718
-0.45177138
-0.4518247
-0.45187795
-0.45193115
-0.4519843
-0.45203736
-0.45209038
-0.45214334
-0.45219624
-0.45224905
-0.45230183
-0.45235455
-0.4524072
-0.45245978
-0.45251232
-0.4525648
-0.4526172
-0.45266956
-0.45272183
-0.45277408
-0.45282623
-0.45287836
-0.4529304
-0.4529824
-0.4530343
-0.4530862
-0.453138
-0.45318973
-0.45324144
-0.45329306
-0.4533446
-0.4533961
-0.45344758
-0.45349896
-0.45355028
-0.45360154
-0.45365274
-0.4537039
-0.453755
-0.453806
-0.45385697
-0.45390788
-0.45395872
-0.4540095
-0.45406023
-0.4541109
-0.45416147
-0.454212
-0.4542625
-0.45431292
-0.4543633
-0.4544136
-0.4544638
-0.454514
-0.45456412
-0.45461416
-0.45466417
-0.45471412
-0.45476398
-0.4548138
-0.45486355
-0.45491326
-0.45496288
-0.45501247
-0.45506197
-0.45511144
-0.45516083
-0.45521018
-0.45525944
-0.45530865
-0.45535782
-0.4554069
-0.45545593
-0.4555049
-0.45555383
-0.45560268
-0.45565146
-0.4557002
-0.45574886
-0.45579746
-0.45584604
-0.45589453
-0.45594296
-0.45599133
-0.45603964
-0.4560879
-0.45613608
-0.45618418
-0.45623225
-0.45628026
-0.4563282
-0.4563761
-0.45642394
-0.45647168
-0.4565194
-0.45656705
-0.45661464
-0.45666215
-0.45670962
-0.456757
-0.45680436
-0.45685166
-0.45689887
-0.45694605
-0.45699313
-0.4570402
-0.45708716
-0.4571341
-0.45718095
-0.45722774
-0.4572745
-0.45732117
-0.45736778
-0.45741436
-0.45746085
-0.45750728
-0.45755365
-0.4576
-0.45764625
-0.45769244
-0.45773858
-0.45778465
-0.45783067
-0.45787662
-0.45792252
-0.45796835
-0.45801413
-0.45805985
-0.4581055
-0.4581511
-0.45819664
-0.45824212
-0.45828754
-0.45833287
-0.45837817
-0.4584234
-0.4584686
-0.45851368
-0.45855874
-0.45860374
-0.45864865
-0.45869353
-0.45873836
-0.4587831
-0.4588278
-0.4588724
-0.4589168
-0.45896095
-0.45900485
-0.45904845
-0.4590918
-0.4591349
-0.45917773
-0.4592203
-0.45926258
-0.4593046
-0.45934638
-0.4593879
-0.45942912
-0.4594701
-0.4595108
-0.45955127
-0.45959145
-0.45963138
-0.45967102
-0.45971042
-0.45974955
-0.4597884
-0.459827
-0.45986533
-0.45990342
-0.45994124
-0.45997876
-0.46001604
-0.46005306
-0.46008983
-0.4601263
-0.46016252
-0.4601985
-0.4602342
-0.46026963
-0.4603048
-0.4603397
-0.46037433
-0.46040872
-0.4604428
-0.46047667
-0.46051025
-0.46054357
-0.46057662
-0.4606094
-0.46064195
-0.4606742
-0.4607062
-0.46073794
-0.46076941
-0.46080062
-0.46083155
-0.46086225
-0.46089265
-0.4609228
-0.4609527
-0.46098232
-0.46101168
-0.46104077
-0.4610696
-0.46109816
-0.46112648
-0.46115452
-0.4611823
-0.4612098
-0.46123704
-0.461264
-0.46129075
-0.4613172
-0.46134338
-0.4613693
-0.461395
-0.4614204
-0.4614455
-0.4614704
-0.46149498
-0.46151933
-0.4615434
-0.46156722
-0.46159077
-0.46161407
-0.46163708
-0.46165985
-0.46168235
-0.46170458
-0.46172655
-0.46174824
-0.46176967
-0.46179086
-0.46181175
-0.4618324
-0.4618528
-0.4618729
-0.46189275
-0.46191236
-0.46193168
-0.46195075
-0.46196952
-0.46198806
-0.46200633
-0.46202436
-0.4620421
-0.46205956
-0.46207678
-0.46209374
-0.46211043
-0.46212685
-0.462143
-0.4621589
-0.4621745
-0.46218988
-0.462205
-0.46221983
-0.4622344
-0.4622487
-0.46226275
-0.46227655
-0.46229005
-0.4623033
-0.4623163
-0.46232903
-0.4623415
-0.46235368
-0.4623656
-0.46237728
-0.4623887
-0.46239984
-0.4624107
-0.46242133
-0.46243167
-0.46244174
-0.46245158
-0.4624611
-0.4624704
-0.46247944
-0.4624882
-0.46249673
-0.46250495
-0.4625129
-0.46252063
-0.46252808
-0.46253526
-0.46254218
-0.46254882
-0.46255523
-0.46256134
-0.4625672
-0.4625728
-0.46257812
-0.4625832
-0.462588
-0.46259254
-0.46259683
-0.46260083
-0.46260458
-0.46260807
-0.4626113
-0.46261424
-0.46261692
-0.46261936
-0.46262154
-0.46262342
-0.46262506
-0.46262643
-0.46262753
-0.4626284
-0.46262896
-0.4626293
-0.46262935
-0.4626291
-0.46262863
-0.46262792
-0.4626269
-0.46262562
-0.4626241
-0.4626223
-0.46262026
-0.46261793
-0.46261534
-0.46261248
-0.46260935
-0.46260598
-0.46260235
-0.46259844
-0.46259424
-0.46258983
-0.46258512
-0.46258014
-0.46257493
-0.46256945
-0.46256366
-0.46255764
-0.46255136
-0.46254483
-0.462538
-0.46253094
-0.46252358
-0.46251598
-0.4625081
-0.46249998
-0.46249157
-0.46248293
-0.462474
-0.4624648
-0.46245536
-0.46244565
-0.46243566
-0.4624254
-0.4624149
-0.46240413
-0.4623931
-0.46238178
-0.46237022
-0.4623584
-0.46234632
-0.46233395
-0.4623213
-0.46230844
-0.4622953
-0.46228188
-0.4622682
-0.46225426
-0.46224004
-0.4622256
-0.46221083
-0.46219584
-0.46218058
-0.46216506
-0.46214926
-0.46213323
-0.4621169
-0.46210033
-0.46208346
-0.46206635
-0.46204898
-0.46203136
-0.46201345
-0.46199527
-0.46197686
-0.46195817
-0.4619392
-0.46191996
-0.4619005
-0.46188074
-0.46186072
-0.46184045
-0.46181992
-0.4617991
-0.461778
-0.4617567
-0.4617351
-0.46171322
-0.4616911
-0.46166873
-0.46164605
-0.46162313
-0.46159995
-0.46157652
-0.4615528
-0.46152884
-0.46150458
-0.46148008
-0.46145532
-0.46143028
-0.46140498
-0.46137944
-0.4613536
-0.46132752
-0.46130118
-0.46127456
-0.46124768
-0.46122053
-0.4611931
-0.46116546
-0.46113753
-0.4611093
-0.46108085
-0.46105212
-0.46102315
-0.4609939
-0.46096435
-0.46093458
-0.46090454
-0.46087423
-0.46084365
-0.4608128
-0.4607817
-0.46075034
-0.4607187
-0.4606868
-0.46065465
-0.46062222
-0.46058953
-0.4605566
-0.46052337
-0.4604899
-0.46045613
-0.46042213
-0.46038786
-0.46035334
-0.46031854
-0.46028346
-0.46024814
-0.46021256
-0.46017668
-0.4601406
-0.4601042
-0.46006754
-0.46003062
-0.45999345
-0.45995602
-0.45991832
-0.45988035
-0.45984212
-0.4598036
-0.45976484
-0.45972583
-0.45968655
-0.45964697
-0.45960715
-0.4595671
-0.45952675
-0.45948613
-0.45944527
-0.4594041
-0.45936272
-0.45932105
-0.45927912
-0.45923695
-0.45919448
-0.45915174
-0.45910877
-0.45906553
-0.45902202
-0.45897824
-0.4589342
-0.4588899
-0.45884532
-0.4588005
-0.45875537
-0.45871
-0.4586644
-0.45861852
-0.45857236
-0.45852596
-0.45847926
-0.45843232
-0.4583851
-0.45833763
-0.4582899
-0.45824188
-0.45819363
-0.4581451
-0.4580963
-0.45804724
-0.45799792
-0.45794833
-0.4578985
-0.45784837
-0.457798
-0.45774737
-0.45769644
-0.4576453
-0.45759386
-0.45754215
-0.45749018
-0.45743796
-0.45738548
-0.45733273
-0.4572797
-0.45722643
-0.45717287
-0.45711908
-0.457065
-0.45701066
-0.45695606
-0.4569012
-0.45684606
-0.45679066
-0.456735
-0.45667908
-0.4566229
-0.45656645
-0.45650974
-0.45645276
-0.4563955
-0.456338
-0.45628023
-0.4562222
-0.45616388
-0.45610532
-0.4560465
-0.45598742
-0.45592806
-0.45586845
-0.45580855
-0.4557484
-0.455688
-0.45562732
-0.45556638
-0.4555052
-0.4554437
-0.455382
-0.45532
-0.45525798
-0.45519605
-0.45513418
-0.45507237
-0.45501062
-0.45494896
-0.45488736
-0.45482582
-0.45476434
-0.45470294
-0.45464158
-0.45458034
-0.45451912
-0.45445797
-0.4543969
-0.4543359
-0.45427498
-0.4542141
-0.4541533
-0.45409256
-0.45403188
-0.4539713
-0.45391077
-0.4538503
-0.4537899
-0.45372957
-0.45366928
-0.45360908
-0.45354897
-0.4534889
-0.4534289
-0.45336896
-0.4533091
-0.4532493
-0.45318958
-0.45312992
-0.4530703
-0.45301077
-0.4529513
-0.45289192
-0.45283258
-0.45277333
-0.45271415
-0.45265502
-0.45259595
-0.45253694
-0.45247802
-0.45241916
-0.45236036
-0.45230165
-0.452243
-0.4521844
-0.45212588
-0.4520674
-0.45200902
-0.4519507
-0.45189244
-0.45183426
-0.45177612
-0.45171806
-0.4516601
-0.45160216
-0.4515443
-0.45148653
-0.4514288
-0.45137113
-0.45131356
-0.45125604
-0.45119858
-0.4511412
-0.45108387
-0.45102662
-0.45096946
-0.45091233
-0.45085528
-0.4507983
-0.45074138
-0.45068452
-0.45062774
-0.45057103
-0.45051438
-0.45045778
-0.45040128
-0.45034483
-0.45028844
-0.45023215
-0.45017588
-0.4501197
-0.4500636
-0.45000756
-0.44995156
-0.44989565
-0.4498398
-0.44978404
-0.4497283
-0.44967267
-0.4496171
-0.4495616
-0.44950613
-0.44945076
-0.44939545
-0.44934022
-0.44928503
-0.44922993
-0.44917488
-0.44911993
-0.449065
-0.44901016
-0.4489554
-0.4489007
-0.44884604
-0.44879147
-0.44873697
-0.44868255
-0.44862816
-0.44857386
-0.44851962
-0.44846544
-0.44841135
-0.4483573
-0.44830334
-0.44824943
-0.4481956
-0.44814184
-0.44808814
-0.4480345
-0.44798094
-0.44792742
-0.447874
-0.44782063
-0.44776732
-0.4477141
-0.44766092
-0.44760785
-0.4475548
-0.44750184
-0.44744894
-0.4473961
-0.44734335
-0.44729066
-0.44723803
-0.44718546
-0.44713295
-0.44708052
-0.44702816
-0.44697586
-0.44692364
-0.4468715
-0.4468194
-0.44676736
-0.4467154
-0.4466635
-0.44661167
-0.44655994
-0.44650823
-0.4464566
-0.44640505
-0.44635355
-0.44630215
-0.44625077
-0.44619948
-0.44614828
-0.4460971
-0.44604602
-0.445995
-0.44594404
-0.44589314
-0.44584233
-0.44579157
-0.44574088
-0.44569027
-0.44563973
-0.44558924
-0.44553882
-0.44548845
-0.44543818
-0.44538796
-0.4453378
-0.44528773
-0.4452377
-0.44518775
-0.44513786
-0.44508806
-0.44503832
-0.4449886
-0.44493902
-0.44488946
-0.44483998
-0.44479057
-0.44474122
-0.44469193
-0.44464272
-0.44459358
-0.4445445
-0.44449547
-0.44444653
-0.44439766
-0.44434884
-0.44430012
-0.44425142
-0.4442028
-0.44415426
-0.4441058
-0.44405738
-0.44400904
-0.44396076
-0.44391257
-0.4438644
-0.44381633
-0.44376832
-0.4437204
-0.4436725
-0.4436247
-0.44357696
-0.4435293
-0.44348168
-0.44343415
-0.44338667
-0.4433393
-0.44329193
-0.44324467
-0.44319746
-0.44315034
-0.44310325
-0.44305626
-0.44300932
-0.44296247
-0.44291565
-0.44286892
-0.44282225
-0.44277564
-0.44272912
-0.44268265
-0.44263625
-0.4425899
-0.44254366
-0.44249746
-0.44245133
-0.44240525
-0.44235927
-0.4423133
-0.44226748
-0.44222167
-0.44217592
-0.44213027
-0.44208467
-0.44203916
-0.44199368
-0.4419483
-0.44190297
-0.4418577
-0.44181252
-0.4417674
-0.44172233
-0.44167733
-0.4416324
-0.44158754
-0.44154274
-0.441498
-0.44145337
-0.44140878
-0.44136426
-0.4413198
-0.44127542
-0.44123107
-0.44118682
-0.44114265
-0.4410985
-0.44105446
-0.44101048
-0.44096655
-0.4409227
-0.4408789
-0.44083518
-0.44079155
-0.44074795
-0.44070444
-0.44066098
-0.4406176
-0.44057426
-0.44053102
-0.44048783
-0.4404447
-0.44040167
-0.4403587
-0.44031578
-0.44027293
-0.44023013
-0.44018742
-0.44014478
-0.4401022
-0.4400597
-0.44001722
-0.43997484
-0.43993253
-0.4398903
-0.4398481
-0.43980598
-0.43976396
-0.43972197
-0.43968007
-0.43963823
-0.43959644
-0.43955472
-0.4395131
-0.4394715
-0.43943
-0.43938854
-0.43934718
-0.43930587
-0.43926463
-0.43922347
-0.43918234
-0.4391413
-0.43910033
-0.43905944
-0.43901858
-0.4389778
-0.4389371
-0.43889648
-0.4388559
-0.4388154
-0.43877494
-0.4387346
-0.43869427
-0.43865404
-0.43861386
-0.43857378
-0.43853372
-0.43849376
-0.43845385
-0.43841404
-0.43837425
-0.43833455
-0.43829492
-0.43825537
-0.43821585
-0.43817642
-0.43813705
-0.43809777
-0.43805853
-0.43801937
-0.43798026
-0.43794122
-0.43790227
-0.43786338
-0.43782455
-0.43778577
-0.4377471
-0.43770847
-0.4376699
-0.4376314
-0.43759298
-0.4375546
-0.4375163
-0.4374781
-0.43743992
-0.43740183
-0.4373638
-0.43732584
-0.43728796
-0.43725014
-0.43721238
-0.43717468
-0.43713707
-0.4370995
-0.437062
-0.4370246
-0.43698722
-0.43694994
-0.43691272
-0.43687555
-0.43683848
-0.43680146
-0.4367645
-0.4367276
-0.43669078
-0.43665403
-0.43661734
-0.43658072
-0.43654418
-0.4365077
-0.43647128
-0.43643492
