CH11
0.99803776
0.99805826
0.9980787
0.998099
0.99811924
0.9981394
0.9981594
0.9981793
0.9981991
0.99821883
0.99823844
0.998258
0.99827737
0.9982967
0.9983159
0.998335
0.998354
0.9983729
0.9983917
0.9984104
0.998429
0.9984475
0.99846584
0.99848413
0.9985023
0.99852043
0.9985384
0.99855626
0.9985741
0.9985917
0.9986093
0.99862677
0.9986442
0.9986614
0.99867857
0.9986957
0.9987126
0.99872947
0.9987462
0.9987629
0.9987795
0.9987959
0.99881226
0.99882853
0.9988446
0.9988607
0.99887663
0.9988925
0.9989082
0.99892384
0.9989394
0.99895483
0.99897015
0.9989854
0.99900055
0.99901557
0.9990305
0.9990453
0.99906003
0.99907464
0.9990892
0.9991036
0.9991179
0.9991321
0.9991462
0.99916023
0.9991741
0.99918795
0.99920166
0.99921525
0.9992288
0.9992421
0.9992554
0.99926865
0.9992817
0.9992947
0.99930763
0.9993204
0.9993331
0.99934566
0.9993581
0.9993705
0.9993828
0.99939495
0.99940705
0.99941903
0.9994309
0.99944264
0.9994543
0.9994659
0.9994773
0.9994887
0.9995
0.9995111
0.9995222
0.9995331
0.99954396
0.99955475
0.99956536
0.9995759
0.99958634
0.9995967
0.99960697
0.9996171
0.9996271
0.99963707
0.9996469
0.9996566
0.9996663
0.99967575
0.9996852
0.9996945
0.99970376
0.9997129
0.9997219
0.99973077
0.9997396
0.99974835
0.99975693
0.99976546
0.99977386
0.99978215
0.9997904
0.9997985
0.99980646
0.99981433
0.99982214
0.9998298
0.9998374
0.9998449
0.9998523
0.9998596
0.9998668
0.9998739
0.99988085
0.9998877
0.9998945
0.9999012
0.99990773
0.9999142
0.99992055
0.99992687
0.999933
0.9999391
0.99994504
0.9999509
0.99995667
0.9999623
0.9999679
0.9999733
0.99997866
0.9999839
0.99998903
0.9999941
0.99999905
1.0000039
1.0000086
1.0000132
1.0000178
1.0000222
1.0000266
1.0000308
1.0000349
1.000039
1.0000428
1.0000467
1.0000504
1.000054
1.0000576
1.0000609
1.0000643
1.0000675
1.0000706
1.0000736
1.0000765
1.0000793
1.000082
1.0000846
1.0000871
1.0000895
1.0000918
1.0000939
1.0000961
1.000098
1.0000999
1.0001017
1.0001034
1.000105
1.0001065
1.0001079
1.0001091
1.0001103
1.0001113
1.0001123
1.0001132
1.000114
1.0001147
1.0001152
1.0001156
1.000116
1.0001162
1.0001165
1.0001165
1.0001165
1.0001162
1.000116
1.0001156
1.0001152
1.0001147
1.000114
1.0001132
1.0001123
1.0001113
1.0001103
1.0001092
1.0001079
1.0001065
1.000105
1.0001035
1.0001018
1.0001
1.0000981
1.0000961
1.000094
1.0000918
1.0000895
1.0000871
1.0000846
1.000082
1.0000794
1.0000765
1.0000737
1.0000707
1.0000676
1.0000644
1.000061
1.0000576
1.0000541
1.0000505
1.0000468
1.0000429
1.0000391
1.000035
1.0000309
1.0000267
1.0000223
1.0000179
1.0000134
1.0000087
1.000004
0.99999917
0.9999942
0.9999892
0.9999841
0.99997884
0.9999735
0.999968
0.99996245
0.9999568
0.99995106
0.9999452
0.99993926
0.9999332
0.99992704
0.9999208
0.9999144
0.9999079
0.99990135
0.9998947
0.99988794
0.999881
0.99987406
0.99986696
0.9998598
0.99985254
0.99984515
0.99983764
0.99983007
0.9998224
0.99981457
0.9998067
0.9997987
0.9997906
0.9997824
0.9997741
0.9997657
0.9997572
0.9997486
0.9997399
0.99973106
0.9997221
0.9997131
0.999704
0.9996948
0.99968547
0.99967605
0.9996665
0.9996569
0.9996472
0.99963737
0.9996274
0.9996174
0.99960726
0.999597
0.9995867
0.9995763
0.9995657
0.99955505
0.9995443
0.9995335
0.9995225
0.9995115
0.99950033
0.99948907
0.9994777
0.99946624
0.9994547
0.999443
0.99943125
0.9994194
0.9994074
0.9993954
0.99938315
0.9993709
0.99935853
0.999346
0.99933344
0.9993208
0.999308
0.9992951
0.9992821
0.999269
0.99925584
0.99924254
0.99922913
0.99921566
0.9992021
0.99918836
0.99917454
0.99916065
0.99914664
0.9991325
0.9991183
0.999104
0.9990896
0.9990751
0.99906045
0.9990457
0.99903095
0.999016
0.99900097
0.9989859
0.9989706
0.9989553
0.9989399
0.9989243
0.9989087
0.99889296
0.9988771
0.9988612
0.99884516
0.998829
0.99881274
0.9987964
0.99877995
0.9987634
0.99874675
0.99873
0.99871314
0.99869615
0.9986791
0.99866194
0.99864465
0.9986273
0.99860984
0.99859226
0.9985746
0.9985568
0.9985389
0.998521
0.99850285
0.9984847
0.99846643
0.998448
0.99842954
0.99841094
0.9983923
0.99837345
0.99835455
0.99833554
0.99831647
0.9982973
0.99827796
0.99825853
0.99823904
0.99821943
0.99819976
0.9981799
0.99816
0.99814
0.9981199
0.9980996
0.9980793
0.9980589
0.99803835
0.9980177
0.99799705
0.9979762
0.99795526
0.9979342
0.99791306
0.99789184
0.9978705
0.99784905
0.99782753
0.9978059
0.99778414
0.99776226
0.9977403
0.9977183
0.9976961
0.99767387
0.9976515
0.99762905
0.99760646
0.9975838
0.99756104
0.99753815
0.9975152
0.99749213
0.99746895
0.9974457
0.9974223
0.9973988
0.99737525
0.9973515
0.99732774
0.9973039
0.9972799
0.9972558
0.9972316
0.9972073
0.9971829
0.9971584
0.9971338
0.9971091
0.9970843
0.9970594
0.9970344
0.9970093
0.99698406
0.99695873
0.99693334
0.99690783
0.9968822
0.9968565
0.99683064
0.9968047
0.9967787
0.99675256
0.99672633
0.9967
0.9966736
0.99664706
0.9966204
0.99659365
0.99656683
0.9965399
0.99651283
0.9964857
0.9964585
0.9964311
0.99640363
0.9963761
0.99634844
0.99632066
0.9962928
0.9962648
0.9962368
0.9962086
0.99618036
0.996152
0.9961235
0.99609494
0.9960663
0.9960375
0.9960086
0.9959796
0.9959505
0.9959214
0.99589205
0.99586266
0.99583316
0.9958036
0.9957739
0.9957441
0.9957142
0.9956842
0.9956541
0.9956239
0.9955936
0.9955632
0.9955327
0.99550205
0.99547136
0.99544054
0.9954096
0.9953786
0.9953475
0.99531627
0.9952849
0.9952535
0.995222
0.9951903
0.9951586
0.9951268
0.99509484
0.9950628
0.9950307
0.99499846
0.9949661
0.99493366
0.9949011
0.99486846
0.9948357
0.99480283
0.9947699
0.99473685
0.99470365
0.9946704
0.9946371
0.9946036
0.99457
0.99453634
0.9945026
0.99446875
0.9944348
0.9944007
0.9943665
0.9943322
0.99429786
0.99426335
0.9942288
0.9941941
0.9941593
0.9941244
0.9940894
0.9940543
0.99401915
0.9939838
0.99394846
0.99391294
0.99387735
0.99384165
0.9938058
0.9937699
0.9937339
0.99369776
0.9936616
0.9936253
0.99358886
0.9935523
0.9935157
0.99347895
0.9934422
0.9934052
0.9933682
0.9933311
0.9932938
0.9932565
0.9932191
0.9931815
0.99314386
0.9931061
0.9930683
0.99303037
0.9929923
0.99295413
0.9929159
0.99287754
0.9928391
0.99280053
0.99276185
0.9927231
0.99268425
0.99264526
0.9926062
0.99256706
0.9925278
0.9924884
0.9924489
0.99240935
0.9923697
0.9923299
0.99229
0.99225
0.99221
0.99216974
0.9921295
0.9920891
0.9920486
0.992008
0.9919673
0.9919265
0.9918856
0.9918446
0.9918035
0.9917623
0.99172103
0.9916797
0.9916383
0.9915968
0.9915553
0.99151367
0.991472
0.9914303
0.99138844
0.99134654
0.9913046
0.99126256
0.9912205
0.9911783
0.991136
0.9910937
0.9910513
0.9910089
0.9909664
0.99092376
0.9908811
0.9908384
0.99079555
0.9907527
0.9907098
0.99066675
0.99062365
0.9905805
0.9905373
0.990494
0.9904506
0.9904072
0.9903637
0.99032015
0.9902765
0.99023277
0.990189
0.99014515
0.9901012
0.99005723
0.9900132
0.989969
0.98992485
0.98988056
0.9898362
0.9897918
0.98974735
0.98970276
0.9896582
0.9896135
0.9895687
0.9895239
0.98947895
0.989434
0.98938894
0.9893438
0.98929864
0.9892534
0.9892081
0.9891627
0.9891172
0.98907167
0.98902607
0.9889804
0.9889347
0.98888886
0.98884296
0.988797
0.988751
0.9887049
0.9886587
0.98861253
0.9885662
0.98851985
0.9884734
0.98842686
0.9883803
0.98833364
0.9882869
0.9882401
0.9881933
0.9881463
0.98809934
0.98805225
0.9880051
0.9879579
0.9879106
0.98786324
0.98781586
0.98776835
0.9877208
0.98767316
0.9876254
0.9875777
0.9875298
0.9874819
0.9874339
0.98738587
0.98733777
0.98728955
0.9872413
0.987193
0.9871446
0.9870961
0.98704755
0.9869989
0.9869503
0.9869015
0.98685265
0.98680377
0.98675483
0.9867058
0.98665667
0.9866075
0.98655826
0.98650897
0.98645955
0.9864101
0.9863606
0.986311
0.9862613
0.9862116
0.98616177
0.98611194
0.986062
0.986012
0.98596185
0.9859117
0.9858615
0.9858112
0.9857608
0.9857104
0.9856599
0.98560935
0.9855587
0.98550797
0.9854572
0.98540634
0.9853554
0.9853044
0.98525333
0.9852022
0.985151
0.98509973
0.9850484
0.984997
0.9849455
0.9848939
0.9848423
0.9847906
0.9847388
0.98468703
0.9846351
0.98458314
0.9845311
0.98447895
0.9844268
0.9843745
0.9843222
0.9842698
0.98421735
0.98416483
0.9841122
0.9840595
0.98400676
0.98395395
0.9839011
0.98384815
0.9837951
0.983742
0.98368883
0.9836356
0.9835823
0.9835289
0.9834755
0.983422
0.9833684
0.98331475
0.983261
0.9832072
0.98315334
0.9830994
0.9830454
0.98299134
0.9829372
0.982883
0.9828287
0.9827743
0.9827199
0.9826654
0.9826108
0.9825562
0.9825015
0.98244673
0.9823919
0.982337
0.982282
0.9822269
0.9821718
0.9821166
0.9820613
0.982006
0.9819506
0.98189515
0.9818396
0.981784
0.98172826
0.9816725
0.9816167
0.9815608
0.98150486
0.98144877
0.9813927
0.98133653
0.98128027
0.98122394
0.98116755
0.9811111
0.9810546
0.980998
0.9809413
0.9808846
0.9808278
0.9807709
0.98071396
0.9806569
0.9805999
0.9805427
0.9804855
0.98042816
0.9803708
0.98031336
0.98025584
0.98019826
0.9801406
0.9800829
0.9800251
0.9799673
0.97990936
0.97985137
0.9797933
0.97973514
0.97967696
0.97961867
0.9795603
0.9795019
0.97944343
0.97938484
0.97932625
0.97926754
0.97920877
0.97914994
0.97909105
0.97903204
0.97897303
0.9789139
0.9788547
0.97879547
0.9787361
0.97867674
0.97861725
0.9785577
0.9784981
0.97843844
0.9783787
0.97831887
0.97825897
0.978199
0.978139
0.9780789
0.97801876
0.9779585
0.9778982
0.9778378
0.97777736
0.97771686
0.97765625
0.9775956
0.9775349
0.9774741
0.97741324
0.97735226
0.9772913
0.9772302
0.97716904
0.9771078
0.97704655
0.97698516
0.97692376
0.97686225
0.9768007
0.97673905
0.97667736
0.97661555
0.97655374
0.9764918
0.9764298
0.9763678
0.9763056
0.97624344
0.97618115
0.9761188
0.9760564
0.97599393
0.9759314
0.97586876
0.97580606
0.97574335
0.9756805
0.9756176
0.97555465
0.9754916
0.97542846
0.9753653
0.97530204
0.97523874
0.9751754
0.9751119
0.97504836
0.97498477
0.9749211
0.9748574
0.97479355
0.97472966
0.9746657
0.9746017
0.9745376
0.9744735
0.9744092
0.9743449
0.97428054
0.9742161
0.9741516
0.97408706
0.9740224
0.97395766
0.97389287
0.973828
0.9737631
0.9736981
0.97363305
0.9735679
0.9735027
0.9734374
0.97337204
0.97330666
0.97324115
0.9731756
0.97310996
0.9730443
0.9729785
0.97291267
0.97284675
0.97278076
0.9727147
0.9726486
0.9725824
0.9725161
0.97244984
0.97238344
0.9723169
0.9722504
0.9721838
0.9721171
0.97205037
0.97198355
0.9719167
0.9718497
0.9717827
0.97171557
0.9716484
0.97158116
0.97151387
0.97144645
0.97137904
0.9713115
0.9712439
0.97117627
0.97110856
0.9710407
0.97097284
0.97090495
0.97083694
0.9707688
0.9707007
0.97063243
0.9705642
0.9704958
0.9704274
0.9703589
0.9702903
0.9702217
0.970153
0.9700842
0.97001535
0.9699464
0.9698774
0.96980834
0.96973926
0.96967006
0.96960074
0.9695314
0.96946204
0.9693928
0.96932393
0.9692556
0.96918774
0.9691203
0.9690534
0.96898687
0.9689208
0.96885526
0.9687901
0.96872544
0.96866125
0.9685975
0.96853423
0.96847135
0.968409
0.9683471
0.9682856
0.96822464
0.9681641
0.96810406
0.9680444
0.9679853
0.96792656
0.9678683
0.9678106
0.96775323
0.96769637
0.96764
0.967584
0.9675285
0.9674735
0.96741897
0.96736485
0.9673112
0.967258
0.9672053
0.967153
0.96710116
0.96704984
0.96699893
0.9669485
0.9668985
0.96684897
0.9667999
0.96675134
0.9667032
0.9666555
0.9666083
0.96656156
0.96651524
0.9664694
0.966424
0.96637905
0.9663346
0.9662906
0.966247
0.9662039
0.9661613
0.9661191
0.96607745
0.96603614
0.9659954
0.965955
0.96591514
0.96587574
0.96583676
0.96579826
0.96576023
0.9657226
0.96568555
0.96564883
0.96561265
0.9655769
0.9655416
0.9655068
0.9654724
0.9654385
0.96540505
0.9653721
0.96533954
0.9653075
0.9652758
0.96524465
0.96521395
0.96518373
0.96515393
0.96512467
0.96509576
0.9650674
0.96503943
0.96501195
0.9649849
0.96495837
0.96493226
0.9649066
0.9648814
0.9648567
0.9648324
0.9648086
0.9647852
0.96476233
0.9647399
0.9647179
0.9646964
0.96467537
0.96465474
0.9646346
0.9646149
0.96459574
0.96457696
0.96455866
0.9645408
0.96452343
0.9645065
0.96449
0.964474
0.96445847
0.9644434
0.9644287
0.96441454
0.9644008
0.9643876
0.9643748
0.96436244
0.9643506
0.96433914
0.96432817
0.9643177
0.96430767
0.96429807
0.96428895
0.9642803
0.9642721
0.96426433
0.96425706
0.9642502
0.9642438
0.9642379
0.9642325
0.9642275
0.96422297
0.96421885
0.9642153
0.9642121
0.9642094
0.9642072
0.9642054
0.9642041
0.9642032
0.9642028
0.9642029
0.96420336
0.9642044
0.9642058
0.96420765
0.96421003
0.96421283
0.9642161
0.9642198
0.96422404
0.9642287
0.96423376
0.96423936
0.9642454
0.9642518
0.9642588
0.9642662
0.96427405
0.96428233
0.96429116
0.9643004
0.96431005
0.96432024
0.96433085
0.9643419
0.96435344
0.9643654
0.9643779
0.9643908
0.96440417
0.964418
0.96443224
0.964447
0.9644622
0.9644779
0.964494
0.96451056
0.9645276
0.96454513
0.9645631
0.9645815
0.9646004
0.9646197
0.9646395
0.96465975
0.9646805
0.96470165
0.9647233
0.96474534
0.96476793
0.96479094
0.96481436
0.9648383
0.9648627
0.96488756
0.96491283
0.9649386
0.9649648
0.9649915
0.96501863
0.9650462
0.9650743
0.9651028
0.96513176
0.9651612
0.9651911
0.96522146
0.9652523
0.9652835
0.9653153
0.96534747
0.9653801
0.9654132
0.96544677
0.9654808
0.96551526
0.9655502
0.9655856
0.9656215
0.9656578
0.96569455
0.9657318
0.9657695
0.9658077
0.9658463
0.96588534
0.96592486
0.96596485
0.9660053
0.9660462
0.9660876
0.9661294
0.9661717
0.9662145
0.96625763
0.9663013
0.9663454
0.96639
0.9664351
0.96648055
0.9665265
0.96657294
0.9666198
0.9666672
0.9667149
0.9667632
0.9668119
0.96686107
0.9669107
0.9669608
0.96701133
0.96706235
0.9671138
0.96716577
0.9672181
0.967271
0.96732426
0.967378
0.96743226
0.9674869
0.96754205
0.96759766
0.96765375
0.96771026
0.96776724
0.96782464
0.9678825
0.96794087
0.9679997
0.968059
0.9681187
0.96817887
0.96823955
0.96830064
0.9683622
0.96842426
0.9684867
0.96854967
0.968613
0.9686769
0.96874124
0.968806
0.96887124
0.9689369
0.9690031
0.9690697
0.9691368
0.9692043
0.9692723
0.96934074
0.96940964
0.969479
0.9695489
0.96961915
0.9696899
0.9697611
0.9698328
0.9699049
0.96997744
0.9700505
0.970124
0.970198
0.97027236
0.9703473
0.97042257
0.9704984
0.9705746
0.9706513
0.9707285
0.9708062
0.97088426
0.9709628
0.9710418
0.97112125
0.9712012
0.9712816
0.9713624
0.9714437
0.9715255
0.9716077
0.97169036
0.9717735
0.97185713
0.9719412
0.9720257
0.9721107
0.9721961
0.972282
0.97236836
0.97245514
0.9725424
0.97263014
0.97271836
0.972807
0.9728961
0.9729857
0.9730757
0.97316617
0.9732571
0.9733485
0.97344035
0.9735327
0.9736255
0.9737187
0.9738124
0.9739066
0.97400117
0.97409624
0.9741918
0.97428775
0.9743842
0.9744811
0.9745785
0.9746763
0.9747746
0.97487336
0.97497255
0.9750722
0.97517234
0.97527295
0.975374
0.9754755
0.9755774
0.9756798
0.9757827
0.97588605
0.9759898
0.9760941
0.9761988
0.976304
0.9764096
0.9765157
0.9766222
0.9767293
0.97683674
0.9769446
0.97705305
0.9771619
0.9772712
0.97738093
0.97749114
0.9776018
0.977713
0.97782457
0.9779366
0.97804916
0.9781621
0.97827554
0.97838944
0.9785038
0.9786186
0.9787339
0.9788496
0.9789655
0.9790811
0.9791964
0.97931147
0.9794262
0.9795407
0.9796549
0.97976875
0.97988236
0.9799957
0.98010874
0.9802215
0.980334
0.98044616
0.98055804
0.9806697
0.98078096
0.980892
0.9810028
0.98111326
0.9812234
0.9813333
0.9814429
0.98155224
0.9816613
0.98177004
0.9818785
0.9819867
0.98209465
0.98220223
0.9823096
0.9824166
0.9825234
0.98262984
0.982736
0.9828419
0.9829475
0.98305285
0.9831579
0.98326266
0.98336715
0.98347133
0.9835752
0.9836788
0.9837822
0.9838852
0.983988
0.98409045
0.9841926
0.98429453
0.98439616
0.9844975
0.9845985
0.98469925
0.98479974
0.98489994
0.98499984
0.98509943
0.9851988
0.98529786
0.9853966
0.9854951
0.98559326
0.9856912
0.98578876
0.9858861
0.9859832
0.98607993
0.98617643
0.9862726
0.9863685
0.98646414
0.98655945
0.9866545
0.9867493
0.98684376
0.98693794
0.9870318
0.98712546
0.9872188
0.98731184
0.9874046
0.9874971
0.9875893
0.9876812
0.9877728
0.98786414
0.9879552
0.98804593
0.9881364
0.98822665
0.98831654
0.9884062
0.98849547
0.9885845
0.9886733
0.9887618
0.98885
0.9889379
0.98902553
0.98911285
0.98919994
0.98928666
0.98937315
0.98945934
0.9895453
0.9896309
0.98971623
0.9898013
0.98988605
0.9899705
0.9900547
0.99013865
0.9902223
0.9903056
0.99038863
0.9904714
0.9905539
0.9906361
0.990718
0.99079967
0.99088097
0.990962
0.9910428
0.9911233
0.9912035
0.9912834
0.99136305
0.9914424
0.9915214
0.9916002
0.9916787
0.9917569
0.9918348
0.9919124
0.9919898
0.99206686
0.99214363
0.9922201
0.9922963
0.9923722
0.99244785
0.9925232
0.99259824
0.99267304
0.9927475
0.9928217
0.9928956
0.9929693
0.9930426
0.99311566
0.99318844
0.9932609
0.9933331
0.99340504
0.9934767
0.99354804
0.9936191
0.99368984
0.99376035
0.99383056
0.9939005
0.9939701
0.9940394
0.9941085
0.9941773
0.99424577
0.99431396
0.9943819
0.9944495
0.99451685
0.99458396
0.9946507
0.9947172
0.9947834
0.9948493
0.99491495
0.99498034
0.99504536
0.99511015
0.99517465
0.99523884
0.9953028
0.9953664
0.99542975
0.9954928
0.9955556
0.9956181
0.99568033
0.9957422
0.9958039
0.9958652
0.99592626
0.99598706
0.99604756
0.99610776
0.99616766
0.9962273
0.9962867
0.99634576
0.9964045
0.996463
0.99652123
0.9965792
0.9966368
0.99669415
0.9967512
0.996808
0.9968645
0.9969207
0.9969766
0.9970323
0.9970876
0.9971427
0.99719745
0.997252
0.99730617
0.9973601
0.99741375
0.9974671
0.9975202
0.99757296
0.99762547
0.9976777
0.9977296
0.9977812
0.9978326
0.9978837
0.99793446
0.99798495
0.9980352
0.9980851
0.99813473
0.9981841
0.9982332
0.99828196
0.9983305
0.9983787
0.9984266
0.99847424
0.9985216
0.99856865
0.99861544
0.998662
0.9987082
0.9987541
0.99879974
0.9988451
0.9988902
0.998935
0.9989795
0.9990237
0.9990676
0.9991113
0.9991546
0.9991977
0.9992405
0.999283
0.9993252
0.9993672
0.9994088
0.99945015
0.9994912
0.99953204
0.9995725
0.99961275
0.9996527
0.9996923
0.9997317
0.99977076
0.99980956
0.99984807
0.9998863
0.99992424
0.99996185
0.9999992
1.0000364
1.0000731
1.0001097
1.0001458
1.0001818
1.0002174
1.0002528
1.0002879
1.0003227
1.0003572
1.0003914
1.0004253
1.000459
1.0004923
1.0005255
1.0005583
1.0005907
1.000623
1.0006549
1.0006865
1.0007179
1.000749
1.0007797
1.0008103
1.0008405
1.0008705
1.0009001
1.0009295
1.0009586
1.0009874
1.0010159
1.001044
1.001072
1.0010997
1.001127
1.0011542
1.0011809
1.0012075
1.0012337
1.0012596
1.0012853
1.0013106
1.0013357
1.0013605
1.0013851
1.0014093
1.0014333
1.0014569
1.0014802
1.0015033
1.0015261
1.0015486
1.0015708
1.0015928
1.0016145
1.0016358
1.0016569
1.0016778
1.0016983
1.0017185
1.0017384
1.0017581
1.0017774
1.0017965
1.0018153
1.0018338
1.001852
1.00187
1.0018877
1.0019051
1.0019221
1.0019389
1.0019555
1.0019717
1.0019877
1.0020033
1.0020187
1.0020337
1.0020486
1.002063
1.0020773
1.0020913
1.0021049
1.0021183
1.0021313
1.0021442
1.0021567
1.0021689
1.0021809
1.0021926
1.002204
1.002215
1.0022259
1.0022364
1.0022466
1.0022565
1.0022662
1.0022756
1.0022846
1.0022935
1.002302
1.0023103
1.0023181
1.0023259
1.0023333
1.0023403
1.0023471
1.0023537
1.0023599
1.0023658
1.0023715
1.0023769
1.0023819
1.0023868
1.0023913
1.0023955
1.0023994
1.0024031
1.0024066
1.0024097
1.0024124
1.002415
1.0024172
1.0024191
1.0024208
1.0024222
1.0024233
1.0024241
1.0024247
1.0024253
1.0024258
1.0024263
1.0024266
1.002427
1.0024272
1.0024275
1.0024277
1.0024278
1.0024278
1.0024278
1.0024278
1.0024277
1.0024276
1.0024273
1.0024271
1.0024269
1.0024265
1.002426
1.0024256
1.0024251
1.0024245
1.0024239
1.0024232
1.0024225
1.0024216
1.0024208
1.0024198
1.0024189
1.0024179
1.0024168
1.0024157
1.0024145
1.0024133
1.002412
1.0024107
1.0024092
1.0024078
1.0024064
1.0024048
1.0024031
1.0024015
1.0023998
1.002398
1.0023962
1.0023943
1.0023924
1.0023904
1.0023884
1.0023862
1.0023841
1.0023819
1.0023797
1.0023774
1.002375
1.0023725
1.0023701
1.0023675
1.002365
1.0023624
1.0023596
1.0023569
1.0023541
1.0023513
1.0023483
1.0023454
1.0023423
1.0023394
1.0023361
1.002333
1.0023298
1.0023265
1.0023232
1.0023198
1.0023164
1.0023128
1.0023092
1.0023056
1.0023019
1.0022982
1.0022945
1.0022907
1.0022868
1.0022829
1.0022789
1.0022749
1.0022707
1.0022666
1.0022624
1.0022582
1.0022538
1.0022495
1.0022451
1.0022405
1.002236
1.0022315
1.0022268
1.0022221
1.0022174
1.0022125
1.0022078
1.0022029
1.0021979
1.0021929
1.0021877
1.0021826
1.0021775
1.0021722
1.002167
1.0021616
1.0021563
1.0021508
1.0021453
1.0021397
1.0021341
1.0021285
1.0021228
1.0021169
1.0021111
1.0021052
1.0020993
1.0020933
1.0020872
1.0020812
1.0020751
1.0020689
1.0020626
1.0020562
1.0020499
1.0020435
1.002037
1.0020305
1.0020239
1.0020173
1.0020106
1.0020038
1.001997
1.0019902
1.0019833
1.0019763
1.0019692
1.0019622
1.001955
1.0019479
1.0019407
1.0019333
1.0019261
1.0019187
1.0019112
1.0019037
1.0018961
1.0018885
1.0018809
1.0018731
1.0018654
1.0018575
1.0018497
1.0018418
1.0018338
1.0018257
1.0018176
1.0018095
1.0018013
1.001793
1.0017847
1.0017763
1.0017679
1.0017594
1.0017508
1.0017422
1.0017337
1.001725
1.0017163
1.0017074
1.0016986
1.0016897
1.0016807
1.0016717
1.0016626
1.0016534
1.0016443
1.0016351
1.0016258
1.0016165
1.0016071
1.0015976
1.0015881
1.0015786
1.0015689
1.0015593
1.0015495
1.0015397
1.0015299
1.00152
1.0015101
1.0015001
1.0014901
1.00148
1.0014699
1.0014596
1.0014493
1.0014391
1.0014287
1.0014182
1.0014077
1.0013973
1.0013866
1.001376
1.0013653
1.0013546
1.0013437
1.0013329
1.001322
1.0013111
1.0013
1.001289
1.0012778
1.0012666
1.0012554
1.0012442
1.0012327
1.0012214
1.00121
1.0011984
1.0011868
1.0011753
1.0011636
1.0011519
1.0011401
1.0011283
1.0011164
1.0011045
1.0010924
1.0010804
1.0010684
1.0010562
1.0010439
1.0010316
1.0010194
1.001007
1.0009946
1.0009822
1.0009695
1.000957
1.0009444
1.0009316
1.0009189
1.0009061
1.0008932
1.0008804
1.0008674
1.0008544
1.0008413
1.0008281
1.0008149
1.0008017
1.0007885
1.0007751
1.0007617
1.0007483
1.0007348
1.0007212
1.0007076
1.0006939
1.0006802
1.0006664
1.0006526
1.0006387
1.0006248
1.0006108
1.0005968
1.0005826
1.0005685
1.0005542
1.00054
1.0005257
1.0005113
1.0004969
1.0004824
1.0004679
1.0004532
1.0004387
1.0004239
1.0004092
1.0003943
1.0003796
1.0003647
1.0003496
1.0003346
1.0003196
1.0003045
1.0002893
1.0002741
1.0002587
1.0002434
1.000228
1.0002126
1.000197
1.0001814
1.0001658
1.0001502
1.0001345
1.0001187
1.0001029
1.000087
1.000071
1.0000551
1.000039
1.0000229
1.0000068
0.9999905
0.99997425
0.999958
0.9999416
0.99992514
0.9999087
0.9998921
0.99987555
0.9998589
0.9998422
0.9998255
0.99980867
0.9997918
0.9997749
0.99975795
0.9997409
0.99972385
0.9997067
0.9996895
0.9996723
0.999655
0.99963766
0.99962026
0.9996028
0.9995853
0.99956775
0.9995501
0.99953246
0.9995147
0.99949694
0.9994791
0.99946123
0.9994433
0.9994253
0.99940723
0.9993891
0.999371
0.99935275
0.9993345
0.99931616
0.9992978
0.9992794
0.9992609
0.99924237
0.99922377
0.9992051
0.99918646
0.9991677
0.9991489
0.99913
0.9991111
0.99909216
0.99907315
0.999054
0.99903494
0.99901575
0.9989965
0.9989772
0.9989579
0.99893844
0.998919
0.9988995
0.9988799
0.9988603
0.99884063
0.9988209
0.9988011
0.9987813
0.9987614
0.9987415
0.9987215
0.99870145
0.9986813
0.99866116
0.99864095
0.9986207
0.99860036
0.99858
0.9985596
0.9985391
0.9985186
0.99849796
0.99847734
0.99845666
0.99843585
0.99841505
0.9983942
0.99837327
0.99835235
0.9983313
0.9983102
0.9982891
0.9982679
0.99824667
0.9982254
0.99820405
0.9981827
0.9981613
0.99813986
0.99811834
0.99809676
0.9980752
0.99805355
0.99803185
0.99801016
0.9979884
0.9979666
0.9979447
0.99792284
0.99790084
0.99787885
0.99785686
0.99783474
0.9978126
0.99779046
0.9977682
0.997746
0.9977237
0.99770135
0.99767894
0.9976565
0.99763405
0.9976115
0.99758893
0.99756634
0.9975437
0.997521
0.9974982
0.99747545
0.9974526
0.9974297
0.9974068
0.99738383
0.9973608
0.99733776
0.99731463
0.9972915
0.9972683
0.9972451
0.9972218
0.99719846
0.9971751
0.9971517
0.99712825
0.99710476
0.9970812
0.9970576
0.99703395
0.9970103
0.99698657
0.9969628
0.996939
0.9969151
0.9968912
0.9968673
0.9968433
0.99681926
0.9967952
0.99677104
0.9967469
0.9967227
0.99669844
0.9966741
0.99664974
0.99662536
0.9966009
0.9965765
0.99655193
0.9965274
0.99650276
0.9964781
0.9964534
0.99642867
0.9964039
0.996379
0.99635416
0.99632925
0.9963043
0.99627924
0.9962542
0.9962291
0.99620396
0.99617875
0.99615353
0.99612826
0.9961029
0.99607754
0.99605215
0.9960267
0.9960012
0.9959756
0.99595004
0.9959244
0.9958987
0.995873
0.9958472
0.9958214
0.99579555
0.9957697
0.9957437
0.9957177
0.9956917
0.9956656
0.9956395
0.99561334
0.9955871
0.9955608
0.99553454
0.9955082
0.9954818
0.9954554
0.9954289
0.9954024
0.9953758
0.9953492
0.9953225
0.9952958
0.9952691
0.9952423
0.9952155
0.9951886
0.99516165
0.9951347
0.9951077
0.99508065
0.9950535
0.9950264
0.99499923
0.994972
0.9949447
0.9949174
0.99489
0.9948626
0.99483514
0.9948076
0.99478006
0.99475247
0.99472487
0.99469715
0.99466944
0.9946417
0.9946139
0.99458605
0.9945581
0.9945302
0.9945022
0.9944742
0.9944461
0.99441797
0.9943898
0.9943616
0.9943333
0.994305
0.9942767
0.9942483
0.99421984
0.99419135
0.99416286
0.9941343
0.9941057
0.994077
0.9940483
0.99401957
0.9939908
0.99396193
0.9939331
0.9939042
0.9938752
0.9938462
0.9938171
0.993788
0.99375886
0.99372965
0.99370044
0.9936712
0.99364185
0.99361247
0.9935831
0.9935536
0.99352413
0.9934946
0.99346495
0.9934353
0.99340564
0.99337596
0.99334615
0.99331635
0.9932865
0.9932566
0.99322665
0.99319667
0.9931666
0.9931366
0.9931064
0.99307626
0.99304605
0.9930158
0.9929855
0.99295515
0.99292475
0.99289435
0.99286383
0.9928333
0.9928028
0.99277216
0.9927415
0.9927108
0.9926801
0.99264926
0.99261844
0.99258757
0.99255663
0.9925257
0.99249464
0.9924636
0.9924325
0.99240136
0.9923702
0.99233896
0.99230766
0.9922763
0.99224496
0.99221355
0.99218214
0.9921506
0.9921191
0.9920875
0.99205583
0.9920242
0.9919924
0.9919607
0.9919289
0.991897
0.9918651
0.99183315
0.9918012
0.99176913
0.99173707
0.99170494
0.99167275
0.99164057
0.9916083
0.991576
0.99154365
0.9915113
0.99147886
0.9914464
0.99141383
0.9913813
0.9913487
0.991316
0.9912833
0.9912506
0.9912178
0.99118495
0.99115205
0.99111915
0.9910862
0.99105316
0.99102014
0.990987
0.99095386
0.99092066
0.99088746
0.9908542
0.9908209
0.9907875
0.99075407
0.9907206
0.99068713
0.9906536
0.99062
0.99058634
0.99055266
0.990519
0.9904852
0.9904514
0.99041754
0.9903836
0.9903497
0.9903157
0.99028164
0.9902476
0.99021345
0.9901793
0.9901451
0.9901108
0.99007654
0.9900422
0.9900078
0.98997337
0.9899389
0.9899044
0.98986983
0.9898352
0.9898006
0.9897658
0.98973113
0.9896963
0.9896615
0.9896266
0.9895917
0.9895567
0.98952174
0.98948663
0.9894516
0.9894164
0.98938125
0.989346
0.98931074
0.9892754
0.98924005
0.98920465
0.9891692
0.98913366
0.98909813
0.98906255
0.9890269
0.98899126
0.9889555
0.98891973
0.9888839
0.9888481
0.9888122
0.98877627
0.98874027
0.9887042
0.98866814
0.988632
0.98859584
0.98855966
0.9885234
0.9884871
0.98845077
0.98841435
0.9883779
0.98834145
0.9883049
0.9882684
0.9882318
0.9881951
0.9881584
0.9881217
0.98808485
0.988048
0.9880112
0.9879742
0.9879373
0.98790026
0.98786324
0.9878261
0.987789
0.9877518
0.9877146
0.9876773
0.98763996
0.9876026
0.9875652
0.9875277
0.98749024
0.9874527
0.98741513
0.98737746
0.9873398
0.98730206
0.98726434
0.9872265
0.98718864
0.9871507
0.9871128
0.98707485
0.98703676
0.98699874
0.9869606
0.98692244
0.98688424
0.98684597
0.98680764
0.9867693
0.98673093
0.9866925
0.98665404
0.98661554
0.986577
0.98653835
0.98649967
0.986461
0.98642224
0.98638344
0.98634464
0.9863058
0.98626685
0.98622787
0.9861888
0.9861498
0.9861107
0.9860716
0.9860324
0.9859934
0.98595446
0.98591566
0.9858769
0.9858383
0.9857998
0.9857614
0.9857231
0.9856849
0.9856468
0.9856088
0.98557097
0.9855332
0.9854955
0.98545796
0.98542047
0.98538315
0.9853459
0.98530877
0.9852717
0.9852348
0.98519796
0.98516124
0.98512465
0.9850881
0.98505175
0.98501545
0.9849792
0.98494315
0.98490715
0.98487127
0.9848355
0.98479986
0.9847643
0.9847288
0.98469347
0.98465824
0.98462313
0.9845881
0.98455316
0.98451835
0.9844836
0.98444897
0.9844145
0.98438007
0.9843458
0.9843116
0.98427755
0.9842435
0.98420966
0.9841759
0.98414224
0.9841087
0.98407525
0.98404187
0.9840086
0.98397547
0.98394245
0.98390955
0.9838767
0.983844
0.9838114
0.9837789
0.98374647
0.98371416
0.983682
0.9836499
0.98361796
0.9835861
0.9835543
0.98352265
0.98349106
0.98345965
0.9834283
0.98339707
0.9833659
0.9833349
0.98330396
0.98327315
0.9832424
0.9832118
0.9831813
0.9831509
0.9831206
0.9830904
0.98306036
0.9830304
0.9830005
0.9829707
0.9829411
0.9829115
0.9828821
0.9828527
0.9828235
0.98279434
0.9827653
0.9827364
0.98270756
0.98267883
0.9826503
0.9826217
0.98259336
0.98256505
0.98253685
0.9825088
0.9824808
0.9824529
0.9824252
0.9823975
0.98236996
0.98234254
0.9823152
0.98228794
0.9822608
0.98223376
0.9822069
0.98218006
0.98215336
0.9821267
0.98210025
0.98207384
0.98204756
0.98202133
0.9819953
0.9819693
0.9819434
0.9819177
0.981892
0.9818665
0.981841
0.9818157
0.9817904
0.98176533
0.9817403
0.9817154
0.9816905
0.98166585
0.98164123
0.98161674
0.98159236
0.98156804
0.98154384
0.98151976
0.9814958
0.98147196
0.9814482
0.9814245
0.98140097
0.98137754
0.9813542
0.98133093
0.9813078
0.9812848
0.9812619
0.9812391
0.9812164
0.9811938
0.98117125
0.98114884
0.9811266
0.9811044
0.9810823
0.9810603
0.9810385
0.9810167
0.98099506
0.98097354
0.9809521
0.98093075
0.9809095
0.98088837
0.9808673
0.9808464
0.9808256
0.9808049
0.9807843
0.9807638
0.9807434
0.98072314
0.98070294
0.9806829
0.98066294
0.98064303
0.9806233
0.98060364
0.9805841
0.98056465
0.9805453
0.9805261
0.98050696
0.98048794
0.980469
0.9804502
0.9804315
0.9804129
0.9803944
0.980376
0.9803577
0.9803395
0.98032147
0.9803035
0.98028564
0.9802679
0.98025024
0.9802327
0.98021525
0.9801979
0.9801807
0.9801636
0.9801465
0.9801296
0.9801128
0.9800961
0.98007953
0.980063
0.98004663
0.98003036
0.98001415
0.9799981
0.97998214
0.9799663
0.9799505
0.9799349
0.9799193
0.9799039
0.97988856
0.9798733
0.97985816
0.9798432
0.97982824
0.97981346
0.97979873
0.97978413
0.97976965
0.9797553
0.979741
0.9797268
0.9797127
0.9796988
0.9796849
0.9796712
0.97965753
0.979644
0.97963053
0.9796172
0.97960395
0.97959083
0.97957784
0.9795649
0.9795521
0.9795394
0.9795268
0.9795143
0.97950196
0.9794897
0.97947747
0.9794654
0.97945344
0.9794416
0.97942984
0.9794182
0.97940665
0.9793952
0.9793839
0.9793727
0.97936153
0.9793505
0.9793396
0.9793288
0.9793181
0.97930753
0.97929704
0.9792866
0.97927636
0.97926617
0.9792561
0.97924614
0.9792363
0.9792265
0.9792169
0.97920734
0.9791979
0.9791886
0.9791794
0.97917026
0.97916126
0.9791523
0.9791435
0.9791348
0.9791262
0.97911775
0.97910935
0.97910106
0.9790929
0.97908485
0.97907686
0.97906905
0.9790613
0.9790536
0.9790461
0.97903866
0.9790313
0.9790241
0.979017
0.97901
0.9790031
0.9789963
0.9789896
0.978983
0.9789765
0.9789701
0.97896385
0.97895765
0.97895163
0.9789457
0.9789398
0.97893405
0.9789284
0.97892284
0.9789174
0.9789121
0.97890687
0.97890174
0.97889674
0.97889185
0.978887
0.9788824
0.9788778
0.97887325
0.9788689
0.9788646
0.97886044
0.9788564
0.97885245
0.9788486
0.9788448
0.9788412
0.97883767
0.9788342
0.9788309
0.97882766
0.97882456
0.9788216
0.97881866
0.97881585
0.9788132
0.97881055
0.9788081
0.9788057
0.97880346
0.97880125
0.9787992
0.97879726
0.9787954
0.9787937
0.978792
0.97879046
0.97878903
0.9787877
0.9787865
0.9787854
0.9787844
0.9787835
0.97878265
0.978782
0.9787814
0.9787809
0.97878057
0.97878027
0.9787801
0.97878003
0.9787801
0.97878027
0.9787805
0.97878087
0.97878134
0.9787819
0.9787826
0.97878337
0.97878426
0.9787852
0.97878635
0.97878754
0.97878885
0.9787903
0.9787918
0.9787934
0.9787951
0.97879696
0.9787989
0.97880095
0.9788031
0.97880536
0.97880775
0.9788102
0.97881275
0.97881544
0.97881824
0.9788211
0.97882414
0.97882724
0.9788304
0.97883373
0.9788372
0.9788408
0.9788447
0.97884876
0.978853
0.97885746
0.9788621
0.978867
0.97887206
0.97887737
0.97888285
0.9788886
0.9788945
0.97890055
0.97890687
0.97891337
0.9789201
0.978927
0.9789341
0.97894144
0.978949
0.97895676
0.9789647
0.97897285
0.9789812
0.9789897
0.9789985
0.9790075
0.9790166
0.979026
0.97903556
0.9790454
0.97905535
0.97906554
0.97907597
0.9790866
0.97909737
0.9791084
0.9791196
0.979131
0.9791426
0.97915447
0.9791665
0.9791787
0.9791912
0.9792038
0.9792167
0.97922975
0.979243
0.97925645
0.97927016
0.979284
0.9792981
0.97931236
0.97932684
0.97934157
0.97935647
0.97937155
0.97938687
0.97940236
0.9794181
0.979434
0.9794501
0.97946644
0.979483
0.97949976
0.9795167
0.97953385
0.9795512
0.9795687
0.9795865
0.9796045
0.97962266
0.979641
0.9796596
0.9796784
0.97969735
0.97971654
0.979736
0.9797556
0.97977537
0.9797954
0.9798156
0.97983605
0.97985667
0.9798775
0.9798985
0.97991973
0.9799412
0.9799628
0.9799847
0.98000675
0.980029
0.98005146
0.98007417
0.98009706
0.9801201
0.98014337
0.98016685
0.9801906
0.9802145
0.98023856
0.9802629
0.9802874
0.9803121
0.980337
0.9803622
0.9803875
0.980413
0.98043877
0.9804647
0.98049086
0.9805172
0.9805438
0.98057055
0.9805975
0.9806247
0.98065203
0.98067963
0.9807074
0.9807354
0.9807636
0.980792
0.9808206
0.9808494
0.9808784
0.9809076
0.98093706
0.9809667
0.9809965
0.98102653
0.9810568
0.9810872
0.9811179
0.9811487
0.9811798
0.98121107
0.98124254
0.9812742
0.9813061
0.98133814
0.98137045
0.98140293
0.9814356
0.9814685
0.98150164
0.9815349
0.98156846
0.98160213
0.98163605
0.9816702
0.98170453
0.98173904
0.9817738
0.9818087
0.9818439
0.98187923
0.9819148
0.9819506
0.9819865
0.9820227
0.98205906
0.98209566
0.98213243
0.98216945
0.98220664
0.982244
0.9822816
0.9823195
0.98235744
0.9823957
0.9824341
0.9824727
0.9825116
0.9825506
0.98258984
0.9826293
0.98266894
0.98270875
0.98274887
0.9827891
0.9828296
0.9828702
0.9829111
0.9829522
0.9829935
0.98303497
0.9830767
0.9831186
0.9831607
0.983203
0.9832455
0.9832882
0.98333114
0.98337424
0.9834176
0.98346114
0.9835049
0.9835488
0.983593
0.98363733
0.98368186
0.9837266
0.9837716
0.9838168
0.98386216
0.98390776
0.98395354
0.9839995
0.9840457
0.9840921
0.9841387
0.9841855
0.98423254
0.98427975
0.9843272
0.9843748
0.9844226
0.98447067
0.9845189
0.98456734
0.984616
0.98466486
0.9847139
0.98476315
0.9848126
0.9848623
0.9849122
0.9849623
0.98501253
0.9850631
0.98511374
0.98516464
0.9852157
0.98526704
0.98531854
0.9853703
0.9854222
0.98547435
0.9855267
0.9855792
0.98563194
0.9856849
0.98573804
0.9857914
0.98584497
0.98589873
0.9859527
0.98600686
0.9860612
0.9861158
0.9861706
0.9862256
0.9862808
0.9863362
0.9863918
0.9864476
0.9865036
0.9865598
0.98661625
0.9866729
0.98672974
0.9867867
0.986844
0.98690146
0.9869591
0.9870169
0.987075
0.98713326
0.98719174
0.9872504
0.9873093
0.98736835
0.98742765
0.98748714
0.98754686
0.98760676
0.98766685
0.98772717
0.98778766
0.9878484
0.9879093
0.9879704
0.98803174
0.9880933
0.98815507
0.988217
0.98827916
0.9883415
0.98840404
0.9884668
0.9885298
0.988593
0.98865634
0.98871994
0.9887837
0.9888477
0.98891187
0.9889763
0.9890409
0.9891057
0.98917073
0.98923594
0.9893014
0.989367
0.9894328
0.98949885
0.9895651
0.98963153
0.9896982
0.98976505
0.9898321
0.9898994
0.9899668
0.9900345
0.9901024
0.9901705
0.9902388
0.9903073
0.99037594
0.99044484
0.990514
0.99058324
0.9906528
0.9907225
0.9907924
0.99086255
0.9909329
0.9910034
0.99107414
0.9911451
0.99121624
0.9912876
0.9913592
0.99143094
0.9915029
0.99157506
0.9916474
0.99172
0.9917928
0.9918658
0.991939
0.9920124
0.992086
0.99215984
0.9922338
0.9923081
0.99238247
0.9924571
0.99253196
0.992607
0.9926822
0.9927577
0.9928333
0.9929092
0.99298525
0.9930615
0.99313796
0.99321467
0.9932915
0.9933686
0.9934459
0.99352336
0.9936011
0.993679
0.99375707
0.9938354
0.9939139
0.9939926
0.99407154
0.9941507
0.99423003
0.99430954
0.9943893
0.9944692
0.9945494
0.99462974
0.9947103
0.9947911
0.99487203
0.9949532
0.9950346
0.9951162
0.99519795
0.99527997
0.99536216
0.99544454
0.99552715
0.99560994
0.99569297
0.9957762
0.9958596
0.99594325
0.99602705
0.9961111
0.9961954
0.99627984
0.9963645
0.9964493
0.99653435
0.99661964
0.9967051
0.99679077
0.99687666
0.9969626
0.99704826
0.9971336
0.9972187
0.9973035
0.99738795
0.99747217
0.99755603
0.9976396
0.9977229
0.9978059
0.99788857
0.997971
0.9980531
0.9981349
0.9982164
0.99829763
0.9983785
0.99845916
0.99853945
0.9986195
0.99869925
0.99877864
0.9988578
0.9989366
0.99901515
0.9990934
0.9991714
0.999249
0.99932635
0.9994034
0.9994802
0.99955666
0.9996328
0.99970865
0.99978423
0.9998595
0.9999345
1.0000092
1.0000836
1.0001576
1.0002314
1.0003049
1.0003781
1.000451
1.0005236
1.0005959
1.0006679
1.0007397
1.0008111
1.0008821
1.000953
1.0010235
1.0010937
1.0011637
1.0012333
1.0013027
1.0013717
1.0014404
1.001509
1.001577
1.0016448
1.0017124
1.0017797
1.0018467
1.0019133
1.0019797
1.0020458
1.0021116
1.002177
1.0022422
1.002307
1.0023717
1.002436
1.0024999
1.0025637
1.0026271
1.0026902
1.002753
1.0028155
1.0028777
1.0029396
1.0030012
1.0030626
1.0031236
1.0031843
1.0032448
1.0033048
1.0033647
1.0034243
1.0034835
1.0035424
1.0036011
1.0036595
1.0037175
1.0037752
1.0038327
1.0038899
1.0039468
1.0040034
1.0040597
1.0041156
1.0041713
1.0042267
1.0042818
1.0043366
1.0043911
1.0044452
1.0044992
1.0045527
1.004606
1.004659
1.0047117
1.0047642
1.0048163
1.0048681
1.0049196
1.0049709
1.0050218
1.0050725
1.0051228
1.0051728
1.0052226
1.005272
1.0053211
1.00537
1.0054187
1.0054668
1.0055149
1.0055625
1.0056099
1.005657
1.0057037
1.0057502
1.0057964
1.0058422
1.0058879
1.0059332
1.0059781
1.0060228
1.0060673
1.0061114
1.0061551
1.0061986
1.0062419
1.0062848
1.0063274
1.0063697
1.0064118
1.0064535
1.0064949
1.0065361
1.0065769
1.0066174
1.0066577
1.0066977
1.0067374
1.0067767
1.0068157
1.0068544
1.0068929
1.0069311
1.006969
1.0070065
1.0070438
1.0070808
1.0071175
1.0071539
1.00719
1.0072258
1.0072613
1.0072964
1.0073314
1.007366
1.0074003
1.0074342
1.007468
1.0075014
1.0075345
1.0075674
1.0075998
1.0076321
1.0076641
1.0076957
1.007727
1.007758
1.0077888
1.0078193
1.0078495
1.0078793
1.0079088
1.0079381
1.0079671
1.0079957
1.0080241
1.0080522
1.00808
1.0081074
1.0081346
1.0081615
1.0081881
1.0082144
1.0082403
1.0082661
1.0082915
1.0083166
1.0083414
1.0083659
1.0083902
1.008414
1.0084376
1.008461
1.008484
1.0085068
1.0085292
1.0085514
1.0085732
1.0085948
1.008616
1.008637
1.0086576
1.008678
1.008698
1.0087178
1.0087372
1.0087564
1.0087752
1.0087938
1.0088121
1.0088301
1.0088477
1.0088651
1.0088823
1.0088991
1.0089155
1.0089318
1.0089476
1.0089632
1.0089786
1.0089936
1.0090083
1.0090227
1.0090368
1.0090506
1.0090642
1.0090774
1.0090903
1.009103
1.0091153
1.0091274
1.0091391
1.0091506
1.0091617
1.0091726
1.0091832
1.0091934
1.0092033
1.0092131
1.0092224
1.0092314
1.0092403
1.0092487
1.009257
1.0092648
1.0092725
1.0092797
1.0092868
1.0092934
1.0092998
1.009306
1.0093117
1.0093173
1.0093224
1.0093274
1.009332
1.0093364
1.0093404
1.0093441
1.0093476
1.0093507
1.0093535
1.009356
1.0093583
1.0093602
1.0093619
1.0093633
1.0093644
1.0093651
1.0093656
1.0093657
1.0093656
1.0093652
1.0093645
1.0093634
1.0093621
1.0093606
1.0093586
1.0093564
1.0093539
1.0093511
1.009348
1.0093446
1.0093409
1.009337
1.0093327
1.0093281
1.0093232
1.009318
1.0093125
1.0093068
1.0093007
1.0092944
1.0092877
1.0092808
1.0092735
1.0092659
1.0092582
1.0092499
1.0092415
1.0092328
1.0092237
1.0092144
1.0092047
1.0091949
1.0091846
1.0091741
1.0091634
1.0091522
1.0091408
1.009129
1.0091171
1.0091048
1.0090922
1.0090793
1.0090661
1.0090526
1.0090388
1.0090247
1.0090104
1.0089958
1.0089808
1.0089655
1.0089499
1.008934
1.0089179
1.0089015
1.0088847
1.0088676
1.0088503
1.0088327
1.0088147
1.0087965
1.008778
1.0087591
1.0087401
1.0087206
1.0087008
1.0086808
1.0086606
1.0086399
1.0086191
1.0085979
1.0085763
1.0085546
1.0085324
1.00851
1.0084873
1.0084643
1.0084411
1.0084175
1.0083936
1.0083694
1.008345
1.0083202
1.0082952
1.0082698
1.0082442
1.0082182
1.008192
1.0081654
1.0081385
1.0081115
1.0080839
1.0080563
1.0080283
1.0079999
1.0079713
1.0079423
1.0079131
1.0078835
1.0078537
1.0078237
1.0077933
1.0077626
1.0077316
1.0077003
1.0076687
1.0076368
1.0076046
1.0075722
1.0075394
1.0075063
1.0074729
1.0074393
1.0074053
1.0073714
1.0073376
1.0073036
1.0072697
1.0072358
1.0072019
1.0071679
1.0071341
1.0071001
1.0070662
1.0070323
1.0069984
1.0069644
1.0069306
1.0068966
1.0068628
1.0068288
1.0067948
1.006761
1.006727
1.0066931
1.0066592
1.0066253
1.0065913
1.0065573
1.0065235
1.0064895
1.0064555
1.0064217
1.0063877
1.0063537
1.0063199
1.0062859
1.0062519
1.0062181
1.0061841
1.0061501
1.0061162
1.0060823
1.0060483
1.0060143
1.0059805
1.0059465
1.0059125
1.0058786
1.0058446
1.0058107
1.0057768
1.0057428
1.0057088
1.0056748
1.005641
1.005607
1.005573
1.0055391
1.0055051
1.0054711
1.0054371
1.0054032
1.0053693
1.0053353
1.0053014
1.0052674
1.0052334
1.0051994
1.0051655
1.0051315
1.0050975
1.0050635
1.0050296
1.0049956
1.0049616
1.0049276
1.0048937
1.0048597
1.0048257
1.0047917
1.0047578
1.0047238
1.0046898
1.0046558
1.0046219
1.0045879
1.0045539
1.0045198
1.0044858
1.0044519
1.0044179
1.0043839
1.00435
1.004316
1.004282
1.0042479
1.0042139
1.00418
1.004146
1.004112
1.0040779
1.0040439
1.00401
1.003976
1.003942
1.0039079
1.003874
1.00384
1.0038059
1.0037719
1.0037379
1.003704
1.0036699
1.0036359
1.0036019
1.0035678
1.0035338
1.0034999
1.0034658
1.0034318
1.0033978
1.0033637
1.0033298
1.0032958
1.0032617
1.0032277
1.0031936
1.0031596
1.0031255
1.0030916
1.0030576
1.0030235
1.0029895
1.0029554
1.0029215
1.0028874
1.0028534
1.0028193
1.0027853
1.0027512
1.0027173
1.0026832
1.0026492
1.0026151
1.0025811
1.002547
1.0025129
1.002479
1.0024449
1.0024109
1.0023768
1.0023427
1.0023087
1.0022746
1.0022407
1.0022066
1.0021725
1.0021385
1.0021044
1.0020703
1.0020363
1.0020022
1.0019681
1.001934
1.0019001
1.001866
1.0018319
1.0017979
1.0017638
1.0017297
1.0016956
1.0016617
1.0016276
1.0015935
1.0015594
1.0015253
1.0014913
1.0014572
1.0014231
1.001389
1.0013549
1.0013208
1.0012869
1.0012528
1.0012187
1.0011846
1.0011505
1.0011164
1.0010823
1.0010482
1.0010141
1.00098
1.000946
1.000912
1.0008779
1.0008438
1.0008097
1.0007756
1.0007415
1.0007074
1.0006733
1.0006392
1.0006051
1.000571
1.0005369
1.0005028
1.0004687
1.0004345
1.0004004
1.0003663
1.0003322
1.0002981
1.000264
1.00023
1.0001959
1.0001618
1.0001277
1.0000935
1.0000594
1.0000253
0.9999912
0.9999571
0.99992293
0.99988884
0.99985474
0.9998206
0.9997865
0.99975234
0.99971825
0.9996841
0.99965
0.99961585
0.99958175
0.9995476
0.9995135
0.99947935
0.99944526
0.9994111
0.99937695
0.99934286
0.9993087
0.9992746
0.99924046
0.9992063
0.99917215
0.99913806
0.9991039
0.99906975
0.9990356
0.9990015
0.99896735
0.9989332
0.99889904
0.9988649
0.99883074
0.99879664
0.9987625
0.99872833
0.9986942
0.99866
0.9986259
0.9985917
0.99855757
0.9985234
0.99848926
0.9984551
0.99842095
0.9983868
0.99835265
0.9983185
0.9982843
0.9982501
0.998216
0.9981818
0.99814767
0.9981135
0.9980793
0.99804515
0.998011
0.99797684
0.9979426
0.9979085
0.9978743
0.9978401
0.99780595
0.9977718
0.9977376
0.99770343
0.9976693
0.99763507
0.9976009
0.9975667
0.99753255
0.99749833
0.9974642
0.99742997
0.9973958
0.9973616
0.99732745
0.99729323
0.997259
0.99722487
0.99719065
0.99715644
0.9971223
0.9970881
0.99705386
0.9970197
0.9969855
0.9969513
0.99691707
0.9968829
0.9968487
0.9968145
0.9967803
0.99674606
0.9967119
0.9966777
0.9966435
0.9966093
0.99657506
0.99654084
0.99650663
0.9964724
0.9964382
0.996404
0.9963698
0.99633557
0.99630135
0.99626714
0.9962329
0.9961987
0.9961645
0.9961303
0.996096
0.9960618
0.9960276
0.9959934
0.99595916
0.9959249
0.9958907
0.99585646
0.99582225
0.995788
0.99575377
0.99571955
0.9956853
0.99565107
0.99561685
0.9955826
0.99554837
0.9955141
0.9954799
0.99544567
0.9954114
0.9953772
0.9953429
0.9953087
0.9952744
0.9952402
0.99520594
0.99517167
0.99513745
0.9951032
0.99506897
0.9950347
0.9950004
0.9949662
0.99493194
0.99489766
0.99486345
0.9948292
0.9947949
0.99476063
0.99472636
0.99469215
0.9946579
0.9946236
0.9945893
0.99455506
0.9945208
0.9944866
0.9944523
0.994418
0.99438375
0.9943495
0.9943152
0.99428093
0.99424666
0.9942124
0.9941781
0.99414384
0.9941096
0.9940753
0.99404097
0.9940067
0.9939724
0.99393815
0.9939039
0.9938696
0.9938353
0.993801
0.9937667
0.99373245
0.9936982
0.99366385
0.9936296
0.9935952
0.99356073
0.9935262
0.9934916
0.99345696
0.9934222
0.9933874
0.99335253
0.99331754
0.99328256
0.99324745
0.9932123
0.993177
0.9931417
0.9931063
0.99307084
0.9930353
0.99299973
0.992964
0.99292827
0.99289244
0.99285656
0.9928206
0.99278456
0.99274844
0.99271226
0.992676
0.99263966
0.99260324
0.99256676
0.9925302
0.9924936
0.9924569
0.99242014
0.9923833
0.9923464
0.99230945
0.9922724
0.99223524
0.99219805
0.9921608
0.9921234
0.992086
0.9920485
0.99201095
0.99197334
0.9919356
0.9918978
0.99186
0.99182206
0.99178404
0.991746
0.99170786
0.99166965
0.9916313
0.991593
0.99155456
0.99151605
0.9914775
0.9914388
0.9914001
0.9913613
0.99132246
0.99128354
0.9912445
0.9912054
0.9911663
0.991127
0.99108773
0.9910484
0.99100894
0.9909694
0.99092984
0.99089015
0.99085045
0.99081063
0.99077076
0.99073076
0.99069077
0.99065065
0.9906105
0.99057025
0.99052995
0.99048954
0.9904491
0.99040854
0.99036795
0.9903273
0.9902865
0.9902457
0.9902048
0.99016386
0.9901228
0.9900817
0.99004054
0.9899993
0.9899579
0.98991656
0.9898751
0.98983353
0.9897919
0.9897502
0.9897084
0.98966664
0.9896247
0.9895827
0.9895407
0.98949856
0.98945636
0.9894141
0.9893717
0.98932934
0.98928684
0.9892443
0.98920166
0.9891589
0.9891162
0.98907334
0.9890304
0.9889874
0.98894435
0.9889012
0.988858
0.9888147
0.9887714
0.9887279
0.9886844
0.98864084
0.9885972
0.9885535
0.9885097
0.98846585
0.9884219
0.9883779
0.9883338
0.98828965
0.9882454
0.98820114
0.9881568
0.98811233
0.9880678
0.9880232
0.9879786
0.9879339
0.98788905
0.98784417
0.9877992
0.98775417
0.9877091
0.9876639
0.9876187
0.9875734
0.987528
0.98748255
0.987437
0.9873914
0.98734576
0.9873
0.9872542
0.9872083
0.98716235
0.9871163
0.9870702
0.987024
0.98697776
0.98693144
0.986885
0.9868386
0.986792
0.9867454
0.98669875
0.98665196
0.9866051
0.98655826
0.98651123
0.9864642
0.98641706
0.9863699
0.98632264
0.9862753
0.98622787
0.98618037
0.98613286
0.98608524
0.9860375
0.98598975
0.9859419
0.98589396
0.985846
0.98579794
0.9857498
0.98570156
0.9856533
0.98560494
0.98555654
0.985508
0.98545945
0.9854108
0.9853621
0.9853133
0.9852645
0.98521554
0.9851665
0.98511744
0.98506826
0.9850191
0.9849698
0.9849204
0.984871
0.98482144
0.98477185
0.9847222
0.9846725
0.9846227
0.9845728
0.9845229
0.9844729
0.98442274
0.9843726
0.98432237
0.98427206
0.9842217
0.9841712
0.9841207
0.9840701
0.98401946
0.9839687
0.9839179
0.983867
0.983816
0.983765
0.9837139
0.9836627
0.98361146
0.98356014
0.98350877
0.98345727
0.98340577
0.98335415
0.9833025
0.9832507
0.9831989
0.98314697
0.983095
0.98304296
0.98299086
0.98293865
0.9828864
0.98283404
0.98278165
0.98272914
0.9826766
0.982624
0.9825713
0.9825185
0.9824657
0.98241276
0.98235977
0.9823067
0.98225355
0.9822004
0.9821471
0.98209375
0.98204035
0.9819868
0.9819333
0.98187965
0.98182595
0.9817721
0.9817183
0.98166436
0.98161036
0.9815563
0.9815021
0.98144794
0.98139364
0.9813393
0.9812848
0.9812303
0.9811757
0.98112106
0.98106635
0.98101157
0.9809567
0.9809018
0.98084676
0.9807916
0.9807365
0.98068124
0.9806259
0.98057055
0.9805151
0.98045963
0.980404
0.98034835
0.9802926
0.98023677
0.9801809
0.98012495
0.9800689
0.98001283
0.9799566
0.9799004
0.9798441
0.9797877
0.97973126
0.9796747
0.9796181
0.9795614
0.97950464
0.97944784
0.9793909
0.97933394
0.9792769
0.9792198
0.97916263
0.97910535
0.979048
0.9789906
0.97893316
0.9788756
0.978818
0.9787603
0.97870255
0.97864467
0.9785868
0.9785288
0.97847074
0.9784126
0.9783544
0.9782961
0.9782378
0.97817934
0.97812086
0.97806233
0.9780037
0.97794497
0.9778862
0.9778273
0.9777684
0.9777094
0.97765034
0.9775912
0.97753197
0.97747266
0.97741336
0.97735393
0.9772944
0.97723484
0.9771752
0.97711545
0.97705567
0.97699577
0.97693586
0.97687584
0.97681576
0.9767556
0.97669536
0.97663504
0.9765747
0.9765142
0.9764537
0.97639316
0.9763325
0.97627175
0.97621095
0.97615004
0.9760891
0.9760281
0.975967
0.9759058
0.97584456
0.9757832
0.97572184
0.9756604
0.9755989
0.97553724
0.9754756
0.97541386
0.975352
0.9752901
0.97522813
0.97516614
0.975104
0.9750418
0.9749796
0.97491723
0.9748548
0.97479236
0.97472984
0.9746672
0.9746045
0.9745417
0.9744789
0.974416
0.974353
0.97428995
0.97422683
0.97416365
0.97410035
0.97403705
0.97397363
0.97391015
0.9738466
0.9737834
0.9737204
0.9736576
0.9735951
0.97353286
0.9734708
0.97340906
0.97334754
0.9732863
0.9732253
0.9731645
0.973104
0.97304374
0.9729837
0.972924
0.97286445
0.9728052
0.9727462
0.9726874
0.97262895
0.97257066
0.97251266
0.9724549
0.9723974
0.9723401
0.9722831
0.9722264
0.9721699
0.9721136
0.9720576
0.97200185
0.9719463
0.97189105
0.97183603
0.9717813
0.9717268
0.97167253
0.97161853
0.97156477
0.97151124
0.971458
0.97140497
0.9713522
0.9712997
0.97124743
0.97119546
0.9711437
0.97109216
0.9710409
0.97098994
0.97093916
0.9708887
0.9708384
0.9707884
0.97073865
0.9706891
0.9706399
0.9705909
0.97054213
0.9704936
0.97044533
0.97039735
0.97034955
0.97030205
0.97025484
0.9702078
0.9701611
0.9701145
0.9700683
0.97002226
0.96997654
0.969931
0.96988577
0.96984076
0.969796
0.9697515
0.96970725
0.96966326
0.9696195
0.969576
0.9695327
0.9694897
0.96944696
0.96940446
0.9693622
0.9693202
0.96927845
0.9692369
0.96919566
0.96915466
0.96911395
0.9690734
0.9690332
0.9689932
0.96895343
0.9689139
0.96887463
0.96883565
0.9687969
0.9687584
0.96872014
0.9686821
0.9686444
0.9686069
0.96856964
0.9685326
0.96849585
0.96845937
0.9684231
0.9683871
0.96835136
0.96831584
0.9682806
0.96824557
0.9682108
0.9681763
0.9681421
0.96810806
0.9680743
0.9680408
0.96800756
0.96797454
0.9679418
0.96790934
0.9678771
0.9678451
0.9678133
0.9677818
0.96775055
0.96771955
0.9676888
0.9676583
0.96762806
0.967598
0.9675683
0.9675388
0.96750957
0.96748054
0.9674518
0.96742326
0.967395
0.96736705
0.9673393
0.9673118
0.96728456
0.96725756
0.9672308
0.9672043
0.96717805
0.967152
0.96712625
0.9671008
0.9670755
0.96705055
0.96702576
0.96700126
0.966977
0.96695304
0.96692926
0.9669058
0.9668825
0.9668595
0.96683675
0.9668143
0.96679205
0.96677005
0.9667483
0.9667268
0.96670556
0.9666845
0.9666638
0.9666433
0.96662307
0.96660304
0.9665833
0.9665638
0.96654457
0.96652555
0.9665068
0.9664883
0.96647006
0.96645206
0.9664343
0.96641684
0.96639955
0.96638256
0.9663658
0.9663493
0.9663331
0.96631706
0.9663013
0.9662858
0.96627057
0.9662556
0.9662408
0.96622634
0.9662121
0.9661981
0.9661843
0.96617085
0.9661576
0.9661446
0.96613187
0.96611935
0.96610713
0.9660951
0.96608335
0.9660719
0.96606064
0.9660496
0.9660389
0.9660284
0.96601814
0.9660081
0.9659984
0.96598893
0.96597964
0.9659707
0.96596193
0.9659534
0.9659452
0.9659372
0.96592945
0.96592194
0.9659147
0.9659077
0.96590096
0.96589446
0.9658882
0.96588224
0.96587646
0.965871
0.96586573
0.9658607
0.965856
0.9658515
0.96584725
0.96584326
0.9658395
0.96583605
0.96583277
0.9658298
0.96582705
0.96582454
0.96582234
0.9658203
0.9658186
0.9658171
0.96581584
0.9658148
0.9658141
0.96581364
0.96581334
0.9658134
0.96581364
0.9658141
0.9658149
0.9658159
0.96581715
0.96581864
0.96582043
0.96582246
0.96582466
0.96582717
0.96582997
0.96583295
0.9658362
0.96583974
0.9658435
0.9658475
0.9658517
0.96585625
0.965861
0.965866
0.9658713
0.9658768
0.96588254
0.96588856
0.9658948
0.9659013
0.9659081
0.9659151
0.96592236
0.96592987
0.9659376
0.96594566
0.9659539
0.9659624
0.9659712
0.9659802
0.9659894
0.96599895
0.9660087
0.96601874
0.966029
0.9660395
0.96605027
0.96606123
0.9660725
0.966084
0.9660958
0.9661078
0.96612006
0.9661326
0.96614534
0.96615833
0.9661716
0.9661851
0.96619886
0.96621287
0.9662271
0.96624166
0.9662564
0.9662714
0.96628666
0.9663022
0.96631795
0.966334
0.9663502
0.96636677
0.9663835
0.9664005
0.9664178
0.9664353
0.9664531
0.9664711
0.9664893
0.96650785
0.96652657
0.9665456
0.9665649
0.9665844
0.9666042
0.96662414
0.9666444
0.9666649
0.9666857
0.9667067
0.966728
0.9667495
0.96677125
0.96679324
0.96681553
0.96683806
0.96686083
0.96688384
0.9669071
0.96693057
0.96695435
0.9669784
0.96700263
0.9670271
0.9670519
0.9670769
0.96710217
0.9671277
0.9671535
0.9671795
0.96720576
0.9672323
0.96725905
0.96728605
0.9673133
0.9673408
0.9673686
0.9673966
0.96742487
0.96745336
0.96748215
0.9675112
0.96754044
0.96756995
0.9675997
0.96762973
0.96766
0.9676905
0.9677213
0.9677523
0.9677836
0.96781504
0.9678468
0.9678789
0.9679111
0.9679436
0.9679764
0.9680094
0.9680427
0.96807617
0.96810997
0.968144
0.9681783
0.9682128
0.96824753
0.9682825
0.9683178
0.96835333
0.9683891
0.9684251
0.9684614
0.9684979
0.96853465
0.96857166
0.968609
0.9686464
0.96868384
0.9687213
0.9687586
0.9687959
0.96883315
0.9688704
0.9689076
0.96894467
0.9689818
0.9690188
0.96905583
0.9690928
0.9691297
0.9691666
0.9692034
0.9692402
0.9692769
0.9693136
0.9693503
0.9693869
0.9694235
0.96945995
0.9694964
0.9695329
0.96956927
0.9696056
0.9696419
0.96967816
0.9697144
0.9697506
0.9697867
0.9698228
0.9698588
0.9698948
0.96993077
0.9699667
0.9700026
0.9700384
0.9700742
0.97010994
0.9701456
0.9701812
0.9702169
0.9702524
0.9702879
0.97032344
0.97035885
0.97039425
0.9704296
0.9704649
0.9705001
0.97053534
0.9705705
0.9706056
0.9706407
0.97067577
0.97071075
0.9707457
0.9707806
0.9708155
0.9708503
0.9708851
0.9709198
0.9709545
0.97098917
0.97102374
0.9710583
0.9710928
0.9711273
0.9711617
0.9711961
0.97123045
0.9712647
0.971299
0.9713332
0.97136736
0.9714015
0.97143555
0.9714696
0.9715036
0.97153753
0.97157145
0.9716053
0.9716391
0.9716729
0.9717066
0.9717403
0.9717739
0.97180754
0.9718411
0.9718746
0.9719081
0.97194153
0.9719749
0.9720082
0.9720415
0.97207475
0.97210795
0.97214115
0.9721742
0.9722073
0.9722403
0.97227335
0.9723063
0.9723392
0.97237206
0.97240484
0.9724376
0.97247034
0.972503
0.97253567
0.9725683
0.9726008
0.9726333
0.9726658
0.9726982
0.9727306
0.97276294
0.9727952
0.97282743
0.9728597
0.9728918
0.97292393
0.972956
0.972988
0.97302
0.97305197
0.97308385
0.9731157
0.9731475
0.9731793
0.973211
0.9732427
0.9732743
0.9733059
0.9733375
0.97336894
0.9734004
0.9734318
0.9734632
0.9734945
0.9735258
0.97355705
0.9735883
0.9736194
0.9736505
0.97368157
0.9737126
0.9737436
0.97377455
0.9738054
0.9738363
0.97386706
0.9738978
0.9739286
0.9739592
0.97398984
0.9740205
0.974051
0.9740815
0.974112
0.9741424
0.9741727
0.97420305
0.9742333
0.9742636
0.97429377
0.9743239
0.974354
0.9743841
0.9744141
0.9744441
0.974474
0.97450393
0.97453374
0.97456354
0.97459334
0.974623
0.9746527
0.97468233
0.9747119
0.97474146
0.97477096
0.9748004
0.97482985
0.9748592
0.9748885
0.97491777
0.97494704
0.97497624
0.9750054
0.9750345
0.9750635
0.97509253
0.9751215
0.97515047
0.9751793
0.97520816
0.97523695
0.97526574
0.9752944
0.9753231
0.97535175
0.9753803
0.97540885
0.97543734
0.9754658
0.9754942
0.9755226
0.9755509
0.97557914
0.9756074
0.9756356
0.9756637
0.9756918
0.97571987
0.9757479
0.97577584
0.9758038
0.9758317
0.9758595
0.9758873
0.975915
0.97594273
0.9759704
0.97599804
0.9760256
0.9760531
0.97608066
0.9761081
0.9761355
0.97616285
0.97619015
0.97621745
0.9762446
0.9762718
0.976299
0.97632605
0.9763531
0.9763801
0.9764071
0.97643405
0.9764609
0.97648776
0.9765145
0.9765413
0.976568
0.9765946
0.97662127
0.97664785
0.9766744
0.97670084
0.9767273
0.9767537
0.97678006
0.97680634
0.9768326
0.97685885
0.976885
0.9769112
0.97693723
0.9769633
0.9769893
0.97701526
0.9770412
0.97706705
0.9770929
0.9771187
0.9771444
0.9771701
0.9771958
0.97722137
0.97724694
0.9772725
0.97729796
0.9773234
0.9773488
0.97737414
0.97739947
0.97742474
0.97744995
0.9774751
0.97750026
0.97752535
0.9775504
0.9775754
0.97760034
0.97762525
0.97765017
0.97767496
0.97769976
0.9777245
0.97774917
0.97777385
0.97779846
0.977823
0.9778475
0.977872
0.97789645
0.97792083
0.9779452
0.97796947
0.9779937
0.978018
0.9780421
0.97806627
0.97809035
0.9781144
0.9781384
0.97816235
0.97818625
0.97821015
0.97823393
0.9782577
0.9782815
0.97830516
0.9783288
0.9783524
0.978376
0.9783995
0.978423
0.9784464
0.9784698
0.97849315
0.97851646
0.9785397
0.9785629
0.9785861
0.9786092
0.9786323
0.97865534
0.97867835
0.9787013
0.9787242
0.97874707
0.97876984
0.97879267
0.9788154
0.9788381
0.97886074
0.9788833
0.97890586
0.9789284
0.97895086
0.97897327
0.9789957
0.97901803
0.9790403
0.97906256
0.9790848
0.9791069
0.9791291
0.9791511
0.9791732
0.9791952
0.9792171
0.979239
0.97926086
0.9792827
0.97930443
0.9793262
0.9793479
0.9793695
0.9793911
0.9794127
0.9794342
0.97945565
0.97947705
0.97949845
0.9795198
0.97954106
0.97956234
0.97958356
0.9796047
0.9796258
0.9796469
0.9796679
0.9796889
0.97970986
0.9797308
0.9797516
0.97977245
0.9797932
0.97981393
0.9798346
0.97985524
0.97987586
0.97989637
0.9799169
0.9799374
0.97995776
0.97997814
0.97999847
0.9800188
0.980039
0.9800592
0.9800794
0.9800995
0.9801196
0.9801396
0.9801596
0.98017955
0.9801994
0.98021924
0.98023903
0.98025864
0.9802782
0.9802976
0.98031694
0.9803362
0.9803553
0.98037434
0.98039323
0.98041207
0.9804308
0.9804494
0.98046786
0.9804863
0.9805046
0.98052275
0.9805409
0.9805588
0.9805767
0.9805945
0.98061216
0.98062974
0.9806472
0.9806646
0.98068184
0.980699
0.98071605
0.98073304
0.98074985
0.9807666
0.9807833
0.9807998
0.98081625
0.9808326
0.9808488
0.98086494
0.9808809
0.9808969
0.9809127
0.9809284
0.980944
0.98095953
0.9809749
0.98099023
0.98100543
0.9810205
0.9810355
0.9810504
0.98106515
0.9810798
0.9810944
0.9811089
0.98112327
0.9811375
0.98115164
0.9811657
0.98117965
0.98119354
0.9812073
0.9812209
0.9812345
0.9812479
0.98126125
0.9812745
0.9812876
0.98130065
0.9813135
0.98132634
0.9813391
0.9813517
0.9813642
0.9813766
0.9813889
0.9814011
0.9814132
0.98142517
0.9814371
0.9814488
0.9814605
0.98147213
0.9814836
0.98149496
0.9815062
0.9815174
0.98152846
0.9815394
0.9815503
0.981561
0.9815717
0.98158216
0.98159266
0.98160297
0.9816132
0.98162335
0.98163337
0.98164326
0.9816531
0.9816628
0.9816724
0.98168194
0.98169136
0.98170066
0.98170984
0.98171896
0.98172796
0.98173684
0.9817456
0.9817543
0.9817629
0.98177135
0.9817797
0.981788
0.98179615
0.9818042
0.9818122
0.98182005
0.9818278
0.9818354
0.981843
0.9818504
0.9818578
0.981865
0.98187214
0.9818792
0.9818861
0.9818929
0.9818996
0.98190624
0.98191273
0.98191917
0.9819254
0.9819316
0.98193777
0.9819437
0.9819496
0.9819554
0.98196113
0.9819667
0.98197216
0.9819775
0.9819828
0.98198795
0.981993
0.981998
0.98200285
0.9820076
0.9820123
0.9820168
0.9820213
0.98202556
0.98202986
0.98203397
0.98203796
0.9820419
0.98204577
0.98204947
0.9820531
0.9820566
0.98206
0.9820633
0.9820665
0.9820696
0.9820726
0.9820755
0.9820783
0.982081
0.98208356
0.98208606
0.9820884
0.9820907
0.98209286
0.98209494
0.9820969
0.98209876
0.9821005
0.98210216
0.9821037
0.98210514
0.9821065
0.9821077
0.98210883
0.9821099
0.9821108
0.98211163
0.98211235
0.982113
0.9821135
0.9821139
0.9821142
0.98211443
0.98211455
0.9821145
0.98211443
0.9821142
0.9821139
0.9821135
0.98211294
0.98211235
0.98211163
0.9821108
0.98210984
0.98210883
0.9821077
0.98210645
0.9821051
0.98210365
0.9821021
0.9821004
0.9820987
0.9820968
0.9820948
0.9820928
0.9820906
0.9820883
0.98208594
0.98208344
0.9820809
0.9820782
0.9820754
0.9820725
0.9820695
0.9820664
0.9820632
0.9820599
0.98205644
0.9820529
0.98204935
0.9820456
0.9820418
0.98203784
0.9820338
0.9820297
0.98202544
0.9820211
0.9820166
0.9820121
0.98200744
0.9820027
0.98199785
0.98199284
0.9819878
0.9819826
0.98197734
0.981972
0.9819665
0.9819609
0.98195523
0.9819494
0.98194355
0.9819375
0.98193145
0.9819252
0.98191893
0.9819125
0.981906
0.9818994
0.98189265
0.9818858
0.9818789
0.98187184
0.98186475
0.9818575
0.98185015
0.9818427
0.9818351
0.9818275
0.98181975
0.9818119
0.9818039
0.98179585
0.9817877
0.9817794
0.98177105
0.9817625
0.98175395
0.9817453
0.9817365
0.9817276
0.9817186
0.9817095
0.9817003
0.981691
0.9816816
0.98167205
0.98166245
0.98165274
0.9816429
0.981633
0.98162293
0.9816128
0.9816026
0.98159224
0.9815818
0.98157126
0.9815606
0.98154986
0.981539
0.98152804
0.98151696
0.9815058
0.98149455
0.98148316
0.98147166
0.9814601
0.9814484
0.9814366
0.98142475
0.98141277
0.98140067
0.98138845
0.9813762
0.9813637
0.9813512
0.9813386
0.98132586
0.98131305
0.9813002
0.9812871
0.981274
0.9812608
0.9812474
0.98123395
0.9812204
0.9812068
0.981193
0.9811792
0.98116523
0.98115116
0.981137
0.98112273
0.98110837
0.9810939
0.9810793
0.9810646
0.98104984
0.98103493
0.9810199
0.98100483
0.98098963
0.9809743
0.98095894
0.98094344
0.9809278
0.9809121
0.9808963
0.9808804
0.98086435
0.9808482
0.980832
0.98081565
0.9807992
0.9807826
0.980766
0.98074925
0.9807324
0.98071545
0.9806984
0.98068124
0.98066396
0.9806466
0.9806291
0.9806115
0.98059386
0.9805761
0.98055816
0.9805402
0.9805221
0.9805039
0.9804856
0.9804672
0.98044866
0.98043007
0.98041135
0.9803925
0.9803736
0.9803546
0.9803355
0.9803162
0.9802969
0.9802775
0.9802579
0.98023826
0.9802185
0.9801987
0.9801787
0.9801587
0.9801385
0.9801182
0.9800979
0.9800774
0.9800568
0.98003614
0.9800154
0.9799945
0.9799735
0.9799524
0.97993124
0.9799099
0.9798885
0.979867
0.9798454
0.9798237
0.9798019
0.97977996
0.97975796
0.97973585
0.9797137
0.9796914
0.979669
0.97964656
0.979624
0.9796013
0.9795786
0.9795558
0.9795329
0.9795099
0.97948676
0.9794636
0.97944033
0.97941697
0.9793935
0.97936994
0.97934633
0.9793226
0.9792988
0.97927487
0.97925085
0.97922677
0.9792026
0.97917837
0.979154
0.97912955
0.979105
0.9790804
0.97905564
0.97903085
0.97900593
0.97898096
0.97895586
0.97893065
0.97890544
0.97888005
0.9788546
0.9788291
0.97880346
0.97877777
0.97875196
0.978726
0.97870004
0.978674
0.9786478
0.97862154
0.9785952
0.9785688
0.97854227
0.9785156
0.9784889
0.9784621
0.9784352
0.9784082
0.97838116
0.97835404
0.97832674
0.97829944
0.97827196
0.9782445
0.9782168
0.9781892
0.97816133
0.97813344
0.9781055
0.9780774
0.9780493
0.978021
0.97799265
0.9779643
0.97793573
0.9779071
0.97787845
0.97784966
0.97782075
0.9777918
0.97776276
0.9777336
0.97770435
0.977675
0.9776456
0.9776161
0.97758645
0.97755677
0.977527
0.9774971
0.9774672
0.9774371
0.977407
0.9773767
0.9773464
0.97731596
0.9772855
0.97725487
0.9772242
0.9771934
0.97716254
0.9771316
0.97710055
0.9770694
0.97703815
0.97700685
0.97697544
0.97694397
0.9769124
0.97688067
0.9768489
0.976817
0.97678506
0.97675306
0.9767209
0.9766887
0.9766564
0.97662395
0.97659147
0.97655886
0.9765262
0.9764934
0.9764606
0.9764276
0.9763946
0.97636145
0.97632825
0.97629493
0.97626156
0.97622806
0.9761945
0.9761608
0.976127
0.9760932
0.97605926
0.9760252
0.9759911
0.97595686
0.9759226
0.9758882
0.9758537
0.9758191
0.9757845
0.97574973
0.97571486
0.97567993
0.9756449
0.9756098
0.97557455
0.97553927
0.97550386
0.9754684
0.9754328
0.97539717
0.9753614
0.9753256
0.97528964
0.97525364
0.9752175
0.97518134
0.97514504
0.9751086
0.9750722
0.9750356
0.97499895
0.97496223
0.9749254
0.97488844
0.9748514
0.97481436
0.97477716
0.97473985
0.9747025
0.974665
0.97462744
0.9745898
0.97455204
0.97451425
0.97447634
0.9744383
0.9744002
0.974362
0.97432375
0.97428536
0.9742469
0.97420835
0.97416973
0.974131
0.9740921
0.9740532
0.9740142
0.9739751
0.97393596
0.9738967
0.9738573
0.9738178
0.9737783
0.9737387
0.9736989
0.9736591
0.9736192
0.9735792
0.9735391
0.97349894
0.9734587
0.9734183
0.9733779
0.97333735
0.9732967
0.973256
0.97321516
0.9731743
0.97313327
0.9730922
0.973051
0.97300977
0.9729684
0.9729269
0.97288543
0.97284377
0.97280204
0.97276026
0.97271836
0.9726764
0.9726343
0.9725921
0.97254986
0.97250754
0.9724651
0.97242254
0.9723799
0.97233725
0.9722944
0.97225153
0.97220856
0.97216547
0.9721223
0.97207904
0.9720357
0.97199225
0.97194874
0.9719051
0.9718614
0.9718176
0.97177374
0.97172976
0.9716857
0.97164154
0.9715973
0.97155297
0.97150856
0.97146404
0.9714194
0.9713747
0.9713299
0.97128505
0.97124004
0.971195
0.97114986
0.9711046
0.97105926
0.97101384
0.97096837
0.97092277
0.97087705
0.9708313
0.9707854
0.9707394
0.97069335
0.9706472
0.97060096
0.97055465
0.9705082
0.9704617
0.9704151
0.97036844
0.97032166
0.9702748
0.97022784
0.9701808
0.97013366
0.9700864
0.9700391
0.9699917
0.9699442
0.9698966
0.96984893
0.9698011
0.96975327
0.96970534
0.9696573
0.96960914
0.9695609
0.9695126
0.9694642
0.9694157
0.9693671
0.96931845
0.9692697
0.9692208
0.9691719
0.9691228
0.9690737
0.9690245
0.9689752
0.9689258
0.96887624
0.9688267
0.968777
0.96872723
0.9686774
0.96862745
0.96857744
0.9685273
0.9684771
0.96842676
0.9683764
0.9683259
0.9682753
0.96822464
0.9681739
0.9681231
0.9680721
0.9680211
0.96796995
0.96791875
0.9678675
0.96781605
0.9677646
0.96771306
0.9676614
0.96760964
0.9675578
0.9675059
0.96745384
0.9674017
0.9673495
0.9672972
0.9672448
0.96719235
0.9671398
0.96708715
0.9670344
0.96698153
0.96692866
0.9668756
0.9668225
0.96676934
0.96671605
0.96666265
0.9666092
0.9665556
0.96650195
0.96644825
0.9663944
0.9663405
0.9662865
0.96623236
0.9661782
0.9661239
0.9660695
0.96601504
0.9659605
0.96590585
0.9658511
0.9657963
0.9657414
0.9656864
0.9656313
0.9655761
0.9655208
0.9654654
0.96541
0.96535444
0.96529883
0.9652431
0.96518725
0.96513134
0.9650754
0.9650193
0.9649631
0.9649068
0.9648504
0.964794
0.9647375
0.96468085
0.9646241
0.9645673
0.9645104
0.9644534
0.9643963
0.96433914
0.96428186
0.9642245
0.96416706
0.96410954
0.9640519
0.9639942
0.9639364
0.96387845
0.96382046
0.9637624
0.9637042
0.963646
0.96358764
0.96352917
0.9634707
0.9634121
0.96335346
0.96329474
0.963236
0.96317714
0.96311826
0.9630593
0.96300024
0.96294117
0.962882
0.96282274
0.9627634
0.96270406
0.96264464
0.96258515
0.96252555
0.96246594
0.9624062
0.96234643
0.9622866
0.9622267
0.9621667
0.9621067
0.9620466
0.9619864
0.9619262
0.9618659
0.9618055
0.96174514
0.96168464
0.9616241
0.9615634
0.96150273
0.961442
0.96138114
0.9613202
0.9612593
0.9611983
0.9611372
0.96107596
0.96101475
0.9609535
0.9608921
0.9608307
0.9607692
0.9607076
0.960646
0.9605843
0.96052253
0.9604607
0.96039885
0.96033686
0.9602748
0.96021277
0.9601506
0.9600884
0.9600261
0.95996374
0.9599013
0.9598388
0.9597762
0.95971364
0.95965093
0.95958817
0.95952535
0.95946246
0.9593995
0.9593365
0.9592734
0.9592103
0.95914704
0.95908374
0.9590204
0.95895696
0.9588935
0.95882994
0.95876634
0.9587026
0.9586389
0.95857507
0.9585112
0.9584472
0.9583832
0.9583191
0.958255
0.95819074
0.9581265
0.9580621
0.95799774
0.95793325
0.9578687
0.9578041
0.9577394
0.9576746
0.95760983
0.9575449
0.95748
0.957415
0.9573499
0.95728475
0.95721954
0.9571543
0.95708895
0.9570235
0.95695806
0.9568925
0.95682687
0.9567612
0.95669544
0.95662963
0.9565638
0.95649785
0.9564318
0.95636576
0.9562996
0.9562334
0.9561671
0.95610076
0.95603436
0.9559679
0.9559014
0.95583475
0.9557681
0.95570135
0.95563453
0.95556766
0.9555007
0.9554337
0.9553667
0.9552995
0.9552323
0.955165
0.9550977
0.9550303
0.95496285
0.9548953
0.95482767
0.95476
0.9546923
0.9546245
0.95455664
0.9544887
0.9544207
0.9543526
0.9542845
0.9542163
0.954148
0.9540797
0.95401126
0.95394284
0.9538743
0.9538057
0.953737
0.9536683
0.9535995
0.9535306
0.9534617
0.9533927
0.95332366
0.9532545
0.9531853
0.95311606
0.95304674
0.9529773
0.95290786
0.95283836
0.95276874
0.95269907
0.9526293
0.9525596
0.9524897
0.95241976
0.9523498
0.95227975
0.9522096
0.9521394
0.95206916
0.95199883
0.95192844
0.951858
0.9517875
0.95171684
0.9516462
0.95157546
0.9515047
0.95143384
0.9513629
0.9512919
0.95122087
0.95114976
0.95107853
0.9510073
0.95093596
0.9508646
0.95079315
0.9507216
0.95065004
0.9505784
0.9505067
0.95043486
0.95036304
0.9502911
0.95021915
0.9501471
0.950075
0.9500028
0.94993055
0.9498582
0.9497858
0.94971335
0.94964087
0.9495683
0.9494956
0.9494229
0.9493501
0.9492773
0.9492044
0.94913137
0.94905835
0.9489852
0.9489121
0.94883883
0.9487655
0.94869214
0.94861865
0.94854516
0.9484716
0.94839793
0.9483242
0.9482505
0.9481766
0.9481027
0.94802874
0.94795465
0.94788057
0.9478064
0.94773215
0.9476578
0.9475835
0.94750905
0.94743454
0.9473599
0.9472853
0.9472106
0.9471358
0.947061
0.9469861
0.9469111
0.94683605
0.94676095
0.9466858
0.94661057
0.9465352
0.9464599
0.94638443
0.9463089
0.9462334
0.94615775
0.94608206
0.94600624
0.9459304
0.94585454
0.94577855
0.9457025
0.94562644
0.94555026
0.945474
0.94539773
0.9453214
0.9452449
0.94516844
0.94509184
0.94501525
0.94493854
0.94486177
0.94478494
0.94470805
0.94463104
0.94455403
0.94447696
0.9443998
0.9443225
0.9442453
0.9441679
0.9440905
0.94401294
0.9439354
0.9438578
0.94378006
0.94370234
0.9436245
0.9435466
0.94346863
0.9433906
0.9433125
0.9432344
0.9431561
0.94307786
0.9429995
0.94292104
0.94284254
0.942764
0.94268537
0.9426067
0.94252795
0.9424491
0.94237024
0.94229126
0.9422122
0.9421331
0.942054
0.94197476
0.9418955
0.94181615
0.9417367
0.94165725
0.9415777
0.94149804
0.94141835
0.9413386
0.9412588
0.9411789
0.941099
0.94101894
0.94093883
0.9408587
0.9407785
0.9406982
0.94061786
0.94053745
0.9404569
0.9403764
0.9402958
0.9402151
0.94013435
0.9400535
0.93997264
0.9398917
0.9398107
0.93972963
0.93964845
0.93956727
0.93948597
0.9394046
0.93932325
0.93924177
0.93916017
0.93907857
0.9389969
0.93891513
0.93883336
0.93875146
0.9386695
0.93858755
0.9385055
0.9384233
0.9383411
0.9382588
0.93817645
0.9380941
0.9380116
0.93792903
0.9378464
0.93776375
0.937681
0.9375982
0.9375153
0.9374324
0.9373494
0.93726635
0.9371832
0.9371
0.9370167
0.9369334
0.93684995
0.9367665
0.93668294
0.9365994
0.9365157
0.93643194
0.93634814
0.9362643
0.93618035
0.9360964
0.93601227
0.93592817
0.93584394
0.93575966
0.9356753
0.9355909
0.93550646
0.93542194
0.93533736
0.93525267
0.9351679
0.93508315
0.9349983
0.93491334
0.93482834
0.9347433
0.93465817
0.93457294
0.93448776
0.93440294
0.9343185
0.9342345
0.93415093
0.93406785
0.9339851
0.93390286
0.93382096
0.93373954
0.93365854
0.933578
0.93349785
0.9334181
0.9333388
0.93325996
0.9331815
0.9331035
0.9330259
0.93294877
0.932872
0.9327957
0.9327198
0.93264437
0.9325693
0.9324947
0.93242055
0.93234676
0.93227345
0.93220055
0.9321281
0.93205607
0.9319844
0.93191326
0.93184245
0.9317721
0.9317022
0.9316327
0.9315637
0.931495
0.9314268
0.931359
0.93129164
0.9312247
0.93115824
0.93109214
0.9310265
0.93096125
0.93089646
0.9308321
0.93076813
0.93070465
0.93064153
0.9305789
0.9305166
0.9304548
0.9303934
0.9303325
0.9302719
0.9302118
0.9301521
0.9300929
0.93003404
0.9299756
0.92991763
0.9298601
0.92980295
0.92974627
0.92969
0.92963415
0.9295787
0.92952377
0.92946917
0.92941505
0.92936134
0.92930806
0.9292552
0.92920274
0.9291507
0.92909914
0.929048
0.9289973
0.928947
0.9288971
0.9288476
0.9287986
0.92875
0.9287018
0.9286541
0.92860675
0.92855984
0.9285134
0.92846733
0.92842174
0.92837656
0.9283318
0.92828745
0.9282435
0.92820007
0.92815703
0.92811435
0.92807215
0.9280304
0.92798907
0.9279481
0.92790765
0.92786753
0.9278279
0.9277887
0.9277499
0.92771155
0.9276736
0.9276361
0.92759895
0.9275623
0.92752606
0.9274903
0.9274549
0.9274199
0.9273854
0.9273513
0.9273176
0.92728436
0.9272515
0.92721915
0.92718714
0.9271556
0.9271245
0.9270938
0.9270635
0.9270337
0.9270043
0.9269753
0.92694676
0.9269186
0.9268909
0.9268636
0.9268368
0.9268103
0.92678434
0.92675877
0.9267336
0.9267089
0.92668456
0.9266607
0.92663723
0.9266142
0.92659163
0.92656946
0.92654777
0.9265264
0.92650557
0.92648506
0.92646503
0.9264454
0.92642623
0.9264075
0.92638916
0.9263713
0.9263538
0.92633677
0.92632014
0.9263039
0.9262881
0.9262728
0.9262579
0.92624336
0.9262293
0.9262157
0.9262025
0.92618966
0.9261773
0.9261654
0.9261539
0.9261428
0.92613214
0.9261219
0.9261121
0.92610276
0.92609376
0.92608523
0.9260772
0.9260695
0.9260622
0.92605543
0.92604905
0.9260431
0.92603755
0.9260324
0.9260277
0.9260235
0.9260196
0.9260162
0.92601323
0.92601067
0.9260086
0.92600685
0.9260056
0.9260047
0.9260043
0.9260043
0.92600477
0.9260056
0.92600685
0.9260086
0.9260107
0.9260133
0.9260163
0.92601967
0.92602354
0.9260278
0.9260325
0.9260376
0.92604315
0.9260491
0.9260555
0.92606235
0.92606956
0.92607725
0.92608535
0.9260939
0.9261029
0.92611223
0.926122
0.92613226
0.92614293
0.926154
0.9261655
0.9261775
0.92618984
0.92620265
0.9262158
0.9262295
0.92624354
0.9262581
0.926273
0.92628837
0.9263041
0.9263203
0.92633694
0.926354
0.9263715
0.9263894
0.92640775
0.9264265
0.92644566
0.9264653
0.92648536
0.9265058
0.9265267
0.926548
0.92656976
0.92659193
0.9266145
0.92663753
0.926661
0.9266849
0.9267092
0.9267339
0.92675906
0.92678463
0.9268107
0.9268371
0.92686397
0.92689127
0.926919
0.9269471
0.92697567
0.9270047
0.9270341
0.92706394
0.9270942
0.9271249
0.92715603
0.92718756
0.92721957
0.92725194
0.9272848
0.92731804
0.9273517
0.92738587
0.9274204
0.92745537
0.9274907
0.92752653
0.9275628
0.92759943
0.92763656
0.92767406
0.927712
0.9277504
0.9277892
0.92782843
0.92786807
0.9279081
0.92794865
0.92798954
0.9280309
0.9280727
0.9281149
0.92815757
0.9282006
0.9282441
0.92828804
0.9283324
0.92837715
0.92842233
0.9284679
0.928514
0.92856044
0.92860734
0.9286547
0.9287024
0.92875063
0.9287992
0.92884827
0.92889774
0.92894757
0.92899793
0.92904866
0.9290998
0.9291514
0.9292034
0.92925584
0.9293087
0.929362
0.9294157
0.9294699
0.9295245
0.92957944
0.92963487
0.9296907
0.929747
0.9298037
0.92986083
0.9299184
0.9299764
0.9300348
0.93009365
0.9301529
0.93021256
0.9302727
0.93033326
0.93039423
0.9304556
0.93051744
0.93057966
0.93064237
0.9307054
0.93076897
0.9308329
0.9308973
0.9309621
0.93102735
0.931093
0.9311591
0.9312256
0.93129253
0.9313599
0.93142766
0.9314959
0.9315645
0.9316336
0.9317031
0.931773
0.93184334
0.93191415
0.9319853
0.93205696
0.932129
0.9322015
0.9322744
0.9323477
0.9324215
0.93249565
0.9325703
0.9326453
0.9327208
0.93279666
0.932873
0.9329497
0.9330269
0.9331045
0.93318254
0.933261
0.93333983
0.93341917
0.93349886
0.933579
0.9336596
0.9337406
0.93382204
0.93390393
0.9339862
0.9340689
0.934152
0.9342356
0.9343196
0.934404
0.93448883
0.9345741
0.93465984
0.9347459
0.93483245
0.93491936
0.93500614
0.93509257
0.9351788
0.93526477
0.9353505
0.9354359
0.93552107
0.935606
0.93569064
0.93577504
0.93585914
0.93594307
0.93602663
0.93611
0.9361931
0.93627596
0.9363585
0.9364408
0.9365229
0.9366047
0.9366862
0.9367675
0.9368485
0.9369293
0.93700975
0.93709
0.93716997
0.9372497
0.9373292
0.9374083
0.9374873
0.937566
0.93764436
0.93772256
0.9378004
0.9378781
0.93795544
0.93803257
0.9381094
0.938186
0.93826234
0.9383384
0.9384142
0.9384898
0.9385651
0.9386401
0.9387149
0.9387894
0.9388637
0.93893766
0.9390114
0.9390849
0.9391581
0.93923104
0.93930376
0.9393762
0.93944836
0.9395203
0.93959194
0.93966335
0.93973446
0.9398054
0.93987596
0.93994635
0.94001645
0.94008625
0.94015586
0.9402252
0.9402942
0.94036305
0.94043154
0.94049984
0.94056785
0.9406356
0.9407031
0.9407703
0.9408373
0.940904
0.9409705
0.9410367
0.9411026
0.9411683
0.94123375
0.9412989
0.9413638
0.9414284
0.9414928
0.94155693
0.94162077
0.94168437
0.9417477
0.9418108
0.9418736
0.9419362
0.9419985
0.94206053
0.9421223
0.9421838
0.94224507
0.94230604
0.9423668
0.9424273
0.9424875
0.94254744
0.94260716
0.9426666
0.9427258
0.94278467
0.9428434
0.94290173
0.9429599
0.9430178
0.94307536
0.94313276
0.94318986
0.94324666
0.9433033
0.94335955
0.94341564
0.94347143
0.943527
0.94358224
0.94363725
0.943692
0.9437465
0.94380075
0.94385475
0.94390845
0.9439619
0.94401515
0.9440681
0.94412076
0.94417316
0.9442253
0.9442772
0.94432884
0.9443802
0.94443136
0.9444822
0.9445328
0.9445832
0.94463325
0.9446831
0.9447326
0.9447819
0.94483095
0.9448798
0.9449283
0.9449765
0.94502455
0.9450723
0.94511974
0.94516695
0.9452139
0.94526064
0.9453071
0.94535327
0.94539917
0.9454448
0.94549024
0.94553536
0.94558024
0.9456249
0.94566923
0.94571334
0.94575715
0.9458008
0.94584405
0.94588715
0.94592994
0.9459725
0.94601476
0.9460568
0.94609857
0.94614005
0.9461813
0.94622225
0.94626296
0.9463034
0.94634366
0.9463836
0.9464233
0.9464627
0.94650185
0.9465408
0.9465794
0.9466178
0.94665587
0.9466938
0.9467313
0.9467687
0.9468058
0.9468426
0.94687915
0.94691545
0.9469515
0.9469873
0.9470228
0.9470581
0.94709307
0.9471278
0.9471623
0.94719654
0.94723046
0.9472642
0.94729763
0.94733083
0.94736373
0.9473964
0.94742876
0.94746095
0.94749284
0.9475244
0.9475558
0.9475869
0.94761777
0.94764835
0.9476786
0.9477087
0.9477385
0.94776803
0.94779736
0.9478264
0.9478551
0.9478836
0.94791186
0.9479399
0.9479676
0.947995
0.94802225
0.9480492
0.9480759
0.9481023
0.94812846
0.94815433
0.94818
0.94820535
0.9482305
0.94825536
0.94828
0.9483043
0.9483284
0.9483522
0.94837576
0.94839907
0.94842213
0.9484449
0.94846743
0.9484897
0.9485117
0.9485334
0.94855493
0.94857615
0.94859713
0.9486178
0.94863826
0.94865847
0.9486784
0.94869804
0.9487174
0.9487366
0.94875544
0.9487741
0.94879246
0.9488106
0.9488284
0.948846
0.9488633
0.9488804
0.9488972
0.9489137
0.94893
0.948946
0.9489618
0.9489773
0.94899255
0.9490075
0.94902223
0.9490367
0.9490509
0.94906485
0.94907856
0.949092
0.94910514
0.949118
0.9491307
0.94914305
0.9491552
0.9491671
0.94917864
0.94919
0.9492011
0.9492119
0.9492225
0.9492328
0.94924283
0.9492526
0.94926214
0.9492714
0.94928044
0.94928914
0.94929767
0.9493059
0.9493138
0.94932157
0.94932896
0.9493362
0.9493431
0.94934976
0.94935614
0.94936234
0.9493682
0.94937384
0.9493792
0.9493843
0.94938916
0.94939375
0.94939804
0.9494021
0.9494059
0.9494095
0.94941276
0.9494158
0.94941854
0.94942105
0.9494233
0.9494253
0.949427
0.9494285
0.9494297
0.94943064
0.9494313
0.9494317
0.9494319
0.94943184
0.9494315
0.9494308
0.94943
0.94942886
0.9494274
0.9494258
0.94942385
0.9494217
0.94941926
0.9494166
0.9494136
0.9494104
0.9494069
0.9494032
0.94939923
0.94939494
0.9493904
0.94938564
0.94938064
0.94937533
0.9493698
0.94936395
0.9493579
0.94935155
0.949345
0.94933814
0.949331
0.94932365
0.949316
0.9493081
0.94929993
0.9492915
0.9492829
0.94927394
0.94926476
0.9492553
0.9492456
0.9492356
0.94922537
0.9492149
0.94920415
0.9491931
0.94918185
0.9491703
0.94915855
0.94914645
0.9491342
0.9491216
0.9491088
0.94909567
0.9490823
0.9490687
0.94905484
0.9490407
0.9490263
0.9490116
0.9489967
0.9489816
0.94896615
0.94895047
0.9489345
0.9489183
0.94890183
0.9488851
0.9488681
0.9488508
0.94883335
0.9488155
0.9487975
0.94877946
0.94876134
0.94874316
0.9487249
0.9487066
0.9486883
0.94866997
0.94865155
0.94863313
0.94861466
0.9485961
0.9485775
0.9485589
0.9485402
0.94852155
0.9485028
0.94848394
0.9484651
0.9484462
0.9484273
0.9484083
0.9483893
0.9483702
0.9483511
0.94833195
0.94831276
0.9482935
0.9482742
0.9482549
0.9482355
0.9482161
0.9481966
0.9481771
0.94815755
0.94813794
0.94811827
0.9480986
0.9480789
0.9480591
0.94803923
0.9480194
0.9479995
0.9479795
0.9479595
0.94793946
0.94791937
0.9478992
0.947879
0.9478588
0.94783854
0.9478182
0.9477979
0.94777745
0.947757
0.9477365
0.947716
0.9476954
0.94767475
0.9476541
0.9476334
0.94761264
0.94759184
0.947571
0.94755006
0.94752914
0.94750816
0.9474871
0.9474661
0.9474449
0.94742376
0.9474026
0.9473813
0.94736004
0.9473387
0.9473173
0.9472959
0.9472744
0.94725287
0.94723135
0.9472097
0.9471881
0.9471664
0.9471446
0.9471229
0.947101
0.9470791
0.94705725
0.94703525
0.94701326
0.9469912
0.9469691
0.946947
0.9469248
0.9469026
0.9468803
0.946858
0.9468356
0.94681317
0.94679075
0.9467682
0.9467457
0.9467231
0.9467005
0.9466778
0.9466551
0.9466323
0.9466095
0.94658667
0.9465638
0.94654083
0.9465178
0.9464948
0.94647175
0.9464486
0.94642544
0.94640225
0.946379
0.9463557
0.94633234
0.946309
0.94628555
0.94626206
0.9462385
0.946215
0.9461914
0.9461677
0.946144
0.94612026
0.9460965
0.94607264
0.94604874
0.94602484
0.9460009
0.94597685
0.94595283
0.9459287
0.94590455
0.94588035
0.94585615
0.9458319
0.9458075
0.9457832
0.94575876
0.9457343
0.9457098
0.94568527
0.94566065
0.94563603
0.94561136
0.9455866
0.9455619
0.9455371
0.94551224
0.9454873
0.94546235
0.9454374
0.94541234
0.94538724
0.94536215
0.94533694
0.9453117
0.9452865
0.9452612
0.94523585
0.94521046
0.945185
0.94515955
0.94513404
0.9451085
0.94508284
0.94505715
0.94503146
0.9450057
0.94497997
0.9449541
0.9449282
0.9449023
0.9448763
0.9448503
0.9448243
0.9447982
0.944772
0.94474584
0.94471955
0.94469327
0.944667
0.9446406
0.9446142
0.9445877
0.94456124
0.94453466
0.9445081
0.94448143
0.9444548
0.944428
0.94440126
0.94437444
0.94434756
0.9443207
0.94429374
0.94426674
0.9442397
0.9442126
0.9441855
0.9441583
0.94413114
0.94410384
0.94407654
0.9440492
0.9440218
0.94399434
0.94396687
0.9439393
0.9439118
0.94388413
0.9438565
0.94382876
0.94380105
0.94377327
0.94374543
0.94371754
0.9436896
0.94366163
0.9436336
0.94360554
0.9435774
0.9435493
0.9435211
0.9434928
0.9434646
0.9434362
0.94340783
0.94337946
0.943351
0.9433225
0.9432939
0.9432653
0.9432367
0.943208
0.94317925
0.9431505
0.9431217
0.9430928
0.9430639
0.94303495
0.943006
0.9429769
0.9429478
0.9429187
0.9428895
0.9428603
0.94283104
0.9428017
0.9427724
0.942743
0.94271356
0.94268405
0.9426545
0.9426249
0.9425953
0.9425657
0.94253594
0.9425062
0.9424764
0.94244653
0.94241667
0.94238675
0.94235677
0.9423267
0.9422967
0.9422666
0.9422364
0.9422062
0.942176
0.9421457
0.94211537
0.94208497
0.94205457
0.94202405
0.9419936
0.941963
0.94193244
0.94190174
0.9418711
0.94184035
0.9418096
0.9417787
0.9417479
0.94171697
0.94168603
0.94165504
0.941624
0.9415929
0.94156176
0.9415306
0.94149935
0.94146806
0.94143677
0.9414054
0.941374
0.94134253
0.94131106
0.94127953
0.94124794
0.94121635
0.94118464
0.94115293
0.9411212
0.9410894
0.94105756
0.9410257
0.9409937
0.9409617
0.9409297
0.94089764
0.9408655
0.9408334
0.94080114
0.9407689
0.94073665
0.9407043
0.9406719
0.9406395
0.940607
0.9405745
0.9405419
0.9405093
0.9404767
0.940444
0.94041127
0.9403785
0.94034564
0.9403128
0.9402799
0.94024694
0.9402139
0.94018084
0.94014776
0.9401146
0.9400815
0.9400482
0.94001496
0.93998164
0.93994826
0.9399149
0.93988144
0.93984795
0.9398144
0.93978083
0.9397472
0.93971354
0.9396798
0.93964607
0.9396122
0.93957835
0.9395445
0.9395105
0.93947655
0.9394425
0.9394085
0.9393743
0.9393402
0.93930596
0.93927175
0.9392374
0.9392031
0.9391687
0.9391343
0.9390998
0.9390653
0.9390307
0.93899614
0.93896145
0.93892676
0.938892
0.93885726
0.93882245
0.9387875
0.93875265
0.93871766
0.9386827
0.9386476
0.9386125
0.93857735
0.9385422
0.93850696
0.9384717
0.9384364
0.938401
0.9383656
0.9383301
0.93829465
0.9382591
0.93822354
0.9381879
0.9381522
0.9381165
0.9380807
0.9380449
0.9380091
0.93797314
0.9379372
0.93790126
0.9378652
0.9378291
0.9377929
0.9377566
0.93772024
0.9376838
0.9376473
0.9376107
0.93757397
0.9375372
0.93750036
0.9374634
0.9374264
0.93738925
0.9373521
0.9373148
0.93727744
0.93724
0.9372025
0.9371649
0.93712723
0.93708944
0.9370516
0.9370136
0.93697566
0.9369375
0.93689936
0.9368611
0.9368227
0.93678427
0.93674576
0.9367072
0.9366685
0.9366297
0.93659085
0.9365519
0.93651295
0.93647385
0.9364346
0.9363954
0.936356
0.9363166
0.9362771
0.9362375
0.9361978
0.93615806
0.9361182
0.93607825
0.93603826
0.9359982
0.93595797
0.93591774
0.9358774
0.935837
0.93579644
0.93575585
0.9357152
0.9356744
0.9356336
0.93559265
0.93555164
0.9355106
0.9354694
0.93542814
0.9353868
0.93534535
0.93530387
0.93526226
0.9352206
0.9351789
0.93513703
0.93509513
0.9350531
0.935011
0.9349688
0.93492657
0.93488425
0.9348419
0.9347994
0.93475676
0.9347141
0.93467134
0.9346285
0.9345856
0.9345426
0.9344995
0.93445635
0.9344131
0.93436974
0.93432635
0.93428284
0.93423927
0.93419564
0.9341519
0.934108
0.93406415
0.93402016
0.93397605
0.9339319
0.93388766
0.9338433
0.9337989
0.93375444
0.93370986
0.9336652
0.93362045
0.93357563
0.93353075
0.93348575
0.9334407
0.9333955
0.93335027
0.93330497
0.93325955
0.93321407
0.9331685
0.9331228
0.9330771
0.93303126
0.93298537
0.93293935
0.93289334
0.93284714
0.93280095
0.9327546
0.9327082
0.9326617
0.93261516
0.9325685
0.93252176
0.932475
0.93242806
0.9323811
0.932334
0.93228686
0.93223965
0.9321923
0.93214494
0.93209743
0.9320499
0.93200225
0.9319545
0.9319067
0.9318588
0.9318108
0.93176275
0.9317146
0.9316664
0.9316181
0.9315697
0.9315212
0.93147266
0.931424
0.93137527
0.93132645
0.9312776
0.9312286
0.9311795
0.9311304
0.9310812
0.9310319
0.9309825
0.930933
0.93088347
0.9308338
0.9307841
0.9307343
0.93068445
0.93063444
0.9305844
0.93053424
0.93048406
0.93043375
0.9303834
0.9303329
0.93028235
0.9302317
0.93018097
0.9301302
0.9300793
0.9300283
0.9299773
0.92992616
0.92987496
0.92982364
0.92977226
0.9297208
0.92966926
0.92961764
0.9295659
0.9295141
0.92946225
0.9294103
0.92935824
0.9293061
0.9292539
0.9292016
0.9291492
0.92909676
0.92904425
0.9289916
0.9289389
0.9288861
0.92883325
0.92878026
0.92872727
0.9286741
0.92862093
0.92856765
0.92851424
0.9284608
0.92840725
0.9283536
0.9282999
0.92824614
0.92819226
0.9281383
0.9280843
0.9280302
0.92797595
0.9279217
0.9278673
0.9278129
0.92775834
0.92770374
0.927649
0.92759424
0.92753935
0.9274844
0.9274294
0.92737424
0.92731905
0.9272638
0.9272084
0.927153
0.92709744
0.9270418
0.92698616
0.92693037
0.9268745
0.92681855
0.9267625
0.92670643
0.9266502
0.92659396
0.9265376
0.9264811
0.9264246
0.926368
0.9263113
0.9262546
0.9261977
0.9261408
0.92608374
0.92602664
0.9259694
0.92591214
0.9258548
0.92579734
0.9257398
0.92568225
0.92562455
0.9255668
0.9255089
0.925451
0.925393
0.9253349
0.9252767
0.9252184
0.92516005
0.92510164
0.9250431
0.9249845
0.92492586
0.9248671
0.9248082
0.9247493
0.9246903
0.9246312
0.924572
0.92451274
0.9244534
0.92439395
0.92433447
0.92427486
0.9242152
0.9241554
0.9240956
0.92403567
0.92397565
0.9239155
0.92385536
0.9237951
0.9237348
0.92367435
0.92361385
0.9235532
0.92349255
0.9234318
0.92337096
0.92331004
0.923249
0.9231879
0.92312676
0.9230655
0.92300415
0.92294276
0.92288125
0.9228197
0.922758
0.92269623
0.9226344
0.9225725
0.9225105
0.9224484
0.9223862
0.92232394
0.92226166
0.9221992
0.9221367
0.92207414
0.9220115
0.92194873
0.9218859
0.92182297
0.92175996
0.9216969
0.9216337
0.9215705
0.9215072
0.92144376
0.9213802
0.9213167
0.921253
0.92118925
0.9211254
0.9210615
0.9209975
0.9209334
0.9208693
0.92080504
0.9207407
0.9206763
0.9206118
0.92054725
0.9204826
0.92041785
0.920353
0.9202881
0.9202231
0.920158
0.9200929
0.9200277
0.91996235
0.9198969
0.91983145
0.9197659
0.9197002
0.91963446
0.91956866
0.91950274
0.91943675
0.9193707
0.91930455
0.9192383
0.919172
0.9191056
0.91903913
0.91897255
0.9189059
0.91883916
0.91877234
0.91870546
0.91863847
0.9185714
0.91850424
0.918437
0.9183697
0.9183023
0.9182348
0.9181673
0.91809964
0.91803193
0.9179641
0.9178962
0.9178282
0.91776013
0.917692
0.9176238
0.91755545
0.9174871
0.9174186
0.91735005
0.9172814
0.91721267
0.9171439
0.917075
0.917006
0.91693693
0.91686785
0.9167986
0.9167293
0.9166599
0.91659045
0.9165209
0.9164515
0.9163824
0.91631347
0.91624475
0.9161762
0.91610795
0.9160399
0.91597205
0.9159044
0.915837
0.9157698
0.9157028
0.91563606
0.91556954
0.9155032
0.9154371
0.91537124
0.91530555
0.9152401
0.9151749
0.9151099
0.9150451
0.91498053
0.91491616
0.914852
0.9147881
0.9147244
0.91466093
0.9145977
0.9145346
0.9144718
0.91440916
0.91434675
0.9142846
0.91422266
0.9141609
0.9140994
0.9140381
0.913977
0.9139162
0.9138555
0.91379505
0.91373485
0.9136749
0.9136151
0.9135555
0.9134962
0.91343707
0.9133782
0.91331947
0.913261
0.91320276
0.91314477
0.91308695
0.9130293
0.912972
0.9129148
0.9128579
0.91280115
0.91274464
0.9126884
0.9126323
0.91257644
0.9125208
0.9124654
0.9124102
0.91235524
0.91230047
0.9122459
0.9121916
0.9121375
0.9120836
0.9120299
0.9119765
0.9119233
0.91187024
0.91181743
0.91176486
0.9117125
0.9116604
0.91160846
0.9115568
0.9115053
0.911454
0.91140294
0.9113521
0.9113015
0.9112511
0.91120094
0.911151
0.9111012
0.9110517
0.9110024
0.9109533
0.91090447
0.91085577
0.9108074
0.91075915
0.91071117
0.91066337
0.9106158
0.9105685
0.9105213
0.9104744
0.91042775
0.91038126
0.910335
0.910289
0.91024315
0.91019756
0.9101522
0.910107
0.9100621
0.9100174
0.90997285
0.90992856
0.9098845
0.90984064
0.909797
0.9097536
0.9097104
0.90966743
0.9096247
0.90958214
0.9095398
0.9094977
0.90945584
0.9094141
0.9093727
0.90933144
0.90929043
0.90924966
0.9092091
0.9091687
0.90912855
0.9090886
0.9090489
0.90900946
0.9089702
0.9089311
0.9088923
0.90885365
0.90881526
0.90877706
0.9087391
0.90870136
0.9086638
0.90862656
0.9085894
0.9085526
0.90851593
0.90847945
0.9084433
0.9084073
0.90837145
0.9083359
0.9083006
0.9082655
0.90823054
0.90819585
0.90816134
0.9081271
0.9080931
0.90805924
0.9080257
0.9079923
0.9079591
0.90792614
0.9078934
0.90786093
0.9078286
0.90779656
0.90776473
0.9077331
0.9077017
0.90767044
0.90763944
0.9076087
0.9075782
0.90754783
0.90751773
0.9074878
0.9074581
0.9074287
0.9073995
0.90737045
0.90734166
0.90731305
0.9072847
0.90725654
0.9072286
0.90720093
0.9071734
0.90714616
0.9071191
0.9070922
0.90706563
0.9070392
0.90701306
0.9069871
0.9069613
0.9069358
0.9069105
0.9068854
0.90686053
0.90683585
0.9068114
0.9067872
0.9067632
0.9067394
0.9067158
0.9066925
0.9066694
0.90664643
0.9066238
0.90660125
0.906579
0.90655696
0.90653515
0.9065136
0.9064922
0.906471
0.90645003
0.90642935
0.9064088
0.9063885
0.90636843
0.9063486
0.9063289
0.90630955
0.9062903
0.90627134
0.90625256
0.906234
0.90621567
0.90619755
0.90617967
0.90616196
0.90614456
0.9061273
0.9061103
0.9060935
0.9060769
0.9060605
0.90604436
0.90602845
0.9060127
0.9059972
0.90598196
0.9059669
0.90595204
0.90593743
0.905923
0.9059088
0.9058949
0.9058811
0.9058676
0.9058542
0.9058412
0.9058283
0.9058156
0.9058032
0.9057909
0.90577894
0.90576714
0.9057556
0.90574425
0.9057331
0.9057222
0.9057115
0.905701
0.9056907
0.9056807
0.9056709
0.9056613
0.90565187
0.9056427
0.90563375
0.90562505
0.9056165
0.90560824
0.90560013
0.90559226
0.90558463
0.9055772
0.90557
0.905563
0.90555626
0.9055497
0.9055433
0.90553725
0.90553135
0.9055256
0.9055202
0.90551496
0.90550995
0.9055051
0.90550053
0.9054962
0.905492
0.9054881
0.9054843
0.90548086
0.9054776
0.9054745
0.9054717
0.90546906
0.9054666
0.9054644
0.90546244
0.9054607
0.90545917
0.90545785
0.9054567
0.9054559
0.90545523
0.90545475
0.9054545
0.9054545
0.90545475
0.9054552
0.9054558
0.90545666
0.90545774
0.90545905
0.90546054
0.9054623
0.90546423
0.90546644
0.9054688
0.90547144
0.90547425
0.9054773
0.90548056
0.905484
0.9054877
0.90549165
0.90549576
0.9055001
0.9055047
0.90550953
0.90551454
0.9055197
0.9055252
0.90553087
0.9055367
0.90554285
0.9055491
0.90555567
0.9055624
0.9055694
0.9055766
0.905584
0.9055916
0.9055995
0.9056075
0.9056158
0.9056243
0.90563303
0.905642
0.9056511
0.90566045
0.90567005
0.9056799
0.9056899
0.90570015
0.9057106
0.90572125
0.90573215
0.9057433
0.9057546
0.9057662
0.90577793
0.9057899
0.90580213
0.9058145
0.90582716
0.90584004
0.90585315
0.90586644
0.9058799
0.9058937
0.90590763
0.9059218
0.9059362
0.9059508
0.9059656
0.90598065
0.9059959
0.9060114
0.9060271
0.906043
0.90605915
0.9060755
0.90609205
0.90610886
0.90612584
0.90614307
0.9061605
0.9061782
0.90619606
0.9062141
0.9062324
0.90625095
0.9062696
0.90628827
0.906307
0.9063258
0.90634465
0.9063636
0.90638256
0.90640163
0.9064207
0.9064399
0.90645915
0.9064784
0.9064978
0.9065172
0.9065367
0.90655625
0.90657586
0.90659547
0.9066152
0.906635
0.90665483
0.90667474
0.90669477
0.9067148
0.9067349
0.90675503
0.90677524
0.90679556
0.9068159
0.9068363
0.9068568
0.9068773
0.90689784
0.9069185
0.9069392
0.90696
0.9069808
0.90700173
0.9070227
0.9070437
0.9070648
0.90708596
0.9071072
0.9071284
0.90714973
0.90717113
0.9071926
0.9072141
0.9072357
0.9072573
0.907279
0.9073008
0.9073226
0.90734446
0.90736645
0.90738845
0.9074105
0.9074326
0.90745485
0.9074771
0.9074994
0.9075218
0.9075442
0.9075667
0.90758926
0.9076119
0.9076346
0.9076573
0.90768015
0.90770304
0.90772593
0.90774894
0.907772
0.90779513
0.9078183
0.90784156
0.9078648
0.9078882
0.9079116
0.90793514
0.9079587
0.9079823
0.90800595
0.9080297
0.90805346
0.90807736
0.90810126
0.9081252
0.9081493
0.9081734
0.9081975
0.9082218
0.90824604
0.9082704
0.9082948
0.9083193
0.90834385
0.9083684
0.9083931
0.9084178
0.9084426
0.9084674
0.9084923
0.9085173
0.90854234
0.9085674
0.9085926
0.9086178
0.90864307
0.9086684
0.9086938
0.90871924
0.90874475
0.9087704
0.908796
0.9088217
0.9088475
0.9088733
0.9088992
0.9089252
0.90895116
0.90897727
0.9090034
0.9090296
0.9090558
0.9090822
0.9091086
0.909135
0.9091615
0.9091881
0.90921474
0.9092414
0.90926814
0.90929496
0.90932184
0.9093488
0.9093758
0.90940285
0.90942997
0.90945715
0.90948445
0.90951174
0.9095391
0.9095665
0.90959406
0.9096216
0.9096492
0.9096769
0.9097046
0.9097324
0.9097603
0.9097882
0.9098162
0.9098443
0.90987235
0.90990055
0.9099288
0.90995705
0.9099854
0.91001385
0.91004235
0.9100709
0.9100995
0.9101281
0.91015685
0.91018564
0.9102145
0.91024345
0.9102724
0.91030145
0.91033053
0.9103597
0.9103889
0.9104182
0.91044754
0.9104769
0.9105064
0.91053593
0.91056556
0.9105952
0.9106249
0.91065466
0.9106845
0.9107144
0.91074437
0.9107744
0.91080445
0.9108346
0.91086483
0.9108951
0.91092545
0.91095585
0.9109863
0.9110168
0.9110474
0.91107804
0.91110873
0.9111395
0.9111703
0.9112012
0.9112321
0.91126317
0.9112942
0.91132534
0.9113565
0.9113878
0.9114191
0.9114505
0.9114819
0.91151345
0.911545
0.9115766
0.9116083
0.91164005
0.9116719
0.91170377
0.91173565
0.91176766
0.9117997
0.91183186
0.91186404
0.9118963
0.9119286
0.91196096
0.9119934
0.91202587
0.9120584
0.912091
0.9121237
0.9121564
0.91218925
0.9122221
0.912255
0.91228795
0.91232103
0.9123541
0.9123873
0.9124205
0.91245383
0.91248715
0.9125206
0.912554
0.9125876
0.9126212
0.9126549
0.91268855
0.91272235
0.9127562
0.9127901
0.9128241
0.9128581
0.9128922
0.9129264
0.9129606
0.91299486
0.9130292
0.9130636
0.91309804
0.91313255
0.9131671
0.9132018
0.9132365
0.91327125
0.9133061
0.913341
0.913376
0.91341096
0.91344607
0.9134812
0.9135164
0.9135516
0.913587
0.9136224
0.9136578
0.9136933
0.9137289
0.91376454
0.91380024
0.913836
0.91387177
0.91390765
0.9139436
0.9139796
0.91401565
0.91405183
0.914088
0.91412425
0.91416055
0.9141969
0.9142334
0.91426986
0.9143064
0.91434306
0.9143797
0.91441643
0.91445327
0.9144901
0.91452706
0.9145641
0.9146011
0.9146382
0.91467535
0.9147126
0.9147499
0.9147873
0.9148247
0.91486216
0.9148997
0.9149373
0.914975
0.9150127
0.9150505
0.91508836
0.91512626
0.91516423
0.9152023
0.9152404
0.91527855
0.91531676
0.9153551
0.9153934
0.9154318
0.9154703
0.9155088
0.91554743
0.91558605
0.9156248
0.91566354
0.9157024
0.9157413
0.91578025
0.9158193
0.9158584
0.9158975
0.9159367
0.915976
0.9160153
0.9160547
0.9160942
0.9161337
0.9161733
0.9162129
0.9162526
0.91629237
0.9163322
0.9163721
0.91641206
0.91645205
0.9164921
0.9165323
0.91657245
0.9166127
0.91665304
0.9166934
0.91673386
0.91677433
0.9168149
0.9168556
0.9168962
0.916937
0.9169778
0.91701865
0.9170596
0.9171006
0.9171417
0.9171828
0.917224
0.9172652
0.9173065
0.91734785
0.91738933
0.9174308
0.91747236
0.91751397
0.91755563
0.91759735
0.9176392
0.91768104
0.91772294
0.91776496
0.917807
0.91784906
0.91789126
0.91793346
0.9179758
0.9180181
0.91806054
0.91810304
0.91814554
0.91818815
0.91823083
0.91827357
0.9183163
0.91835916
0.9184021
0.91844505
0.9184881
0.9185312
0.91857433
0.91861755
0.9186608
0.91870415
0.91874754
0.918791
0.9188343
0.9188774
0.91892034
0.9189631
0.9190056
0.9190479
0.91909003
0.91913193
0.91917366
0.91921514
0.91925645
0.9192976
0.9193385
0.91937923
0.91941977
0.91946006
0.9195002
0.9195401
0.9195798
0.9196193
0.91965866
0.9196978
0.91973674
0.9197754
0.919814
0.9198523
0.9198904
0.9199284
0.91996604
0.9200036
0.9200409
0.92007804
0.920115
0.9201517
0.92018825
0.9202246
0.9202607
0.92029667
0.9203324
0.9203679
0.92040324
0.92043835
0.92047334
0.920508
0.9205426
0.92057693
0.9206111
0.920645
0.92067873
0.9207123
0.9207456
0.92077875
0.9208117
0.92084444
0.920877
0.92090935
0.9209415
0.9209734
0.92100513
0.9210367
0.9210681
0.9210992
0.9211301
0.9211609
0.92119145
0.9212218
0.92125195
0.9212819
0.9213116
0.9213412
0.9213705
0.9213997
0.9214286
0.9214574
0.92148596
0.9215143
0.92154247
0.9215704
0.92159814
0.92162573
0.9216531
0.9216802
0.9217072
0.921734
0.9217605
0.9217869
0.921813
0.921839
0.92186475
0.9218903
0.9219157
0.92194086
0.92196584
0.9219906
0.92201513
0.9220395
0.92206365
0.92208767
0.9221114
0.922135
0.92215836
0.9221815
0.9222045
0.92222726
0.92224985
0.9222722
0.9222944
0.9223163
0.9223381
0.9223597
0.92238104
0.92240226
0.92242324
0.922444
0.92246455
0.92248493
0.92250514
0.9225251
0.9225449
0.92256445
0.9225838
0.922603
0.922622
0.9226408
0.9226594
0.92267776
0.92269593
0.92271394
0.9227317
0.9227493
0.9227667
0.92278385
0.92280084
0.92281765
0.9228342
0.9228506
0.9228668
0.9228828
0.9228986
0.92291415
0.9229296
0.9229448
0.92295974
0.9229745
0.92298913
0.92300355
0.92301774
0.92303175
0.9230455
0.9230591
0.9230725
0.9230857
0.92309874
0.9231115
0.92312413
0.92313653
0.9231487
0.92316073
0.92317253
0.9231841
0.92319554
0.92320675
0.9232177
0.92322856
0.9232392
0.92324954
0.92325974
0.92326975
0.9232796
0.9232892
0.9232986
0.9233078
0.92331684
0.9233256
0.92333424
0.92334265
0.9233509
0.92335886
0.92336667
0.9233743
0.9233817
0.92338896
0.92339593
0.9234028
0.9234094
0.9234158
0.92342204
0.92342806
0.92343384
0.9234395
0.92344487
0.9234501
0.9234551
0.92345995
0.9234646
0.923469
0.92347324
0.92347723
0.9234811
0.9234847
0.92348814
0.92349136
0.9234944
0.9234972
0.9234998
0.92350227
0.92350453
0.92350656
0.92350835
0.92351
0.92351145
0.92351264
0.9235137
0.92351454
0.92351514
0.9235156
0.92351586
0.92351586
0.92351574
0.9235153
0.9235148
0.923514
0.92351305
0.9235119
0.92351055
0.923509
0.9235072
0.92350525
0.9235031
0.9235008
0.9234982
0.9234955
0.9234925
0.92348933
0.923486
0.9234824
0.92347866
0.9234747
0.92347056
0.9234662
0.9234617
0.9234569
0.92345196
0.92344683
0.92344147
0.9234359
0.9234302
0.92342424
0.9234181
0.9234117
0.9234052
0.92339844
0.9233915
0.92338437
0.92337704
0.92336947
0.9233617
0.9233538
0.9233457
0.92333734
0.92332876
0.92332006
0.9233111
0.923302
0.92329264
0.9232831
0.9232734
0.92326343
0.9232533
0.9232429
0.92323244
0.9232217
0.92321074
0.92319965
0.92318827
0.92317677
0.923165
0.9231531
0.923141
0.92312866
0.92311615
0.9231034
0.92309046
0.92307734
0.923064
0.9230505
0.92303675
0.92302287
0.92300874
0.9229944
0.9229799
0.92296517
0.92295027
0.9229351
0.9229198
0.92290425
0.9228886
0.92287266
0.9228565
0.92284024
0.92282367
0.922807
0.92279005
0.92277294
0.92275566
0.92273813
0.92272043
0.9227025
0.9226844
0.9226661
0.9226476
0.9226289
0.9226099
0.92259085
0.92257154
0.92255205
0.9225323
0.9225124
0.9224923
0.922472
0.9224515
0.9224308
0.9224099
0.9223888
0.9223675
0.922346
0.9223243
0.92230237
0.9222803
0.922258
0.9222355
0.9222128
0.9221899
0.9221668
0.9221435
0.92212003
0.9220963
0.9220724
0.92204833
0.922024
0.9219995
0.92197484
0.92195
0.9219249
0.92189956
0.9218741
0.9218484
0.9218225
0.92179644
0.92177016
0.92174363
0.9217169
0.92169005
0.921663
0.9216357
0.9216082
0.92158055
0.92155266
0.9215246
0.9214963
0.9214678
0.9214391
0.92141026
0.9213812
0.9213519
0.9213224
0.9212927
0.92126286
0.92123276
0.9212025
0.921172
0.9211413
0.92111045
0.9210794
0.9210481
0.92101663
0.920985
0.9209531
0.920921
0.9208888
0.9208563
0.92082363
0.9207908
0.9207577
0.92072445
0.92069095
0.9206573
0.9206234
0.9205894
0.9205551
0.92052066
0.920486
0.9204511
0.92041606
0.9203808
0.9203453
0.92030966
0.9202738
0.9202377
0.9202015
0.920165
0.92012835
0.9200915
0.9200545
0.92001736
0.9199802
0.91994303
0.91990584
0.91986865
0.9198314
0.91979414
0.9197569
0.9197196
0.91968226
0.9196449
0.9196075
0.9195701
0.9195327
0.9194952
0.9194578
0.9194203
0.91938275
0.91934526
0.91930765
0.9192701
0.9192325
0.9191948
0.9191572
0.91911954
0.9190818
0.9190441
0.91900635
0.91896856
0.91893077
0.9188929
0.9188551
0.9188172
0.9187793
0.9187414
0.9187035
0.9186655
0.91862756
0.91858953
0.9185515
0.9185135
0.9184754
0.91843724
0.91839916
0.918361
0.9183228
0.91828465
0.9182464
0.9182082
0.9181699
0.9181316
0.9180933
0.918055
0.9180166
0.9179782
0.91793984
0.9179014
0.91786295
0.91782445
0.91778594
0.91774744
0.9177089
0.9176703
0.91763175
0.9175931
0.9175545
0.9175158
0.91747713
0.9174384
0.9173997
0.9173609
0.91732216
0.91728336
0.9172445
0.91720563
0.91716677
0.9171279
0.917089
0.91705
0.917011
0.91697204
0.91693306
0.916894
0.9168549
0.9168159
0.9167768
0.9167376
0.91669846
0.9166593
0.9166201
0.91658086
0.9165416
0.91650236
0.916463
0.91642374
0.9163844
0.916345
0.9163056
0.9162662
0.91622674
0.9161873
0.9161478
0.9161083
0.9160688
0.9160292
0.91598964
0.91595006
0.9159104
0.9158708
0.9158311
0.9157914
0.9157517
0.91571194
0.9156722
0.91563237
0.9155926
0.91555274
0.9155129
0.915473
0.9154331
0.9153932
0.91535324
0.91531324
0.91527325
0.9152332
0.9151932
0.9151531
0.91511303
0.9150729
0.91503274
0.9149926
0.9149524
0.9149122
0.914872
0.9148317
0.9147914
0.9147511
0.9147108
0.91467047
0.91463006
0.91458964
0.91454923
0.9145088
0.91446835
0.9144278
0.91438735
0.9143468
0.9143062
0.91426563
0.91422504
0.9141844
0.91414374
0.9141031
0.9140624
0.9140217
0.9139809
0.91394013
0.9138993
0.91385853
0.91381764
0.9137768
0.9137359
0.913695
0.913654
0.9136131
0.91357213
0.9135311
0.91349006
0.91344905
0.9134079
0.91336685
0.9133257
0.9132846
0.9132434
0.9132022
0.913161
0.91311973
0.9130785
0.9130372
0.9129959
0.91295457
0.9129132
0.9128718
0.9128304
0.912789
0.9127475
0.912706
0.91266453
0.91262305
0.9125815
0.9125399
0.9124983
0.9124567
0.9124151
0.9123734
0.9123317
0.91229
0.91224825
0.91220653
0.91216475
0.9121229
0.9120811
0.9120392
0.9119974
0.9119555
0.9119136
0.9118716
0.91182965
0.9117876
0.9117456
0.9117036
0.91166157
0.9116194
0.91157734
0.9115352
0.91149306
0.91145086
0.91140866
0.91136646
0.9113242
0.91128194
0.9112396
0.9111973
0.911155
0.9111126
0.9110702
0.9110278
0.91098535
0.9109429
0.9109004
0.9108579
0.91081536
0.91077286
0.91073024
0.9106877
0.910645
0.9106024
0.9105597
0.91051704
0.9104743
0.91043156
0.91038877
0.91034603
0.9103032
0.9102604
0.9102175
0.9101746
0.9101317
0.9100888
0.91004586
0.9100029
0.90995985
0.9099168
0.9098738
0.90983075
0.90978765
0.9097445
0.9097014
0.9096582
0.90961504
0.9095718
0.9095286
0.90948534
0.90944207
0.90939873
0.9093554
0.90931207
0.9092687
0.9092253
0.9091819
0.90913844
0.909095
0.9090515
0.90900797
0.9089644
0.9089209
0.90887725
0.9088337
0.90879005
0.90874636
0.90870273
0.908659
0.9086153
0.90857154
0.90852773
0.908484
0.9084401
0.9083963
0.90835243
0.90830857
0.90826464
0.9082207
0.9081767
0.90813273
0.90808874
0.9080447
0.90800065
0.9079566
0.9079125
0.9078684
0.9078242
0.90778005
0.9077358
0.90769166
0.9076474
0.90760314
0.90755886
0.9075145
0.90747017
0.9074258
0.9073815
0.90733707
0.9072926
0.9072482
0.9072037
0.9071592
0.9071147
0.90707016
0.9070256
0.906981
0.90693635
0.9068917
0.90684706
0.90680236
0.90675765
0.90671295
0.9066682
0.90662336
0.9065786
0.9065338
0.9064889
0.906444
0.90639913
0.9063542
0.90630925
0.9062643
0.9062193
0.9061743
0.90612924
0.9060842
0.9060391
0.905994
0.9059489
0.9059037
0.9058586
0.90581334
0.9057681
0.90572286
0.9056776
0.9056323
0.90558696
0.90554166
0.9054963
0.9054509
0.90540546
0.90536004
0.90531456
0.9052691
0.9052236
0.90517807
0.90513253
0.90508693
0.90504134
0.90499574
0.9049501
0.9049044
0.9048587
0.904813
0.9047672
0.9047215
0.9046757
0.9046299
0.90458405
0.9045382
0.9044923
0.9044464
0.90440047
0.9043545
0.90430856
0.90426254
0.9042165
0.9041705
0.90412444
0.9040783
0.90403223
0.9039861
0.9039399
0.9038937
0.9038475
0.90380126
0.903755
0.90370876
0.90366244
0.90361613
0.90356976
0.9035234
0.903477
0.9034306
0.90338415
0.90333766
0.90329117
0.9032447
0.9031981
0.9031516
0.90310496
0.90305823
0.9030115
0.90296465
0.90291774
0.9028707
0.9028237
0.90277654
0.90272933
0.90268207
0.90263474
0.9025873
0.9025398
0.9024922
0.9024446
0.90239686
0.90234905
0.9023012
0.90225327
0.9022053
0.9021572
0.902109
0.9020608
0.9020125
0.9019641
0.9019157
0.9018672
0.9018186
0.90176994
0.9017212
0.9016724
0.9016235
0.90157455
0.90152556
0.90147644
0.90142727
0.90137804
0.9013287
0.90127933
0.90122986
0.9011803
0.9011307
0.901081
0.90103126
0.9009814
0.90093154
0.9008815
0.9008315
0.9007814
0.9007312
0.9006809
0.9006306
0.90058017
0.9005297
0.90047914
0.9004285
0.9003778
0.900327
0.9002761
0.9002252
0.90017426
0.9001232
0.90007204
0.90002084
0.8999695
0.89991814
0.8998667
0.8998152
0.89976364
0.89971197
0.8996603
0.8996085
0.8995566
0.89950466
0.8994526
0.89940053
0.8993484
0.89929616
0.89924383
0.89919144
0.899139
0.8990865
0.8990339
0.8989812
0.89892846
0.89887565
0.8988227
0.8987698
0.89871675
0.89866364
0.8986105
0.8985572
0.8985039
0.8984505
0.89839697
0.89834344
0.89828986
0.89823616
0.8981824
0.8981285
0.8980746
0.8980206
0.89796656
0.89791244
0.89785826
0.89780396
0.8977496
0.8976952
0.8976407
0.8975861
0.8975315
0.8974768
0.897422
0.8973671
0.8973122
0.8972572
0.89720213
0.89714694
0.89709175
0.89703643
0.89698106
0.8969256
0.89687014
0.8968145
0.89675885
0.8967031
0.89664733
0.8965914
0.89653546
0.8964795
0.89642334
0.8963672
0.8963109
0.8962546
0.8961982
0.89614177
0.89608526
0.89602864
0.89597195
0.8959152
0.89585835
0.8958015
0.8957445
0.89568746
0.8956303
0.89557314
0.89551586
0.8954585
0.8954011
0.8953436
0.8952861
0.89522845
0.89517075
0.89511293
0.8950551
0.8949972
0.8949392
0.8948811
0.89482296
0.8947648
0.8947065
0.89464813
0.8945897
0.8945312
0.8944726
0.89441395
0.89435524
0.89429647
0.8942376
0.8941786
0.8941196
0.89406055
0.89400136
0.8939421
0.8938828
0.89382344
0.89376396
0.8937045
0.89364487
0.8935852
0.8935254
0.89346564
0.89340574
0.8933458
0.89328575
0.8932256
0.89316547
0.8931052
0.8930449
0.89298445
0.892924
0.89286345
0.89280283
0.89274216
0.89268136
0.89262056
0.89255965
0.8924986
0.8924376
0.8923765
0.89231527
0.892254
0.8921926
0.8921312
0.8920697
0.8920081
0.8919465
0.8918848
0.891823
0.8917611
0.8916992
0.8916372
0.89157516
0.891513
0.89145076
0.8913885
0.89132607
0.89126366
0.89120114
0.89113855
0.8910759
0.89101315
0.8909503
0.8908875
0.8908245
0.8907615
0.8906984
0.89063525
0.890572
0.89050865
0.8904453
0.8903818
0.8903183
0.8902547
0.89019096
0.89012724
0.8900634
0.8899995
0.88993555
0.8898715
0.88980734
0.88974315
0.8896789
0.8896146
0.88955015
0.88948566
0.8894211
0.8893565
0.8892918
0.88922703
0.8891622
0.8890973
0.88903224
0.8889672
0.88890207
0.88883686
0.88877153
0.8887062
0.88864076
0.88857526
0.8885097
0.88844407
0.8883783
0.8883125
0.88824666
0.88818073
0.8881147
0.8880486
0.8879824
0.8879162
0.8878499
0.8877835
0.88771707
0.88765055
0.887584
0.8875173
0.8874505
0.8873837
0.8873168
0.8872499
0.88718283
0.8871157
0.88704854
0.8869813
0.88691396
0.8868466
0.8867791
0.88671154
0.88664395
0.88657624
0.88650846
0.88644063
0.88637275
0.88630474
0.8862367
0.8861686
0.88610035
0.8860321
0.88596374
0.8858953
0.8858268
0.8857583
0.8856896
0.8856209
0.8855521
0.88548326
0.88541436
0.88534534
0.88527626
0.8852071
0.8851379
0.8850686
0.8849992
0.8849298
0.8848603
0.8847907
0.88472104
0.8846513
0.8845815
0.8845116
0.8844417
0.88437164
0.88430154
0.8842314
0.8841611
0.88409084
0.88402045
0.88395
0.8838794
0.88380885
0.88373816
0.8836674
0.88359654
0.88352567
0.8834547
0.88338363
0.8833125
0.88324136
0.88317007
0.8830987
0.8830273
0.88295585
0.8828843
0.8828127
0.882741
0.8826692
0.8825973
0.88252544
0.88245344
0.8823814
0.88230926
0.882237
0.8821647
0.88209236
0.88201994
0.88194746
0.88187486
0.8818022
0.8817295
0.8816567
0.88158387
0.8815109
0.8814379
0.8813648
0.8812916
0.88121843
0.8811451
0.88107175
0.88099825
0.88092476
0.88085115
0.8807775
0.88070375
0.88062996
0.88055605
0.8804821
0.88040805
0.88033396
0.88025975
0.8801855
0.88011116
0.8800368
0.8799623
0.87988776
0.87981313
0.87973845
0.8796637
0.87958884
0.879514
0.879439
0.8793639
0.8792888
0.8792136
0.87913835
0.87906295
0.87898755
0.8789121
0.8788365
0.8787609
0.8786852
0.87860936
0.87853354
0.8784576
0.8783816
0.8783059
0.87823075
0.878156
0.8780818
0.87800807
0.87793475
0.877862
0.8777897
0.87771785
0.8776465
0.87757564
0.87750524
0.8774354
0.87736595
0.877297
0.87722856
0.87716055
0.8770931
0.8770261
0.8769595
0.87689346
0.8768279
0.8767628
0.8766982
0.87663406
0.8765704
0.8765072
0.8764446
0.87638235
0.8763206
0.8762594
0.8761986
0.8761383
0.87607855
0.8760192
0.87596035
0.875902
0.8758441
0.8757867
0.8757298
0.87567335
0.8756174
0.87556195
0.87550694
0.87545246
0.8753984
0.8753449
0.87529176
0.8752392
0.8751871
0.8751355
0.8750843
0.8750336
0.87498343
0.8749338
0.87488455
0.8748358
0.8747875
0.87473977
0.87469244
0.87464565
0.8745993
0.87455344
0.8745081
0.87446314
0.87441874
0.8743748
0.87433136
0.8742884
0.8742459
0.8742039
0.8741624
0.8741213
0.8740808
0.87404066
0.8740011
0.8739619
0.8739233
0.87388515
0.8738474
0.87381023
0.8737735
0.8737373
0.8737015
0.8736662
0.8736315
0.87359715
0.8735633
0.87353
0.87349707
0.8734647
0.87343276
0.87340134
0.8733704
0.87333995
0.87330997
0.87328047
0.87325144
0.8732229
0.8731948
0.8731672
0.8731401
0.8731135
0.87308735
0.8730617
0.8730365
0.8730118
0.8729876
0.8729639
0.8729406
0.87291783
0.87289554
0.8728737
0.8728524
0.8728316
0.8728112
0.8727913
0.8727719
0.87275296
0.87273455
0.87271655
0.8726991
0.8726821
0.8726656
0.8726495
0.87263393
0.87261885
0.87260425
0.8725902
0.87257653
0.87256336
0.87255067
0.8725385
0.87252676
0.87251556
0.87250483
0.8724945
0.87248474
0.87247545
0.8724666
0.8724583
0.8724504
0.872443
0.8724361
0.87242967
0.87242377
0.8724183
0.8724133
0.8724088
0.87240475
0.87240124
0.8723982
0.87239563
0.8723935
0.8723919
0.87239075
0.8723901
0.8723899
0.8723903
0.87239105
0.8723923
0.8723941
0.8723963
0.87239903
0.8724022
0.8724059
0.87241006
0.87241465
0.8724198
0.8724254
0.87243146
0.872438
0.8724451
0.8724526
0.8724606
0.87246907
0.87247807
0.8724875
0.87249744
0.8725078
0.8725187
0.8725301
0.87254196
0.8725543
0.8725671
0.8725804
0.8725942
0.8726084
0.87262315
0.87263834
0.8726541
0.87267023
0.8726869
0.872704
0.8727217
0.8727398
0.8727583
0.8727774
0.87279695
0.872817
0.8728375
0.87285846
0.87288
0.8729019
0.8729243
0.8729473
0.87297064
0.87299454
0.87301886
0.8730437
0.87306905
0.8730948
0.8731211
0.87314785
0.8731751
0.8732028
0.873231
0.8732597
0.87328887
0.8733185
0.87334865
0.87337923
0.87341034
0.8734419
0.87347394
0.8735065
0.8735395
0.87357295
0.8736069
0.8736414
0.8736763
0.87371176
0.87374765
0.873784
0.8738209
0.8738582
0.873896
0.8739343
0.87397313
0.87401235
0.8740521
0.87409234
0.87413305
0.87417424
0.8742159
0.87425804
0.87430066
0.8743438
0.8743874
0.87443143
0.874476
0.874521
0.87456656
0.8746125
0.874659
0.874706
0.8747534
0.87480134
0.87484974
0.8748986
0.87494797
0.8749978
0.87504816
0.87509894
0.8751502
0.875202
0.8752542
0.87530696
0.8753602
0.87541384
0.875468
0.8755227
0.8755778
0.8756334
0.8756895
0.8757461
0.8758032
0.8758607
0.8759187
0.8759772
0.87603617
0.87609565
0.87615556
0.876216
0.8762769
0.8763383
0.8764002
0.8764625
0.87652534
0.87658864
0.8766524
0.8767167
0.8767814
0.8768467
0.87691236
0.8769786
0.8770452
0.8771124
0.87718004
0.87724817
0.8773167
0.8773858
0.87745535
0.8775254
0.87759596
0.87766695
0.8777384
0.87781036
0.87788284
0.87795573
0.87802917
0.878103
0.8781774
0.87825227
0.8783276
0.8784034
0.8784797
0.8785565
0.87863374
0.87871146
0.87878966
0.87886834
0.87894756
0.8790272
0.87910736
0.87918794
0.87926906
0.87935066
0.8794327
0.87951523
0.87959826
0.87968177
0.87976575
0.8798502
0.87993515
0.8800206
0.8801065
0.8801929
0.8802798
0.8803671
0.88045496
0.8805433
0.88063204
0.88072133
0.8808111
0.88090134
0.88099205
0.88108325
0.8811749
0.8812671
0.8813597
0.88145286
0.88154644
0.88164055
0.8817351
0.88183016
0.8819257
0.88202167
0.88211817
0.88221514
0.8823126
0.8824105
0.88250893
0.8826078
0.8827072
0.8828071
0.8829074
0.8830082
0.8831095
0.8832113
0.88331354
0.8834163
0.88351953
0.8836232
0.8837274
0.88383204
0.8839372
0.88404286
0.88414896
0.8842555
0.8843626
0.88447016
0.88457817
0.8846867
0.88479567
0.88490516
0.88501513
0.8851255
0.88523644
0.88534784
0.8854597
0.8855721
0.8856849
0.8857983
0.88591206
0.8860263
0.8861411
0.88625634
0.8863721
0.88648826
0.88660496
0.88672215
0.88683975
0.8869579
0.88707596
0.88719374
0.8873112
0.88742846
0.8875454
0.887662
0.88777834
0.88789445
0.8880102
0.8881257
0.8882409
0.8883558
0.8884704
0.8885848
0.8886988
0.8888126
0.888926
0.8890392
0.88915217
0.88926476
0.88937706
0.8894891
0.8896009
0.88971233
0.8898235
0.8899344
0.890045
0.8901553
0.89026535
0.8903751
0.8904845
0.8905937
0.89070255
0.89081115
0.89091945
0.89102745
0.89113516
0.8912426
0.8913498
0.89145666
0.89156324
0.8916695
0.8917755
0.8918812
0.8919866
0.89209175
0.89219666
0.8923012
0.89240545
0.89250946
0.8926132
0.8927166
0.8928197
0.8929225
0.8930251
0.8931273
0.8932293
0.893331
0.89343244
0.8935335
0.8936344
0.8937349
0.8938351
0.8939351
0.8940348
0.89413416
0.8942333
0.8943321
0.89443064
0.89452887
0.8946268
0.8947245
0.8948218
0.8949189
0.8950157
0.8951122
0.8952085
0.8953044
0.89540005
0.8954954
0.8955905
0.8956853
0.8957798
0.895874
0.89596796
0.8960616
0.89615494
0.896248
0.8963408
0.89643323
0.89652544
0.89661735
0.89670897
0.89680034
0.89689136
0.89698213
0.8970726
0.8971628
0.89725274
0.8973423
0.8974317
0.8975207
0.8976095
0.8976979
0.8977861
0.897874
0.89796156
0.8980489
0.8981359
0.8982227
0.8983091
0.8983953
0.89848113
0.8985667
0.8986521
0.8987371
0.8988218
0.89890623
0.8989904
0.89907426
0.8991578
0.8992411
0.8993241
0.89940685
0.8994893
0.8995714
0.89965326
0.8997348
0.8998161
0.8998971
0.8999778
0.9000582
0.9001383
0.9002182
0.9002977
0.900377
0.90045595
0.90053463
0.90061307
0.90069115
0.900769
0.90084654
0.9009238
0.90100074
0.90107745
0.9011538
0.9012299
0.90130574
0.90138125
0.90145653
0.90153146
0.90160614
0.9016805
0.9017546
0.9018284
0.9019019
0.90197515
0.9020481
0.90212077
0.9021931
0.9022652
0.90233696
0.9024085
0.9024797
0.90255064
0.90262127
0.9026916
0.9027617
0.9028315
0.90290093
0.90297014
0.9030391
0.9031077
0.90317607
0.9032441
0.90331185
0.9033793
0.90344656
0.90351343
0.90358007
0.9036464
0.90371245
0.9037782
0.90384364
0.90390885
0.9039737
0.9040383
0.9041026
0.90416664
0.9042304
0.90429384
0.904357
0.9044199
0.9044825
0.90454483
0.9046068
0.90466857
0.90473
0.9047912
0.90485203
0.9049126
0.9049729
0.9050329
0.9050926
0.905152
0.90521115
0.90527004
0.9053286
0.90538687
0.90544486
0.90550256
0.90556
0.9056171
0.905674
0.90573055
0.9057868
0.9058428
0.90589845
0.9059539
0.90600896
0.9060638
0.90611833
0.90617263
0.9062266
0.9062803
0.9063336
0.90638673
0.90643954
0.9064921
0.9065443
0.9065963
0.906648
0.90669936
0.90675044
0.9068012
0.90685177
0.906902
0.9069519
0.90700155
0.90705097
0.9071
0.90714884
0.90719736
0.9072456
0.9072935
0.9073411
0.90738845
0.90743554
0.9074823
0.9075288
0.907575
0.90762097
0.90766656
0.9077119
0.907757
0.90780175
0.9078462
0.90789044
0.9079343
0.90797794
0.9080213
0.9080643
0.90810704
0.90814954
0.90819174
0.9082336
0.9082752
0.90831655
0.90835756
0.90839833
0.90843874
0.9084789
0.9085188
0.9085584
0.9085977
0.90863675
0.90867543
0.9087139
0.9087521
0.90878993
0.9088275
0.9088648
0.9089018
0.9089385
0.90897495
0.9090111
0.90904695
0.90908253
0.9091178
0.9091528
0.9091875
0.90922195
0.90925604
0.9092899
0.90932345
0.9093567
0.90938973
0.9094224
0.9094548
0.90948695
0.9095188
0.9095503
0.90958154
0.90961254
0.90964323
0.90967363
0.90970373
0.90973353
0.90976304
0.9097923
0.9098213
0.90984994
0.9098783
0.9099064
0.9099342
0.90996176
0.90998894
0.91001594
0.9100426
0.9100689
0.91009504
0.91012084
0.9101463
0.91017157
0.9101965
0.9102211
0.9102455
0.91026956
0.91029334
0.9103168
0.91034
0.91036296
0.9103856
0.9104079
0.91043
0.91045177
0.9104732
0.91049445
0.91051537
0.91053593
0.9105563
0.91057634
0.9105961
0.91061556
0.91063476
0.91065365
0.91067225
0.91069055
0.9107086
0.91072637
0.91074383
0.910761
0.91077787
0.91079444
0.91081077
0.9108268
0.91084254
0.910858
0.9108731
0.910888
0.91090256
0.91091686
0.9109309
0.9109446
0.91095805
0.91097116
0.91098404
0.9109966
0.9110089
0.9110209
0.9110326
0.911044
0.91105515
0.911066
0.91107655
0.9110868
0.9110968
0.9111065
0.9111159
0.911125
0.9111339
0.9111424
0.9111507
0.9111586
0.9111663
0.9111737
0.91118085
0.91118765
0.9111942
0.9112004
0.91120636
0.911212
0.91121745
0.9112225
0.91122735
0.9112319
0.9112361
0.91124004
0.9112437
0.9112471
0.9112502
0.911253
0.9112555
0.9112577
0.9112598
0.91126174
0.91126364
0.9112655
0.9112672
0.9112689
0.91127044
0.9112719
0.91127336
0.9112747
0.9112759
0.91127706
0.9112781
0.91127914
0.91128004
0.9112809
0.91128165
0.9112823
0.9112829
0.9112834
0.9112838
0.91128415
0.9112844
0.91128457
0.9112846
0.9112846
0.91128457
0.9112844
0.91128415
0.9112838
0.9112834
0.9112829
0.9112823
0.91128165
0.91128093
0.9112801
0.9112792
0.9112782
0.9112771
0.911276
0.91127473
0.9112734
0.911272
0.9112705
0.91126895
0.9112673
0.91126555
0.9112637
0.9112618
0.91125983
0.91125774
0.9112556
0.9112534
0.91125107
0.9112487
0.9112462
0.9112436
0.911241
0.91123825
0.91123545
0.91123253
0.91122955
0.9112265
0.91122335
0.91122013
0.9112168
0.91121346
0.91120994
0.9112064
0.9112028
0.91119903
0.9111952
0.91119134
0.91118735
0.9111833
0.9111792
0.91117495
0.91117066
0.91116625
0.91116184
0.91115725
0.9111526
0.9111479
0.9111431
0.91113824
0.9111333
0.9111282
0.9111231
0.91111785
0.9111126
0.9111072
0.91110176
0.9110962
0.91109055
0.9110849
0.91107905
0.9110732
0.91106725
0.9110612
0.9110551
0.9110489
0.9110426
0.9110362
0.91102976
0.9110232
0.9110166
0.9110099
0.9110031
0.91099626
0.9109893
0.91098225
0.91097516
0.91096795
0.9109607
0.9109533
0.9109459
0.9109383
0.91093075
0.910923
0.91091526
0.9109074
0.91089946
0.9108914
0.9108833
0.91087514
0.91086686
0.9108585
0.91085005
0.9108415
0.91083294
0.91082424
0.9108155
0.9108066
0.91079766
0.91078866
0.91077954
0.91077036
0.9107611
0.91075176
0.91074234
0.9107328
0.9107232
0.9107135
0.9107038
0.9106939
0.910684
0.910674
0.9106639
0.9106537
0.91064346
0.9106331
0.91062266
0.91061217
0.91060156
0.9105909
0.91058016
0.9105693
0.91055834
0.9105474
0.9105363
0.9105251
0.9105139
0.9105025
0.9104911
0.9104796
0.910468
0.91045636
0.9104446
0.91043276
0.91042084
0.91040885
0.91039675
0.9103846
0.9103724
0.91036004
0.91034764
0.9103351
0.91032255
0.91030985
0.91029716
0.91028434
0.9102714
0.9102584
0.91024536
0.9102322
0.91021895
0.9102056
0.9101922
0.9101787
0.91016513
0.9101515
0.9101378
0.91012394
0.91011006
0.91009605
0.910082
0.91006786
0.9100536
0.9100393
0.9100249
0.9100104
0.90999585
0.9099812
0.90996647
0.9099517
0.9099368
0.90992177
0.90990674
0.9098916
0.90987635
0.909861
0.90984565
0.90983015
0.9098146
0.909799
0.90978324
0.90976745
0.9097516
0.9097356
0.9097195
0.90970343
0.90968716
0.9096709
0.9096545
0.90963805
0.9096215
0.90960485
0.90958816
0.90957135
0.9095545
0.9095375
0.90952045
0.90950334
0.9094861
0.9094688
0.9094514
0.90943396
0.90941644
0.9093988
0.9093811
0.9093633
0.90934545
0.90932745
0.90930945
0.9092913
0.9092731
0.9092548
0.90923643
0.909218
0.9091995
0.9091808
0.9091621
0.9091433
0.9091245
0.90910554
0.9090865
0.9090674
0.9090482
0.9090289
0.9090095
0.9089901
0.90897053
0.9089509
0.90893126
0.90891147
0.9088916
0.90887165
0.9088516
0.90883154
0.90881133
0.90879107
0.90877074
0.9087503
0.90872973
0.90870917
0.9086885
0.9086677
0.9086468
0.9086259
0.90860486
0.90858376
0.9085626
0.9085413
0.90852
0.9084985
0.908477
0.90845543
0.90843374
0.908412
0.90839016
0.90836823
0.9083462
0.9083241
0.90830195
0.90827966
0.9082573
0.9082349
0.90821236
0.9081898
0.9081671
0.90814435
0.9081215
0.9080986
0.9080756
0.9080525
0.9080293
0.9080061
0.90798277
0.90795934
0.9079358
0.90791225
0.9078886
0.9078648
0.90784097
0.90781707
0.90779305
0.90776896
0.9077448
0.90772057
0.90769625
0.90767187
0.9076474
0.90762275
0.9075981
0.90757334
0.90754855
0.90752363
0.90749866
0.90747356
0.9074484
0.90742314
0.90739787
0.9073724
0.90734696
0.9073214
0.9072957
0.90727
0.90724415
0.9072183
0.9071923
0.90716624
0.9071401
0.90711385
0.9070875
0.9070611
0.90703464
0.90700805
0.9069814
0.9069547
0.9069279
0.906901
0.906874
0.90684694
0.9068198
0.9067926
0.9067653
0.90673786
0.9067104
0.90668285
0.9066552
0.9066275
0.9065997
0.9065718
0.90654385
0.9065158
0.90648764
0.9064594
0.90643114
0.9064027
0.9063743
0.9063457
0.90631706
0.9062884
0.9062596
0.9062307
0.9062017
0.9061727
0.90614355
0.90611434
0.906085
0.9060557
0.9060262
0.9059967
0.90596706
0.9059373
0.9059075
0.90587765
0.9058477
0.9058177
0.9057875
0.9057573
0.905727
0.9056967
0.90566623
0.90563565
0.9056051
0.9055744
0.90554357
0.9055127
0.90548176
0.9054507
0.9054196
0.9053884
0.9053571
0.9053258
0.90529436
0.9052628
0.90523124
0.9051996
0.9051678
0.905136
0.9051041
0.90507215
0.90504014
0.905008
0.9049758
0.9049435
0.90491116
0.90487874
0.90484625
0.9048137
0.90478104
0.9047483
0.9047155
0.90468264
0.9046497
0.90461665
0.9045835
0.9045503
0.90451705
0.90448374
0.90445036
0.90441686
0.9043833
0.9043496
0.90431595
0.90428215
0.90424824
0.9042143
0.9041803
0.9041462
0.90411204
0.90407777
0.90404344
0.90400904
0.9039746
0.90394
0.9039054
0.9038707
0.9038359
0.9038011
0.9037661
0.9037311
0.90369606
0.9036609
0.9036256
0.9035903
0.9035549
0.90351945
0.9034839
0.9034483
0.90341264
0.9033769
0.903341
0.9033051
0.9032691
0.903233
0.9031969
0.90316063
0.90312433
0.903088
0.9030515
0.90301496
0.90297836
0.9029417
0.9029049
0.9028681
0.9028312
0.90279424
0.90275717
0.90272003
0.9026828
0.9026455
0.90260816
0.9025707
0.9025332
0.9024956
0.90245795
0.90242016
0.9023824
0.90234447
0.9023065
0.90226847
0.9022303
0.9021921
0.90215385
0.90211546
0.9020771
0.9020386
0.90199995
0.9019613
0.9019226
0.9018838
0.9018449
0.90180594
0.9017669
0.9017278
0.9016886
0.90164936
0.90161
0.90157056
0.9015311
0.9014915
0.9014519
0.9014121
0.9013723
0.9013325
0.9012925
0.9012525
0.9012124
0.9011722
0.901132
0.90109164
0.9010512
0.90101075
0.90097016
0.9009296
0.90088886
0.90084803
0.9008072
0.90076625
0.90072525
0.9006842
0.900643
0.90060174
0.90056044
0.900519
0.9004776
0.90043604
0.9003944
0.9003527
0.90031093
0.9002691
0.9002271
