CH11
0.44394994
0.4439842
0.44401821
0.4440519
0.44408533
0.44411844
0.4441513
0.44418386
0.44421613
0.44424814
0.44427982
0.44431126
0.44434237
0.44437325
0.4444038
0.44443408
0.4444641
0.44449377
0.44452322
0.44455233
0.44458118
0.44460976
0.44463804
0.44466603
0.44469374
0.44472116
0.4447483
0.44477516
0.44480172
0.444828
0.44485402
0.4448797
0.44490516
0.4449303
0.44495514
0.44497973
0.445004
0.445028
0.4450517
0.44507515
0.44509828
0.44512114
0.44514373
0.445166
0.44518802
0.4452097
0.44523114
0.4452523
0.44527316
0.44529372
0.44531402
0.44533402
0.44535375
0.44537318
0.44539234
0.4454112
0.44542977
0.44544807
0.44546607
0.44548377
0.4455012
0.44551837
0.44553524
0.4455518
0.4455681
0.44558412
0.44559985
0.4456153
0.44563043
0.4456453
0.44565988
0.44567418
0.4456882
0.44570193
0.44571537
0.4457285
0.4457414
0.44575396
0.44576627
0.44577828
0.44579
0.44580144
0.4458126
0.44582346
0.44583407
0.44584435
0.44585437
0.4458641
0.44587356
0.4458827
0.4458916
0.44590017
0.44590846
0.44591647
0.44592422
0.44593167
0.44593883
0.4459457
0.4459523
0.44595858
0.4459646
0.44597036
0.4459758
0.44598097
0.44598585
0.44599044
0.44599473
0.44599876
0.4460025
0.44600594
0.44600913
0.446012
0.44601458
0.4460169
0.44601893
0.44602066
0.44602212
0.4460233
0.44602418
0.44602478
0.44602507
0.4460251
0.44602484
0.4460243
0.44602346
0.44602236
0.44602096
0.44601926
0.4460173
0.44601503
0.4460125
0.44600967
0.44600657
0.44600317
0.44599947
0.4459955
0.44599125
0.44598672
0.4459819
0.44597676
0.44597137
0.4459657
0.44595972
0.4459535
0.44594693
0.4459401
0.445933
0.44592562
0.44591793
0.44590998
0.44590172
0.4458932
0.44588438
0.44587526
0.44586587
0.44585618
0.44584623
0.44583598
0.44582546
0.44581464
0.44580352
0.44579214
0.44578046
0.4457685
0.44575626
0.4457437
0.4457309
0.4457178
0.4457044
0.44569075
0.44567677
0.44566253
0.445648
0.4456332
0.4456181
0.44560272
0.44558704
0.4455711
0.44555485
0.4455383
0.4455215
0.4455044
0.44548702
0.44546935
0.4454514
0.44543317
0.44541463
0.44539583
0.44537672
0.44535735
0.44533768
0.44531775
0.4452975
0.44527698
0.44525617
0.44523507
0.4452137
0.44519204
0.44517007
0.44514784
0.44512534
0.4451025
0.44507945
0.44505605
0.4450324
0.44500846
0.44498423
0.4449597
0.4449349
0.4449098
0.44488442
0.44485876
0.44483283
0.4448066
0.44478008
0.4447533
0.4447262
0.4446988
0.44467115
0.44464323
0.444615
0.4445865
0.44455767
0.4445286
0.44449922
0.44446957
0.44443962
0.4444094
0.44437888
0.4443481
0.444317
0.44428566
0.444254
0.44422206
0.44418985
0.44415733
0.44412452
0.44409144
0.4440581
0.44402444
0.4439905
0.4439563
0.44392177
0.44388697
0.4438519
0.44381654
0.4437809
0.44374496
0.44370875
0.44367224
0.44363543
0.44359836
0.44356102
0.44352335
0.44348544
0.4434472
0.4434087
0.44336993
0.44333085
0.4432915
0.44325185
0.4432119
0.4431717
0.4431312
0.4430904
0.44304934
0.443008
0.44296634
0.4429244
0.4428822
0.4428397
0.44279692
0.44275385
0.44271052
0.44266686
0.44262293
0.44257873
0.44253424
0.44248945
0.44244438
0.44239902
0.4423534
0.44230747
0.44226128
0.4422148
0.442168
0.44212094
0.44207358
0.44202596
0.44197804
0.44192982
0.44188133
0.44183254
0.4417835
0.44173414
0.4416845
0.4416346
0.44158438
0.4415339
0.44148314
0.44143206
0.4413807
0.4413291
0.44127718
0.44122496
0.44117248
0.44111973
0.44106665
0.4410133
0.4409597
0.44090578
0.44085157
0.4407971
0.4407423
0.44068727
0.44063193
0.4405763
0.44052038
0.4404642
0.4404077
0.44035095
0.44029388
0.44023654
0.44017893
0.44012102
0.44006282
0.44000435
0.43994558
0.4398865
0.43982717
0.43976757
0.43970767
0.43964747
0.439587
0.43952623
0.43946517
0.43940383
0.43934223
0.43928033
0.43921813
0.43915564
0.4390929
0.43902984
0.4389665
0.43890288
0.438839
0.4387748
0.43871033
0.43864557
0.4385805
0.4385152
0.4384496
0.43838367
0.4383175
0.43825102
0.43818426
0.43811724
0.4380499
0.4379823
0.4379144
0.4378462
0.43777773
0.43770897
0.43763995
0.43757063
0.437501
0.4374311
0.43736094
0.43729046
0.4372197
0.43714866
0.43707734
0.43700573
0.43693385
0.43686166
0.4367892
0.43671647
0.43664342
0.4365701
0.4364965
0.4364226
0.4363484
0.43627396
0.43619922
0.43612418
0.43604887
0.43597326
0.43589738
0.4358212
0.43574473
0.435668
0.43559095
0.43551365
0.43543604
0.43535817
0.43527997
0.43520153
0.4351228
0.43504375
0.43496445
0.43488485
0.43480495
0.43472478
0.4346443
0.43456358
0.43448254
0.43440124
0.43431965
0.43423778
0.4341556
0.43407315
0.43399042
0.4339074
0.43382406
0.43374047
0.4336566
0.43357244
0.43348798
0.43340325
0.43331823
0.4332329
0.4331473
0.43306145
0.4329753
0.43288884
0.43280208
0.4327151
0.43262777
0.43254018
0.4324523
0.43236414
0.43227568
0.43218696
0.43209794
0.43200865
0.43191907
0.43182918
0.43173903
0.43164858
0.43155783
0.43146682
0.43137553
0.43128395
0.43119207
0.43109992
0.43100747
0.43091476
0.43082175
0.43072844
0.43063486
0.43054098
0.43044683
0.4303524
0.43025765
0.43016264
0.43006736
0.42997178
0.4298759
0.42977974
0.42968333
0.4295866
0.42948958
0.42939228
0.4292947
0.42919683
0.4290987
0.42900026
0.42890152
0.42880252
0.42870325
0.42860365
0.4285038
0.42840365
0.4283032
0.4282025
0.42810148
0.4280002
0.42789862
0.42779678
0.42769462
0.4275922
0.4274895
0.42738646
0.4272832
0.4271796
0.42707574
0.4269716
0.4268672
0.42676246
0.42665747
0.42655218
0.42644662
0.42634076
0.4262346
0.42612818
0.4260215
0.42591447
0.4258072
0.42569962
0.42559177
0.42548364
0.42537522
0.4252665
0.42515752
0.42504823
0.42493865
0.4248288
0.42471868
0.42460826
0.42449754
0.42438656
0.42427528
0.4241637
0.42405185
0.4239397
0.4238273
0.4237146
0.4236016
0.42348832
0.42337477
0.42326093
0.42314678
0.42303237
0.42291766
0.4228027
0.4226874
0.42257184
0.422456
0.42233986
0.42222345
0.42210674
0.42198977
0.4218725
0.42175493
0.4216371
0.42151895
0.42140055
0.42128184
0.42116287
0.4210436
0.42092404
0.4208042
0.42068407
0.42056367
0.42044297
0.420322
0.4202007
0.42007917
0.41995734
0.4198352
0.41971278
0.4195901
0.41946712
0.41934386
0.4192203
0.41909647
0.41897234
0.41884795
0.41872326
0.41859826
0.418473
0.41834745
0.41822162
0.4180955
0.4179691
0.41784242
0.41771543
0.41758817
0.41746062
0.4173328
0.41720468
0.4170763
0.4169476
0.41681862
0.41668937
0.41655982
0.41643
0.41629988
0.41616946
0.41603878
0.4159078
0.41577655
0.415645
0.4155132
0.41538107
0.4152487
0.41511598
0.41498303
0.41484976
0.41471624
0.4145824
0.4144483
0.4143139
0.41417924
0.41404426
0.413909
0.41377348
0.41363764
0.41350153
0.41336516
0.41322845
0.4130915
0.41295424
0.4128167
0.4126789
0.4125408
0.4124024
0.41226417
0.41212663
0.41198975
0.41185358
0.41171813
0.41158333
0.41144922
0.41131583
0.4111831
0.41105106
0.41091973
0.41078907
0.4106591
0.41052982
0.41040123
0.41027334
0.41014612
0.4100196
0.40989375
0.4097686
0.40964416
0.4095204
0.40939733
0.40927494
0.40915322
0.40903223
0.4089119
0.4087923
0.40867335
0.4085551
0.40843752
0.40832064
0.40820444
0.40808895
0.40797415
0.40786
0.40774658
0.40763384
0.40752178
0.4074104
0.40729976
0.40718976
0.40708047
0.40697187
0.40686393
0.4067567
0.40665016
0.4065443
0.40643916
0.40633467
0.4062309
0.40612778
0.40602538
0.40592366
0.40582263
0.4057223
0.40562263
0.40552366
0.4054254
0.4053278
0.4052309
0.4051347
0.4050392
0.40494436
0.4048502
0.40475675
0.404664
0.40457192
0.40448055
0.40438986
0.40429983
0.4042105
0.4041219
0.40403396
0.4039467
0.40386012
0.40377426
0.4036891
0.4036046
0.40352076
0.40343764
0.40335524
0.4032735
0.40319243
0.40311208
0.4030324
0.40295342
0.40287513
0.40279752
0.4027206
0.40264437
0.40256885
0.40249398
0.4024198
0.40234634
0.40227357
0.40220147
0.40213007
0.40205935
0.4019893
0.40192
0.40185133
0.40178338
0.40171608
0.4016495
0.4015836
0.4015184
0.4014539
0.40139008
0.40132692
0.4012645
0.40120274
0.40114164
0.40108126
0.40102157
0.40096256
0.40090427
0.40084663
0.40078968
0.40073344
0.4006779
0.40062302
0.40056884
0.40051535
0.40046254
0.4004104
0.400359
0.40030825
0.4002582
0.40020886
0.40016016
0.40011218
0.40006492
0.4000183
0.39997238
0.39992717
0.3998826
0.39983878
0.39979562
0.39975315
0.39971137
0.39967027
0.39962986
0.39959016
0.39955112
0.3995128
0.39947516
0.3994382
0.39940193
0.39936635
0.39933145
0.39929724
0.39926374
0.3992309
0.39919877
0.39916733
0.39913657
0.3991065
0.39907712
0.39904842
0.39902043
0.3989931
0.3989665
0.39894056
0.39891532
0.39889076
0.3988669
0.3988437
0.3988212
0.39879942
0.3987783
0.39875787
0.39873815
0.3987191
0.39870074
0.39868307
0.39866608
0.3986498
0.3986342
0.3986193
0.39860508
0.39859155
0.3985787
0.39856654
0.39855507
0.39854428
0.3985342
0.3985248
0.3985161
0.39850807
0.39850074
0.3984941
0.39848813
0.39848286
0.3984783
0.3984744
0.3984712
0.3984687
0.39846686
0.39846572
0.3984653
0.39846554
0.39846647
0.3984681
0.3984704
0.3984734
0.3984771
0.3984815
0.39848655
0.3984923
0.39849874
0.39850587
0.3985137
0.39852223
0.3985314
0.3985413
0.39855188
0.39856315
0.3985751
0.39858776
0.39860108
0.39861512
0.39862984
0.39864522
0.39866132
0.3986781
0.39869556
0.39871374
0.39873257
0.39875212
0.39877233
0.39879325
0.39881486
0.39883715
0.39886013
0.3988838
0.39890814
0.3989332
0.39895892
0.39898536
0.39901248
0.39904028
0.39906877
0.39909795
0.3991278
0.3991584
0.39918962
0.39922157
0.3992542
0.3992875
0.3993215
0.3993562
0.3993916
0.39942765
0.3994644
0.39950186
0.39954
0.3995788
0.39961833
0.39965853
0.39969945
0.39974102
0.39978328
0.39982626
0.3998699
0.39991423
0.39995927
0.40000498
0.4000514
0.40009847
0.40014625
0.40019473
0.40024388
0.40029374
0.40034428
0.4003955
0.40044743
0.40050003
0.40055332
0.40060732
0.40066198
0.40071735
0.40077338
0.40083012
0.40088755
0.40094566
0.40100446
0.40106398
0.40112415
0.40118504
0.40124658
0.40130883
0.40137178
0.4014354
0.40149972
0.40156472
0.40163043
0.4016968
0.4017639
0.40183166
0.40190008
0.40196922
0.40203905
0.4021096
0.4021808
0.40225267
0.40232527
0.40239856
0.4024725
0.40254715
0.4026225
0.40269852
0.40277526
0.40285265
0.40293074
0.40300953
0.40308902
0.40316918
0.40325004
0.40333158
0.4034138
0.4034967
0.40358034
0.40366462
0.40374961
0.40383527
0.40392163
0.4040087
0.40409642
0.40418488
0.404274
0.4043638
0.4044543
0.4045455
0.40463737
0.40472993
0.40482318
0.40491712
0.40501174
0.40510708
0.40520307
0.40529978
0.40539715
0.40549523
0.405594
0.40569344
0.4057936
0.40589443
0.40599597
0.40609816
0.40620106
0.40630466
0.40640894
0.4065139
0.40661955
0.40672588
0.4068329
0.40694064
0.40704906
0.40715814
0.40726793
0.4073784
0.40748957
0.40760145
0.40771398
0.4078272
0.40794113
0.40805575
0.40817103
0.40828702
0.4084037
0.4085211
0.40863913
0.40875787
0.4088773
0.40899742
0.40911824
0.40923974
0.40936193
0.4094848
0.40960836
0.40973264
0.40985757
0.40998322
0.41010952
0.41023654
0.41036424
0.41049263
0.4106217
0.4107515
0.41088194
0.4110131
0.4111449
0.41127744
0.41141066
0.41154456
0.41167915
0.41181442
0.41195038
0.41208705
0.41222438
0.41236243
0.41250116
0.41264057
0.41278026
0.41291964
0.41305876
0.41319758
0.4133361
0.41347435
0.4136123
0.41375
0.41388735
0.41402444
0.41416124
0.41429776
0.414434
0.4145699
0.41470557
0.41484094
0.414976
0.41511077
0.41524526
0.41537946
0.4155134
0.415647
0.41578034
0.4159134
0.41604614
0.4161786
0.41631082
0.4164427
0.4165743
0.41670564
0.41683665
0.4169674
0.41709784
0.417228
0.4173579
0.41748747
0.41761675
0.41774577
0.4178745
0.41800293
0.41813105
0.4182589
0.4183865
0.41851375
0.41864073
0.41876745
0.41889384
0.41901997
0.41914582
0.41927135
0.4193966
0.41952157
0.41964626
0.41977066
0.41989475
0.42001855
0.42014208
0.42026532
0.42038828
0.42051092
0.4206333
0.4207554
0.42087716
0.42099866
0.4211199
0.4212408
0.42136145
0.42148182
0.42160186
0.42172164
0.4218411
0.42196032
0.42207924
0.42219785
0.42231616
0.4224342
0.42255196
0.42266944
0.4227866
0.42290348
0.4230201
0.42313638
0.4232524
0.42336816
0.42348358
0.42359874
0.42371362
0.42382818
0.42394248
0.42405647
0.4241702
0.42428362
0.42439675
0.42450958
0.42462215
0.4247344
0.42484638
0.42495808
0.42506948
0.4251806
0.42529142
0.42540196
0.42551222
0.42562217
0.42573184
0.4258412
0.42595032
0.42605913
0.42616764
0.42627585
0.4263838
0.42649144
0.42659882
0.4267059
0.42681268
0.42691916
0.42702538
0.4271313
0.4272369
0.42734227
0.42744732
0.42755207
0.42765656
0.42776075
0.42786464
0.42796826
0.42807156
0.42817461
0.42827734
0.4283798
0.42848197
0.42858386
0.42868543
0.42878672
0.42888775
0.4289885
0.42908892
0.42918906
0.42928892
0.4293885
0.42948776
0.42958674
0.42968544
0.42978388
0.429882
0.42997983
0.43007737
0.43017465
0.43027163
0.4303683
0.43046468
0.4305608
0.4306566
0.43075213
0.43084738
0.43094233
0.43103698
0.43113136
0.43122545
0.43131924
0.43141276
0.43150598
0.4315989
0.43169156
0.4317839
0.43187597
0.43196774
0.43205923
0.43215042
0.43224135
0.43233195
0.43242228
0.43251234
0.43260208
0.43269157
0.43278074
0.43286964
0.43295822
0.43304655
0.43313456
0.4332223
0.43330973
0.4333969
0.43348378
0.43357036
0.43365666
0.43374264
0.43382835
0.4339138
0.43399894
0.4340838
0.43416834
0.43425262
0.4343366
0.4344203
0.4345037
0.43458682
0.43466964
0.4347522
0.43483445
0.4349164
0.43499807
0.43507946
0.43516055
0.43524137
0.4353219
0.43540213
0.43548205
0.43556172
0.43564108
0.43572015
0.43579894
0.43587744
0.43595564
0.43603358
0.4361112
0.43618855
0.43626562
0.4363424
0.43641886
0.43649507
0.43657094
0.43664658
0.4367219
0.43679693
0.43687168
0.43694612
0.4370203
0.43709418
0.4371678
0.43724108
0.4373141
0.43738684
0.43745926
0.4375314
0.43760327
0.43767485
0.43774614
0.43781713
0.43788785
0.43795824
0.4380284
0.43809822
0.43816778
0.43823704
0.438306
0.4383747
0.4384431
0.43851122
0.43857902
0.43864655
0.43871382
0.43878075
0.43884742
0.4389138
0.4389799
0.4390457
0.4391112
0.43917644
0.43924138
0.43930602
0.43937036
0.43943444
0.43949822
0.4395617
0.4396249
0.43968782
0.43975046
0.43981278
0.43987483
0.4399366
0.43999806
0.44005924
0.44012013
0.44018075
0.44024107
0.4403011
0.44036084
0.44042027
0.44047946
0.44053832
0.4405969
0.4406552
0.4407132
0.44077092
0.44082835
0.44088548
0.44094235
0.4409989
0.44105518
0.44111118
0.44116688
0.44122228
0.4412774
0.44133225
0.4413868
0.44144103
0.441495
0.44154868
0.44160208
0.4416552
0.441708
0.4417605
0.44181275
0.4418647
0.44191635
0.44196773
0.4420188
0.4420696
0.4421201
0.44217032
0.44222024
0.4422699
0.4423192
0.4423683
0.44241706
0.44246554
0.44251373
0.44256166
0.44260925
0.44265658
0.44270363
0.4427504
0.44279686
0.44284302
0.44288892
0.4429345
0.4429798
0.4430248
0.44306955
0.443114
0.44315815
0.44320202
0.4432456
0.4432889
0.4433319
0.4433746
0.443417
0.44345915
0.443501
0.44354254
0.44358382
0.4436248
0.44366547
0.4437059
0.443746
0.44378582
0.44382536
0.4438646
0.44390357
0.44394225
0.44398063
0.44401872
0.4440565
0.44409403
0.44413126
0.4441682
0.44420484
0.44424123
0.4442773
0.44431308
0.44434857
0.44438377
0.4444187
0.44445333
0.44448766
0.4445217
0.44455546
0.44458896
0.44462213
0.44465503
0.44468763
0.44471997
0.444752
0.44478375
0.4448152
0.44484636
0.44487724
0.4449078
0.44493812
0.44496813
0.44499785
0.4450273
0.44505644
0.4450853
0.44511387
0.44514215
0.44517013
0.44519785
0.44522524
0.4452524
0.4452792
0.44530576
0.44533202
0.44535798
0.44538367
0.44540906
0.44543418
0.44545898
0.4454835
0.44550776
0.4455317
0.44555536
0.44557875
0.44560194
0.44562516
0.44564837
0.44567162
0.44569486
0.4457181
0.4457414
0.44576466
0.44578794
0.44581124
0.44583455
0.44585785
0.4458812
0.44590452
0.4459279
0.44595122
0.4459746
0.44599798
0.44602138
0.44604477
0.4460682
0.4460916
0.44611505
0.44613847
0.44616193
0.4461854
0.44620886
0.44623235
0.44625586
0.44627935
0.44630286
0.4463264
0.44634992
0.4463735
0.44639704
0.4464206
0.44644418
0.44646776
0.44649136
0.446515
0.4465386
0.44656223
0.44658586
0.44660953
0.4466332
0.44665685
0.44668055
0.44670424
0.44672793
0.44675165
0.44677538
0.4467991
0.44682285
0.4468466
0.4468704
0.44689414
0.44691795
0.44694173
0.44696555
0.44698936
0.4470132
0.44703704
0.44706088
0.44708472
0.4471086
0.4471325
0.44715637
0.44718027
0.4472042
0.4472281
0.44725204
0.447276
0.44729996
0.44732392
0.44734788
0.44737187
0.44739586
0.44741988
0.4474439
0.44746792
0.44749194
0.447516
0.44754007
0.44756413
0.4475882
0.4476123
0.4476364
0.4476605
0.44768462
0.44770876
0.4477329
0.44775707
0.4477812
0.44780537
0.44782957
0.44785377
0.44787797
0.44790217
0.4479264
0.44795066
0.4479749
0.44799915
0.4480234
0.4480477
0.448072
0.44809628
0.4481206
0.4481449
0.44816923
0.44819358
0.44821793
0.44824228
0.44826666
0.44829103
0.44831544
0.44833985
0.44836426
0.44838867
0.4484131
0.44843754
0.448462
0.44848648
0.44851094
0.44853544
0.44855994
0.44858444
0.44860896
0.4486335
0.44865802
0.44868258
0.44870713
0.4487317
0.44875628
0.44878086
0.44880548
0.44883007
0.4488547
0.44887933
0.44890398
0.44892862
0.4489533
0.44897798
0.44900265
0.44902736
0.44905207
0.44907677
0.4491015
0.44912624
0.44915098
0.44917575
0.4492005
0.44922528
0.44925007
0.44927487
0.4492997
0.4493245
0.44934934
0.44937417
0.44939902
0.44942388
0.44944876
0.44947365
0.44949853
0.44952345
0.44954836
0.44957328
0.44959822
0.44962317
0.4496481
0.4496731
0.44969806
0.44972304
0.44974804
0.44977304
0.44979808
0.4498231
0.44984815
0.44987318
0.44989824
0.4499233
0.4499484
0.4499735
0.4499986
0.4500237
0.45004883
0.45007396
0.4500991
0.45012426
0.45014942
0.4501746
0.45019978
0.45022497
0.45025018
0.4502754
0.45030063
0.45032588
0.45035112
0.45037636
0.45040163
0.45042694
0.4504522
0.4504775
0.4505028
0.45052814
0.45055348
0.4505788
0.45060417
0.45062953
0.4506549
0.4506803
0.45070568
0.4507311
0.4507565
0.45078194
0.45080736
0.4508328
0.45085827
0.45088375
0.45090923
0.4509347
0.4509602
0.4509857
0.45101124
0.45103675
0.4510623
0.45108786
0.4511134
0.45113897
0.45116457
0.45119014
0.45121577
0.45124137
0.451267
0.45129263
0.45131826
0.45134392
0.45136958
0.45139527
0.45142096
0.45144665
0.45147237
0.4514981
0.4515238
0.45154956
0.4515753
0.45160106
0.45162684
0.45165262
0.4516784
0.4517042
0.45173
0.45175582
0.45178166
0.4518075
0.45183337
0.45185924
0.4518851
0.45191097
0.45193687
0.4519628
0.4519887
0.45201463
0.45204055
0.4520665
0.45209247
0.45211843
0.4521444
0.4521704
0.45219642
0.4522224
0.45224842
0.45227447
0.45230052
0.45232657
0.4523526
0.4523787
0.45240477
0.45243087
0.45245698
0.4524831
0.45250922
0.45253536
0.4525615
0.45258766
0.45261383
0.45264
0.4526662
0.4526924
0.4527186
0.4527448
0.45277104
0.45279726
0.45282352
0.45284978
0.45287606
0.45290235
0.45292863
0.45295495
0.45298123
0.45300758
0.4530339
0.45306024
0.4530866
0.45311296
0.45313933
0.45316574
0.4531921
0.45321852
0.45324495
0.45327136
0.45329782
0.45332426
0.45335072
0.4533772
0.45340368
0.45343015
0.45345667
0.45348316
0.4535097
0.4535362
0.45356277
0.45358932
0.45361587
0.45364246
0.45366904
0.45369563
0.45372224
0.45374885
0.45377547
0.4538021
0.45382875
0.45385543
0.4538821
0.45390877
0.45393544
0.45396215
0.45398885
0.45401558
0.45404232
0.45406905
0.4540958
0.45412257
0.45414934
0.45417613
0.45420292
0.4542297
0.45425653
0.45428336
0.45431018
0.45433703
0.45436388
0.45439076
0.45441762
0.45444453
0.4544714
0.45449832
0.45452523
0.45455217
0.45457911
0.45460606
0.45463303
0.45466
0.45468697
0.45471397
0.45474097
0.45476797
0.454795
0.45482203
0.45484906
0.45487612
0.4549032
0.45493025
0.45495734
0.45498443
0.45501155
0.45503867
0.4550658
0.45509294
0.4551201
0.45514724
0.4551744
0.45520157
0.45522878
0.45525596
0.45528316
0.4553104
0.45533764
0.45536488
0.45539212
0.4554194
0.45544666
0.45547393
0.45550123
0.45552853
0.45555586
0.45558318
0.4556105
0.45563787
0.45566523
0.4556926
0.45571998
0.45574734
0.45577475
0.45580214
0.4558294
0.4558563
0.45588276
0.45590883
0.4559345
0.45595977
0.45598462
0.4560091
0.45603317
0.45605683
0.4560801
0.45610297
0.45612544
0.4561475
0.45616916
0.45619044
0.4562113
0.45623174
0.45625183
0.45627147
0.45629075
0.45630962
0.45632806
0.45634612
0.4563638
0.45638105
0.45639792
0.45641437
0.45643044
0.4564461
0.45646137
0.4564762
0.45649067
0.45650473
0.45651838
0.45653164
0.45654452
0.45655698
0.45656902
0.45658067
0.45659193
0.45660278
0.45661324
0.45662332
0.45663297
0.4566422
0.45665106
0.45665953
0.45666757
0.45667523
0.45668247
0.45668933
0.4566958
0.45670184
0.4567075
0.45671275
0.45671758
0.45672205
0.4567261
0.45672974
0.456733
0.45673585
0.4567383
0.45674035
0.456742
0.45674324
0.45674407
0.45674452
0.45674458
0.45674422
0.45674348
0.45674232
0.45674077
0.4567388
0.45673645
0.4567337
0.45673054
0.456727
0.45672303
0.45671868
0.4567139
0.45670876
0.45670322
0.45669726
0.4566909
0.45668414
0.456677
0.45666942
0.45666146
0.4566531
0.45664433
0.45663518
0.4566256
0.45661566
0.4566053
0.45659453
0.45658338
0.45657182
0.45655984
0.45654747
0.4565347
0.45652154
0.45650798
0.45649403
0.45647967
0.4564649
0.45644972
0.45643416
0.4564182
0.45640182
0.45638508
0.4563679
0.45635033
0.45633236
0.456314
0.45629522
0.45627606
0.45625648
0.4562365
0.45621616
0.45619538
0.45617422
0.45615265
0.45613068
0.4561083
0.45608553
0.45606235
0.45603877
0.4560148
0.45599043
0.45596567
0.45594049
0.4559149
0.45588896
0.45586258
0.4558358
0.4558086
0.45578104
0.45575306
0.4557247
0.45569593
0.45566675
0.45563716
0.45560718
0.4555768
0.45554602
0.45551485
0.45548326
0.45545128
0.4554189
0.45538613
0.45535296
0.45531937
0.4552854
0.455251
0.45521623
0.45518103
0.45514545
0.45510948
0.4550731
0.4550363
0.45499912
0.45496154
0.45492357
0.45488518
0.45484638
0.45480722
0.4547676
0.45472765
0.45468724
0.45464647
0.45460528
0.45456368
0.45452172
0.4544793
0.45443654
0.45439333
0.45434976
0.45430577
0.45426136
0.45421657
0.4541714
0.4541258
0.4540798
0.4540334
0.45398661
0.45393944
0.45389184
0.45384386
0.45379546
0.45374668
0.45369747
0.45364788
0.45359787
0.45354748
0.4534967
0.4534455
0.4533939
0.4533419
0.4532895
0.45323673
0.45318353
0.45312992
0.45307592
0.45302153
0.45296672
0.45291153
0.45285594
0.45279995
0.45274353
0.45268673
0.45262954
0.45257193
0.45251393
0.45245552
0.45239672
0.45233753
0.45227793
0.45221794
0.45215753
0.45209673
0.45203552
0.45197392
0.4519119
0.45184952
0.4517867
0.4517235
0.4516599
0.45159587
0.45153147
0.45146668
0.45140147
0.45133585
0.45126987
0.45120344
0.45113665
0.4510694
0.45100182
0.4509338
0.4508654
0.4507966
0.45072737
0.45065778
0.45058775
0.45051736
0.45044655
0.45037532
0.4503037
0.4502317
0.45015928
0.45008647
0.45001328
0.44993964
0.44986564
0.44979122
0.44971642
0.4496412
0.4495656
0.44948956
0.44941315
0.44933632
0.4492591
0.4491815
0.44910347
0.44902506
0.44894624
0.44886702
0.44878742
0.4487074
0.44862697
0.44854614
0.44846493
0.4483833
0.4483013
0.44821888
0.44813606
0.44805282
0.4479692
0.4478852
0.44780076
0.44771594
0.4476307
0.44754508
0.44745907
0.44737265
0.44728583
0.4471986
0.44711098
0.44702294
0.44693452
0.4468457
0.44675648
0.44666684
0.4465768
0.44648638
0.44639555
0.44630432
0.4462127
0.44612068
0.44602823
0.44593543
0.44584218
0.44574857
0.44565454
0.4455601
0.44546527
0.44537005
0.4452744
0.44517836
0.44508195
0.4449851
0.44488788
0.44479024
0.4446922
0.44459376
0.44449493
0.4443957
0.44429606
0.44419605
0.4440956
0.44399476
0.44389352
0.4437919
0.44368985
0.44358742
0.44348457
0.44338134
0.4432777
0.44317368
0.44306922
0.44296438
0.44285914
0.4427535
0.44264746
0.44254103
0.4424342
0.44232693
0.4422193
0.44211125
0.4420028
0.44189397
0.44178474
0.4416751
0.44156504
0.4414546
0.44134375
0.4412325
0.44112086
0.44100884
0.44089636
0.44078353
0.44067028
0.44055665
0.4404426
0.44032815
0.4402133
0.44009805
0.4399824
0.43986636
0.4397499
0.43963304
0.4395158
0.43939817
0.4392801
0.43916166
0.4390428
0.43892357
0.4388039
0.43868384
0.4385634
0.43844256
0.4383213
0.43819964
0.4380776
0.43795514
0.43783227
0.43770903
0.43758538
0.43746132
0.43733686
0.437212
0.43708676
0.43696108
0.43683502
0.43670857
0.43658173
0.43645447
0.4363268
0.43619874
0.4360703
0.43594143
0.43581218
0.4356825
0.43555245
0.43542197
0.43529114
0.43515986
0.4350282
0.43489614
0.43476367
0.4346308
0.43449757
0.4343639
0.43422982
0.4340958
0.43396258
0.4338302
0.43369865
0.43356794
0.43343803
0.433309
0.43318078
0.4330534
0.43292686
0.43280116
0.43267626
0.43255222
0.43242902
0.43230665
0.43218508
0.43206438
0.43194452
0.43182546
0.43170726
0.4315899
0.43147334
0.43135765
0.4312428
0.43112874
0.43101555
0.43090317
0.43079165
0.43068093
0.43057108
0.43046203
0.43035385
0.43024647
0.43013996
0.43003425
0.4299294
0.42982537
0.4297222
0.42961982
0.42951828
0.4294176
0.42931774
0.4292187
0.42912054
0.42902318
0.42892665
0.42883095
0.42873612
0.4286421
0.4285489
0.42845654
0.42836505
0.42827436
0.4281845
0.4280955
0.4280073
0.42791995
0.42783344
0.42774776
0.4276629
0.42757893
0.42749575
0.4274134
0.4273319
0.42725122
0.42717138
0.42709234
0.42701417
0.42693684
0.42686033
0.42678466
0.42670983
0.42663583
0.42656267
0.42649034
0.4264188
0.42634815
0.42627832
0.42620933
0.42614117
0.42607382
0.42600733
0.42594168
0.42587683
0.42581284
0.4257497
0.42568734
0.42562586
0.4255652
0.42550537
0.4254464
0.42538825
0.4253309
0.42527443
0.42521876
0.42516395
0.42510995
0.42505682
0.42500448
0.424953
0.42490235
0.42485255
0.42480356
0.4247554
0.4247081
0.4246616
0.42461595
0.42457116
0.42452717
0.424484
0.42444173
0.42440024
0.4243596
0.42431977
0.42428082
0.42424268
0.42420536
0.42416888
0.42413324
0.42409846
0.4240645
0.42403135
0.42399904
0.42396757
0.42393693
0.42390713
0.42387816
0.42385003
0.42382273
0.42379627
0.42377064
0.42374584
0.42372188
0.42369875
0.42367646
0.423655
0.42363438
0.4236146
0.42359564
0.42357752
0.4235602
0.42354375
0.42352813
0.42351335
0.4234994
0.42348626
0.42347398
0.42346254
0.42345193
0.42344213
0.42343318
0.42342508
0.42341778
0.42341134
0.42340574
0.42340094
0.423397
0.42339388
0.4233916
0.42339018
0.42338955
0.4233898
0.42339084
0.42339274
0.42339545
0.42339903
0.4234034
0.42340863
0.4234147
0.4234216
0.42342934
0.4234379
0.42344728
0.42345753
0.4234686
0.42348048
0.42349324
0.4235068
0.4235212
0.42353642
0.4235525
0.4235694
0.42358714
0.4236057
0.4236251
0.42364538
0.42366645
0.42368835
0.4237111
0.42373466
0.42375907
0.42378432
0.4238104
0.4238373
0.42386505
0.42389363
0.42392305
0.4239533
0.42398438
0.4240163
0.42404905
0.42408264
0.42411706
0.4241523
0.4241884
0.42422533
0.42426306
0.42430165
0.42434108
0.42438135
0.42442244
0.42446434
0.4245071
0.4245507
0.42459515
0.4246404
0.4246865
0.42473343
0.42478117
0.42482978
0.42487922
0.42492947
0.42498058
0.4250325
0.42508528
0.4251389
0.4251933
0.4252486
0.42530468
0.42536163
0.4254194
0.425478
0.42553744
0.4255977
0.42565882
0.42572075
0.42578354
0.42584714
0.42591158
0.42597687
0.42604297
0.4261099
0.4261777
0.42624632
0.42631575
0.42638606
0.42645717
0.4265291
0.4266019
0.4266755
0.42674997
0.42682526
0.42690137
0.42697832
0.4270561
0.42713472
0.42721418
0.42729446
0.42737558
0.42745754
0.42754036
0.427624
0.42770845
0.42779374
0.42787984
0.4279668
0.4280546
0.42814323
0.4282327
0.428323
0.42841414
0.4285061
0.4285989
0.42869252
0.428787
0.4288823
0.42897844
0.42907542
0.4291732
0.42927185
0.42937133
0.42947164
0.42957276
0.42967474
0.42977756
0.4298812
0.42998567
0.430091
0.43019712
0.4303041
0.4304119
0.43052056
0.43063003
0.43074036
0.4308515
0.4309635
0.4310763
0.43118995
0.43130443
0.43141976
0.4315359
0.4316529
0.4317707
0.43188936
0.43200886
0.43212917
0.43225032
0.43237233
0.43249515
0.4326188
0.4327433
0.43286863
0.43299478
0.43312177
0.4332496
0.43337828
0.43350777
0.4336381
0.43376926
0.43390125
0.43403408
0.43416777
0.43430227
0.4344376
0.43457377
0.43471077
0.4348486
0.43498728
0.43512678
0.43526712
0.4354083
0.4355503
0.43569314
0.43583682
0.43598133
0.43612665
0.43627283
0.43641984
0.4365677
0.43671638
0.4368659
0.43701622
0.4371674
0.43731943
0.43747228
0.43762597
0.43778047
0.43793583
0.43809202
0.43824902
0.43840688
0.43856558
0.43872508
0.43888545
0.43904665
0.43920866
0.43937153
0.4395352
0.43969974
0.43986508
0.4400313
0.4401983
0.44036618
0.44053486
0.4407044
0.44087476
0.44104597
0.441218
0.44139084
0.44156456
0.44173908
0.44191447
0.44209066
0.4422677
0.44244555
0.44262427
0.4428038
0.44298416
0.4431654
0.44334742
0.4435303
0.443714
0.44389853
0.44408393
0.44427013
0.44445717
0.44464505
0.44483376
0.4450233
0.44521368
0.4454049
0.44559693
0.4457898
0.44598353
0.44617808
0.44637346
0.44656968
0.44676673
0.44696462
0.44716334
0.4473629
0.4475633
0.44776452
0.44796658
0.4481691
0.4483714
0.44857344
0.4487752
0.4489767
0.44917795
0.44937894
0.44957966
0.4497801
0.4499803
0.45018023
0.45037988
0.4505793
0.45077842
0.4509773
0.45117593
0.45137426
0.45157236
0.4517702
0.45196775
0.45216504
0.4523621
0.45255885
0.45275536
0.4529516
0.4531476
0.45334333
0.45353878
0.45373398
0.45392892
0.4541236
0.454318
0.45451215
0.454706
0.45489964
0.455093
0.4552861
0.45547894
0.4556715
0.4558638
0.45605585
0.45624763
0.45643914
0.45663038
0.45682138
0.45701212
0.45720258
0.45739278
0.4575827
0.4577724
0.4579618
0.45815095
0.45833984
0.45852846
0.45871684
0.45890492
0.45909277
0.45928034
0.45946765
0.4596547
0.4598415
0.46002802
0.46021426
0.46040025
0.460586
0.46077147
0.4609567
0.46114162
0.4613263
0.46151072
0.46169487
0.46187878
0.46206242
0.46224576
0.46242887
0.4626117
0.4627943
0.4629766
0.46315867
0.46334046
0.463522
0.46370324
0.46388426
0.464065
0.46424547
0.46442568
0.46460563
0.4647853
0.46496475
0.46514392
0.4653228
0.46550143
0.46567982
0.46585792
0.46603578
0.46621335
0.46639067
0.46656772
0.46674454
0.46692106
0.46709734
0.46727335
0.4674491
0.46762457
0.46779978
0.46797475
0.46814942
0.46832386
0.46849802
0.46867195
0.46884558
0.46901897
0.4691921
0.46936494
0.46953753
0.46970984
0.46988192
0.4700537
0.47022524
0.47039652
0.47056752
0.4707383
0.47090876
0.471079
0.47124895
0.47141865
0.4715881
0.47175726
0.47192618
0.47209483
0.47226322
0.47243133
0.47259918
0.4727668
0.47293413
0.47310117
0.473268
0.47343454
0.4736008
0.47376683
0.4739326
0.4740981
0.4742633
0.47442827
0.47459298
0.47475743
0.47492158
0.47508553
0.47524917
0.47541255
0.4755757
0.47573856
0.47590116
0.4760635
0.47622555
0.47638738
0.4765489
0.4767102
0.47687122
0.477032
0.4771925
0.47735274
0.4775127
0.4776724
0.47783184
0.47799104
0.47814995
0.47830862
0.47846702
0.47862515
0.478783
0.4789406
0.47909796
0.47925505
0.47941187
0.47956842
0.4797247
0.47988072
0.4800365
0.480192
0.48034725
0.48050222
0.48065692
0.4808114
0.48096558
0.4811195
0.48127317
0.48142657
0.4815797
0.48173258
0.4818852
0.48203754
0.48218963
0.48234144
0.482493
0.48264432
0.48279533
0.4829461
0.48309663
0.48324686
0.48339686
0.48354656
0.483696
0.48384523
0.48399416
0.4841428
0.48429123
0.48443937
0.48458725
0.48473486
0.48488224
0.4850293
0.48517615
0.4853227
0.485469
0.48561504
0.48576084
0.48590633
0.4860516
0.48619658
0.4863413
0.48648578
0.48662996
0.4867739
0.4869176
0.487061
0.48720413
0.48734704
0.48748964
0.487632
0.4877741
0.48791593
0.4880575
0.48819882
0.48833987
0.48848066
0.48862118
0.48876143
0.4889014
0.48904115
0.48918062
0.48931983
0.48945877
0.48959744
0.48973587
0.489874
0.4900119
0.49014953
0.4902869
0.490424
0.49056083
0.4906974
0.49083373
0.49096978
0.49110556
0.4912411
0.49137634
0.49151134
0.49164608
0.49178055
0.49191478
0.4920487
0.4921824
0.49231583
0.492449
0.49258187
0.49271452
0.49284688
0.492979
0.49311084
0.4932424
0.49337375
0.4935048
0.4936356
0.49376613
0.4938964
0.4940264
0.49415612
0.4942856
0.49441484
0.4945438
0.49467248
0.4948009
0.49492908
0.49505696
0.4951846
0.49531198
0.49543908
0.49556595
0.49569252
0.49581885
0.49594492
0.4960707
0.49619624
0.49632153
0.49644655
0.49657127
0.49669576
0.49682
0.49694395
0.49706763
0.49719107
0.49731424
0.49743715
0.4975598
0.49768218
0.49780428
0.49792615
0.49804774
0.49816906
0.49829015
0.49841094
0.4985315
0.49865177
0.4987718
0.49889153
0.49901104
0.49913025
0.49924922
0.49936792
0.49948636
0.49960452
0.49972245
0.49984008
0.49995747
0.5000746
0.50019145
0.50030804
0.5004244
0.5005405
0.5006563
0.5007718
0.5008871
0.50100213
0.5011169
0.5012314
0.50134563
0.5014596
0.5015733
0.50168675
0.50179994
0.50191283
0.5020255
0.5021379
0.50225
0.5023619
0.5024735
0.5025848
0.5026959
0.5028067
0.5029173
0.50302756
0.5031376
0.5032474
0.5033569
0.50346607
0.5035751
0.5036838
0.5037922
0.5039004
0.50400835
0.504116
0.5042234
0.5043305
0.5044374
0.504544
0.50465035
0.50475645
0.50486225
0.5049678
0.50507313
0.50517815
0.50528294
0.5053874
0.5054917
0.5055956
0.50569934
0.5058028
0.505906
0.5060089
0.5061116
0.506214
0.5063161
0.50641805
0.5065196
0.506621
0.5067221
0.5068229
0.5069235
0.50702375
0.5071238
0.5072236
0.5073231
0.5074223
0.50752133
0.50762004
0.5077185
0.50781673
0.50791466
0.5080123
0.50810975
0.50820684
0.50830376
0.5084004
0.50849676
0.5085929
0.5086888
0.5087845
0.50887996
0.5089752
0.5090703
0.50916505
0.50925964
0.509354
0.5094481
0.50954205
0.5096357
0.5097292
0.5098224
0.5099154
0.5100082
0.5101008
0.5101931
0.51028526
0.51037717
0.51046884
0.5105603
0.5106515
0.5107425
0.51083326
0.51092386
0.51101416
0.5111043
0.51119417
0.5112838
0.5113733
0.5114625
0.5115515
0.51164025
0.51172876
0.5118171
0.5119052
0.5119931
0.5120807
0.51216817
0.5122554
0.51234233
0.5124291
0.5125156
0.5126019
0.51268804
0.5127739
0.5128595
0.51294494
0.5130301
0.5131151
0.51319987
0.5132844
0.51336867
0.5134527
0.5135366
0.5136202
0.51370364
0.5137868
0.51386976
0.5139525
0.514035
0.5141173
0.5141993
0.51428115
0.5143628
0.5144442
0.51452535
0.5146063
0.514687
0.5147675
0.5148478
0.51492786
0.5150077
0.51508725
0.51516664
0.5152458
0.5153248
0.51540345
0.51548195
0.5155602
0.51563823
0.5157161
0.5157936
0.515871
0.5159482
0.51602507
0.5161018
0.51617825
0.5162545
0.51633054
0.51640636
0.51648194
0.5165573
0.5166324
0.5167073
0.516782
0.51685643
0.5169307
0.5170047
0.5170785
0.5171521
0.51722544
0.5172985
0.5173714
0.51744413
0.51751655
0.5175888
0.5176608
0.51773256
0.51780415
0.51787543
0.51794654
0.5180175
0.5180881
0.51815856
0.51822877
0.51829875
0.51836854
0.5184381
0.5185074
0.5185765
0.51864535
0.518714
0.51878244
0.5188506
0.51891863
0.5189864
0.51905394
0.5191212
0.5191883
0.51925516
0.5193218
0.51938826
0.5194544
0.5195204
0.51958615
0.51965165
0.519717
0.519782
0.51984686
0.5199115
0.5199759
0.5200401
0.52010405
0.52016777
0.5202313
0.52029455
0.5203576
0.5204205
0.5204831
0.5205455
0.52060765
0.5206696
0.52073133
0.52079284
0.5208541
0.52091515
0.52097595
0.52103657
0.52109694
0.5211571
0.52121705
0.5212768
0.52133626
0.5213955
0.5214545
0.52151334
0.52157193
0.5216303
0.52168846
0.5217464
0.5218041
0.52186155
0.5219188
0.5219758
0.5220326
0.5220892
0.52214557
0.5222017
0.5222576
0.5223133
0.5223688
0.522424
0.522479
0.52253383
0.5225884
0.52264273
0.52269685
0.52275074
0.52280444
0.52285784
0.5229111
0.5229641
0.52301687
0.52306944
0.5231218
0.52317387
0.5232258
0.5232774
0.52332884
0.5233801
0.52343106
0.52348185
0.5235324
0.5235827
0.5236328
0.52368265
0.5237323
0.5237818
0.52383095
0.52387995
0.5239287
0.5239772
0.52402556
0.5240736
0.52412146
0.52416915
0.52421653
0.52426374
0.5243107
0.52435744
0.524404
0.52445024
0.5244963
0.5245422
0.5245878
0.5246332
0.5246784
0.52472335
0.5247681
0.5248126
0.52485687
0.524901
0.5249448
0.5249884
0.5250318
0.52507496
0.52511793
0.5251606
0.5252031
0.5252454
0.52528745
0.5253293
0.5253709
0.52541226
0.52545345
0.52549434
0.52553505
0.5255756
0.5256158
0.52565587
0.5256957
0.52573526
0.52577466
0.52581376
0.5258527
0.5258914
0.52592987
0.52596813
0.52600616
0.52604395
0.52608156
0.5261189
0.526156
0.52619296
0.5262296
0.5262661
0.52630234
0.52633834
0.5263741
0.5264097
0.52644503
0.52648014
0.52651507
0.52654976
0.5265842
0.5266184
0.5266524
0.5266862
0.52671975
0.52675307
0.5267862
0.5268191
0.5268518
0.5268842
0.5269164
0.5269484
0.52698016
0.5270117
0.52704304
0.52707416
0.52710503
0.52713567
0.52716607
0.5271963
0.52722627
0.527256
0.5272856
0.52731484
0.5273439
0.52737284
0.52740145
0.5274299
0.5274581
0.527486
0.5275138
0.5275413
0.5275686
0.5275957
0.5276225
0.52764916
0.52767557
0.52770174
0.5277277
0.5277534
0.5277789
0.5278042
0.5278293
0.52785414
0.52787876
0.52790314
0.5279273
0.52795124
0.52797496
0.52799845
0.52802175
0.5280448
0.52806765
0.52809024
0.5281126
0.52813476
0.5281567
0.5281784
0.5281999
0.52822113
0.5282422
0.52826303
0.5282836
0.528304
0.5283241
0.52834404
0.52836376
0.5283832
0.52840245
0.5284215
0.5284403
0.5284589
0.52847725
0.5284954
0.52851325
0.52853096
0.5285484
0.52856565
0.5285827
0.5285995
0.5286161
0.5286324
0.5286485
0.5286644
0.5286801
0.5286955
0.5287108
0.52872574
0.5287405
0.5287551
0.52876943
0.52878356
0.52879745
0.5288111
0.5288245
0.52883774
0.52885073
0.5288635
0.52887607
0.5288884
0.5289005
0.52891237
0.528924
0.52893543
0.52894664
0.5289576
0.5289684
0.5289789
0.5289892
0.5289993
0.52900916
0.5290188
0.52902824
0.5290374
0.5290464
0.5290551
0.52906364
0.5290719
0.52908003
0.5290879
0.52909553
0.5291029
0.5291101
0.52911705
0.5291238
0.5291303
0.5291366
0.5291427
0.5291485
0.5291542
0.52915967
0.5291649
0.52917
0.5291748
0.52917945
0.5291839
0.52918816
0.5291922
0.5291961
0.5291997
0.5292032
0.5292064
0.52920943
0.5292123
0.5292149
0.52921736
0.5292196
0.52922165
0.5292235
0.5292251
0.52922654
0.52922773
0.5292288
0.5292296
0.52923024
0.52923065
0.52923083
0.5292309
0.5292307
0.5292303
0.5292297
0.5292289
0.5292279
0.5292267
0.52922535
0.52922374
0.52922195
0.5292199
0.5292177
0.52921534
0.5292127
0.5292099
0.5292069
0.52920365
0.52920026
0.5291966
0.5291928
0.5291888
0.5291846
0.52918017
0.5291755
0.5291707
0.5291657
0.52916044
0.529155
0.52914935
0.5291435
0.5291375
0.52913123
0.5291248
0.5291182
0.5291113
0.5291043
0.529097
0.52908957
0.52908194
0.5290741
0.529066
0.52905774
0.5290493
0.52904063
0.52903175
0.5290227
0.52901345
0.529004
0.5289943
0.5289844
0.52897435
0.5289641
0.5289536
0.52894294
0.52893203
0.52892095
0.5289097
0.5288982
0.5288865
0.52887464
0.52886254
0.52885026
0.52883774
0.52882504
0.52881217
0.52879906
0.52878577
0.52877223
0.5287585
0.52874464
0.5287305
0.5287162
0.52870166
0.528687
0.52867204
0.52865696
0.52864164
0.5286261
0.52861035
0.52859443
0.52857834
0.528562
0.52854544
0.52852875
0.5285118
0.52849466
0.5284773
0.5284598
0.528442
0.5284241
0.52840596
0.5283876
0.52836907
0.5283503
0.52833134
0.5283122
0.52829283
0.5282733
0.52825356
0.5282336
0.5282134
0.52819306
0.5281725
0.5281517
0.52813077
0.52810955
0.5280882
0.52806664
0.5280448
0.5280229
0.5280007
0.5279783
0.5279557
0.52793294
0.52790993
0.52788675
0.5278634
0.5278398
0.527816
0.527792
0.5277678
0.5277434
0.5277188
0.527694
0.52766895
0.52764374
0.52761835
0.5275927
0.5275669
0.5275409
0.5275147
0.5274883
0.52746165
0.5274348
0.5274078
0.5273806
0.52735317
0.5273256
0.52729774
0.52726966
0.52724147
0.52721304
0.52718437
0.5271555
0.5271265
0.5270972
0.5270678
0.52703816
0.5270083
0.52697825
0.52694803
0.5269176
0.5268869
0.52685606
0.526825
0.5267937
0.52676225
0.5267306
0.5266987
0.52666664
0.5266344
0.5266019
0.52656925
0.5265364
0.5265033
0.52647
0.52643657
0.5264029
0.526369
0.5263349
0.5263006
0.5262661
0.5262314
0.52619654
0.52616143
0.52612615
0.5260906
0.526055
0.52601904
0.525983
0.5259466
0.52591014
0.5258734
0.5258365
0.5257994
0.5257621
0.5257246
0.52568686
0.52564895
0.5256108
0.5255725
0.525534
0.52549523
0.5254563
0.5254172
0.52537787
0.52533835
0.5252986
0.52525866
0.5252185
0.5251782
0.5251376
0.5250969
0.52505594
0.5250148
0.52497345
0.5249319
0.5248901
0.52484816
0.524806
0.52476364
0.5247211
0.52467835
0.5246354
0.5245922
0.5245488
0.52450526
0.5244615
0.5244175
0.52437335
0.524329
0.5242844
0.52423966
0.52419466
0.5241495
0.52410406
0.5240585
0.5240127
0.5239667
0.52392054
0.52387416
0.52382755
0.52378076
0.52373374
0.5236865
0.52363914
0.5235915
0.5235437
0.52349573
0.5234475
0.5233991
0.5233505
0.52330166
0.52325267
0.52320343
0.523154
0.52310437
0.5230546
0.52300453
0.52295434
0.5229039
0.52285326
0.5228024
0.5227514
0.52270013
0.5226487
0.5225971
0.5225452
0.5224932
0.52244097
0.5223885
0.5223358
0.522283
0.52222997
0.5221767
0.5221232
0.5220696
0.52201575
0.5219617
0.5219074
0.5218529
0.52179825
0.5217434
0.52168834
0.521633
0.5215776
0.5215219
0.521466
0.5214099
0.52135366
0.5212972
0.52124053
0.5211836
0.5211265
0.5210692
0.52101177
0.5209541
0.52089614
0.5208381
0.5207798
0.52072126
0.52066255
0.52060366
0.5205445
0.5204852
0.52042574
0.520366
0.5203061
0.52024597
0.5201857
0.52012515
0.5200645
0.5200035
0.5199424
0.51988107
0.51981956
0.5197578
0.5196959
0.51963377
0.5195714
0.5195089
0.51944613
0.5193832
0.5193201
0.5192567
0.5191932
0.51912946
0.5190655
0.51900136
0.518937
0.51887244
0.51880765
0.51874274
0.51867753
0.5186122
0.51854664
0.5184809
0.5184149
0.51834875
0.51828235
0.5182158
0.518149
0.518082
0.51801485
0.5179475
0.5178799
0.51781213
0.5177441
0.51767594
0.51760757
0.51753896
0.5174702
0.5174012
0.517332
0.51726264
0.517193
0.5171232
0.5170532
0.51698303
0.5169126
0.516842
0.5167712
0.51670015
0.516629
0.5165576
0.5164859
0.5164141
0.5163421
0.51626986
0.51619744
0.51612484
0.516052
0.515979
0.51590574
0.5158323
0.5157587
0.51568484
0.5156108
0.51553655
0.5154621
0.5153875
0.5153126
0.51523757
0.51516235
0.51508707
0.5150123
0.51493806
0.5148643
0.51479113
0.5147185
0.51464635
0.5145747
0.5145036
0.514433
0.514363
0.5142935
0.51422447
0.51415604
0.5140881
0.5140207
0.5139538
0.5138874
0.51382154
0.5137563
0.5136915
0.5136272
0.51356345
0.5135002
0.51343757
0.5133754
0.5133137
0.5132526
0.513192
0.513132
0.51307243
0.5130134
0.5129549
0.51289696
0.5128395
0.5127826
0.5127262
0.51267034
0.512615
0.5125602
0.5125059
0.5124521
0.5123989
0.5123462
0.512294
0.5122423
0.5121912
0.5121406
0.5120905
0.5120409
0.5119919
0.5119434
0.5118954
0.5118479
0.511801
0.5117546
0.5117087
0.5116633
0.5116185
0.5115742
0.5115304
0.5114871
0.5114444
0.5114022
0.5113605
0.51131934
0.5112787
0.51123863
0.511199
0.51115996
0.51112145
0.5110834
0.51104593
0.511009
0.51097256
0.5109366
0.5109013
0.5108664
0.5108321
0.5107983
0.51076496
0.51073223
0.5107
0.5106683
0.5106371
0.5106064
0.5105763
0.5105467
0.5105176
0.51048905
0.51046103
0.5104335
0.51040655
0.5103801
0.51035416
0.51032877
0.51030385
0.51027954
0.5102557
0.5102324
0.5102096
0.5101873
0.51016563
0.5101444
0.5101237
0.5101036
0.510084
0.51006484
0.5100463
0.51002824
0.5100107
0.5099937
0.5099772
0.50996125
0.5099458
0.5099309
0.50991654
0.5099027
0.50988936
0.5098766
0.50986433
0.5098525
0.5098413
0.50983065
0.50982046
0.5098108
0.5098017
0.5097931
0.509785
0.5097774
0.50977045
0.50976396
0.50975794
0.5097525
0.50974756
0.50974315
0.5097393
0.50973594
0.50973314
0.5097308
0.5097291
0.50972784
0.5097271
0.5097269
0.50972724
0.5097281
0.50972944
0.50973135
0.5097338
0.5097367
0.50974023
0.5097442
0.50974876
0.5097538
0.50975937
0.5097655
0.5097721
0.5097793
0.50978696
0.5097952
0.5098039
0.50981313
0.5098229
0.5098332
0.50984406
0.50985545
0.5098673
0.5098797
0.50989264
0.5099061
0.50992006
0.5099346
0.5099496
0.5099652
0.5099813
0.50999784
0.510015
0.51003265
0.51005083
0.51006955
0.5100888
0.51010853
0.51012886
0.51014966
0.510171
0.5101928
0.5102152
0.5102381
0.51026154
0.5102855
0.51031
0.510335
0.51036054
0.5103866
0.51041317
0.5104403
0.51046795
0.5104961
0.5105248
0.510554
0.51058376
0.510614
0.5106448
0.5106761
0.5107079
0.5107403
0.5107732
0.5108066
0.51084054
0.510875
0.51091
0.5109455
0.51098156
0.5110181
0.5110552
0.51109284
0.5111309
0.5111696
0.51120883
0.5112485
0.51128876
0.51132953
0.51137084
0.5114126
0.511455
0.51149786
0.51154125
0.5115851
0.5116296
0.5116745
0.51172006
0.5117661
0.5118126
0.51185966
0.5119073
0.5119554
0.512004
0.5120532
0.5121029
0.5121531
0.5122039
0.51225513
0.5123069
0.5123592
0.5124121
0.5124654
0.51251936
0.5125738
0.5126287
0.51268417
0.51274014
0.5127967
0.51285374
0.5129113
0.5129694
0.513028
0.51308715
0.5131468
0.513207
0.51326776
0.51332897
0.5133908
0.51345307
0.5135159
0.51357925
0.5136431
0.5137075
0.5137724
0.5138379
0.51390386
0.5139703
0.5140374
0.5141049
0.514173
0.5142416
0.5143107
0.51438034
0.51445055
0.51452124
0.51459247
0.51466423
0.5147365
0.5148093
0.5148826
0.5149565
0.51503086
0.5151057
0.5151812
0.5152571
0.5153336
0.5154106
0.5154881
0.5155662
0.5156447
0.5157238
0.51580346
0.5158836
0.5159643
0.5160455
0.5161272
0.5162095
0.5162923
0.51637554
0.5164594
0.51654375
0.5166286
0.51671404
0.5168
0.5168864
0.5169734
0.5170609
0.5171489
0.5172375
0.51732653
0.5174162
0.5175063
0.51759696
0.51768816
0.5177798
0.5178721
0.51796484
0.5180581
0.51815194
0.51824623
0.5183411
0.5184365
0.5185324
0.51862884
0.51872575
0.51882327
0.51892126
0.5190198
0.51911885
0.51921844
0.5193186
0.5194192
0.51952034
0.519622
0.51972425
0.51982695
0.51993024
0.520034
0.5201383
0.52024317
0.52034855
0.5204544
0.5205608
0.52066773
0.5207752
0.5208832
0.5209917
0.52110076
0.5212103
0.5213204
0.521431
0.52154213
0.52165383
0.521766
0.5218787
0.52199197
0.5221057
0.52222
0.5223348
0.52245015
0.522566
0.52268237
0.5227993
0.52291673
0.5230347
0.5231532
0.5232722
0.5233917
0.5235118
0.5236324
0.5237535
0.5238752
0.5239973
0.52412003
0.52424324
0.524367
0.52449125
0.524616
0.52474135
0.5248672
0.52499354
0.52512044
0.5252479
0.5253758
0.5255043
0.5256333
0.5257628
0.5258928
0.5260234
0.52615446
0.5262861
0.52641827
0.5265509
0.5266841
0.5268178
0.5269521
0.52708685
0.52722216
0.52735794
0.5274943
0.527631
0.5277674
0.5279036
0.5280395
0.5281752
0.52831054
0.5284456
0.5285804
0.52871495
0.52884924
0.52898324
0.5291169
0.5292504
0.5293836
0.5295165
0.52964914
0.52978146
0.5299136
0.5300454
0.53017694
0.5303082
0.5304392
0.5305699
0.5307004
0.53083056
0.53096044
0.5310901
0.5312195
0.5313485
0.5314774
0.5316059
0.53173417
0.5318622
0.53198993
0.53211737
0.53224456
0.53237146
0.53249806
0.5326244
0.53275055
0.5328764
0.5330019
0.5331272
0.5332522
0.5333769
0.5335013
0.53362554
0.5337494
0.5338731
0.5339964
0.5341195
0.53424233
0.5343649
0.5344871
0.53460914
0.53473085
0.5348523
0.5349735
0.53509444
0.5352151
0.5353354
0.5354555
0.53557533
0.53569484
0.5358141
0.53593314
0.53605187
0.5361703
0.5362885
0.5364064
0.53652406
0.5366414
0.5367585
0.5368753
0.53699183
0.5371081
0.5372241
0.53733987
0.5374553
0.5375705
0.5376854
0.5378
0.5379144
0.5380285
0.5381423
0.5382559
0.5383691
0.5384821
0.53859484
0.5387073
0.5388195
0.53893137
0.539043
0.5391544
0.53926545
0.5393763
0.5394868
0.5395971
0.5397071
0.53981686
0.5399263
0.5400355
0.5401444
0.54025304
0.5403614
0.54046947
0.5405773
0.5406848
0.5407921
0.5408991
0.54100585
0.5411123
0.54121846
0.5413244
0.54143006
0.5415354
0.54164046
0.5417453
0.54184985
0.5419541
0.5420581
0.5421618
0.5422653
0.5423685
0.5424714
0.54257405
0.5426764
0.5427785
0.5428803
0.54298186
0.54308313
0.5431841
0.54328483
0.5433853
0.5434855
0.5435854
0.543685
0.5437844
0.5438835
0.5439823
0.54408085
0.54417914
0.54427713
0.5443749
0.54447234
0.5445695
0.5446664
0.544763
0.5448594
0.5449555
0.54505134
0.5451469
0.54524213
0.54533714
0.54543185
0.5455263
0.5456205
0.54571444
0.5458081
0.5459014
0.5459945
0.5460873
0.5461799
0.54627216
0.5463642
0.5464559
0.54654735
0.54663855
0.54672945
0.5468201
0.54691046
0.5470005
0.54709035
0.54717994
0.54726917
0.5473582
0.5474469
0.54753536
0.5476236
0.5477115
0.5477991
0.5478865
0.5479736
0.54806036
0.5481469
0.5482332
0.5483192
0.54840493
0.5484904
0.5485756
0.5486605
0.54874516
0.5488295
0.5489136
0.5489974
0.54908097
0.54916424
0.5492472
0.54932994
0.5494124
0.5494946
0.5495765
0.5496582
0.54973954
0.5498206
0.5499014
0.549982
0.55006224
0.5501423
0.550222
0.55030143
0.55038065
0.55045956
0.5505382
0.55061656
0.55069464
0.5507725
0.55085003
0.5509273
0.5510043
0.551081
0.5511575
0.55123365
0.5513096
0.5513852
0.55146056
0.55153567
0.5516105
0.55168504
0.5517593
0.55183333
0.55190706
0.5519805
0.5520537
0.55212665
0.55219924
0.5522716
0.5523437
0.55241555
0.5524871
0.55255836
0.55262935
0.5527001
0.55277056
0.55284077
0.5529107
0.5529803
0.5530497
0.55311877
0.5531876
0.55325615
0.5533244
0.5533924
0.5534601
0.5535276
0.55359477
0.5536617
0.55372834
0.5537947
0.5538608
0.55392665
0.55399215
0.5540575
0.55412245
0.5541872
0.5542517
0.5543158
0.55437976
0.55444336
0.5545068
0.55456984
0.55463266
0.55469525
0.5547575
0.5548195
0.5548812
0.55494267
0.5550039
0.5550648
0.5551254
0.5551858
0.5552459
0.5553057
0.55536526
0.5554246
0.5554836
0.5555423
0.55560076
0.55565894
0.5557169
0.5557745
0.55583185
0.55588895
0.55594575
0.5560023
0.5560586
0.5561146
0.55617034
0.5562258
0.556281
0.5563359
0.5563905
0.5564449
0.556499
0.5565528
0.55660635
0.55665964
0.5567127
0.5567654
0.5568178
0.55687004
0.55692196
0.5569736
0.55702496
0.5570761
0.5571269
0.5571774
0.55722773
0.55727774
0.55732745
0.5573769
0.5574261
0.55747503
0.55752367
0.557572
0.5576201
0.557668
0.5577155
0.5577628
0.55780977
0.5578565
0.557903
0.5579492
0.5579951
0.55804074
0.5580861
0.5581312
0.55817604
0.55822057
0.55826485
0.55830884
0.5583526
0.55839604
0.55843925
0.55848217
0.5585248
0.55856717
0.55860925
0.5586511
0.55869263
0.55873394
0.55877495
0.55881566
0.5588561
0.5588963
0.55893624
0.5589759
0.5590152
0.5590543
0.5590932
0.55913174
0.55917
0.559208
0.5592457
0.5592832
0.5593204
0.5593573
0.55939394
0.5594303
0.5594664
0.55950224
0.55953777
0.55957305
0.5596081
0.5596428
0.55967724
0.55971146
0.5597454
0.55977905
0.55981237
0.5598455
0.5598783
0.5599109
0.55994314
0.55997515
0.5600069
0.5600383
0.56006956
0.56010044
0.5601311
0.5601615
0.5601916
0.5602214
0.56025094
0.5602802
0.56030923
0.56033796
0.56036645
0.56039464
0.56042254
0.5604502
0.56047755
0.5605047
0.5605315
0.5605581
0.5605848
0.56061155
0.56063837
0.56066525
0.5606922
0.56071925
0.5607464
0.56077355
0.5608008
0.56082815
0.5608555
0.560883
0.5609105
0.5609382
0.56096584
0.5609936
0.56102145
0.56104934
0.56107736
0.5611054
0.5611335
0.5611617
0.56118995
0.5612183
0.5612467
0.5612752
0.56130373
0.56133235
0.5613611
0.56138986
0.5614187
0.5614476
0.5614766
0.5615057
0.56153476
0.56156397
0.56159323
0.5616226
0.561652
0.5616815
0.5617111
0.5617407
0.56177044
0.56180024
0.56183004
0.56186
0.56189
0.56192005
0.5619502
0.5619804
0.5620107
0.56204104
0.5620715
0.562102
0.5621326
0.56216323
0.56219393
0.56222475
0.5622556
0.56228656
0.56231755
0.5623486
0.5623798
0.562411
0.5624423
0.56247365
0.5625051
0.56253666
0.56256825
0.5625999
0.5626316
0.56266344
0.56269526
0.5627272
0.5627593
0.56279135
0.56282353
0.5628557
0.562888
0.56292045
0.5629529
0.5629854
0.563018
0.5630507
0.5630834
0.56311625
0.5631491
0.56318206
0.5632151
0.5632482
0.56328136
0.5633146
0.56334794
0.5633813
0.5634148
0.5634483
0.5634819
0.5635156
0.5635494
0.5635832
0.5636171
0.5636511
0.5636851
0.5637192
0.5637534
0.56378764
0.563822
0.56385636
0.5638909
0.5639254
0.56396
0.5639947
0.56402946
0.5640643
0.5640992
0.5641342
0.5641692
0.5642044
0.56423956
0.56427485
0.5643102
0.5643456
0.56438106
0.56441665
0.56445223
0.56448793
0.56452376
0.5645596
0.5645955
0.56463146
0.5646675
0.5647037
0.5647399
0.5647762
0.56481254
0.56484896
0.56488544
0.564922
0.56495863
0.56499535
0.5650321
0.56506896
0.5651059
0.5651429
0.56518
0.56521714
0.56525433
0.56529164
0.565329
0.56536645
0.56540394
0.5654415
0.56547916
0.5655169
0.5655547
0.5655925
0.5656305
0.5656685
0.56570655
0.56574476
0.56578296
0.5658213
0.5658596
0.56589806
0.56593657
0.5659752
0.5660138
0.56605256
0.56609136
0.5661303
0.5661692
0.56620824
0.56624734
0.5662865
0.5663257
0.566365
0.5664044
0.56644386
0.5664834
0.566523
0.56656265
0.5666024
0.5666422
0.5666821
0.5667221
0.5667621
0.5668022
0.5668424
0.5668826
0.56692296
0.5669633
0.5670038
0.5670443
0.56708497
0.5671256
0.5671664
0.5672072
0.5672481
0.5672891
0.5673301
0.56737125
0.56741244
0.5674537
0.567495
0.5675364
0.5675779
0.56761944
0.56766105
0.5677028
0.5677445
0.56778634
0.56782824
0.56787026
0.5679123
0.5679544
0.5679966
0.5680389
0.56808126
0.56812364
0.56816614
0.5682087
0.5682513
0.56829405
0.5683368
0.56837964
0.56842256
0.56846553
0.5685086
0.5685518
0.568595
0.56863827
0.5686816
0.56872505
0.5687685
0.5688121
0.5688557
0.56889945
0.5689432
0.5689871
0.569031
0.569075
0.5691191
0.56916326
0.56920743
0.5692517
0.5692961
0.5693405
0.56938505
0.56942964
0.5694743
0.569519
0.5695638
0.5696087
0.56965363
0.56969863
0.5697437
0.5697889
0.5698341
0.5698794
0.5699248
0.5699702
0.5700157
0.5700613
0.570107
0.5701527
0.57019854
0.57024443
0.5702903
0.5703364
0.5703825
0.57042867
0.57047486
0.5705212
0.57056755
0.57061404
0.57066053
0.57070714
0.5707538
0.5708006
0.5708474
0.5708943
0.57094127
0.5709883
0.5710354
0.5710826
0.5711298
0.5711771
0.5712245
0.571272
0.5713195
0.57136714
0.5714148
0.5714626
0.57151043
0.5715583
0.5716063
0.5716543
0.5717024
0.57175064
0.5717989
0.5718472
0.57189566
0.5719441
0.57199264
0.5720413
0.57208997
0.5721387
0.5721876
0.5722365
0.5722855
0.5723345
0.57238364
0.5724329
0.5724821
0.57253146
0.5725809
0.57263035
0.57267994
0.5727296
0.5727793
0.57282907
0.5728789
0.57292885
0.5729788
0.57302886
0.573079
0.57312924
0.5731795
0.57322985
0.5732803
0.57333076
0.57338136
0.573432
0.5734827
0.5735335
0.5735844
0.5736353
0.5736863
0.5737374
0.5737885
0.5738397
0.57389104
0.5739424
0.57399386
0.57404536
0.5740969
0.5741486
0.57420033
0.5742521
0.574304
0.5743559
0.57440794
0.57446
0.5745122
0.5745644
0.57461673
0.57466906
0.5747215
0.574774
0.57482666
0.5748793
0.57493204
0.57498485
0.5750377
0.5750907
0.5751437
0.5751968
0.57524997
0.5753032
0.57535654
0.5754099
0.57546335
0.5755169
0.5755705
0.57562417
0.57567793
0.57573175
0.57578564
0.5758396
0.57589364
0.57594776
0.57600194
0.5760562
0.5761105
0.5761649
0.5762194
0.5762739
0.5763285
0.57638323
0.57643795
0.5764928
0.5765477
0.5766027
0.5766577
0.57671285
0.57676804
0.5768233
0.5768786
0.57693404
0.57698953
0.5770451
0.5771007
0.57715636
0.57721204
0.5772674
0.57732236
0.5773769
0.5774311
0.5774849
0.5775383
0.5775913
0.577644
0.57769626
0.5777481
0.5777996
0.57785076
0.5779015
0.57795185
0.5780018
0.5780514
0.57810056
0.5781494
0.57819784
0.5782459
0.57829356
0.5783408
0.57838774
0.5784343
0.5784804
0.5785262
0.57857156
0.57861656
0.57866114
0.5787054
0.5787492
0.5787927
0.5788357
0.5788784
0.5789207
0.5789627
0.5790042
0.57904536
0.5790861
0.57912654
0.57916653
0.57920617
0.57924545
0.5792843
0.57932276
0.57936084
0.5793986
0.5794359
0.57947284
0.57950944
0.5795456
0.5795814
0.57961684
0.57965183
0.5796865
0.5797208
0.57975465
0.57978815
0.5798213
0.579854
0.5798864
0.5799183
0.5799499
0.5799811
0.58001196
0.58004236
0.5800724
0.5801021
0.5801314
0.5801603
0.5801888
0.58021694
0.5802447
0.5802721
0.5802991
0.58032566
0.5803519
0.58037776
0.5804032
0.5804283
0.580453
0.5804773
0.5805012
0.58052474
0.5805479
0.5805707
0.5805931
0.5806151
0.58063674
0.58065796
0.5806788
0.5806993
0.5807194
0.58073914
0.58075845
0.5807774
0.580796
0.5808142
0.58083194
0.58084935
0.5808664
0.5808831
0.5808993
0.5809152
0.5809307
0.58094585
0.5809606
0.58097494
0.5809889
0.5810025
0.5810157
0.5810285
0.5810409
0.581053
0.58106464
0.58107597
0.5810869
0.58109736
0.5811075
0.5811173
0.58112663
0.58113563
0.5811443
0.5811525
0.5811603
0.58116776
0.58117485
0.5811815
0.58118784
0.5811938
0.58119935
0.5812045
0.5812093
0.58121365
0.5812177
0.58122134
0.58122456
0.5812274
0.5812299
0.581232
0.58123374
0.58123505
0.581236
0.58123654
0.5812368
0.58123654
0.58123595
0.581235
0.5812337
0.58123195
0.5812298
0.5812273
0.58122444
0.58122116
0.5812175
0.5812135
0.58120906
0.5812043
0.5811991
0.58119357
0.5811876
0.5811813
0.58117455
0.58116746
0.58116
0.58115214
0.5811439
0.5811353
0.5811263
0.58111686
0.5811071
0.58109695
0.5810864
0.5810755
0.58106416
0.5810525
0.5810404
0.581028
0.5810151
0.5810019
0.5809883
0.5809743
0.5809599
0.5809452
0.58093005
0.58091456
0.58089864
0.5808824
0.5808657
0.58084863
0.58083117
0.5808134
0.58079517
0.5807766
0.5807576
0.5807383
0.5807186
0.58069843
0.5806779
0.58065706
0.5806358
0.58061415
0.58059216
0.58056974
0.5805469
0.5805237
0.5805002
0.5804762
0.5804519
0.5804272
0.58040214
0.5803766
0.58035076
0.58032453
0.5802979
0.5802709
0.5802435
0.58021575
0.58018756
0.58015907
0.5801301
0.58010083
0.58007115
0.58004105
0.5800106
0.5799798
0.57994854
0.57991695
0.57988495
0.5798526
0.57981986
0.5797867
0.5797532
0.5797193
0.57968503
0.57965034
0.5796153
0.5795799
0.57954407
0.5795078
0.5794713
0.5794343
0.57939696
0.57935923
0.5793211
0.57928264
0.5792437
0.5792045
0.5791648
0.5791248
0.5790844
0.57904357
0.57900244
0.57896084
0.57891893
0.5788766
0.5788339
0.5787908
0.57874733
0.57870346
0.57865924
0.5786146
0.5785696
0.5785242
0.57847846
0.57843226
0.5783857
0.5783388
0.57829154
0.5782438
0.57819575
0.5781473
0.5780985
0.57804924
0.57799965
0.57794964
0.5778993
0.57784855
0.5777974
0.5777459
0.577694
0.5776417
0.57758904
0.577536
0.5774826
0.57742876
0.5773745
0.57732
0.577265
0.57720965
0.5771539
0.57709783
0.5770413
0.57698447
0.5769272
0.57686955
0.5768115
0.5767531
0.5766943
0.5766351
0.5765756
0.5765156
0.5764553
0.5763946
0.5763335
0.576272
0.5762102
0.5761479
0.5760853
0.5760223
0.5759589
0.57589513
0.575831
0.57576644
0.57570153
0.5756362
0.5755705
0.5755045
0.575438
0.5753712
0.575304
0.5752364
0.5751684
0.5751
0.5750313
0.57496214
0.57489264
0.5748227
0.57475245
0.57468176
0.5746107
0.5745393
0.5744675
0.5743953
0.5743227
0.57424974
0.5741764
0.57410264
0.57402855
0.57395405
0.5738792
0.5738039
0.57372826
0.57365227
0.57357585
0.573499
0.5734219
0.5733443
0.5732664
0.57318807
0.5731093
0.57303023
0.5729508
0.5728709
0.5727907
0.57271004
0.57262903
0.5725477
0.5724659
0.57238376
0.5723012
0.5722183
0.572135
0.5720513
0.57196724
0.5718828
0.57179797
0.57171273
0.57162714
0.57154113
0.57145476
0.57136804
0.5712809
0.5711934
0.5711055
0.5710172
0.5709285
0.57083946
0.57075006
0.57066023
0.57057005
0.57047945
0.5703885
0.5702972
0.57020545
0.5701133
0.57002085
0.56992793
0.5698347
0.5697411
0.569647
0.5695526
0.5694578
0.56936264
0.5692671
0.56917113
0.5690748
0.56897813
0.56888103
0.5687836
0.5686857
0.5685875
0.56848884
0.56839
0.56829184
0.5681944
0.5680976
0.56800157
0.56790626
0.56781167
0.56771773
0.56762457
0.5675321
0.56744033
0.5673493
0.567259
0.5671694
0.56708056
0.56699234
0.5669049
0.5668182
0.56673217
0.5666468
0.56656224
0.5664784
0.5663952
0.5663128
0.5662311
0.56615
0.5660697
0.56599015
0.5659113
0.56583315
0.5657557
0.565679
0.565603
0.56552774
0.5654532
0.56537926
0.5653061
0.5652337
0.565162
0.565091
0.56502074
0.5649512
0.56488234
0.5648142
0.5647468
0.5646801
0.5646141
0.56454885
0.5644843
0.56442046
0.56435734
0.56429493
0.56423324
0.56417227
0.56411207
0.5640525
0.5639937
0.5639356
0.5638782
0.5638215
0.5637655
0.5637103
0.56365573
0.563602
0.56354886
0.5634965
0.5634448
0.56339383
0.5633436
0.5632941
0.5632453
0.5631972
0.5631498
0.56310314
0.56305724
0.563012
0.5629675
0.56292367
0.56288064
0.56283826
0.5627966
0.56275564
0.5627155
0.56267595
0.56263715
0.5625991
0.56256175
0.5625251
0.5624892
0.562454
0.5624195
0.56238574
0.56235266
0.5623203
0.5622887
0.56225777
0.5622276
0.5621981
0.5621693
0.5621413
0.56211394
0.56208736
0.5620614
0.5620363
0.5620118
0.561988
0.561965
0.56194264
0.56192106
0.56190014
0.56188
0.5618605
0.5618418
0.5618237
0.56180644
0.5617898
0.56177396
0.5617588
0.56174433
0.5617306
0.56171757
0.5617053
0.56169367
0.5616828
0.5616727
0.5616632
0.5616545
0.5616465
0.5616392
0.56163263
0.56162673
0.5616216
0.5616172
0.56161344
0.56161046
0.5616082
0.56160665
0.56160575
0.56160563
0.5616062
0.5616075
0.5616095
0.56161225
0.5616157
0.5616198
0.5616247
0.5616303
0.5616366
0.56164366
0.56165135
0.5616598
0.561669
0.5616789
0.5616895
0.56170076
0.5617128
0.56172556
0.561739
0.5617532
0.5617681
0.56178373
0.56180006
0.56181705
0.5618348
0.5618533
0.5618725
0.5618924
0.561913
0.56193435
0.5619564
0.5619792
0.56200266
0.56202686
0.5620518
0.5620774
0.56210375
0.5621308
0.5621586
0.5621871
0.5622163
0.5622462
0.56227684
0.5623082
0.56234026
0.56237304
0.56240654
0.56244075
0.5624757
0.5625113
0.56254774
0.5625848
0.5626226
0.5626611
0.56270033
0.56274027
0.5627809
0.56282234
0.5628644
0.5629072
0.56295073
0.56299496
0.5630399
0.5630856
0.563132
0.5631791
0.5632269
0.56327546
0.5633247
0.56337464
0.5634253
0.56347674
0.56352884
0.56358165
0.5636352
0.5636895
0.5637444
0.5638001
0.56385654
0.56391364
0.56397146
0.56403005
0.5640893
0.56414926
0.56421
0.5642714
0.5643335
0.5643964
0.5644599
0.56452423
0.5645892
0.5646549
0.56472135
0.56478846
0.56485635
0.5649249
0.5649942
0.5650642
0.56513494
0.56520635
0.56527853
0.56535137
0.5654249
0.56549925
0.5655743
0.56565
0.56572646
0.5658036
0.5658815
0.56596005
0.5660394
0.5661194
0.56620014
0.5662816
0.56636375
0.56644666
0.5665302
0.56661457
0.5666996
0.56678534
0.5668718
0.56695896
0.5670469
0.5671355
0.5672248
0.56731486
0.56740564
0.5674971
0.5675893
0.5676822
0.56777585
0.56787014
0.5679652
0.568061
0.5681575
0.56825465
0.5683526
0.5684512
0.5685506
0.5686506
0.5687514
0.5688529
0.5689551
0.56905806
0.56916165
0.569266
0.5693711
0.5694769
0.5695834
0.56969064
0.5697986
0.5699072
0.57001656
0.57012665
0.57023746
0.570349
0.5704612
0.57057416
0.57068783
0.5708022
0.5709173
0.5710331
0.57114965
0.57126683
0.5713848
0.57150346
0.57162285
0.57174295
0.5718638
0.5719853
0.57210755
0.5722305
0.57235426
0.57247865
0.57260376
0.5727296
0.5728561
0.5729834
0.57311136
0.57324004
0.57336944
0.57349956
0.5736304
0.57376194
0.57389426
0.57402724
0.57416093
0.57429534
0.57443047
0.5745663
0.57470286
0.5748402
0.5749782
0.5751169
0.5752563
0.5753964
0.5755373
0.5756789
0.57582116
0.57596415
0.5761079
0.57625234
0.5763975
0.57654333
0.57668996
0.57683724
0.57698524
0.577134
0.57728344
0.5774336
0.5775845
0.5777361
0.57788837
0.57804143
0.57819515
0.5783496
0.5785048
0.57866067
0.57881725
0.5789746
0.5791326
0.5792914
0.57945085
0.579611
0.57977194
0.5799335
0.5800959
0.5802589
0.5804227
0.58058715
0.5807524
0.58091825
0.5810849
0.5812522
0.5814203
0.58158904
0.58175856
0.58192873
0.5820997
0.5822713
0.58244365
0.5826167
0.5827905
0.582965
0.5831402
0.58331615
0.58349276
0.58367014
0.58384824
0.584027
0.5842065
0.5843867
0.58456767
0.58474934
0.5849317
0.5851148
0.5852986
0.5854831
0.5856683
0.5858543
0.5860409
0.5862283
0.5864164
0.58660525
0.58679473
0.5869848
0.58717465
0.58736414
0.58755326
0.58774203
0.58793044
0.5881185
0.5883062
0.5884936
0.58868057
0.58886725
0.5890535
0.5892395
0.5894251
0.58961034
0.58979523
0.58997977
0.59016395
0.59034777
0.5905313
0.5907144
0.5908972
0.5910796
0.5912617
0.5914434
0.5916248
0.5918058
0.5919865
0.5921668
0.5923467
0.5925263
0.5927056
0.5928845
0.59306306
0.5932413
0.5934191
0.5935966
0.5937737
0.5939505
0.59412694
0.5943031
0.5944788
0.59465414
0.5948292
0.59500384
0.5951782
0.5953522
0.5955258
0.5956991
0.595872
0.59604454
0.59621674
0.5963886
0.5965601
0.59673125
0.5969021
0.5970725
0.5972426
0.59741235
0.59758174
0.5977508
0.59791946
0.5980878
0.59825575
0.5984234
0.5985907
0.59875757
0.59892416
0.5990904
0.5992563
0.5994218
0.5995869
0.5997518
0.5999162
0.6000803
0.60024405
0.6004075
0.6005705
0.6007332
0.6008955
0.6010575
0.6012192
0.60138047
0.6015414
0.601702
0.6018622
0.6020221
0.6021816
0.6023408
0.6024996
0.6026581
0.6028162
0.602974
0.60313135
0.6032884
0.6034452
0.6036015
0.6037575
0.6039131
0.60406846
0.6042234
0.604378
0.60453224
0.60468614
0.6048397
0.60499287
0.6051457
0.60529816
0.6054503
0.605602
0.6057535
0.6059045
0.60605526
0.60620564
0.60635567
0.6065053
0.6066546
0.60680354
0.6069522
0.6071004
0.6072483
0.6073959
0.60754305
0.6076899
0.60783637
0.6079825
0.6081283
0.60827374
0.6084188
0.60856354
0.6087079
0.60885197
0.6089956
0.60913897
0.6092819
0.60942453
0.6095668
0.6097087
0.6098502
0.60999143
0.61013234
0.6102728
0.61041296
0.6105527
0.6106922
0.61083126
0.61097
0.6111084
0.61124647
0.61138415
0.6115215
0.61165845
0.61179507
0.6119313
0.6120673
0.6122028
0.612338
0.6124729
0.6126074
0.6127416
0.6128754
0.61300886
0.61314195
0.6132747
0.6134071
0.6135391
0.6136708
0.61380213
0.61393315
0.6140638
0.61419404
0.614324
0.61445355
0.6145828
0.61471164
0.6148402
0.61496836
0.61509615
0.61522365
0.6153507
0.6154775
0.6156039
0.61573
0.6158557
0.61598104
0.61610603
0.61623067
0.61635494
0.6164789
0.6166025
0.61672574
0.6168486
0.61697114
0.6170933
0.61721516
0.61733663
0.61745775
0.6175785
0.6176989
0.617819
0.6179387
0.6180581
0.61817706
0.6182957
0.61841404
0.618532
0.6186496
0.61876684
0.6188837
0.61900026
0.6191165
0.6192323
0.6193478
0.6194629
0.6195777
0.61969215
0.6198062
0.6199199
0.62003326
0.62014633
0.620259
0.6203713
0.6204833
0.62059486
0.62070614
0.620817
0.6209276
0.6210378
0.62114763
0.6212571
0.62136626
0.62147504
0.6215835
0.6216916
0.6217993
0.6219067
0.62201375
0.6221204
0.6222267
0.6223327
0.6224383
0.6225436
0.6226485
0.6227531
0.6228573
0.62296116
0.62306464
0.6231678
0.6232706
0.62337303
0.62347513
0.6235769
0.62367827
0.6237793
0.62388
0.62398034
0.6240803
0.62417996
0.62427926
0.62437814
0.62447673
0.62457496
0.62467283
0.62477034
0.6248675
0.6249643
0.6250608
0.6251569
0.62525266
0.62534803
0.6254431
0.6255378
0.6256321
0.6257261
0.62581974
0.6259131
0.626006
0.6260986
0.6261908
0.6262827
0.6263742
0.6264654
0.6265562
0.6266467
0.6267368
0.6268266
0.626916
0.62700504
0.62709373
0.6271821
0.6272701
0.6273578
0.62744504
0.627532
0.6276186
0.62770486
0.62779075
0.6278763
0.62796146
0.6280463
0.62813073
0.6282149
0.62829864
0.6283821
0.6284652
0.6285479
0.6286302
0.62871224
0.6287939
0.62887526
0.6289562
0.6290368
0.6291171
0.62919694
0.6292765
0.62935567
0.6294345
0.629513
0.62959117
0.62966895
0.6297464
0.62982345
0.6299002
0.6299766
0.63005257
0.63012826
0.6302036
0.6302785
0.63035315
0.6304274
0.63050133
0.6305749
0.63064814
0.630721
0.63079345
0.63086563
0.6309374
0.63100886
0.63108
0.63115066
0.63122106
0.6312911
0.63136077
0.63143015
0.6314991
0.6315677
0.631636
0.6317039
0.6317715
0.6318387
0.63190556
0.6319721
0.63203824
0.63210404
0.6321695
0.63223463
0.63229936
0.63236374
0.6324278
0.63249147
0.6325548
0.63261783
0.6326805
0.63274276
0.6328047
0.63286626
0.6329275
0.63298833
0.6330489
0.63310903
0.6331689
0.6332283
0.63328743
0.6333462
0.6334046
0.63346267
0.63352036
0.6335777
0.63363475
0.6336914
0.63374764
0.6338036
0.6338592
0.6339144
0.6339693
0.63402385
0.634078
0.63413185
0.6341853
0.6342385
0.63429123
0.6343436
0.6343957
0.63444746
0.6344988
0.6345498
0.63460046
0.63465077
0.6347007
0.6347503
0.63479954
0.6348485
0.634897
0.6349452
0.6349931
0.6350408
0.6350885
0.6351361
0.63518363
0.635231
0.6352784
0.6353256
0.6353728
0.6354199
0.6354669
0.63551384
0.63556063
0.6356074
0.6356541
0.63570064
0.63574713
0.63579357
0.6358399
0.63588613
0.6359323
0.6359784
0.63602436
0.6360703
0.6361161
0.63616186
0.6362075
0.63625306
0.63629854
0.63634396
0.63638926
0.6364345
0.6364797
0.63652474
0.63656974
0.6366146
0.63665944
0.63670415
0.6367488
0.6367934
0.63683784
0.63688225
0.63692653
0.63697076
0.63701487
0.637059
0.6371029
0.6371468
0.6371906
0.63723433
0.63727796
0.6373215
0.637365
0.6374083
0.63745165
0.63749486
0.63753796
0.63758105
0.63762397
0.6376669
0.6377096
0.63775235
0.637795
0.6378375
0.63787997
0.63792235
0.6379646
0.6380068
0.63804895
0.63809097
0.6381329
0.6381748
0.63821656
0.6382582
0.6382999
0.63834137
0.63838285
0.63842416
0.63846546
0.63850665
0.6385477
0.6385888
0.6386297
0.63867056
0.63871133
0.638752
0.63879263
0.6388331
0.6388736
0.63891387
0.63895416
0.63899434
0.63903445
0.63907444
0.6391144
0.6391542
0.63919395
0.63923365
0.6392732
0.63931274
0.63935214
0.6393915
0.6394307
0.63946986
0.63950896
0.63954794
0.63958687
0.6396257
0.6396645
0.6397031
0.6397417
0.63978016
0.6398186
0.63985693
0.63989514
0.6399333
0.6399714
0.64000934
0.64004725
0.6400851
0.64012283
0.64016044
0.64019805
0.64023554
0.6402729
0.6403102
0.6403475
0.6403846
0.6404216
0.64045864
0.64049554
0.6405323
0.64056903
0.6406057
0.6406422
0.6406787
0.6407151
0.6407514
0.6407876
0.6408237
0.6408598
0.6408957
0.6409316
0.6409674
0.64100313
0.6410388
0.6410743
0.64110976
0.6411451
0.64118046
0.6412156
0.6412507
0.6412858
0.64132077
0.64135563
0.6413904
0.6414251
0.6414597
0.6414942
0.64152867
0.64156306
0.64159733
0.64163154
0.64166564
0.6416997
0.6417336
0.64176744
0.64180124
0.6418349
0.64186853
0.641902
0.64193547
0.64196885
0.6420021
0.64203525
0.6420684
0.6421014
0.6421343
0.64216715
0.64219993
0.6422326
0.6422652
0.6422977
0.6423301
0.6423625
0.6423947
0.6424269
0.642459
0.642491
0.6425229
0.6425547
0.64258647
0.6426181
0.6426497
0.64268124
0.64271265
0.64274395
0.6427752
0.64280635
0.64283746
0.64286846
0.64289933
0.64293015
0.6429609
0.64299154
0.6430221
0.64305264
0.64308304
0.6431133
0.64314353
0.6431737
0.6432038
0.6432338
0.64326364
0.64329344
0.6433232
0.6433528
0.6433824
0.6434119
0.64344126
0.6434706
0.6434998
0.64352894
0.64355797
0.64358693
0.64361584
0.64364463
0.64367336
0.643702
0.6437305
0.64375895
0.6437874
0.64381564
0.6438439
0.64387196
0.64390004
0.643928
0.6439559
0.64398366
0.6440114
0.644039
0.6440665
0.644094
0.64412135
0.6441486
0.6441758
0.64420295
0.64422995
0.6442569
0.6442838
0.64431053
0.64433724
0.6443638
0.64439034
0.6444168
0.64444315
0.64446944
0.6444956
0.6445217
0.64454776
0.6445737
0.64459956
0.6446253
0.644651
0.64467657
0.6447021
0.6447275
0.64475286
0.64477813
0.6448033
0.6448284
0.6448534
0.6448783
0.6449032
0.6449279
0.6449526
0.64497715
0.64500165
0.6450261
0.6450504
0.64507467
0.6450988
0.6451229
0.6451469
0.6451708
0.64519465
0.6452184
0.64524204
0.64526564
0.6452891
0.64531255
0.64533585
0.6453591
0.6453822
0.6454053
0.6454283
0.6454512
0.645474
0.6454967
0.6455194
0.64554197
0.64556444
0.64558685
0.64560914
0.6456314
0.6456535
0.64567554
0.64569753
0.6457194
0.6457412
0.6457629
0.64578456
0.64580613
0.6458276
0.645849
0.64587027
0.6458915
0.64591265
0.6459337
0.64595467
0.64597553
0.64599633
0.646017
0.64603764
0.6460582
0.64607865
0.64609903
0.6461193
0.6461395
0.64615965
0.6461797
0.64619964
0.6462195
0.6462393
0.64625895
0.64627856
0.6462981
0.64631754
0.6463369
0.64635617
0.64637536
0.6463945
0.6464135
0.64643246
0.6464513
0.64647007
0.6464888
0.6465074
0.64652586
0.64654434
0.6465627
0.64658093
0.6465991
0.64661723
0.64663523
0.6466532
0.646671
0.64668876
0.6467064
0.64672405
0.6467415
0.646759
0.6467763
0.64679354
0.6468107
0.6468278
0.6468448
0.64686173
0.64687854
0.6468953
0.646912
0.64692855
0.64694506
0.64696145
0.6469778
0.646994
0.64701015
0.64702624
0.6470422
0.6470581
0.647074
0.6470897
0.64710534
0.64712095
0.6471364
0.6471518
0.64716715
0.64718235
0.6471975
0.64721256
0.6472275
0.6472424
0.64725727
0.647272
0.6472866
0.6473012
0.6473156
0.64733005
0.64734435
0.64735854
0.64737266
0.6473867
0.64740074
0.64741457
0.6474284
0.64744204
0.6474555
0.6474689
0.6474821
0.6474952
0.6475081
0.6475209
0.64753354
0.647546
0.64755833
0.64757055
0.6475826
0.64759445
0.6476062
0.6476178
0.6476293
0.6476406
0.6476518
0.6476628
0.64767367
0.6476844
0.647695
0.64770544
0.64771575
0.6477259
0.6477359
0.6477457
0.64775544
0.647765
0.6477744
0.6477837
0.6477928
0.64780176
0.6478106
0.6478193
0.6478278
0.6478362
0.6478445
0.64785254
0.6478605
0.64786834
0.647876
0.64788353
0.64789087
0.6478981
0.6479052
0.6479121
0.6479189
0.64792556
0.64793205
0.6479384
0.64794457
0.64795065
0.64795655
0.64796233
0.64796793
0.6479734
0.6479787
0.6479839
0.6479889
0.6479938
0.6479986
0.64800316
0.64800763
0.6480119
0.64801604
0.6480201
0.64802396
0.64802766
0.64803123
0.64803463
0.6480379
0.64804107
0.64804405
0.6480469
0.6480496
0.64805216
0.64805454
0.6480568
0.6480589
0.64806086
0.6480627
0.6480644
0.64806587
0.64806724
0.6480685
0.64806956
0.6480705
0.64807135
0.64807194
0.6480725
0.64807284
0.648073
0.64807314
0.648073
0.6480728
0.6480724
0.6480719
0.6480712
0.64807045
0.6480695
0.64806837
0.6480671
0.64806575
0.6480642
0.64806247
0.6480607
0.64805865
0.64805657
0.6480543
0.64805186
0.6480493
0.6480466
0.64804375
0.6480407
0.64803755
0.6480343
0.6480308
0.64802724
0.64802355
0.6480196
0.6480156
0.64801145
0.6480071
0.6480027
0.64799803
0.64799327
0.6479884
0.6479834
0.6479781
0.6479728
0.64796734
0.6479617
0.6479559
0.64795
0.6479439
0.6479377
0.64793134
0.64792484
0.64791816
0.64791137
0.6479044
0.6478973
0.6478901
0.6478827
0.6478752
0.6478675
0.64785963
0.6478517
0.6478436
0.6478353
0.6478269
0.6478183
0.6478096
0.6478008
0.6477918
0.6477827
0.6477734
0.64776397
0.6477544
0.64774466
0.64773476
0.64772475
0.6477146
0.6477043
0.6476938
0.64768326
0.6476725
0.6476616
0.64765054
0.6476394
0.64762807
0.64761657
0.64760494
0.6475932
0.6475813
0.6475692
0.647557
0.6475446
0.64753217
0.64751947
0.6475067
0.6474938
0.64748067
0.64746743
0.6474541
0.64744055
0.6474269
0.6474131
0.6473991
0.647385
0.64737076
0.64735633
0.6473418
0.6473271
0.6473123
0.6472973
0.6472822
0.64726686
0.6472515
0.64723593
0.6472202
0.64720434
0.6471883
0.64717215
0.6471559
0.64713943
0.64712286
0.6471061
0.64708924
0.6470722
0.64705503
0.6470377
0.6470202
0.64700264
0.6469849
0.64696693
0.6469489
0.6469307
0.64691234
0.64689386
0.6468752
0.6468564
0.64683753
0.64681846
0.6467992
0.64677984
0.64676034
0.6467407
0.6467209
0.6467009
0.64668083
0.64666057
0.6466402
0.6466197
0.646599
0.64657813
0.6465572
0.64653605
0.6465148
0.6464934
0.64647186
0.6464501
0.6464283
0.6464063
0.6463841
0.6463618
0.6463394
0.6463168
0.6462941
0.6462712
0.6462482
0.64622504
0.6462017
0.6461783
0.6461547
0.6461309
0.646107
0.646083
0.6460588
0.6460345
0.64601
0.64598536
0.64596057
0.64593565
0.6459106
0.6458854
0.64586
0.64583457
0.6458089
0.6457831
0.64575714
0.6457311
0.64570487
0.64567846
0.64565194
0.64562523
0.6455985
0.6455715
0.64554435
0.6455171
0.6454897
0.64546216
0.6454345
0.6454066
0.64537865
0.6453505
0.64532226
0.64529383
0.6452652
0.64523655
0.64520764
0.6451787
0.64514947
0.6451202
0.64509076
0.64506114
0.6450314
0.64500153
0.6449715
0.64494133
0.644911
0.64488053
0.6448499
0.64481914
0.64478827
0.6447572
0.644726
0.6446946
0.64466316
0.6446315
0.64459974
0.6445678
0.6445357
0.6445035
0.6444711
0.6444386
0.64440596
0.6443731
0.64434016
0.6443071
0.6442738
0.64424044
0.6442069
0.6441732
0.6441394
0.64410543
0.6440713
0.644037
0.6440026
0.64396805
0.64393336
0.6438985
0.6438635
0.64382833
0.64379305
0.64375764
0.64372206
0.6436863
0.6436504
0.6436144
0.64357823
0.64354193
0.64350545
0.64346886
0.6434321
0.6433952
0.6433582
0.643321
0.6432836
0.6432462
0.6432085
0.6431708
0.6431328
0.6430948
0.6430566
0.6430182
0.6429797
0.642941
0.64290226
0.6428633
0.6428242
0.64278495
0.64274555
0.64270604
0.6426664
0.6426266
0.6425866
0.6425465
0.64250624
0.64246583
0.64242524
0.6423846
0.6423437
0.64230275
0.6422616
0.6422203
0.6421789
0.6421373
0.64209557
0.6420537
0.6420117
0.64196956
0.64192724
0.6418848
0.6418422
0.64179945
0.6417566
0.64171356
0.64167035
0.641627
0.64158356
0.64153993
0.6414962
0.64145225
0.6414082
0.641364
0.64131963
0.64127517
0.6412305
0.6411857
0.6411408
0.6410957
0.6410505
0.6410057
0.6409612
0.6409171
0.64087343
0.64083016
0.64078724
0.64074475
0.6407026
0.6406608
0.64061946
0.6405785
0.6405379
0.64049774
0.6404579
0.64041847
0.6403794
0.6403408
0.64030254
0.6402647
0.6402272
0.6401901
0.6401534
0.6401171
0.64008117
0.64004564
0.6400105
0.6399757
0.63994133
0.63990736
0.63987374
0.63984054
0.63980776
0.6397753
0.63974327
0.6397116
0.6396803
0.63964945
0.63961893
0.63958883
0.63955915
0.6395298
0.63950086
0.6394723
0.6394442
0.6394164
0.639389
0.639362
0.6393354
0.63930917
0.63928336
0.6392579
0.6392328
0.63920814
0.6391839
0.63916
0.6391365
0.63911337
0.63909066
0.6390683
0.6390463
0.6390248
0.6390036
0.63898283
0.6389624
0.6389424
0.63892275
0.63890356
0.63888466
0.63886625
0.6388482
0.6388305
0.6388132
0.63879627
0.63877976
0.6387636
0.6387479
0.63873255
0.63871753
0.638703
0.6386888
0.638675
0.63866156
0.63864857
0.63863593
0.63862365
0.6386118
0.63860035
0.63858926
0.63857853
0.6385682
0.6385583
0.6385488
0.6385397
0.6385309
0.6385225
0.6385146
0.63850695
0.63849974
0.63849294
0.6384865
0.6384805
0.6384748
0.6384696
0.6384647
0.6384602
0.6384561
0.6384524
0.6384491
0.63844615
0.6384436
0.63844144
0.63843966
0.6384383
0.63843733
0.6384367
0.6384365
0.6384367
0.6384372
0.63843817
0.6384395
0.6384412
0.63844335
0.63844585
0.6384487
0.638452
0.6384557
0.63845974
0.63846415
0.638469
0.6384742
0.6384798
0.63848585
0.6384922
0.63849896
0.6385061
0.6385137
0.6385216
0.63852996
0.63853866
0.6385478
0.63855726
0.6385671
0.6385774
0.638588
0.6385991
0.6386105
0.63862234
0.6386345
0.63864714
0.6386601
0.6386735
0.63868725
0.6387014
0.6387159
0.6387308
0.63874614
0.6387618
0.6387779
0.6387944
0.6388113
0.6388285
0.63884616
0.63886416
0.6388826
0.6389014
0.6389206
0.63894016
0.6389601
0.6389805
0.63900125
0.6390224
0.6390439
0.6390658
0.6390881
0.6391108
0.6391339
0.63915735
0.6391812
0.6392054
0.6392301
0.63925505
0.63928044
0.63930625
0.6393324
0.639359
0.63938594
0.6394133
0.639441
0.63946915
0.63949764
0.63952655
0.6395558
0.6395855
0.6396156
0.639646
0.63967687
0.6397081
0.6397397
0.6397717
0.63980407
0.63983685
0.63987005
0.6399036
0.6399375
0.63997185
0.6400066
0.6400417
0.6400772
0.64011306
0.64014935
0.640186
0.640223
0.64026046
0.6402983
0.6403365
0.64037514
0.6404141
0.64045346
0.6404932
0.6405334
0.6405739
0.64061487
0.6406562
0.6406979
0.64074
0.6407825
0.64082533
0.6408686
0.64091223
0.6409563
0.6410007
0.6410455
0.6410907
0.6411363
0.64118224
0.6412286
0.6412754
0.6413225
0.64137006
0.641418
0.64146626
0.64151496
0.6415641
0.6416135
0.6416634
0.6417136
0.6417642
0.64181525
0.6418667
0.6419185
0.64197063
0.6420232
0.6420762
0.64212954
0.6421833
0.6422374
0.6422919
0.6423468
0.6424021
0.6424578
0.6425139
0.6425703
0.6426272
0.6426844
0.64274204
0.64280003
0.64285845
0.6429172
0.6429764
0.64303595
0.6430959
0.64315623
0.64321697
0.64327806
0.6433396
0.64340144
0.64346373
0.6435264
0.64358944
0.6436529
0.64371675
0.64378095
0.64384556
0.6439105
0.6439759
0.6440417
0.6441079
0.6441744
0.64424133
0.6443087
0.6443764
0.64444447
0.64451295
0.64458185
0.6446511
0.6447208
0.6447908
0.6448612
0.64493203
0.64500326
0.64507484
0.64514685
0.6452192
0.645292
0.6453651
0.6454387
0.6455126
0.6455869
0.6456616
0.6457367
0.64581215
0.64588803
0.64596426
0.6460409
0.6461179
0.64619535
0.64627314
0.64635134
0.6464299
0.6465089
0.64658827
0.646668
0.6467481
0.64682865
0.64690953
0.64699084
0.64707255
0.6471546
0.64723706
0.6473199
0.6474032
0.6474868
0.6475708
0.6476552
0.64774
0.6478252
0.6479108
0.6479967
0.64808303
0.64816976
0.6482569
0.6483444
0.6484323
0.6485206
0.6486093
0.64869833
0.6487878
0.6488776
0.64896786
0.64905846
0.6491495
0.64924085
0.64933264
0.6494248
0.64951736
0.6496103
0.6497036
0.6497973
0.64989144
0.6499859
0.6500808
0.6501761
0.6502718
0.6503678
0.65046424
0.65056103
0.65065825
0.6507559
0.6508539
0.6509522
0.651051
0.65115017
0.6512497
0.6513496
0.6514499
0.65155065
0.65165174
0.65175325
0.6518551
0.65195733
0.65206
0.652163
0.65226644
0.6523703
0.65247446
0.65257907
0.65268403
0.6527894
0.65289515
0.6530013
0.6531078
0.65321475
0.65332204
0.65342975
0.6535378
0.6536463
0.6537551
0.6538644
0.653974
0.654084
0.6541945
0.6543052
0.65441644
0.65452796
0.65463936
0.6547505
0.6548615
0.65497226
0.6550828
0.65519315
0.65530324
0.65541315
0.6555229
0.6556323
0.65574163
0.65585065
0.6559595
0.65606815
0.65617657
0.65628475
0.65639275
0.6565005
0.65660805
0.65671545
0.65682256
0.6569295
0.6570362
0.6571427
0.657249
0.65735507
0.6574609
0.65756655
0.657672
0.6577772
0.6578822
0.657987
0.6580916
0.658196
0.6583001
0.65840405
0.65850776
0.6586113
0.6587146
0.6588177
0.6589206
0.6590232
0.6591257
0.6592279
0.65932995
0.65943176
0.6595334
0.6596347
0.6597359
0.6598369
0.6599376
0.6600382
0.6601385
0.66023856
0.66033846
0.6604382
0.6605376
0.6606369
0.6607359
0.6608347
0.6609334
0.6610318
0.66112995
0.66122794
0.6613257
0.66142327
0.6615206
0.6616177
0.6617146
0.6618113
0.6619078
0.66200405
0.66210014
0.662196
0.66229165
0.662387
0.66248226
0.6625772
0.66267204
0.6627666
0.66286093
0.6629551
0.66304904
0.66314274
0.66323626
0.66332954
0.6634226
0.66351545
0.66360813
0.6637006
0.6637928
0.6638848
0.6639766
0.66406816
0.66415954
0.66425073
0.6643417
0.6644324
0.6645229
0.66461325
0.6647033
0.6647932
0.66488284
0.6649723
0.6650616
0.6651506
0.6652394
0.665328
0.6654164
0.6655046
0.66559255
0.6656803
0.66576785
0.66585517
0.66594225
0.66602916
0.6661159
0.6662023
0.6662886
0.6663746
0.66646045
0.6665461
0.6666315
0.6667167
0.6668017
0.66688645
0.666971
0.66705537
0.6671395
0.6672234
0.6673071
0.6673906
0.66747385
0.66755694
0.6676398
0.6677224
0.66780484
0.6678871
0.66796905
0.6680508
0.6681324
0.6682138
0.6682949
0.66837585
0.6684566
0.6685371
0.66861737
0.6686975
0.66877735
0.668857
0.66893643
0.66901565
0.6690947
0.6691735
0.6692521
0.6693305
0.6694086
0.6694866
0.6695643
0.66964185
0.66971916
0.6697962
0.6698731
0.6699498
0.6700263
0.67010254
0.67017853
0.6702544
0.67033
0.6704054
0.67048055
0.67055553
0.6706303
0.67070484
0.67077917
0.6708533
0.67092717
0.6710009
0.6710744
0.67114764
0.67122066
0.6712935
0.67136616
0.6714386
0.67151076
0.67158276
0.6716545
0.6717261
0.67179745
0.67186856
0.6719395
0.6720102
0.6720807
0.67215097
0.67222106
0.6722909
0.67236054
0.67243
0.6724992
0.6725682
0.672637
0.6727056
0.67277396
0.6728421
0.67291003
0.67297775
0.6730453
0.6731126
0.6731797
0.67324656
0.6733132
0.67337966
0.6734459
0.6735119
0.6735777
0.6736433
0.6737087
0.6737739
0.6738388
0.6739036
0.6739681
0.6740324
0.6740965
0.6741604
0.6742241
0.67428756
0.6743508
0.67441386
0.6744767
0.67453927
0.6746017
0.6746639
0.67472583
0.67478764
0.67484915
0.6749105
0.67497164
0.67503256
0.67509323
0.67515373
0.675214
0.675274
0.67533386
0.6753935
0.67545295
0.67551214
0.67557114
0.6756299
0.6756885
0.67574686
0.675805
0.6758629
0.6759206
0.6759781
0.6760354
0.6760925
0.67614937
0.676206
0.67626244
0.67631865
0.6763747
0.67643046
0.676486
0.6765414
0.6765966
0.67665154
0.67670625
0.67676073
0.6768151
0.67686915
0.67692304
0.6769767
0.67703015
0.6770834
0.6771364
0.67718923
0.67724186
0.67729425
0.6773464
0.6773984
0.6774501
0.6775017
0.677553
0.6776041
0.677655
0.67770565
0.67775613
0.6778064
0.67785645
0.6779063
0.6779559
0.6780053
0.6780545
0.6781035
0.67815226
0.6782008
0.6782491
0.6782973
0.6783452
0.6783929
0.6784404
0.67848766
0.6785347
0.67858154
0.6786282
0.67867464
0.67872083
0.67876685
0.6788126
0.67885816
0.6789035
0.6789487
0.67899364
0.67903835
0.6790829
0.67912716
0.6791712
0.6792151
0.67925876
0.6793022
0.6793454
0.6793884
0.67943126
0.6794738
0.6795162
0.67955834
0.6796003
0.679642
0.67968357
0.6797249
0.679766
0.6798069
0.67984754
0.679888
0.67992824
0.6799683
0.6800081
0.6800477
0.6800871
0.68012625
0.68016523
0.680204
0.68024254
0.68028086
0.680319
0.68035686
0.6803946
0.6804321
0.68046933
0.68050635
0.6805432
0.68057984
0.68061626
0.68065244
0.68068844
0.6807242
0.6807597
0.6807951
0.68083024
0.68086517
0.68089986
0.68093437
0.68096864
0.6810027
0.68103653
0.6810702
0.68110365
0.68113685
0.68116987
0.68120265
0.6812352
0.68126756
0.68129975
0.6813317
0.6813634
0.6813949
0.6814262
0.6814573
0.68148816
0.6815188
0.68154925
0.6815795
0.6816095
0.6816393
0.68166894
0.6816983
0.68172747
0.68175644
0.68178517
0.6818137
0.681842
0.6818701
0.681898
0.6819257
0.68195313
0.6819804
0.68200743
0.68203425
0.6820609
0.6820873
0.68211347
0.68213946
0.6821652
0.6821908
0.6822163
0.68224186
0.6822675
0.68229306
0.6823187
0.6823444
0.68237007
0.68239576
0.68242145
0.6824472
0.68247294
0.68249875
0.68252456
0.6825504
0.68257624
0.6826021
0.68262804
0.6826539
0.68267983
0.6827058
0.6827318
0.6827578
0.68278384
0.6828099
0.68283594
0.68286204
0.68288815
0.68291426
0.6829404
0.6829666
0.6829928
0.683019
0.68304527
0.6830715
0.6830978
0.6831241
0.6831504
0.68317676
0.68320316
0.68322957
0.683256
0.6832824
0.68330884
0.6833353
0.6833618
0.68338835
0.6834149
0.68344146
0.68346804
0.6834946
0.6835213
0.6835479
0.6835746
0.6836013
0.683628
0.6836548
0.6836815
0.6837083
0.68373513
0.68376195
0.6837888
0.68381566
0.68384254
0.6838694
0.68389636
0.6839233
0.6839503
0.6839773
0.6840043
0.68403137
0.6840584
0.68408555
0.6841126
0.6841397
0.6841669
0.6841941
0.68422127
0.6842485
0.68427575
0.684303
0.6843303
0.6843576
0.6843849
0.68441224
0.6844396
0.68446696
0.6844944
0.68452185
0.6845493
0.68457675
0.6846042
0.68463176
0.6846593
0.6846869
0.68471444
0.68474203
0.6847697
0.68479735
0.684825
0.6848527
0.68488044
0.68490815
0.6849359
0.6849637
0.6849915
0.6850193
0.68504715
0.685075
0.6851029
0.6851308
0.6851587
0.6851867
0.68521464
0.68524265
0.68527067
0.6852987
0.68532676
0.6853548
0.68538296
0.6854111
0.6854392
0.6854674
0.68549556
0.6855238
0.685552
0.68558025
0.68560857
0.6856369
0.6856652
0.6856935
0.6857219
0.68575025
0.6857787
0.6858071
0.68583554
0.68586403
0.6858925
0.685921
0.68594956
0.6859781
0.6860067
0.6860353
0.68606395
0.68609256
0.6861212
0.68614995
0.6861786
0.68620735
0.68623614
0.6862649
0.6862937
0.6863225
0.68635136
0.6863802
0.6864091
0.686438
0.68646693
0.6864959
0.68652487
0.68655384
0.68658286
0.6866119
0.6866409
0.68667
0.6866991
0.68672824
0.6867574
0.68678653
0.68681574
0.68684494
0.68687415
0.6869034
0.6869327
0.686962
0.6869913
0.68702066
0.68705
0.68707937
0.68710876
0.6871382
0.68716764
0.68719715
0.6872266
0.6872561
0.68728566
0.6873152
0.6873448
0.6873744
0.687404
0.68743366
0.6874633
0.68749297
0.6875227
0.68755245
0.6875822
0.68761194
0.68764174
0.68767154
0.6877014
0.68773127
0.6877611
0.68779105
0.687821
0.6878509
0.6878809
0.68791085
0.68794084
0.6879709
0.6880009
0.688031
0.6880611
0.6880912
0.6881214
0.68815154
0.6881817
0.6882119
0.68824214
0.6882724
0.68830264
0.688333
0.68836325
0.6883936
0.68842393
0.68845433
0.6884847
0.6885151
0.6885456
0.68857604
0.68860656
0.6886371
0.6886676
0.6886981
0.6887287
0.6887593
0.6887899
0.68882054
0.68885124
0.6888819
0.6889126
0.6889433
0.6889741
0.68900484
0.68903565
0.6890664
0.6890973
0.6891281
0.689159
0.6891899
0.6892208
0.6892518
0.6892827
0.6893137
0.6893447
0.68937576
0.6894068
0.68943787
0.6894689
0.68950003
0.6895312
0.6895624
0.68959355
0.6896247
0.68965596
0.6896872
0.6897185
0.6897498
0.68978107
0.6898124
0.6898438
0.6898751
0.68990654
0.68993795
0.68996936
0.69000083
0.6900323
0.69006383
0.69009537
0.6901269
0.6901585
0.6901901
0.69022167
0.6902533
0.69028497
0.6903166
0.6903483
0.69038004
0.6904118
0.6904436
0.69047534
0.6905072
0.690539
0.69057083
0.6906027
0.6906346
0.6906665
0.69069844
0.6907304
0.6907624
0.6907944
0.6908264
0.6908585
0.69089055
0.6909226
0.69095474
0.6909869
0.691019
0.6910512
0.6910834
0.6911156
0.69114786
0.6911801
0.6912124
0.6912447
0.691277
0.6913094
0.69134176
0.6913741
0.69140655
0.691439
0.69147146
0.69150394
0.6915364
0.691569
0.6916015
0.69163406
0.69166666
0.69169927
0.69173187
0.69176453
0.6917972
0.6918299
0.69186264
0.69189537
0.6919281
0.6919609
0.6919937
0.69202656
0.6920594
0.69209224
0.69212514
0.69215804
0.692191
0.6922239
0.6922569
0.6922899
0.6923229
0.692356
0.692389
0.69242215
0.69245523
0.6924884
0.6925215
0.69255465
0.69258785
0.6926211
0.6926543
0.6926876
0.6927209
0.69275415
0.69278747
0.69282085
0.6928542
0.6928876
0.692921
0.6929544
0.69298786
0.69302136
0.69305485
0.69308835
0.6931219
0.69315547
0.6931891
0.69322264
0.6932563
0.69328994
0.6933236
0.6933573
0.693391
0.69342476
0.6934585
0.6934923
0.6935261
0.6935599
0.69359374
0.6936276
0.6936615
0.6936954
0.69372934
0.6937633
0.6937973
0.69383126
0.6938653
0.69389933
0.69393337
0.69396746
0.69400156
0.6940357
0.69406986
0.694104
0.69413817
0.6941724
0.69420666
0.6942409
0.69427514
0.6943092
0.69434285
0.69437623
0.6944094
0.69444215
0.6944746
0.69450676
0.69453865
0.6945702
0.6946014
0.69463235
0.694663
0.6946933
0.69472337
0.69475305
0.6947825
0.6948116
0.6948404
0.69486886
0.69489706
0.6949249
0.6949525
0.6949797
0.69500667
0.6950333
0.69505966
0.6950857
0.6951114
0.69513685
0.69516194
0.69518673
0.69521123
0.69523543
0.69525933
0.6952829
0.6953061
0.6953291
0.6953518
0.69537413
0.6953962
0.6954179
0.69543934
0.69546044
0.69548124
0.69550174
0.69552195
0.69554186
0.6955614
0.6955807
0.6955997
0.69561833
0.6956367
0.69565475
0.6956725
0.6956899
0.6957071
0.6957239
0.6957404
0.6957566
0.6957725
0.6957881
0.6958034
0.69581836
0.6958331
0.69584745
0.69586146
0.6958752
0.6958887
0.6959018
0.6959147
0.6959272
0.6959394
0.69595134
0.6959629
0.69597423
0.6959852
0.6959959
0.6960063
0.6960164
0.69602615
0.69603556
0.69604474
0.69605356
0.6960621
0.6960703
0.69607824
0.6960859
0.6960932
0.6961002
0.6961069
0.6961133
0.69611937
0.69612515
0.6961306
0.69613576
0.6961406
0.6961452
0.6961494
0.69615334
0.696157
0.69616026
0.6961633
0.696166
0.6961684
0.6961705
0.6961723
0.6961737
0.6961749
0.6961758
0.69617635
0.6961766
0.6961765
0.6961762
0.6961755
0.69617456
0.69617325
0.69617164
0.69616973
0.6961675
0.696165
0.6961622
0.6961591
0.69615567
0.6961519
0.69614786
0.6961435
0.69613886
0.6961339
0.6961286
0.69612306
0.69611716
0.69611096
0.69610447
0.6960977
0.6960905
0.6960831
0.6960754
0.69606733
0.696059
0.69605035
0.6960414
0.69603217
0.69602257
0.6960127
0.69600254
0.69599205
0.6959812
0.6959701
0.69595873
0.695947
0.69593495
0.6959226
0.69591
0.69589704
0.6958838
0.6958702
0.6958564
0.6958422
0.6958277
0.69581294
0.69579786
0.6957824
0.69576675
0.6957507
0.6957344
0.69571775
0.6957008
0.6956836
0.695666
0.6956482
0.69563
0.69561154
0.69559276
0.6955737
0.6955543
0.6955346
0.6955146
0.6954943
0.6954737
0.69545275
0.69543153
0.69540995
0.69538814
0.69536597
0.6953435
0.6953207
0.69529766
0.6952743
0.6952506
0.6952266
0.6952023
0.6951777
0.69515276
0.69512755
0.69510204
0.69507617
0.69505006
0.6950236
0.69499683
0.6949698
0.6949424
0.69491476
0.69488674
0.69485843
0.6948299
0.694801
0.69477177
0.6947422
0.6947124
0.69468224
0.69465184
0.6946211
0.69459003
0.6945587
0.69452703
0.694495
0.6944627
0.6944302
0.6943973
0.6943641
0.6943306
0.6942967
0.6942626
0.6942282
0.6941934
0.69415843
0.6941231
0.6940874
0.69405144
0.69401515
0.6939786
0.6939417
0.6939045
0.693867
0.69382924
0.6937911
0.6937527
0.69371396
0.6936749
0.6936356
0.69359595
0.693556
0.6935157
0.6934752
0.6934343
0.6933931
0.6933516
0.69330984
0.6932677
0.6932253
0.6931826
0.69313955
0.6930962
0.6930526
0.69300866
0.69296443
0.69291985
0.692875
0.69282985
0.69278437
0.6927386
0.69269246
0.6926461
0.69259936
0.6925524
0.69250506
0.69245744
0.69240946
0.69236124
0.6923127
0.69226384
0.69221467
0.6921652
0.6921154
0.69206536
0.692015
0.69196427
0.6919133
0.691862
0.69181037
0.69175845
0.6917062
0.69165367
0.6916008
0.6915477
0.6914942
0.69144046
0.6913864
0.691332
0.6912773
0.6912223
0.69116706
0.69111145
0.69105554
0.69099927
0.69094276
0.69088596
0.6908288
0.69077134
0.6907136
0.6906555
0.6905972
0.6905385
0.6904795
0.6904202
0.69036067
0.69030076
0.6902405
0.69018
0.6901192
0.69005805
0.6899966
0.6899349
0.6898728
0.68981045
0.6897478
0.68968487
0.68962157
0.68955797
0.6894941
0.6894299
0.6893654
0.6893006
0.68923545
0.68917
0.6891043
0.6890383
0.6889719
0.68890524
0.6888383
0.688771
0.6887035
0.6886356
0.6885674
0.6884989
0.6884301
0.688361
0.68829155
0.6882218
0.68815184
0.6880815
0.6880108
0.6879399
0.6878686
0.68779707
0.6877252
0.687653
0.6875805
0.68750775
0.6874346
0.68736124
0.6872875
0.6872135
0.68713915
0.6870645
0.6869896
0.6869144
0.6868388
0.6867629
0.68668675
0.6866103
0.6865335
0.68645644
0.686379
0.68630135
0.6862233
0.686145
0.6860664
0.6859875
0.6859082
0.6858287
0.6857488
0.68566865
0.6855882
0.6855074
0.68542635
0.685345
0.6852633
0.68518126
0.685099
0.6850164
0.6849334
0.6848502
0.6847667
0.68468285
0.6845987
0.6845142
0.68442947
0.6843444
0.68425906
0.68417335
0.6840874
0.6840011
0.6839145
0.6838276
0.6837404
0.6836528
0.683565
0.68347687
0.6833884
0.68329966
0.6832106
0.68312126
0.6830316
0.68294233
0.68285346
0.68276507
0.68267715
0.6825897
0.6825027
0.6824162
0.68233013
0.68224454
0.6821594
0.6820748
0.6819906
0.68190694
0.6818237
0.6817409
0.68165857
0.6815767
0.68149537
0.6814144
0.681334
0.681254
0.6811745
0.6810955
0.6810169
0.6809388
0.6808612
0.680784
0.6807073
0.68063104
0.6805553
0.68048
0.68040514
0.68033075
0.6802569
0.6801835
0.68011045
0.680038
0.679966
0.6798944
0.6798233
0.67975265
0.6796825
0.6796128
0.67954355
0.67947483
0.6794065
0.6793387
0.67927134
0.67920446
0.67913806
0.6790721
0.6790066
0.67894155
0.678877
0.6788129
0.6787493
0.67868614
0.6786235
0.6785613
0.6784995
0.67843825
0.6783774
0.67831707
0.67825717
0.67819774
0.6781388
0.6780803
0.6780223
0.6779648
0.6779077
0.6778511
0.67779493
0.67773926
0.67768407
0.67762935
0.67757505
0.6775212
0.67746794
0.6774151
0.6773626
0.6773107
0.6772592
0.67720824
0.6771577
0.67710763
0.67705804
0.67700887
0.67696023
0.676912
0.6768643
0.67681706
0.67677027
0.6767239
0.67667806
0.67663264
0.6765877
0.6765433
0.6764993
0.67645574
0.6764127
0.6763701
0.676328
0.67628634
0.67624515
0.67620444
0.67616415
0.6761244
0.67608505
0.6760462
0.6760078
0.6759699
0.67593247
0.67589545
0.675859
0.6758229
0.6757873
0.6757522
0.67571753
0.6756834
0.67564964
0.67561644
0.67558366
0.67555135
0.67551947
0.6754881
0.67545724
0.6754268
0.6753968
0.6753673
0.67533827
0.67530966
0.6752816
0.6752539
0.67522675
0.67520005
0.6751738
0.67514807
0.67512274
0.67509794
0.67507356
0.67504966
0.67502624
0.6750033
0.67498076
0.67495877
0.6749372
0.6749161
0.67489547
0.6748753
0.6748556
0.6748364
0.6748176
0.6747993
0.6747815
0.67476416
0.6747473
0.67473084
0.67471486
0.6746994
0.6746844
0.6746698
0.67465574
0.67464215
0.674629
0.6746163
0.67460406
0.6745923
0.67458105
0.67457026
0.6745599
0.67455
0.6745406
0.67453164
0.6745232
0.6745152
0.6745076
0.6745005
0.6744939
0.67448777
0.6744821
0.6744769
0.67447215
0.6744679
0.6744641
0.67446077
0.6744579
0.67445546
0.67445356
0.67445207
0.6744511
0.6744506
0.6744505
0.6744509
0.67445177
0.6744531
0.67445487
0.6744572
0.67445993
0.6744631
0.6744668
0.6744709
0.67447555
0.6744806
0.67448616
0.6744922
0.6744986
0.6745056
0.674513
0.67452085
0.6745292
0.674538
0.6745473
0.67455703
0.6745673
0.67457795
0.6745891
0.6746007
0.6746128
0.67462534
0.6746384
0.67465186
0.6746658
0.67468023
0.67469513
0.67471045
0.6747263
0.6747426
0.6747593
0.67477655
0.67479426
0.67481244
0.67483103
0.6748501
0.6748697
0.67488974
0.6749102
0.67493117
0.6749526
0.6749745
0.67499685
0.6750197
0.675043
0.67506677
0.67509097
0.6751157
0.67514086
0.6751665
0.6751926
0.6752192
0.67524624
0.6752737
0.6753017
0.6753301
0.675359
0.6753884
0.67541826
0.67544854
0.67547935
0.6755106
0.6755423
0.6755745
0.6756071
0.6756402
0.6756738
0.6757079
0.6757424
0.6757773
0.6758128
0.6758487
0.6758851
0.6759219
0.6759593
0.675997
0.6760353
0.676074
0.6761132
0.6761529
0.676193
0.6762336
0.67627466
0.67631614
0.67635816
0.6764006
0.6764435
0.6764869
0.6765308
0.6765751
0.6766199
0.6766652
0.6767109
0.6767571
0.67680377
0.6768509
0.6768985
0.6769466
0.6769951
0.6770441
0.67709357
0.6771435
0.6771939
0.6772448
0.6772961
0.6773479
0.6774002
0.6774529
0.67750615
0.6775598
0.6776139
0.6776686
0.67772365
0.67777914
0.67783517
0.6778917
0.6779486
0.678006
0.67806387
0.6781222
0.67818105
0.67824036
0.6783001
0.6783603
0.67842096
0.6784821
0.67854375
0.67860585
0.6786684
0.6787314
0.6787949
0.6788589
0.67892325
0.67898816
0.67905354
0.67911935
0.6791856
0.6792524
0.6793196
0.67938733
0.67945546
0.67952406
0.6795932
0.67966276
0.6797328
0.67980325
0.67987424
0.67994565
0.6800176
0.68008995
0.6801628
0.68023604
0.68030983
0.6803841
0.6804588
0.68053395
0.6806096
0.6806857
0.68076223
0.6808393
0.6809168
0.68099475
0.6810732
0.6811521
0.6812315
0.68131137
0.68139166
0.6814724
0.68155366
0.6816354
0.6817176
0.6818002
0.68188334
0.6819669
0.68205094
0.68213546
0.68222046
0.68230593
0.6823918
0.6824782
0.68256503
0.68265235
0.68274015
0.6828284
0.6829171
0.68300635
0.683096
0.6831861
0.6832767
0.6833677
0.6834593
0.68355125
0.68364376
0.6837367
0.6838301
0.6839239
0.68401825
0.684113
0.68420833
0.68430406
0.68440026
0.6844969
0.68459404
0.6846916
0.6847897
0.68488824
0.6849872
0.6850861
0.6851848
0.6852832
0.6853814
0.68547934
0.6855771
0.68567455
0.6857718
0.68586886
0.68596566
0.6860622
0.68615854
0.6862546
0.6863505
0.68644613
0.6865415
0.6866367
0.6867316
0.6868263
0.68692076
0.687015
0.687109
0.68720275
0.6872963
0.68738955
0.6874826
0.68757546
0.687668
0.68776035
0.6878525
0.6879444
0.688036
0.68812746
0.68821865
0.6883096
0.6884003
0.6884908
0.6885811
0.6886711
0.6887609
0.68885046
0.68893975
0.68902886
0.6891177
0.68920636
0.68929476
0.6893829
0.6894708
0.6895585
0.68964595
0.68973315
0.6898202
0.6899069
0.68999344
0.6900797
0.69016576
0.6902516
0.6903372
0.69042253
0.69050765
0.6905925
0.69067717
0.6907616
0.6908458
0.6909297
0.69101346
0.69109696
0.69118017
0.6912632
0.691346
0.69142854
0.69151086
0.69159293
0.69167477
0.6917564
0.6918378
0.6919189
0.69199985
0.69208056
0.69216096
0.6922412
0.6923212
0.69240093
0.69248044
0.6925597
0.69263875
0.69271755
0.6927962
0.6928745
0.69295263
0.6930305
0.69310814
0.69318557
0.69326276
0.6933397
0.6934164
0.6934929
0.6935691
0.6936451
0.6937209
0.69379646
0.69387174
0.69394684
0.6940217
0.69409627
0.69417065
0.6942448
0.6943187
0.6943924
0.6944658
0.69453907
0.694612
0.69468474
0.6947573
0.6948295
0.6949016
0.6949734
0.695045
0.69511634
0.69518745
0.6952583
0.69532895
0.69539934
0.6954695
0.6955395
0.69560915
0.69567865
0.6957479
0.6958169
0.69588566
0.6959542
0.6960225
0.6960906
0.6961584
0.696226
0.6962934
0.6963605
0.69642746
0.6964941
0.69656056
0.6966267
0.6966927
0.69675845
0.69682395
0.6968892
0.69695425
0.69701904
0.69708365
0.69714797
0.6972121
0.69727594
0.6973396
0.69740295
0.69746614
0.6975291
0.6975918
0.69765425
0.6977165
0.69777846
0.6978403
0.6979018
0.69796306
0.69802415
0.698085
0.69814557
0.69820595
0.6982661
0.698326
0.69838566
0.6984451
0.69850427
0.6985632
0.698622
0.69868046
0.69873875
0.69879675
0.69885457
0.69891214
0.6989695
0.6990266
0.69908345
0.6991401
0.69919646
0.6992526
0.6993085
0.69936424
0.6994197
0.69947493
0.69952995
0.69958466
0.6996392
0.6996935
0.69974756
0.6998014
0.69985497
0.6999084
0.6999615
0.70001435
0.70006704
0.70011944
0.70017165
0.7002236
0.70027536
0.7003268
0.70037806
0.70042914
0.7004799
0.70053047
0.7005808
0.7006309
0.70068073
0.7007304
0.70077974
0.7008289
0.70087785
0.70092654
0.700975
0.7010232
0.7010712
0.70111895
0.70116645
0.7012138
0.7012608
0.70130765
0.7013542
0.7014006
0.7014467
0.7014926
0.70153826
0.7015837
0.70162886
0.7016738
0.7017185
0.70176303
0.70180726
0.7018513
0.70189506
0.7019386
0.70198196
0.70202506
0.7020679
0.7021105
0.7021529
0.70219505
0.70223695
0.7022787
0.7023201
0.70236135
0.7024023
0.70244306
0.7024836
0.7025238
0.7025639
0.7026037
0.7026433
0.7026827
0.7027218
0.70276064
0.7027993
0.7028377
0.7028759
0.7029138
0.70295155
0.70298904
0.7030263
0.7030633
0.7031001
0.7031366
0.7031729
0.70320904
0.70324486
0.7032805
0.70331585
0.703351
0.70338595
0.70342064
0.70345503
0.70348924
0.7035232
0.703557
0.7035905
0.7036238
0.70365685
0.70368963
0.70372224
0.70375454
0.7037867
0.70381856
0.7038502
0.7038816
0.7039128
0.7039437
0.7039744
0.7040049
0.70403516
0.70406514
0.70409495
0.70412445
0.7041538
0.70418286
0.7042117
0.7042403
0.7042687
0.7042968
0.7043247
0.7043524
0.70437986
0.70440704
0.70443404
0.70446074
0.70448726
0.70451355
0.7045396
0.7045654
0.704591
0.7046163
0.7046414
0.70466626
0.70469093
0.7047153
0.7047395
0.7047634
0.70478714
0.7048106
0.70483387
0.7048569
0.70487964
0.7049022
0.70492446
0.7049465
0.7049684
0.70498997
0.7050113
0.70503247
0.7050534
0.7050741
0.70509446
0.70511466
0.70513463
0.70515436
0.7051739
0.70519316
0.7052122
0.705231
0.70524955
0.7052679
0.70528597
0.70530385
0.7053215
0.7053389
0.70535606
0.705373
0.7053897
0.7054061
0.7054224
0.7054384
0.7054541
0.70546967
0.705485
0.7055
0.70551485
0.70552945
0.7055438
0.70555794
0.70557183
0.70558554
0.70559895
0.7056121
0.7056251
0.7056378
0.7056503
0.7056626
0.7056746
0.7056864
0.70569795
0.7057093
0.7057204
0.7057313
0.7057419
0.70575225
0.70576245
0.70577234
0.70578206
0.70579153
0.7058008
0.7058097
0.7058185
0.705827
0.70583534
0.7058434
0.7058512
0.70585877
0.70586616
0.70587325
0.70588017
0.70588684
0.7058932
0.7058994
0.7059054
0.7059111
0.7059166
0.7059219
0.7059269
0.70593166
0.7059364
0.7059411
0.7059457
0.70595026
0.70595485
0.7059593
0.7059638
0.7059682
0.7059726
0.70597696
0.70598125
0.7059855
0.7059897
0.70599395
0.70599806
0.7060022
0.7060062
0.7060102
0.7060142
0.70601815
0.7060221
0.7060259
0.7060298
0.7060335
0.7060373
0.706041
0.7060446
0.70604825
0.7060518
0.70605534
0.70605886
0.7060623
0.7060657
0.7060691
0.7060724
0.7060757
0.70607895
0.70608217
0.7060853
0.7060885
0.7060916
0.7060946
0.7060976
0.7061006
0.7061035
0.7061064
0.7061093
0.7061121
0.7061148
0.7061176
0.70612025
0.7061229
0.7061255
0.70612806
0.7061306
0.70613307
0.7061355
0.70613796
0.7061403
0.7061426
0.7061449
0.70614713
0.70614934
0.7061515
0.70615363
0.7061557
0.70615774
0.7061598
0.70616174
0.70616364
0.7061655
0.70616734
0.7061691
0.7061709
0.7061726
0.7061743
0.7061759
0.70617753
0.7061791
0.7061806
0.70618206
0.7061835
0.70618486
0.70618623
0.70618755
0.70618886
0.70619005
0.70619124
0.7061924
0.7061935
0.7061946
0.7061956
0.7061966
0.70619756
0.70619845
0.70619935
0.7062001
0.70620096
0.7062017
0.7062024
0.70620304
0.7062037
0.7062043
0.70620483
0.7062053
0.7062058
0.7062062
0.70620656
0.7062069
0.7062072
0.7062075
0.7062077
0.7062079
0.70620805
0.7062081
0.70620817
0.7062082
0.70620817
0.7062081
0.706208
0.7062079
0.7062077
0.70620745
0.7062072
0.7062069
0.70620656
0.70620614
0.7062057
0.70620525
0.7062048
0.70620424
0.70620364
0.706203
0.7062023
0.7062016
0.7062009
0.70620006
0.7061993
0.7061984
0.7061975
0.70619655
0.70619553
0.7061945
0.70619345
0.7061923
0.7061912
0.70619
0.70618874
0.7061875
0.7061861
0.7061848
0.7061834
0.70618194
0.70618045
0.70617896
0.7061774
0.7061758
0.7061742
0.70617247
0.70617074
0.706169
0.7061672
0.7061654
0.70616347
0.70616156
0.7061596
0.7061576
0.70615554
0.70615345
0.70615137
0.70614916
0.70614696
0.70614475
0.7061424
0.7061401
0.7061378
0.70613533
0.7061329
0.7061304
0.7061279
0.7061253
0.7061227
0.7061201
0.7061174
0.70611465
0.70611185
0.70610905
0.7061062
0.7061033
0.7061004
0.7060974
0.7060944
0.70609134
0.70608824
0.7060851
0.7060819
0.7060787
0.7060755
0.70607215
0.7060688
0.7060655
0.706062
0.70605856
0.7060551
0.7060515
0.70604795
0.7060443
0.7060407
0.706037
0.70603323
0.7060295
0.70602566
0.7060218
0.70601785
0.7060139
0.7060099
0.70600593
0.7060019
0.70599777
0.7059936
0.7059894
0.7059852
0.70598096
0.7059766
0.70597225
0.7059679
0.70596343
0.70595896
0.7059545
0.7059499
0.7059453
0.7059407
0.705936
0.7059313
0.7059266
0.70592177
0.70591694
0.70591205
0.70590717
0.7059022
0.7058972
0.7058922
0.70588714
0.705882
0.7058768
0.70587164
0.7058664
0.70586115
0.7058558
0.7058505
0.70584506
0.70583963
0.70583415
0.7058286
0.70582306
0.70581746
0.7058118
0.70580614
0.7058004
0.70579463
0.70578885
0.705783
0.7057771
0.7057712
0.70576525
0.7057592
0.7057532
0.70574707
0.705741
0.7057348
0.7057286
0.70572233
0.7057161
0.70570976
0.7057034
0.70569694
0.7056905
0.705684
0.7056775
0.7056709
0.7056643
0.70565766
0.705651
0.70564425
0.70563745
0.70563066
0.7056238
0.7056169
0.70561
0.705603
0.70559597
0.70558894
0.70558184
0.7055747
0.7055675
0.70556027
0.70555305
0.7055457
0.7055384
0.705531
0.7055236
0.7055161
0.70550865
0.7055011
0.7054935
0.7054859
0.70547825
0.7054705
0.70546275
0.705455
0.7054472
0.7054393
0.7054314
0.7054235
0.7054155
0.70540744
0.7053994
0.7053913
0.7053831
0.70537496
0.70536673
0.70535845
0.7053501
0.70534176
0.7053334
0.70532495
0.7053165
0.70530796
0.70529944
0.70529085
0.7052822
0.7052735
0.7052648
0.70525604
0.7052473
0.7052384
0.7052296
0.70522064
0.7052117
0.7052027
0.70519364
0.7051846
0.70517546
0.7051663
0.7051571
0.70514786
0.70513856
0.70512927
0.7051199
0.7051105
0.7051011
0.7050916
0.70508206
0.70507246
0.70506287
0.70505327
0.70504355
0.70503384
0.70502406
0.7050143
0.7050044
0.70499456
0.7049846
0.70497465
0.70496464
0.70495456
0.7049445
0.70493436
0.7049242
0.704914
0.7049037
0.70489347
0.7048831
0.7048727
0.70486236
0.70485187
0.7048414
0.7048309
0.7048203
0.70480967
0.70479906
0.7047883
0.7047776
0.7047668
0.704756
0.7047452
0.70473427
0.7047233
0.70471233
0.7047013
0.7046903
0.7046792
0.70466805
0.70465684
0.70464563
0.70463437
0.70462304
0.7046117
0.70460033
0.70458895
0.70457745
0.70456594
0.70455444
0.7045428
0.7045311
0.70451915
0.704507
0.7044946
0.704482
0.70446926
0.70445627
0.7044431
0.70442975
0.7044161
0.7044023
0.7043883
0.70437413
0.7043597
0.7043451
0.70433027
0.70431525
0.70430005
0.7042846
0.70426893
0.70425314
0.70423704
0.70422083
0.7042043
0.7041877
0.7041708
0.7041538
0.7041365
0.70411897
0.7041013
0.7040834
0.7040653
0.704047
0.7040285
0.7040098
0.7039909
0.70397174
0.70395243
0.70393294
0.70391315
0.70389324
0.7038731
0.7038528
0.7038322
0.70381147
0.7037905
0.7037693
0.7037479
0.70372635
0.7037046
0.7036826
0.7036604
0.703638
0.7036154
0.7035926
0.7035696
0.7035464
0.703523
0.7034993
0.70347553
0.70345145
0.70342726
0.7034028
0.70337814
0.7033533
0.70332825
0.703303
0.7032775
0.70325184
0.703226
0.70319986
0.7031736
0.7031471
0.7031204
0.7030935
0.7030664
0.7030391
0.7030116
0.70298386
0.70295596
0.7029278
0.70289946
0.70287097
0.7028422
0.70281327
0.7027841
0.70275474
0.7027252
0.7026954
0.70266545
0.7026353
0.7026049
0.7025743
0.7025435
0.7025125
0.7024813
0.7024499
0.7024183
0.7023865
0.7023545
0.70232224
0.7022898
0.70225716
0.7022244
0.7021913
0.70215803
0.7021246
0.702091
0.70205706
0.702023
0.70198876
0.7019543
0.7019196
0.7018847
0.70184964
0.70181435
0.7017788
0.7017431
0.7017072
0.7016711
0.70163476
0.7015983
0.7015615
0.7015246
0.7014875
0.7014501
0.70141256
0.7013748
0.70133686
0.7012987
0.7012603
0.70122176
0.701183
0.70114404
0.7011048
0.7010654
0.70102584
0.700986
0.70094603
0.70090586
0.70086545
0.7008248
0.70078397
0.70074296
0.7007017
0.7006603
0.7006186
0.7005768
0.70053476
0.7004925
0.70045
0.7004074
0.7003645
0.70032144
0.70027816
0.70023465
0.70019096
0.7001471
0.700103
0.70005864
0.7000142
0.6999695
0.6999245
0.6998794
0.6998341
0.6997886
0.6997428
0.6996969
0.6996507
0.6996044
0.69955784
0.69951105
0.6994641
0.69941694
0.69936955
0.699322
0.6992742
0.6992262
0.699178
0.6991296
0.699081
0.6990322
0.6989832
0.69893396
0.69888455
0.6988349
0.69878507
0.69873506
0.6986848
0.6986344
0.6985837
0.6985329
0.6984818
0.69843054
0.69837904
0.69832736
0.6982755
0.6982234
0.69817114
0.6981186
0.69806594
0.69801307
0.69795996
0.6979066
0.6978531
0.6977994
0.69774544
0.6976913
0.69763696
0.6975824
0.6975277
0.69747275
0.6974176
0.69736224
0.6973067
0.6972509
0.69719493
0.6971387
0.69708234
0.6970258
0.696969
0.696912
0.69685477
0.6967974
0.6967398
0.696682
0.6966239
0.6965657
0.6965073
0.6964486
0.6963898
0.6963307
0.6962715
0.69621205
0.6961524
0.69609255
0.69603246
0.6959722
0.6959117
0.695851
0.6957901
0.695729
0.69566774
0.69560623
0.69554454
0.6954826
0.6954205
0.69535816
0.69529563
0.6952329
0.69517
0.69510686
0.6950435
0.69497997
0.6949162
0.69485223
0.6947881
0.6947237
0.6946591
0.6945944
0.69452935
0.6944642
0.6943988
0.6943332
0.6942674
0.6942014
0.6941352
0.69406873
0.69400215
0.69393533
0.6938683
0.69380105
0.69373363
0.693666
0.6935981
0.6935301
0.6934618
0.69339335
0.6933247
0.6932558
0.6931867
0.69311744
0.69304794
0.69297826
0.69290835
0.69283825
0.692768
0.69269747
0.6926267
0.6925558
0.6924847
0.69241333
0.6923418
0.6922701
0.69219816
0.692126
0.6920536
0.6919811
0.6919083
0.69183534
0.69176215
0.6916888
0.6916152
0.69154143
0.6914674
0.69139326
0.6913188
0.69124424
0.69116944
0.6910944
0.6910192
0.6909438
0.69086814
0.69079226
0.69071627
0.69064003
0.69056356
0.6904869
0.69041
0.690333
0.6902557
0.6901782
0.69010055
0.6900227
0.68994457
0.6898663
0.6897878
0.6897091
0.6896302
0.6895511
0.6894718
0.68939227
0.6893125
0.6892326
0.6891525
0.68907213
0.6889916
0.68891084
0.6888299
0.6887487
0.68866736
0.6885858
0.68850404
0.688422
0.6883399
0.68825746
0.6881749
0.6880921
0.6880091
0.6879259
0.6878425
0.68775886
0.68767506
0.687591
0.6875068
0.68742234
0.6873377
0.6872529
0.6871678
0.6870826
0.6869971
0.68691146
0.6868256
0.6867395
0.68665326
0.68656677
0.68648005
0.6863932
0.68630606
0.6862188
0.6861313
0.68604356
0.68595564
0.68586755
0.6857792
0.6856907
0.68560195
0.685513
0.68542385
0.6853345
0.685245
0.6851552
0.68506527
0.6849751
0.6848847
0.6847941
0.68470335
0.68461233
0.6845212
0.68442976
0.68433815
0.68424636
0.6841544
0.6840621
0.68396974
0.6838771
0.6837843
0.68369126
0.683598
0.6835046
0.68341094
0.68331707
0.683223
0.6831288
0.68303466
0.6829408
0.6828472
0.68275386
0.68266076
0.68256795
0.68247545
0.6823832
0.68229115
0.6821994
0.6821079
0.68201673
0.6819258
0.6818351
0.6817447
0.6816546
0.6815647
0.68147504
0.6813857
0.6812966
0.6812078
0.6811192
0.6810309
0.6809429
0.6808551
0.6807676
0.6806804
0.68059343
0.6805067
0.6804203
0.6803341
0.68024814
0.6801625
0.68007714
0.679992
0.67990714
0.67982256
0.6797382
0.6796542
0.6795704
0.6794869
0.6794036
0.67932063
0.6792379
0.6791554
0.6790732
0.67899126
0.6789096
0.6788282
0.67874706
0.6786662
0.6785855
0.6785052
0.67842513
0.6783453
0.67826575
0.6781865
0.67810744
0.67802864
0.6779502
0.67787194
0.677794
0.67771626
0.6776388
0.6775617
0.67748475
0.67740816
0.67733175
0.67725563
0.6771798
0.67710423
0.6770289
0.67695385
0.67687905
0.67680454
0.6767303
0.6766563
0.6765826
0.67650914
0.67643595
0.676363
0.67629033
0.6762179
0.6761458
0.6760739
0.6760023
0.675931
0.67585987
0.67578906
0.67571855
0.6756483
0.67557824
0.6755085
0.675439
0.6753698
0.67530084
0.6752321
0.6751637
0.67509556
0.6750276
0.67496
0.67489266
0.67482555
0.6747587
0.6746921
0.6746258
0.6745598
0.67449397
0.67442846
0.67436326
0.6742982
0.67423356
0.67416906
0.67410487
0.674041
0.6739773
0.6739139
0.6738508
0.6737879
0.6737253
0.67366296
0.6736009
0.6735391
0.6734776
0.6734163
0.6733553
0.67329454
0.67323405
0.67317384
0.6731139
0.6730542
0.6729948
0.67293566
0.6728768
0.6728181
0.6727598
0.67270166
0.67264384
0.67258626
0.672529
0.67247194
0.67241514
0.67235863
0.6723024
0.67224646
0.6721907
0.6721353
0.6720801
0.6720252
0.67197055
0.6719161
0.671862
0.6718082
0.6717546
0.67170125
0.6716482
0.6715954
0.6715429
0.6714906
0.6714386
0.67138684
0.6713354
0.6712842
0.67123324
0.6711826
0.67113215
0.671082
0.67103213
0.6709825
0.6709331
0.6708841
0.67083526
0.6707867
0.6707384
0.67069036
0.6706426
0.6705951
0.67054784
0.6705009
0.6704542
0.6704078
0.6703616
0.6703157
0.67027
0.67022467
0.67017955
0.67013466
0.6700901
0.6700458
0.67000175
0.66995794
0.6699144
0.66987115
0.6698282
0.66978544
0.66974294
0.66970074
0.66965884
0.6696172
0.66957575
0.6695346
0.66949373
0.66945314
0.6694128
0.6693727
0.66933286
0.66929334
0.66925406
0.669215
0.6691763
0.6691378
0.66909957
0.6690616
0.6690239
0.66898644
0.6689493
0.6689124
0.66887575
0.6688394
0.6688033
0.66876745
0.66873187
0.6686965
0.6686615
0.6686267
0.6685922
0.66855794
0.66852397
0.66849023
0.6684568
0.6684236
0.66839063
0.66835797
0.6683256
0.6682935
0.6682616
0.66823
0.66819865
0.6681676
0.6681368
0.66810626
0.668076
0.66804594
0.6680162
0.6679867
0.6679575
0.6679285
0.66789985
0.6678714
0.6678433
0.6678154
0.66778773
0.6677604
0.66773325
0.66770643
0.66767985
0.66765356
0.6676275
0.66760176
0.66757625
0.667551
0.667526
0.6675013
0.66747683
0.6674527
0.66742873
0.66740507
0.6673817
0.6673586
0.6673357
0.6673131
0.6672908
0.6672687
0.66724694
0.66722536
0.6672041
0.6671831
0.66716236
0.6671419
0.66712165
0.66710174
0.6670821
0.66706264
0.6670435
0.6670246
0.66700596
0.6669876
0.66696954
0.6669517
0.66693413
0.66691685
0.6668998
0.66688305
0.66686654
0.66685027
0.6668343
0.6668186
0.6668032
0.666788
0.6667731
0.6667584
0.66674405
0.6667299
0.6667161
0.6667025
0.66668916
0.6666761
0.6666633
0.6666508
0.6666385
0.6666265
0.6666148
0.6666033
0.6665921
0.66658115
0.6665705
0.6665601
0.6665499
0.6665401
0.66653043
0.66652113
0.666512
0.6665032
0.66649467
0.6664864
0.66647834
0.6664706
0.6664631
0.66645586
0.6664489
0.66644216
0.6664357
0.6664296
0.6664237
0.666418
0.66641265
0.6664075
0.6664027
0.6663981
0.6663938
0.66638976
0.66638595
0.66638243
0.6663792
0.6663762
0.6663735
0.666371
0.6663688
0.6663669
0.6663652
0.66636384
0.66636264
0.6663618
0.6663612
0.66636086
0.6663608
0.666361
0.6663614
0.6663621
0.6663631
0.6663644
0.66636586
0.66636765
0.6663697
0.666372
0.66637456
0.6663774
0.6663805
0.66638386
0.6663875
0.66639143
0.66639555
0.6664
0.66640466
0.6664096
0.66641486
0.66642034
0.6664261
0.66643214
0.6664384
0.66644496
0.66645175
0.66645885
0.6664662
0.66647375
0.6664816
0.6664898
0.6664982
0.6665068
0.66651577
0.66652495
0.6665344
0.66654414
0.66655415
0.6665644
0.6665749
0.6665857
0.6665968
0.6666081
0.66661966
0.6666315
0.6666436
0.66665596
0.6666686
0.66668135
0.66669405
0.66670674
0.66671944
0.6667321
0.66674477
0.66675746
0.6667701
0.66678274
0.6667954
0.666808
0.66682065
0.6668333
0.6668459
0.6668585
0.66687113
0.6668837
0.6668963
0.66690886
0.66692144
0.666934
0.66694653
0.6669591
0.6669716
0.66698414
0.66699666
0.6670092
0.6670217
0.6670342
0.66704667
0.6670592
0.66707164
0.6670841
0.66709656
0.667109
0.66712147
0.6671339
0.6671463
0.6671588
0.6671712
0.6671836
0.667196
0.6672084
0.6672208
0.6672331
0.6672455
0.66725785
0.6672702
0.6672826
0.6672949
0.6673072
0.66731954
0.6673319
0.66734415
0.6673565
0.66736877
0.66738105
0.6673933
0.6674056
0.6674178
0.6674301
0.6674423
0.6674546
0.6674668
0.66747904
0.66749126
0.6675035
0.66751564
0.66752785
0.66754
0.6675522
0.6675644
0.66757655
0.66758865
0.6676008
0.66761297
0.66762507
0.6676372
0.6676493
0.6676614
0.6676735
0.6676856
0.6676977
0.66770977
0.66772187
0.6677339
0.66774595
0.667758
0.66777
0.66778207
0.6677941
0.6678061
0.6678181
0.6678301
0.6678421
0.6678541
0.66786605
0.66787803
0.66789
0.66790193
0.6679139
0.66792583
0.66793776
0.6679497
0.6679616
0.6679735
0.66798544
0.6679973
0.66800916
0.6680211
0.66803294
0.6680448
0.66805667
0.66806847
0.66808033
0.6680922
0.668104
0.6681158
0.6681276
0.6681394
0.6681512
0.668163
0.66817474
0.66818655
0.6681983
0.66821
0.6682218
0.6682335
0.66824526
0.668257
0.6682687
0.6682804
0.6682921
0.6683038
0.6683155
0.66832715
0.66833884
0.66835046
0.66836214
0.66837376
0.6683854
0.66839707
0.6684087
0.66842026
0.6684319
0.6684435
0.66845506
0.6684667
0.66847825
0.6684898
0.6685014
0.66851294
0.66852444
0.668536
0.6685475
0.6685591
0.6685706
0.6685821
0.6685936
0.6686051
0.66861653
0.66862804
0.6686395
0.668651
0.6686624
0.6686739
0.6686853
0.66869676
0.66870815
0.6687196
0.668731
0.66874236
0.66875374
0.6687651
0.6687765
0.6687879
0.6687993
0.6688106
0.668822
0.6688333
0.66884464
0.66885597
0.6688673
0.66887856
0.6688899
0.66890115
0.6689125
0.66892374
0.668935
0.66894627
0.66895753
0.66896874
0.66898
0.6689912
0.6690025
0.6690137
0.6690249
0.6690361
0.6690473
0.66905844
0.66906965
0.6690808
0.66909194
0.6691031
0.66911423
0.6691254
0.6691365
0.6691477
0.66915876
0.6691699
0.669181
0.6691921
0.66920316
0.66921425
0.6692253
0.66923636
0.6692474
0.6692585
0.6692695
0.6692805
0.66929156
0.6693026
0.66931355
0.6693246
0.66933554
0.6693466
0.66935754
0.6693685
0.6693795
0.66939044
0.66940135
0.6694123
0.6694232
0.66943413
0.66944504
0.66945595
0.66946685
0.66947776
0.66948867
0.6694995
0.6695104
0.6695213
0.6695321
0.66954297
0.6695538
0.6695646
0.66957545
0.66958624
0.6695971
0.6696079
0.66961867
0.66962945
0.66964024
0.669651
0.66966176
0.6696725
0.6696833
0.669694
0.66970474
0.66971546
0.6697262
0.66973686
0.6697476
0.66975826
0.6697689
0.66977966
0.6697903
0.66980094
0.6698116
0.6698223
0.6698329
0.66984355
0.66985416
0.6698648
0.6698754
0.669886
0.6698966
0.66990715
0.66991776
0.6699283
0.66993886
0.6699494
0.66995996
0.6699705
0.66998106
0.66999155
0.6700021
0.6700126
0.6700231
0.6700336
0.67004406
0.67005455
0.670065
0.6700755
0.6700859
0.6700964
0.6701068
0.67011726
0.6701277
0.67013806
0.6701485
0.6701589
0.6701693
0.67017967
0.67019004
0.6702004
0.6702108
0.67022115
0.67023146
0.67024183
0.67025214
0.67026246
0.67027277
0.6702831
0.6702934
0.6703037
0.67031395
0.67032427
0.6703345
0.67034477
0.670355
0.6703653
0.6703755
0.6703858
0.670396
0.6704062
0.6704164
0.6704266
0.6704368
0.670447
0.6704572
0.6704673
0.6704775
0.67048764
0.6704978
0.67050797
0.6705181
0.6705282
0.6705383
0.67054844
0.6705585
0.67056865
0.6705787
0.6705888
0.67059886
0.67060894
0.67061895
0.670629
0.67063904
0.6706491
0.6706591
0.67066914
0.67067915
0.6706891
0.6706991
0.67070913
0.6707191
0.67072904
0.670739
0.67074895
0.6707589
0.67076886
0.6707788
0.6707887
0.67079866
0.67080855
0.67081845
0.67082834
0.67083824
0.67084813
0.67085797
0.67086786
0.6708777
0.67088753
0.67089736
0.6709072
0.67091703
0.67092687
0.67093664
0.6709465
0.67095625
0.670966
0.6709758
0.6709856
0.67099535
0.67100513
0.67101485
0.6710246
0.67103434
0.67104405
0.67105377
0.6710635
0.6710732
0.67108285
0.67109257
0.6711022
0.6711119
0.67112154
0.6711312
0.67114085
0.6711505
0.67116016
0.67116976
0.67117935
0.67118895
0.67119855
0.6712081
0.6712176
0.6712271
0.6712366
0.67124605
0.67125547
0.6712648
0.6712742
0.67128354
0.67129284
0.67130214
0.67131144
0.6713207
0.67132986
0.67133904
0.6713482
0.67135733
0.67136645
0.6713756
0.67138463
0.67139363
0.6714027
0.67141163
0.67142063
0.6714295
0.67143846
0.67144734
0.6714562
0.67146504
0.6714738
0.6714826
0.6714914
0.6715001
0.6715088
0.6715175
0.67152613
0.6715348
0.67154336
0.67155194
0.67156047
0.671569
0.6715775
0.671586
0.67159444
0.67160285
0.67161125
0.67161965
0.671628
0.6716363
0.67164457
0.67165285
0.6716611
0.6716693
0.67167753
0.6716857
0.6716938
0.67170197
0.67171
0.6717181
0.67172617
0.67173415
0.67174214
0.6717501
0.67175806
0.671766
0.67177385
0.6717817
0.6717895
0.67179734
0.67180514
0.6718129
0.67182064
0.6718283
0.671836
0.6718437
0.67185134
0.6718589
0.6718665
0.67187405
0.6718816
0.67188907
0.6718966
0.671904
0.6719115
0.67191887
0.67192626
0.6719336
0.6719409
0.6719482
0.67195547
0.67196274
0.67196995
0.67197716
0.6719843
0.67199147
0.6719986
0.6720057
0.67201275
0.67201984
0.6720268
0.67203385
0.6720408
0.67204773
0.67205465
0.67206156
0.6720684
0.6720753
0.67208207
0.67208886
0.6720956
0.6721024
0.67210907
0.67211574
0.6721224
0.6721291
0.67213565
0.67214227
0.6721488
0.6721554
0.6721619
0.6721684
0.6721748
0.67218125
0.6721876
0.672194
0.6722004
0.6722067
0.672213
0.6722193
0.67222553
0.6722318
0.672238
0.6722442
0.67225033
0.67225647
0.67226255
0.6722686
0.67227465
0.67228067
0.6722867
0.67229265
0.6722986
0.6723045
0.6723104
0.6723163
0.67232215
0.672328
0.6723338
0.67233956
0.6723453
0.672351
0.67235667
0.6723624
0.672368
0.6723736
0.6723792
0.6723848
0.6723903
0.6723958
0.6724013
0.6724068
0.6724122
0.67241764
0.672423
0.67242837
0.67243373
0.67243904
0.6724443
0.6724496
0.6724548
0.67246
0.6724652
0.67247033
0.67247546
0.6724806
0.67248565
0.6724907
0.6724957
0.6725007
0.67250574
0.6725107
0.67251563
0.6725205
0.6725254
0.67253023
0.67253506
0.67253983
0.67254466
0.67254937
0.6725541
0.6725588
0.6725635
0.67256814
0.67257273
0.6725773
0.6725819
0.67258644
0.672591
0.67259544
0.6725999
0.6726044
0.6726088
0.6726132
0.67261755
0.6726219
0.6726262
0.6726305
0.6726348
0.672639
0.6726432
0.6726474
0.6726515
0.6726557
0.6726598
0.67266387
0.6726679
0.672672
0.67267597
0.67267996
0.67268395
0.6726879
0.67269176
0.67269564
0.6726995
0.6727033
0.67270714
0.6727109
0.67271465
0.6727184
0.6727221
0.6727258
0.67272943
0.67273307
0.67273664
0.6727402
0.6727438
0.6727473
0.6727508
0.6727543
0.67275774
0.67276114
0.67276454
0.67276794
0.6727713
0.67277455
0.6727779
0.6727811
0.6727844
0.6727876
0.67279077
0.6727939
0.6727971
0.6728002
0.6728033
0.6728064
0.6728094
0.6728124
0.6728154
0.67281836
0.6728213
0.6728242
0.6728271
0.67283
0.6728328
0.6728356
0.6728384
0.67284113
0.6728439
0.67284656
0.67284924
0.6728519
0.67285454
0.67285717
0.6728597
0.6728623
0.6728648
0.6728673
0.6728698
0.67287225
0.6728747
0.6728771
0.67287946
0.6728818
0.6728841
0.67288643
0.6728887
0.67289096
0.67289317
0.6728954
0.6728975
0.67289966
0.6729018
0.6729039
0.672906
0.672908
0.67291003
0.672912
0.67291397
0.67291594
0.67291784
0.67291975
0.6729216
0.67292345
0.67292523
0.672927
0.6729288
0.67293054
0.67293227
0.67293394
0.6729356
0.6729372
0.6729388
0.67294043
0.672942
0.67294353
0.672945
0.6729465
0.67294794
0.6729494
0.6729508
0.6729522
0.67295355
0.67295486
0.67295617
0.6729575
0.67295873
0.6729599
0.6729611
0.6729623
0.67296344
0.6729646
0.6729657
0.6729668
0.6729678
0.6729688
0.6729698
0.6729708
0.6729717
0.6729727
0.6729736
0.6729744
0.6729753
0.6729761
0.6729769
0.6729776
0.6729784
0.6729791
0.67297983
0.6729805
0.6729811
0.67298174
0.67298234
0.6729829
0.6729834
0.67298394
0.6729844
0.6729849
0.6729853
0.67298573
0.6729861
0.67298645
0.6729868
0.6729871
0.6729874
0.67298764
0.6729879
0.67298806
0.6729883
0.6729884
0.67298853
0.67298865
0.6729887
0.6729888
0.67298883
0.67298883
0.6729888
0.6729888
0.67298865
0.6729886
0.6729884
0.6729883
0.6729881
0.67298794
0.6729877
0.67298746
0.67298716
0.67298687
0.6729865
0.67298615
0.6729858
0.6729854
0.67298496
0.6729845
0.672984
0.6729835
0.672983
0.6729824
0.6729818
0.6729812
0.67298055
0.6729799
0.67297924
0.6729785
0.6729777
0.67297685
0.6729759
0.67297494
0.6729739
0.6729728
0.6729716
