CH4,CH5,CH6,CH7,CH8,CH9,CH10,CH11,CH12,CH13,CH14,CH15,CH16,CH17,CH18,CH19
4.1754632,0.85076028,0.38049695,0.77172583,0.89557719,0.40310258,0.56909412,0.95586228,0.43630278,0.81097865,1.50354695,0.76795399,0.47168878,1.54233479,1.21328461,-0.0482255
4.33312941,0.89989626,0.38646203,0.71187979,0.93610936,0.38708407,0.56934983,0.95726264,0.42494622,0.80988246,1.54637825,0.80487972,0.43914098,1.65011525,1.2221998,-0.03033577
4.17144632,0.92475969,0.37284794,0.74836439,0.99332654,0.39150044,0.59263462,0.98181021,0.44647977,0.8285616,1.5731281,0.76663351,0.46273673,1.64133203,1.2324959,-0.02931967
4.29532766,0.9063614,0.38464078,0.7650001,0.96138948,0.39589253,0.58506042,0.97755891,0.44573015,0.82133639,1.55645001,0.78282928,0.46775618,1.60082448,1.22357929,-0.03215721
4.34791088,0.86651438,0.37925416,0.75828588,0.90775591,0.38404211,0.57290226,0.95925236,0.4335072,0.8177613,1.51933277,0.78746861,0.45742571,1.56086302,1.21898019,-0.02931967
4.25167465,0.81699049,0.37735322,0.75762916,0.84586936,0.38773283,0.5673908,0.93680131,0.42230874,0.81180501,1.48782051,0.78467721,0.44981784,1.59750092,1.205531,-0.03285788
4.29957533,0.91711771,0.38034603,0.7308709,0.97427261,0.39540383,0.58076847,0.96202695,0.4376629,0.82805675,1.56721461,0.80941391,0.4547478,1.64156902,1.22875953,-0.02806731
4.27659512,0.90368801,0.38798705,0.74544877,0.95563167,0.37979981,0.5770961,0.95647323,0.43788901,0.82024646,1.54988062,0.78175223,0.46200722,1.60680306,1.2315191,-0.02583723
4.13477039,0.85360074,0.37720257,0.75043452,0.89447045,0.3911255,0.56909412,0.94041026,0.43933386,0.8186512,1.50981939,0.79149103,0.4629035,1.55420506,1.22940183,-0.03597604
4.24746513,0.80236542,0.36980695,0.75143588,0.83651036,0.38542193,0.56140608,0.91035944,0.41961586,0.80255985,1.45987034,0.78199309,0.45785105,1.50040507,1.21980667,-0.04473174
4.27659512,0.8700543,0.38474125,0.68092501,0.90479696,0.36705783,0.55834156,0.90914696,0.40910468,0.79570913,1.50561452,0.80507058,0.43591836,1.60142601,1.21026635,-0.03884691
4.27031994,0.85118824,0.38036504,0.73342204,0.89675969,0.39734933,0.57195365,0.91768688,0.45495179,0.81659132,1.50281453,0.83615106,0.45137823,1.59682012,1.2199291,-0.03860596
4.28069162,0.82498771,0.38313743,0.73846489,0.86039144,0.3753264,0.56422961,0.908912,0.4314557,0.80844563,1.47505713,0.81827313,0.46084264,1.5574975,1.21860433,-0.04422956
4.37745714,0.78394771,0.37493861,0.72076184,0.80922282,0.3718451,0.54982293,0.8802613,0.42575347,0.79797959,1.43772829,0.78746861,0.45277065,1.51125002,1.21099865,-0.04919758
4.13875914,0.75430298,0.37262446,0.70605779,0.76736313,0.35920483,0.55393237,0.86335504,0.42575347,0.79498875,1.42351997,0.79779416,0.438274,1.56866455,1.19992518,-0.05228165
4.3520627,0.82068515,0.36878845,0.68923753,0.8571282,0.37559956,0.54803377,0.86577183,0.44542572,0.79594707,1.45331264,0.79533559,0.46017921,1.57165933,1.22203755,-0.04773283
4.27659512,0.79132074,0.37379459,0.71017164,0.82812989,0.37659228,0.55269217,0.86127359,0.45025113,0.78349298,1.43282664,0.78724444,0.45790038,1.54066563,1.20742869,-0.05758136
4.31838942,0.74989474,0.36618206,0.7020905,0.77523071,0.3773697,0.55171663,0.84659457,0.438135,0.77906436,1.3936609,0.79525304,0.4505159,1.50218344,1.20093536,-0.05873135
4.28903055,0.7105096,0.36013466,0.69934899,0.72039241,0.3677299,0.53711528,0.8312797,0.42879954,0.7739408,1.36717093,0.81914485,0.4421311,1.53902686,1.19883621,-0.06061259
4.26609564,0.79179263,0.36951128,0.66999608,0.83453834,0.37936959,0.53976858,0.84421235,0.44140175,0.79819638,1.43081105,0.81931996,0.44403866,1.58223188,1.2151345,-0.04007255
4.08832216,0.77999884,0.38095316,0.70514005,0.81550735,0.37585825,0.54063064,0.85099268,0.44564959,0.79378897,1.41152573,0.76266402,0.44379082,1.54155052,1.20677674,-0.06005844
4.29532766,0.7425158,0.35395974,0.69255608,0.7670384,0.38511258,0.53222871,0.83830881,0.42746136,0.77753252,1.3796277,0.79971683,0.44552174,1.49777734,1.20764899,-0.06295519
4.20824242,0.70335603,0.35978669,0.69902015,0.71722043,0.36870965,0.53269464,0.82020682,0.41013932,0.77415377,1.33780241,0.79548252,0.45085394,1.44847023,1.20605659,-0.06755287
4.37328625,0.78322041,0.35993609,0.66223812,0.81705433,0.37463975,0.53100103,0.84360218,0.42151073,0.77836114,1.40569782,0.7680676,0.43570593,1.5830462,1.2093941,-0.05098705
4.22889996,0.78736299,0.37952846,0.69514024,0.82466561,0.38247007,0.54607922,0.86143291,0.42791894,0.78897333,1.41328585,0.78600657,0.44269484,1.56444502,1.20440793,-0.05561019
4.27031994,0.75909549,0.37129793,0.70600533,0.7980178,0.38095126,0.53599578,0.8604582,0.41548863,0.78610212,1.39543712,0.77202088,0.44304276,1.52202821,1.20340157,-0.05983803
4.13477039,0.72089183,0.35414872,0.70588481,0.75829703,0.38626054,0.52326715,0.84949702,0.4194774,0.78323317,1.36491799,0.82176304,0.44007218,1.48039854,1.19932806,-0.06738097
4.13477039,0.72111529,0.35549578,0.68397427,0.7347486,0.3678678,0.5253464,0.84825653,0.40875098,0.77561462,1.37279809,0.7899726,0.41845459,1.56445289,1.20550418,-0.06057424
4.1286602,0.79838341,0.35184196,0.6850155,0.86299378,0.39593577,0.52859819,0.87936229,0.41529337,0.78959185,1.4315033,0.79487097,0.43556792,1.57959008,1.20346844,-0.054208
4.28069162,0.78485322,0.36255947,0.70560598,0.84492528,0.36761349,0.53404284,0.88883835,0.40772781,0.78396976,1.42296243,0.77346367,0.43257961,1.5509845,1.20723867,-0.0501606
4.28069162,0.75235289,0.36749408,0.70919305,0.79955959,0.37709045,0.53826571,0.88171619,0.41435677,0.79051399,1.39562261,0.79053062,0.43242905,1.50639999,1.21108913,-0.05991616
4.29532766,0.71517855,0.35805735,0.71972883,0.75478792,0.35326672,0.52735275,0.87029314,0.40073478,0.78359002,1.35967612,0.77535427,0.43242905,1.45193362,1.21173084,-0.06172341
4.31000423,0.79830384,0.36806002,0.68034482,0.86066753,0.36968601,0.53159201,0.89237797,0.39329508,0.78589064,1.42848599,0.80323797,0.4201808,1.57294345,1.2182889,-0.05171853
4.21444464,0.79403102,0.38007796,0.7225374,0.86403072,0.36271814,0.53730041,0.91267908,0.41213146,0.80193889,1.44055259,0.78324765,0.44403866,1.56289923,1.22132444,-0.04925676
4.08832216,0.77242452,0.36190987,0.72881162,0.84060508,0.36926585,0.55045247,0.90117544,0.40308577,0.7934401,1.41530013,0.76845872,0.4438999,1.51583385,1.22169435,-0.05077066
4.28903055,0.73891276,0.36235338,0.72337848,0.79889143,0.38956925,0.5427621,0.89285064,0.40443572,0.7884053,1.38923359,0.80835247,0.44090146,1.47996652,1.20639575,-0.06201402
4.24122381,0.77389461,0.36299622,0.67981398,0.82700557,0.35958317,0.53483611,0.89982444,0.38785478,0.78897333,1.42362821,0.78696251,0.41825244,1.57300782,1.21074903,-0.05149629
4.18981266,0.80010337,0.36291814,0.7128337,0.88511777,0.37041816,0.5430429,0.91865146,0.42713594,0.79315382,1.44497252,0.77881497,0.44183609,1.5548842,1.20967579,-0.04237385
4.28069162,0.78823698,0.36624357,0.73178488,0.86332685,0.39569905,0.55426949,0.92663658,0.41467726,0.80829525,1.4324255,0.80574429,0.44624358,1.52039659,1.22325647,-0.04476459
4.26609564,0.75063759,0.36552826,0.73631293,0.81799132,0.36091954,0.54558265,0.90629327,0.40397659,0.79892486,1.39573431,0.77119774,0.4449448,1.47515166,1.22252107,-0.04999454
4.28903055,0.7153312,0.36187837,0.73199695,0.76643509,0.37302762,0.54309464,0.89292973,0.39873117,0.79329288,1.37696528,0.8154946,0.42904323,1.53060961,1.21476674,-0.05293497
4.17144632,0.82596141,0.38532403,0.717134,0.90961605,0.36733079,0.55903679,0.92421097,0.410238,0.79303199,1.45387483,0.77304232,0.44925809,1.56824613,1.22832417,-0.03345303
4.18981266,0.81635565,0.37784693,0.73123848,0.90261877,0.35957694,0.55597651,0.92668945,0.42567417,0.79907304,1.4434253,0.74466789,0.45007339,1.53606677,1.22426713,-0.04067907
4.29957533,0.78069347,0.38624892,0.73989511,0.85486656,0.37636885,0.55649263,0.92158699,0.4067384,0.79617238,1.41766715,0.75718439,0.46053436,1.49216938,1.22357929,-0.045552
4.07831764,0.74011272,0.38063678,0.73848957,0.80331743,0.38183832,0.55500758,0.90257436,0.41314688,0.79858679,1.37430191,0.7984485,0.46551982,1.45393586,1.23426116,-0.05819194
4.20002842,0.84936094,0.37508598,0.71921259,0.924218,0.38609633,0.56593359,0.92746586,0.41912431,0.81057411,1.45583081,0.77615142,0.44479987,1.58196998,1.2345469,-0.04180373
4.31412649,0.85185897,0.38840935,0.74522394,0.93350112,0.40218219,0.57983428,0.94467682,0.43505818,0.80830604,1.45708442,0.78576803,0.45601925,1.56282294,1.23704612,-0.04230058
4.32472134,0.83168906,0.39754418,0.75101131,0.88889295,0.41182864,0.58057004,0.93958664,0.43472922,0.79681391,1.42698824,0.82502359,0.4695726,1.5215224,1.23426116,-0.07220716
4.29532766,0.8540585,0.39039341,0.75487518,0.75358891,0.3589676,0.57694316,1.01401246,0.56937152,0.72170961,1.34676898,0.9445402,0.59528846,1.50778341,1.22519135,-0.09961148
4.1754632,0.91440159,0.39331555,0.67192799,0.83205777,0.19928682,0.65426803,1.06751633,0.71681374,0.75733542,1.43550837,0.84608096,0.54119444,1.62168896,1.22802305,-0.07898965
4.21444464,0.92163903,0.39809558,0.70397133,0.86814523,0.2100872,0.67145199,1.0986371,0.71885371,0.75721955,1.43992352,0.84837288,0.55986565,1.62859797,1.22514284,-0.09231628
4.0922761,0.8829459,0.40938491,0.71474165,0.85645217,0.33285409,0.64744872,1.07540274,0.63096839,0.78372413,1.44211912,0.8423447,0.54885495,1.58751142,1.22256827,-0.07298974
4.21862888,0.84749752,0.39696157,0.7068972,0.80918789,0.34325361,0.62706482,1.04424119,0.55849046,0.77750838,1.41740692,0.87358618,0.53670043,1.54849958,1.22127604,-0.05922988
4.1205678,0.8217721,0.39562029,0.69584763,0.76740265,0.36140206,0.61793423,1.00365829,0.54768342,0.77715272,1.40124977,0.88786197,0.49149957,1.61432159,1.22115874,-0.05690198
4.1205678,0.92482096,0.41044885,0.68223077,0.9035632,0.36565277,0.62955064,1.01836741,0.54582429,0.78865713,1.46150839,0.85843927,0.512734,1.64532769,1.22640598,-0.04389949
4.29532766,0.91499907,0.40068907,0.69393861,0.8883549,0.35990739,0.62620968,1.00277781,0.54649627,0.78205323,1.45119059,0.85567224,0.51254255,1.61244047,1.22177696,-0.05153476
4.13875914,0.88198417,0.40687776,0.69860381,0.83997065,0.37201154,0.61314189,0.97628385,0.54321891,0.77712882,1.41942465,0.87557727,0.5113402,1.58537078,1.23456335,-0.04575691
4.24746513,0.84474152,0.40608844,0.70476067,0.79056251,0.37013105,0.61766124,0.95012707,0.52071637,0.77647185,1.38531816,0.85924065,0.51585609,1.5772382,1.22350824,-0.03880769
4.03626919,0.94642478,0.4129737,0.69745398,0.88418931,0.35437745,0.62169129,0.96567774,0.55003107,0.75940412,1.43357825,0.94285905,0.49476761,1.6727196,1.21392953,-0.02238117
4.16115189,0.91930956,0.3960793,0.69746131,0.89496464,0.33745006,0.63803428,0.95284891,0.56392938,0.78263927,1.44779801,0.85816258,0.50372958,1.64485967,1.21667981,-0.03594417
4.19384289,0.8912335,0.40421191,0.71210057,0.8561253,0.37765607,0.61683327,0.9451381,0.54522234,0.77916414,1.41470122,0.8578496,0.50766766,1.61519158,1.22901273,-0.03448913
4.32472134,0.84622079,0.40300825,0.70914042,0.81281769,0.36161178,0.60978293,0.91745049,0.52318984,0.78263927,1.39254129,0.81571776,0.48765844,1.65076017,1.20774138,-0.04489037
4.31838942,0.94015837,0.41678098,0.69195509,0.92726678,0.3896088,0.61000329,0.93861169,0.53643793,0.77892202,1.45246351,0.89550132,0.50940973,1.71016788,1.21469355,-0.04033841
4.25167465,0.92185056,0.41262141,0.7154876,0.92494667,0.38055226,0.61714453,0.92271233,0.5512085,0.79606426,1.44394648,0.84038514,0.49855301,1.66957152,1.21322727,-0.04389261
4.22268057,0.87201113,0.40783796,0.74431098,0.88403302,0.37859985,0.6127488,0.91107792,0.52300638,0.77586561,1.40676677,0.80455381,0.51284504,1.63046992,1.19594288,-0.066435
4.1105032,0.8278048,0.40338892,0.73306543,0.83227098,0.36624917,0.59536308,0.89004028,0.51395386,0.78321052,1.37002444,0.86465257,0.518897,1.60442221,1.19961166,-0.04608495
4.14687872,0.92309892,0.41635326,0.71391261,0.95358288,0.39581716,0.60189593,0.92439789,0.51606488,0.78580385,1.46067441,0.83603066,0.49511063,1.74817538,1.19254267,-0.04217716
4.25167465,0.92304683,0.41128597,0.72863591,0.95861685,0.3850396,0.59337282,0.93558908,0.5247491,0.79181629,1.46418774,0.79981548,0.50892723,1.7103709,1.19353783,-0.0613877
4.14687872,0.88926911,0.40252432,0.72774684,0.91630846,0.39918149,0.59264272,0.93289042,0.50922668,0.78692722,1.43944681,0.85898793,0.51761436,1.66862452,1.20257998,-0.05531384
4.20420074,0.84780276,0.38914263,0.7232604,0.87102431,0.39817926,0.59451634,0.91926026,0.51563817,0.77816069,1.40213704,0.81140202,0.51761436,1.62628198,1.19860876,-0.05386886
4.22268057,0.92484444,0.39174074,0.68341815,0.96582121,0.3999531,0.58356637,0.93430424,0.51093096,0.79044855,1.47685933,0.86594826,0.49063328,1.75804222,1.18766677,-0.04810116
4.28492785,0.92743319,0.39926496,0.73243266,0.98404902,0.40449256,0.59448701,0.95809221,0.52710795,0.80157834,1.49362981,0.83226806,0.51453215,1.74645925,1.19910812,-0.04316762
4.19384289,0.89923775,0.40439239,0.73573053,0.95848185,0.38564157,0.58909148,0.95434874,0.50668007,0.80207133,1.4773984,0.85729885,0.5114271,1.70050526,1.2001487,-0.04649635
4.1856513,0.85552102,0.3900345,0.73460776,0.91776675,0.40520474,0.57842249,0.9413628,0.49492383,0.79391325,1.44947803,0.84191328,0.50072718,1.65982461,1.20043302,-0.04444428
4.37745714,0.84520996,0.40491411,0.7309584,0.88708562,0.4288477,0.57778186,0.94640869,0.49030778,0.80378717,1.45701325,0.81742704,0.49534914,1.73822224,1.19696033,-0.03338495
4.25167465,0.94258106,0.36556992,0.69817817,1.02746809,0.3958402,0.56337941,0.95743161,0.46231228,0.79016232,1.52198017,0.8471902,0.48560458,1.73843157,1.21181762,-0.02230344
4.24122381,0.91797507,0.384314,0.74124521,1.00442755,0.39941755,0.57713503,0.97059321,0.47825912,0.80050397,1.51195467,0.87324947,0.47842377,1.70407414,1.19649923,-0.03371378
4.34362411,0.87405372,0.3698459,0.73091048,0.96649605,0.39519477,0.56965369,0.95552313,0.45044878,0.79305333,1.48733342,0.85042274,0.47619337,1.66427982,1.1956352,-0.03077077
4.27031994,0.83943504,0.37585223,0.75215858,0.91190463,0.41405228,0.5679059,0.95649141,0.44581732,0.7906602,1.4490664,0.820979,0.4633511,1.61449444,1.18971479,-0.03821041
4.18981266,0.92410433,0.38393754,0.72226459,1.02364576,0.39027897,0.56946504,0.96912515,0.42833436,0.80316544,1.52457368,0.82565689,0.45756072,1.73337567,1.19135594,-0.0301978
4.28492785,0.93096775,0.39898524,0.77060467,1.02481246,0.39154807,0.58330154,0.98548353,0.45411676,0.79353613,1.52695119,0.83415145,0.44932017,1.70385647,1.18898785,-0.03272162
4.28492785,0.89255393,0.37965414,0.75856197,0.98406589,0.37808263,0.58163518,0.97452921,0.45668599,0.80449021,1.4988935,0.82664412,0.45809427,1.65549171,1.19401407,-0.0413275
4.27031994,0.85535461,0.38151887,0.75956267,0.93448502,0.38381955,0.56503141,0.95337921,0.43891639,0.78752613,1.46036625,0.80728686,0.45931539,1.60205114,1.190413,-0.03785758
4.25167465,0.91854507,0.37757498,0.6917941,0.9974317,0.37931454,0.56960887,0.95466882,0.42855188,0.79068279,1.50629508,0.78509814,0.44918838,1.70390642,1.1876967,-0.03814027
4.15714598,0.92913359,0.37039217,0.73642886,1.03037727,0.37415692,0.58653116,0.96419537,0.43375942,0.79510134,1.5157963,0.80427438,0.46551982,1.70364654,1.19660676,-0.02480046
4.29957533,0.90638578,0.39273486,0.76631773,0.99637377,0.37854114,0.58923209,0.96708328,0.45950654,0.79594707,1.49859929,0.79740024,0.46471936,1.65542424,1.19508386,-0.05069112
4.2371583,0.86634439,0.36826986,0.74516326,0.94545549,0.36188167,0.57204562,0.94182712,0.44037008,0.79786384,1.46482861,0.81282032,0.46656236,1.60455859,1.20677614,-0.04649635
4.21444464,0.80880046,0.37943444,0.75879759,0.87447339,0.38271716,0.57474005,0.92147344,0.43825319,0.78636289,1.41083705,0.81452757,0.46311653,1.58699465,1.18323207,-0.05173274
4.29957533,0.91036564,0.37476704,0.72328228,0.99593884,0.37228265,0.57479078,0.93498373,0.43294856,0.78993559,1.49431109,0.88921678,0.46634758,1.68347764,1.19623911,-0.03178064
4.36259413,0.90922207,0.38287181,0.74263394,0.98516732,0.39612317,0.57539105,0.93154305,0.4276998,0.79006356,1.48335433,0.82510602,0.4709256,1.64023268,1.20540094,-0.04262244
4.28903055,0.86140996,0.37872007,0.75326234,0.92998868,0.38740909,0.56994915,0.919635,0.41881421,0.78385049,1.44178665,0.8277151,0.4800435,1.58088589,1.19989872,-0.05467987
4.29957533,0.81441367,0.37364647,0.74334997,0.86585182,0.41169846,0.56619412,0.89589602,0.41487646,0.7729671,1.39404333,0.79854751,0.47353396,1.52540064,1.19817781,-0.06193615
4.430861,0.83112812,0.38746455,0.68365061,0.87568367,0.40047035,0.5595749,0.88093716,0.41143703,0.77405393,1.41486084,0.79643929,0.43765759,1.62512183,1.18413663,-0.05475178
4.28903055,0.85856205,0.37772989,0.71579897,0.92797369,0.40582091,0.5598864,0.89282125,0.42440596,0.78599572,1.4268471,0.81770372,0.47170046,1.60362518,1.19104838,-0.06087902
4.31000423,0.83055198,0.3787252,0.72939509,0.88873625,0.38470471,0.58041346,0.88232607,0.42799902,0.76963484,1.3989011,0.80598456,0.47791758,1.56393087,1.190148,-0.05545167
4.41150713,0.78188759,0.36726835,0.72519952,0.82385164,0.40254733,0.56009018,0.86049348,0.42609516,0.76843834,1.35954785,0.77255803,0.47152516,1.51816607,1.18392825,-0.05818347
4.33727026,0.72001553,0.37820658,0.73036414,0.75900555,0.41032642,0.55055869,0.84796762,0.42609808,0.76868218,1.31789482,0.8038314,0.4526172,1.51348352,1.18179655,-0.06253479
4.26201057,0.80381888,0.37935996,0.70157361,0.85386318,0.39922124,0.55498743,0.84918225,0.42834869,0.76485699,1.37001169,0.78957105,0.45748574,1.57536674,1.18877625,-0.06183949
4.08832216,0.7886501,0.37536085,0.70658499,0.83140075,0.40641269,0.5598864,0.8516205,0.41969085,0.76441777,1.35404396,0.79000479,0.45616171,1.53927958,1.1819135,-0.06276236
4.31412649,0.74248356,0.37185776,0.71229011,0.77121216,0.39134729,0.53898633,0.83419311,0.42137688,0.75423902,1.31590199,0.77740133,0.4572365,1.47673345,1.18164086,-0.07433575
