CH11
0.7024147
0.7024103
0.7024057
0.70240086
0.70239586
0.7023906
0.7023852
0.7023796
0.70237374
0.70236766
0.7023614
0.70235497
0.7023483
0.70234144
0.70233434
0.7023271
0.70231956
0.7023119
0.70230395
0.70229584
0.7022875
0.702279
0.70227027
0.7022613
0.70225215
0.70224285
0.70223325
0.7022235
0.7022135
0.70220333
0.70219296
0.7021824
0.70217156
0.7021606
0.7021494
0.70213795
0.7021263
0.7021145
0.7021025
0.70209026
0.7020778
0.70206517
0.7020523
0.70203924
0.70202595
0.7020125
0.7019988
0.7019849
0.7019708
0.7019565
0.70194197
0.70192724
0.70191234
0.7018972
0.7018819
0.7018663
0.7018506
0.7018346
0.70181847
0.70180213
0.70178556
0.70176876
0.70175177
0.7017346
0.7017172
0.70169955
0.7016818
0.70166373
0.70164555
0.7016271
0.7016085
0.70158964
0.7015706
0.7015513
0.7015318
0.70151216
0.7014923
0.7014722
0.70145196
0.70143145
0.7014108
0.70138985
0.70136875
0.7013474
0.7013259
0.70130414
0.7012822
0.7012601
0.70123774
0.70121515
0.7011924
0.70116943
0.70114625
0.7011229
0.7010993
0.7010755
0.7010515
0.7010273
0.70100284
0.7009782
0.7009534
0.7009284
0.7009031
0.70087767
0.70085204
0.70082617
0.7008001
0.70077384
0.7007474
0.70072067
0.7006938
0.70066667
0.70063937
0.7006119
0.7005842
0.7005562
0.7005281
0.7004998
0.7004712
0.7004425
0.7004135
0.7003844
0.700355
0.7003254
0.7002956
0.70026565
0.7002355
0.7002051
0.70017445
0.70014364
0.70011264
0.7000814
0.70005
0.70001835
0.6999865
0.69995445
0.6999222
0.6998897
0.69985706
0.6998242
0.69979113
0.6997578
0.6997243
0.69969064
0.6996567
0.69962263
0.6995883
0.6995538
0.69951904
0.6994841
0.69944894
0.6994136
0.699378
0.69934225
0.6993063
0.6992701
0.6992338
0.6991972
0.69916034
0.6991234
0.6990861
0.69904876
0.69901115
0.6989733
0.6989353
0.698897
0.69885856
0.69881994
0.6987811
0.698742
0.69870275
0.69866323
0.69862354
0.69858366
0.69854355
0.69850326
0.6984628
0.6984221
0.6983811
0.69834
0.69829863
0.69825715
0.69821537
0.6981734
0.69813126
0.6980889
0.6980463
0.69800353
0.69796056
0.69791734
0.69787395
0.6978304
0.69778657
0.6977425
0.6976983
0.6976539
0.69760925
0.69756436
0.69751936
0.69747406
0.69742864
0.6973829
0.6973371
0.697291
0.6972447
0.6971982
0.69715154
0.69710463
0.6970575
0.69701016
0.69696265
0.6969149
0.696867
0.6968188
0.6967705
0.6967219
0.69667315
0.6966242
0.69657505
0.69652563
0.69647604
0.6964263
0.69637626
0.696326
0.69627565
0.696225
0.6961742
0.6961231
0.6960719
0.6960205
0.6959688
0.69591695
0.69586486
0.69581264
0.69576013
0.69570744
0.6956546
0.69560146
0.6955482
0.69549465
0.69544095
0.695387
0.6953329
0.6952785
0.695224
0.69516927
0.6951143
0.6950591
0.69500375
0.6949482
0.6948924
0.69483644
0.69478023
0.69472384
0.6946672
0.6946104
0.69455343
0.6944962
0.69443876
0.6943811
0.6943233
0.69426525
0.69420695
0.69414854
0.69408983
0.69403094
0.6939719
0.6939126
0.6938531
0.6937934
0.6937335
0.6936734
0.69361305
0.69355255
0.6934918
0.6934309
0.69336975
0.69330835
0.69324684
0.69318503
0.6931231
0.69306093
0.6929985
0.69293594
0.6928731
0.6928101
0.69274694
0.6926835
0.6926199
0.6925561
0.692492
0.6924278
0.6923633
0.6922987
0.69223386
0.6921688
0.6921035
0.692038
0.6919723
0.69190645
0.69184035
0.6917741
0.69170755
0.6916408
0.6915739
0.69150674
0.69143945
0.6913719
0.69130415
0.6912362
0.691168
0.69109964
0.6910311
0.6909623
0.69089335
0.69082415
0.6907547
0.69068515
0.6906153
0.6905453
0.6904751
0.69040465
0.690334
0.69026315
0.6901921
0.6901209
0.6900494
0.6899777
0.6899059
0.68983376
0.68976146
0.689689
0.6896163
0.68954337
0.6894703
0.689397
0.6893234
0.6892497
0.6891758
0.68910164
0.68902725
0.6889527
0.68887794
0.68880296
0.6887278
0.6886524
0.6885768
0.688501
0.688425
0.6883488
0.6882724
0.68819577
0.68811893
0.6880419
0.6879647
0.68788725
0.6878096
0.68773174
0.68765366
0.6875754
0.6874969
0.6874182
0.6873393
0.6872602
0.68718094
0.6871014
0.68702173
0.6869418
0.68686163
0.68678135
0.68670076
0.68662006
0.68653905
0.68645793
0.6863766
0.686295
0.6862132
0.68613124
0.68604904
0.6859666
0.685884
0.6858012
0.6857182
0.685635
0.6855515
0.6854679
0.68538404
0.6853
0.6852158
0.6851313
0.6850466
0.68496174
0.6848767
0.6847914
0.68470585
0.6846202
0.68453425
0.6844482
0.6843618
0.6842753
0.6841886
0.68410164
0.6840145
0.6839272
0.6838396
0.6837518
0.68366385
0.6835757
0.6834873
0.6833987
0.6833099
0.6832209
0.6831317
0.6830423
0.68295264
0.6828628
0.6827728
0.6826826
0.6825921
0.6825015
0.6824106
0.6823195
0.68222827
0.6821368
0.6820451
0.68195325
0.6818611
0.68176883
0.6816763
0.6815836
0.68149066
0.68139756
0.6813042
0.6812107
0.68111694
0.68102294
0.6809288
0.6808344
0.6807399
0.6806451
0.6805501
0.6804549
0.6803595
0.6802639
0.6801681
0.68007207
0.67997587
0.6798794
0.6797828
0.67968595
0.6795889
0.67949164
0.6793942
0.6792965
0.6791986
0.6791006
0.6790023
0.67890376
0.67880505
0.67870617
0.67860705
0.67850775
0.6784082
0.6783085
0.67820853
0.6781084
0.678008
0.67790747
0.67780674
0.67770576
0.67760456
0.67750317
0.6774016
0.6772998
0.6771978
0.6770956
0.6769932
0.67689055
0.67678773
0.6766847
0.67658144
0.676478
0.6763744
0.6762705
0.6761664
0.67606217
0.6759577
0.675853
0.6757481
0.675643
0.6755377
0.6754322
0.67532647
0.67522055
0.67511445
0.6750081
0.67490155
0.6747948
0.67468786
0.6745807
0.67447335
0.67436576
0.674258
0.67415
0.6740418
0.6739334
0.6738248
0.67371595
0.67360693
0.67349774
0.6733883
0.6732787
0.67316884
0.67305875
0.67294854
0.67283803
0.6727274
0.67261654
0.67250544
0.67239416
0.67228264
0.67217094
0.67205906
0.67194694
0.6718346
0.6717221
0.67160934
0.6714964
0.67138326
0.6712699
0.67115635
0.6710426
0.67092866
0.67081445
0.6707001
0.67058545
0.6704707
0.6703557
0.67024046
0.67012507
0.67000943
0.6698936
0.6697776
0.66966134
0.6695449
0.6694282
0.6693114
0.66919434
0.66907704
0.66895956
0.6688419
0.668724
0.6686059
0.6684876
0.66836905
0.6682504
0.6681315
0.6680123
0.667893
0.6677734
0.6676537
0.66753376
0.6674136
0.6672932
0.6671726
0.66705185
0.66693085
0.6668097
0.66668826
0.66656667
0.66644484
0.6663228
0.66620064
0.6660782
0.66595554
0.6658327
0.6657097
0.6655864
0.665463
0.6653393
0.6652154
0.66509134
0.66496706
0.66484255
0.66471785
0.6645929
0.6644678
0.6643425
0.664217
0.6640912
0.6639653
0.66383916
0.6637128
0.66358626
0.6634595
0.6633325
0.6632053
0.66307795
0.6629504
0.66282254
0.6626946
0.66256636
0.662438
0.66230935
0.6621805
0.66205144
0.6619222
0.6617932
0.66166466
0.6615368
0.66140956
0.66128296
0.6611569
0.6610315
0.6609067
0.6607825
0.6606589
0.66053593
0.66041356
0.6602918
0.6601706
0.6600501
0.65993017
0.65981084
0.6596921
0.65957403
0.65945655
0.65933967
0.6592234
0.65910774
0.65899265
0.6588782
0.65876436
0.6586512
0.6585385
0.6584265
0.6583151
0.6582043
0.65809417
0.6579846
0.65787566
0.6577673
0.65765953
0.6575524
0.6574459
0.65734
0.65723467
0.65713
0.65702593
0.65692246
0.6568196
0.6567173
0.6566157
0.65651464
0.6564142
0.6563144
0.6562152
0.6561166
0.6560186
0.6559212
0.6558245
0.6557283
0.65563273
0.6555378
0.6554435
0.65534973
0.6552566
0.6551641
0.6550723
0.65498096
0.6548903
0.65480024
0.65471077
0.65462196
0.6545337
0.65444607
0.65435904
0.6542727
0.65418684
0.65410167
0.6540171
0.65393317
0.6538498
0.65376705
0.6536849
0.6536034
0.65352243
0.65344214
0.65336245
0.65328336
0.65320486
0.653127
0.6530497
0.65297306
0.65289706
0.6528216
0.6527468
0.6526726
0.652599
0.65252596
0.6524536
0.65238184
0.65231067
0.6522401
0.6521701
0.6521008
0.6520321
0.65196395
0.6518965
0.65182954
0.65176326
0.6516976
0.6516325
0.65156806
0.6515042
0.651441
0.65137833
0.6513163
0.6512549
0.6511941
0.6511339
0.6510743
0.65101534
0.650957
0.65089923
0.6508421
0.65078557
0.6507296
0.6506743
0.65061957
0.6505655
0.650512
0.6504591
0.65040684
0.6503552
0.65030414
0.6502537
0.6502039
0.65015465
0.650106
0.65005803
0.65001065
0.64996386
0.64991766
0.6498721
0.6498272
0.64978284
0.6497391
0.649696
0.64965343
0.64961153
0.6495702
0.6495296
0.64948946
0.64945
0.64941114
0.64937294
0.64933527
0.64929825
0.64926183
0.649226
0.6491908
0.6491562
0.64912224
0.64908886
0.6490561
0.64902395
0.6489924
0.6489615
0.64893115
0.6489014
0.6488723
0.6488438
0.64881593
0.6487887
0.648762
0.64873594
0.6487105
0.64868563
0.64866143
0.64863783
0.6486148
0.6485924
0.6485706
0.64854944
0.6485289
0.6485089
0.64848953
0.6484708
0.64845264
0.6484351
0.64841825
0.6484019
0.64838624
0.64837116
0.6483567
0.6483428
0.64832956
0.6483169
0.6483049
0.64829344
0.6482826
0.6482724
0.6482628
0.6482538
0.64824545
0.64823765
0.6482305
0.64822394
0.64821804
0.6482127
0.64820796
0.64820385
0.64820033
0.6481975
0.64819515
0.6481935
0.6481924
0.648192
0.6481921
0.6481929
0.64819425
0.6481962
0.64819884
0.64820206
0.6482059
0.6482103
0.6482153
0.64822096
0.6482272
0.64823407
0.6482415
0.6482496
0.64825827
0.64826757
0.6482775
0.648288
0.64829916
0.6483109
0.64832324
0.6483362
0.64834976
0.6483639
0.64837873
0.6483941
0.6484101
0.6484267
0.64844394
0.64846176
0.6484802
0.64849925
0.6485189
0.6485392
0.64856005
0.64858156
0.6486037
0.6486264
0.6486497
0.6486736
0.64869815
0.6487233
0.64874905
0.6487754
0.6488024
0.64883
0.6488582
0.648887
0.64891636
0.6489464
0.64897704
0.6490083
0.64904016
0.6490726
0.64910567
0.64913934
0.6491736
0.64920855
0.64924407
0.6492802
0.6493169
0.6493542
0.6493922
0.64943075
0.6494699
0.64950967
0.6495501
0.6495911
0.6496327
0.6496749
0.6497177
0.64976114
0.6498052
0.64984983
0.64989513
0.64994097
0.64998746
0.65003455
0.65008223
0.65013057
0.6501795
0.65022904
0.65027916
0.6503299
0.65038127
0.65043324
0.6504858
0.650539
0.6505928
0.6506472
0.65070224
0.65075785
0.65081406
0.6508709
0.6509284
0.65098643
0.6510451
0.6511044
0.6511643
0.6512248
0.6512859
0.65134764
0.6514099
0.65147287
0.65153646
0.6516006
0.6516654
0.6517308
0.65179676
0.65186334
0.6519306
0.65199834
0.65206677
0.65213585
0.65220547
0.65227574
0.6523466
0.6524181
0.65249014
0.65256286
0.6526362
0.6527101
0.6527846
0.6528597
0.65293545
0.6530118
0.65308875
0.65316635
0.6532445
0.6533233
0.6534027
0.65348274
0.6535633
0.65364456
0.6537264
0.65380883
0.6538919
0.65397555
0.6540598
0.6541447
0.65423024
0.6543163
0.65440303
0.65449035
0.65457827
0.65466684
0.654756
0.6548458
0.65493613
0.6550271
0.6551187
0.6552109
0.6553037
0.6553971
0.6554912
0.65558577
0.655681
0.6557769
0.65587336
0.65597045
0.65606815
0.65616643
0.6562653
0.65636486
0.65646493
0.65656567
0.65666705
0.656769
0.65687156
0.65697473
0.6570785
0.6571829
0.6572879
0.6573935
0.65749973
0.65760654
0.657714
0.6578221
0.65793073
0.65804
0.65814984
0.65826035
0.65837145
0.65848315
0.65859544
0.6587084
0.65882194
0.6589361
0.6590508
0.65916616
0.65928215
0.65939873
0.6595155
0.65963197
0.65974814
0.6598639
0.65997934
0.6600945
0.6602093
0.66032374
0.6604379
0.66055167
0.66066515
0.6607783
0.66089106
0.66100353
0.66111565
0.66122746
0.6613389
0.66145
0.66156083
0.66167134
0.66178143
0.6618912
0.6620007
0.66210985
0.66221863
0.6623271
0.66243523
0.66254306
0.6626505
0.66275764
0.66286445
0.6629709
0.66307706
0.66318285
0.66328835
0.6633935
0.6634983
0.66360277
0.6637069
0.6638107
0.66391414
0.6640173
0.66412014
0.6642226
0.6643247
0.6644265
0.664528
0.66462916
0.66472995
0.66483045
0.6649306
0.66503036
0.66512984
0.665229
0.6653278
0.6654263
0.6655244
0.66562223
0.66571975
0.66581684
0.6659137
0.66601014
0.6661063
0.6662021
0.6662976
0.66639274
0.6664876
0.66658205
0.66667616
0.66677
0.6668635
0.66695666
0.66704947
0.6671419
0.66723406
0.6673259
0.6674174
0.66750854
0.6675994
0.66768986
0.66778
0.6678698
0.66795933
0.66804844
0.66813725
0.66822577
0.6683139
0.6684017
0.6684892
0.66857636
0.6686632
0.6687497
0.6688359
0.66892165
0.6690072
0.6690923
0.6691771
0.66926163
0.6693458
0.6694296
0.6695131
0.66959625
0.6696791
0.6697616
0.66984373
0.6699256
0.67000705
0.67008823
0.67016906
0.6702496
0.6703297
0.67040956
0.670489
0.6705682
0.670647
0.6707255
0.67080367
0.6708815
0.670959
0.6710362
0.671113
0.67118955
0.67126566
0.67134154
0.671417
0.67149216
0.671567
0.6716415
0.6717157
0.6717895
0.671863
0.6719362
0.67200905
0.67208153
0.6721537
0.67222553
0.67229706
0.6723682
0.67243904
0.67250955
0.6725797
0.67264956
0.67271906
0.67278826
0.6728571
0.6729256
0.6729938
0.6730616
0.67312914
0.6731963
0.67326313
0.67332965
0.6733958
0.6734617
0.6735272
0.6735923
0.6736572
0.67372173
0.67378587
0.6738497
0.67391324
0.6739764
0.67403924
0.67410177
0.67416394
0.6742258
0.6742873
0.6743485
0.67440933
0.6744698
0.67453
0.6745899
0.6746494
0.6747086
0.67476743
0.67482597
0.67488414
0.674942
0.67499954
0.6750567
0.67511356
0.67517006
0.6752263
0.6752821
0.6753376
0.6753928
0.67544764
0.6755022
0.67555636
0.67561024
0.67566377
0.67571694
0.6757698
0.6758223
0.6758745
0.6759263
0.6759779
0.6760291
0.6760799
0.6761305
0.67618066
0.6762305
0.67628
0.6763292
0.6763781
0.6764266
0.6764748
0.6765227
0.6765702
0.6766174
0.67666423
0.6767108
0.676757
0.6768028
0.67684835
0.67689353
0.6769384
0.67698294
0.67702717
0.67707103
0.67711455
0.67715776
0.6772006
0.6772432
0.6772853
0.6773272
0.67736876
0.67740995
0.67745084
0.67749137
0.67753154
0.6775714
0.67761093
0.67765015
0.677689
0.6777276
0.6777658
0.67780364
0.6778412
0.6778784
0.6779153
0.6779518
0.677988
0.6780239
0.6780594
0.6780946
0.6781295
0.678164
0.6781982
0.67823213
0.67826563
0.67829883
0.67833173
0.6783643
0.67839646
0.67842835
0.6784599
0.6784911
0.678522
0.6785525
0.6785827
0.67861265
0.67864215
0.67867136
0.67870027
0.6787288
0.678757
0.6787849
0.67881244
0.6788397
0.67886657
0.6788931
0.6789193
0.6789452
0.67897075
0.67899597
0.6790208
0.6790454
0.6790696
0.6790935
0.679117
0.67914027
0.67916316
0.6791857
0.6792079
0.6792298
0.6792514
0.6792726
0.67929345
0.679314
0.6793342
0.67935413
0.6793737
0.6793929
0.67941177
0.67943037
0.67944854
0.6794665
0.679484
0.67950124
0.67951816
0.6795347
0.67955095
0.6795668
0.67958236
0.6795976
0.67961246
0.67962706
0.67964125
0.6796552
0.6796687
0.67968196
0.67969483
0.6797074
0.6797196
0.67973155
0.6797431
0.6797543
0.6797652
0.6797758
0.679786
0.6797959
0.6798055
0.6798147
0.67982364
0.67983216
0.67984045
0.6798483
0.6798559
0.6798631
0.67987
0.67987657
0.6798828
0.6798887
0.67989427
0.6798995
0.67990446
0.679909
0.6799132
0.67991716
0.67992073
0.67992395
0.6799269
0.67992944
0.67993164
0.67993355
0.67993516
0.6799364
0.6799373
0.67993784
0.67993814
0.679938
0.6799376
0.6799368
0.67993575
0.6799343
0.67993253
0.67993045
0.67992806
0.6799253
0.6799222
0.67991877
0.679915
0.67991096
0.6799065
0.6799018
0.67989665
0.6798912
0.6798855
0.6798794
0.679873
0.67986625
0.67985916
0.6798518
0.67984396
0.6798359
0.6798275
0.67981875
0.67980963
0.6798002
0.6797905
0.6797804
0.67977
0.67975926
0.6797482
0.67973673
0.679725
0.6797129
0.6797005
0.67968774
0.6796747
0.6796613
0.6796475
0.67963344
0.679619
0.6796043
0.6795892
0.6795738
0.67955804
0.679542
0.67952555
0.6795088
0.67949176
0.67947435
0.6794568
0.6794391
0.67942154
0.67940396
0.6793864
0.6793688
0.6793513
0.6793337
0.67931616
0.6792986
0.67928106
0.67926353
0.679246
0.67922854
0.679211
0.6791935
0.67917603
0.67915857
0.67914104
0.6791236
0.6791061
0.6790887
0.67907125
0.6790538
0.6790364
0.679019
0.6790015
0.6789841
0.6789667
0.67894936
0.67893195
0.67891455
0.6788972
0.67887986
0.67886245
0.6788451
0.67882776
0.6788104
0.67879313
0.6787758
0.6787585
0.67874116
0.6787239
0.6787066
0.6786893
0.678672
0.6786548
0.6786375
0.6786202
0.678603
0.67858577
0.67856854
0.6785513
0.6785341
0.67851686
0.6784997
0.6784825
0.6784653
0.6784481
0.6784309
0.67841375
0.67839664
0.6783795
0.6783623
0.6783452
0.67832804
0.67831093
0.6782938
0.6782767
0.6782596
0.6782425
0.67822546
0.67820835
0.6781913
0.6781742
0.67815715
0.6781401
0.67812306
0.67810607
0.678089
0.678072
0.678055
0.678038
0.678021
0.678004
0.67798704
0.67797005
0.67795306
0.67793614
0.67791915
0.6779022
0.6778853
0.67786837
0.67785144
0.6778345
0.6778176
0.6778007
0.6777838
0.6777669
0.67775005
0.6777332
0.6777163
0.67769945
0.6776826
0.67766577
0.6776489
0.6776321
0.6776153
0.6775985
0.67758167
0.67756486
0.67754805
0.6775313
0.6775145
0.67749774
0.677481
0.67746425
0.6774475
0.67743075
0.677414
0.6773973
0.67738056
0.6773639
0.6773472
0.67733043
0.67731375
0.6772971
0.6772804
0.67726374
0.6772471
0.6772304
0.6772138
0.67719716
0.6771805
0.6771639
0.6771473
0.6771307
0.67711407
0.6770975
0.6770809
0.67706436
0.6770478
0.6770312
0.67701465
0.6769981
0.67698157
0.67696506
0.6769485
0.676932
0.67691547
0.67689896
0.6768825
0.676866
0.6768495
0.67683303
0.6768166
0.67680013
0.6767837
0.67676723
0.6767508
0.6767343
0.67671794
0.6767015
0.6766851
0.6766687
0.6766523
0.6766359
0.6766195
0.67660314
0.6765868
0.6765704
0.6765541
0.67653775
0.6765214
0.6765051
0.67648876
0.6764725
0.67645615
0.6764399
0.67642355
0.6764073
0.676391
0.67637473
0.67635846
0.67634225
0.676326
0.67630976
0.6762935
0.6762773
0.67626107
0.67624485
0.67622864
0.6762125
0.6761963
0.6761801
0.6761639
0.67614776
0.6761316
0.67611545
0.6760993
0.67608315
0.67606705
0.6760509
0.6760348
0.6760187
0.6760026
0.6759865
0.67597044
0.67595434
0.6759383
0.6759222
0.6759062
0.6758901
0.67587405
0.675858
0.675842
0.675826
0.67581
0.675794
0.675778
0.675762
0.675746
0.67573005
0.6757141
0.6756981
0.6756822
0.6756662
0.6756503
0.6756343
0.6756184
0.6756025
0.6755866
0.6755707
0.6755548
0.67553896
0.67552304
0.6755072
0.67549133
0.6754755
0.6754596
0.67544377
0.6754279
0.6754121
0.67539626
0.67538047
0.6753647
0.6753489
0.6753331
0.6753173
0.67530155
0.67528576
0.67527
0.6752542
0.6752385
0.67522275
0.675207
0.6751913
0.6751756
0.6751599
0.6751442
0.67512846
0.6751128
0.6750971
0.67508143
0.67506576
0.67505014
0.67503446
0.67501885
0.6750032
0.67498755
0.67497194
0.6749563
0.6749407
0.67492515
0.67490953
0.674894
0.67487836
0.6748628
0.67484725
0.6748317
0.67481613
0.6748006
0.6747851
0.6747695
0.674754
0.6747385
0.674723
0.67470753
0.67469203
0.67467654
0.6746611
0.6746456
0.67463017
0.67461467
0.67459923
0.6745838
0.6745684
0.674553
0.67453754
0.67452216
0.6745067
0.67449135
0.67447597
0.6744606
0.6744452
0.67442983
0.6744145
0.67439914
0.6743838
0.6743685
0.6743531
0.6743378
0.6743225
0.6743072
0.6742919
0.67427665
0.67426133
0.6742461
0.6742308
0.67421556
0.6742003
0.67418504
0.6741698
0.6741546
0.6741393
0.6741241
0.6741089
0.6740937
0.6740785
0.6740633
0.6740482
0.674033
0.67401785
0.67400265
0.6739875
0.67397237
0.6739572
0.6739421
0.673927
0.67391187
0.6738968
0.67388165
0.67386657
0.6738515
0.6738364
0.67382133
0.6738063
0.6737912
0.6737762
0.6737611
0.6737461
0.6737311
0.67371607
0.67370105
0.6736861
0.67367107
0.6736561
0.6736411
0.6736261
0.67361116
0.6735962
0.67358124
0.6735663
0.6735514
0.6735364
0.6735215
0.6735066
0.6734917
0.6734768
0.6734619
0.673447
0.6734321
0.67341727
0.6734024
0.6733875
0.6733727
0.67335784
0.673343
0.6733282
0.6733134
0.6732986
0.67328376
0.673269
0.6732542
0.6732394
0.6732246
0.67320985
0.6731951
0.67318034
0.6731656
0.67315084
0.6731361
0.6731214
0.6731067
0.673092
0.6730773
0.67306256
0.6730479
0.67303324
0.6730186
0.6730039
0.67298925
0.6729746
0.6729599
0.6729452
0.6729303
0.6729151
0.6728997
0.6728841
0.67286825
0.6728522
0.6728359
0.6728194
0.6728026
0.6727857
0.6727685
0.67275107
0.6727334
0.6727156
0.6726975
0.6726792
0.67266065
0.67264193
0.6726229
0.6726037
0.6725843
0.6725646
0.6725448
0.67252463
0.6725043
0.6724838
0.672463
0.672442
0.6724208
0.67239934
0.67237765
0.6723558
0.67233366
0.6723113
0.6722887
0.67226595
0.6722429
0.67221963
0.6721962
0.6721725
0.6721486
0.67212445
0.67210007
0.6720755
0.67205065
0.6720256
0.67200035
0.6719749
0.67194915
0.6719232
0.67189705
0.6718707
0.67184407
0.67181724
0.6717902
0.6717629
0.6717354
0.6717077
0.67167974
0.67165154
0.6716231
0.6715945
0.67156565
0.67153656
0.6715073
0.67147774
0.671448
0.671418
0.67138785
0.6713574
0.67132676
0.6712959
0.6712648
0.6712335
0.67120194
0.6711702
0.67113817
0.671106
0.6710735
0.67104083
0.67100793
0.67097485
0.67094153
0.670908
0.6708742
0.67084014
0.67080593
0.6707714
0.6707368
0.67070186
0.6706667
0.67063135
0.67059577
0.67056
0.67052394
0.6704877
0.6704512
0.6704145
0.67037755
0.6703404
0.67030305
0.67026544
0.67022765
0.67018956
0.6701513
0.6701128
0.6700741
0.6700351
0.66999596
0.66995656
0.6699169
0.6698771
0.66983706
0.66979676
0.66975623
0.66971546
0.6696745
0.6696333
0.6695919
0.6695503
0.6695084
0.6694663
0.669424
0.6693815
0.6693387
0.6692957
0.6692525
0.66920906
0.66916543
0.66912156
0.66907746
0.6690331
0.6689886
0.66894376
0.66889876
0.6688535
0.6688081
0.66876245
0.6687165
0.6686704
0.66862404
0.6685775
0.66853064
0.6684837
0.6684364
0.6683889
0.6683412
0.6682933
0.6682452
0.6681968
0.6681482
0.6680994
0.66805035
0.66800106
0.6679516
0.6679019
0.6678519
0.6678018
0.6677514
0.66770077
0.6676499
0.6675989
0.6675476
0.6674961
0.66744435
0.6673924
0.6673402
0.6672878
0.6672352
0.6671823
0.6671292
0.66707593
0.6670224
0.66696864
0.6669147
0.66686046
0.66680604
0.6667514
0.66669655
0.6666414
0.6665861
0.66653055
0.66647476
0.6664188
0.6663626
0.66630614
0.66624945
0.66619253
0.66613543
0.6660781
0.6660205
0.66596276
0.6659047
0.66584647
0.66578805
0.66572934
0.66567045
0.66561127
0.6655519
0.66549236
0.6654325
0.6653725
0.66531223
0.66525173
0.66519105
0.66513014
0.665069
0.6650076
0.66494596
0.66488415
0.6648221
0.6647598
0.66469735
0.6646346
0.66457164
0.66450846
0.6644451
0.66438144
0.6643176
0.66425353
0.6641892
0.6641247
0.66406
0.663995
0.6639298
0.6638644
0.66379875
0.6637329
0.6636668
0.6636005
0.6635339
0.66346717
0.6634002
0.663333
0.6632655
0.6631979
0.66313
0.66306186
0.66299355
0.662925
0.6628562
0.6627872
0.66271794
0.6626485
0.6625788
0.6625089
0.6624388
0.6623684
0.66229784
0.66222703
0.66215605
0.66208476
0.6620133
0.6619416
0.6618697
0.6617975
0.66172516
0.66165257
0.6615797
0.6615067
0.66143346
0.66135997
0.66128623
0.66121227
0.6611381
0.66106373
0.6609891
0.6609143
0.6608392
0.6607639
0.6606884
0.66061264
0.6605367
0.66046053
0.6603841
0.66030747
0.66023064
0.66015357
0.66007626
0.6599987
0.65992093
0.65984297
0.65976477
0.6596863
0.65960765
0.6595288
0.6594497
0.65937036
0.65929085
0.65921104
0.65913105
0.6590508
0.65897036
0.6588897
0.6588088
0.6587277
0.65864635
0.65856475
0.65848297
0.65840095
0.6583187
0.65823627
0.65815353
0.6580706
0.6579875
0.65790415
0.6578205
0.6577367
0.6576527
0.65756845
0.65748394
0.65739924
0.6573143
0.6572291
0.6571438
0.6570582
0.65697235
0.6568863
0.6568
0.6567135
0.65662676
0.6565398
0.65645266
0.6563652
0.6562776
0.65618974
0.65610164
0.65601337
0.65592486
0.6558361
0.6557471
0.65565795
0.65556854
0.6554789
0.655389
0.6552989
0.6552086
0.65511805
0.6550273
0.65493625
0.65484506
0.6547536
0.65466195
0.6545701
0.65447795
0.6543856
0.65429306
0.65420026
0.6541073
0.65401405
0.6539206
0.6538269
0.65373296
0.65363884
0.6535445
0.6534499
0.6533551
0.65326005
0.6531648
0.6530693
0.65297365
0.6528777
0.65278155
0.65268517
0.6525886
0.65249175
0.6523947
0.65229744
0.6521999
0.65210223
0.6520043
0.65190613
0.6518077
0.6517091
0.65161026
0.6515112
0.6514119
0.6513124
0.65121263
0.6511127
0.6510125
0.65091205
0.65081143
0.6507106
0.6506095
0.65050817
0.65040666
0.6503049
0.65020293
0.6501007
0.64999825
0.6498956
0.64979273
0.6496896
0.64958626
0.6494827
0.64937896
0.64927495
0.64917076
0.64906627
0.6489616
0.6488567
0.64875156
0.64864653
0.6485422
0.6484386
0.64833564
0.6482334
0.6481319
0.6480311
0.647931
0.6478316
0.6477329
0.6476349
0.6475376
0.647441
0.6473451
0.64724994
0.64715546
0.6470617
0.64696866
0.6468763
0.6467846
0.64669365
0.6466034
0.6465139
0.646425
0.6463369
0.6462495
0.64616275
0.6460767
0.6459914
0.64590675
0.6458229
0.6457397
0.6456571
0.64557534
0.6454943
0.6454139
0.6453342
0.6452552
0.64517695
0.64509934
0.64502245
0.64494634
0.6448709
0.6447961
0.64472204
0.6446487
0.6445761
0.64450413
0.6444329
0.64436233
0.64429253
0.6442234
0.64415497
0.64408726
0.64402026
0.643954
0.64388835
0.64382344
0.64375925
0.6436958
0.643633
0.6435709
0.6435095
0.6434488
0.64338887
0.6433296
0.6432711
0.6432132
0.64315605
0.6430996
0.6430439
0.64298886
0.6429345
0.64288086
0.6428279
0.6427757
0.6427242
0.64267343
0.6426233
0.6425739
0.6425252
0.6424772
0.6424299
0.64238334
0.64233744
0.64229226
0.6422478
0.64220405
0.64216095
0.6421186
0.6420769
0.64203596
0.6419957
0.6419562
0.64191735
0.6418792
0.64184177
0.64180505
0.64176905
0.6417337
0.6416991
0.6416652
0.64163196
0.6415995
0.6415677
0.6415366
0.6415062
0.6414765
0.64144754
0.6414193
0.6413917
0.6413648
0.64133865
0.6413132
0.64128846
0.6412644
0.6412411
0.6412184
0.6411965
0.64117527
0.6411547
0.64113486
0.6411158
0.64109737
0.64107966
0.6410626
0.64104635
0.6410307
0.6410158
0.64100164
0.6409882
0.64097536
0.6409633
0.64095193
0.64094126
0.6409313
0.640922
0.6409135
0.6409056
0.64089847
0.640892
0.6408863
0.64088124
0.6408769
0.64087325
0.64087033
0.6408681
0.64086664
0.6408658
0.6408657
0.6408663
0.6408676
0.6408696
0.6408723
0.64087576
0.64087987
0.6408847
0.64089024
0.64089644
0.64090335
0.64091104
0.6409194
0.6409284
0.64093816
0.64094865
0.6409598
0.64097166
0.64098424
0.6409975
0.6410115
0.64102614
0.6410416
0.64105767
0.6410744
0.64109194
0.6411101
0.6411291
0.6411487
0.64116895
0.64119
0.64121175
0.64123416
0.6412573
0.6412811
0.6413057
0.6413309
0.6413569
0.6413835
0.6414109
0.64143896
0.6414677
0.6414972
0.64152735
0.64155823
0.6415898
0.6416221
0.6416551
0.6416888
0.6417232
0.6417583
0.64179415
0.6418306
0.6418679
0.6419058
0.6419444
0.64198375
0.6420238
0.6420645
0.64210594
0.64214814
0.642191
0.6422345
0.6422788
0.64232373
0.64236945
0.6424158
0.64246285
0.64251065
0.6425592
0.64260834
0.64265823
0.64270884
0.64276016
0.64281213
0.6428649
0.6429183
0.6429724
0.64302725
0.64308274
0.643139
0.6431959
0.64325356
0.6433119
0.643371
0.6434307
0.64349115
0.64355236
0.64361423
0.64367676
0.64374006
0.643804
0.64386874
0.64393413
0.6440002
0.644067
0.6441345
0.6442027
0.6442716
0.64434123
0.64441156
0.64448255
0.6445543
0.64462674
0.6446999
0.6447737
0.6448482
0.6449235
0.64499944
0.6450761
0.64515346
0.64523154
0.6453103
0.6453898
0.64546996
0.64555085
0.64563245
0.6457147
0.6457977
0.6458814
0.6459658
0.64605093
0.6461367
0.64622325
0.64631045
0.64639837
0.646487
0.64657634
0.6466664
0.6467571
0.64684856
0.6469407
0.6470336
0.64712715
0.6472214
0.6473164
0.64741206
0.64750844
0.6476055
0.6477033
0.64780176
0.64790094
0.64800084
0.64810145
0.6482028
0.64830476
0.6484075
0.64851093
0.64861506
0.64871985
0.6488254
0.6489316
0.64903855
0.6491462
0.64925456
0.64936364
0.64947337
0.6495838
0.649695
0.64980686
0.64991945
0.6500327
0.6501467
0.6502614
0.6503768
0.65049285
0.6506097
0.65072715
0.65084535
0.65096426
0.6510839
0.6512042
0.6513252
0.651447
0.6515694
0.65169257
0.65181637
0.65194094
0.6520662
0.6521921
0.6523188
0.65244615
0.65257424
0.652703
0.65283245
0.6529626
0.6530935
0.6532251
0.6533574
0.6534904
0.6536241
0.6537585
0.65389365
0.6540294
0.654166
0.6543032
0.6544411
0.65457976
0.65471905
0.6548591
0.65499985
0.6551413
0.65528345
0.6554263
0.65556985
0.65571415
0.6558591
0.6560048
0.6561512
0.6562982
0.65644604
0.6565945
0.6567437
0.6568936
0.65704423
0.6571955
0.6573475
0.65750027
0.6576537
0.65780777
0.6579626
0.6581181
0.65827435
0.65843135
0.65858895
0.6587473
0.6589064
0.65906614
0.6592266
0.65938777
0.65954965
0.6597122
0.6598755
0.6600395
0.6602042
0.6603696
0.66053563
0.66070247
0.66086996
0.66103816
0.6612071
0.6613767
0.661547
0.661718
0.6618898
0.6620622
0.6622353
0.6624092
0.6625837
0.662759
0.66293496
0.66311157
0.66328895
0.66346705
0.6636458
0.66382486
0.66400343
0.6641815
0.6643589
0.6645359
0.66471225
0.66488814
0.66506344
0.66523826
0.6654125
0.6655862
0.6657593
0.66593194
0.666104
0.66627556
0.66644657
0.66661704
0.66678697
0.66695637
0.66712517
0.6672935
0.6674612
0.66762847
0.6677951
0.6679613
0.6681269
0.6682919
0.6684565
0.66862047
0.6687839
0.6689468
0.66910917
0.669271
0.6694323
0.669593
0.6697532
0.6699129
0.67007196
0.67023057
0.6703886
0.6705461
0.67070305
0.6708595
0.6710154
0.6711707
0.6713255
0.67147976
0.6716335
0.67178667
0.6719393
0.6720914
0.672243
0.672394
0.6725445
0.67269444
0.6728438
0.6729927
0.673141
0.6732888
0.67343605
0.67358273
0.6737289
0.6738745
0.67401963
0.6741642
0.6743082
0.6744516
0.6745945
0.6747369
0.6748788
0.67502004
0.6751608
0.6753011
0.6754407
0.6755799
0.6757185
0.67585653
0.67599404
0.67613107
0.6762675
0.6764034
0.67653877
0.6766736
0.6768079
0.67694163
0.6770748
0.67720747
0.6773396
0.67747116
0.67760223
0.6777327
0.6778627
0.6779921
0.678121
0.67824936
0.67837715
0.6785044
0.6786311
0.6787573
0.67888296
0.67900807
0.67913264
0.6792567
0.6793801
0.6795031
0.6796255
0.67974734
0.6798687
0.67998946
0.6801097
0.6802294
0.6803486
0.6804672
0.68058527
0.6807028
0.6808198
0.6809363
0.6810522
0.6811676
0.68128246
0.6813967
0.6815105
0.68162376
0.6817364
0.6818486
0.68196017
0.6820712
0.6821818
0.68229175
0.6824012
0.6825101
0.68261844
0.68272626
0.68283355
0.6829403
0.6830465
0.6831522
0.6832573
0.6833619
0.68346596
0.68356943
0.6836724
0.6837748
0.6838767
0.6839781
0.6840789
0.6841791
0.68427885
0.684378
0.6844767
0.6845748
0.68467236
0.6847694
0.6848659
0.6849618
0.6850572
0.6851521
0.6852464
0.6853402
0.68543345
0.68552613
0.68561834
0.68570995
0.685801
0.68589157
0.6859816
0.68607104
0.68615997
0.68624836
0.6863362
0.68642354
0.68651026
0.6865965
0.6866822
0.68676734
0.686852
0.686936
0.6870195
0.68710256
0.687185
0.6872669
0.68734825
0.6874291
0.68750936
0.6875891
0.6876683
0.687747
0.68782514
0.6879027
0.68797976
0.6880563
0.6881322
0.6882077
0.68828255
0.6883569
0.6884307
0.688504
0.6885767
0.6886489
0.6887205
0.68879163
0.6888622
0.68893224
0.68900174
0.68907064
0.68913907
0.68920696
0.68927425
0.68934107
0.6894073
0.68947303
0.6895382
0.6896028
0.6896669
0.68973047
0.68979347
0.68985593
0.68991786
0.68997926
0.6900401
0.6901004
0.69016016
0.6902194
0.6902781
0.6903362
0.69039387
0.6904509
0.6905074
0.69056344
0.6906189
0.69067377
0.6907281
0.690782
0.6908353
0.69088805
0.69094026
0.6909919
0.691043
0.6910936
0.6911437
0.69119316
0.69124216
0.69129056
0.6913385
0.6913858
0.6914326
0.6914789
0.6915246
0.6915698
0.69161445
0.69165856
0.6917021
0.69174516
0.69178766
0.6918296
0.69187105
0.6919119
0.6919522
0.691992
0.69203126
0.69206995
0.69210815
0.69214576
0.69218284
0.69221944
0.69225544
0.6922909
0.69232583
0.6923602
0.6923941
0.6924274
0.6924601
0.69249237
0.6925241
0.6925552
0.6925858
0.6926159
0.69264543
0.6926744
0.6927029
0.6927308
0.69275814
0.69278497
0.69281125
0.692837
0.6928622
0.6928869
0.692911
0.69293463
0.6929577
0.6929802
0.69300216
0.6930236
0.6930445
0.6930648
0.69308466
0.6931039
0.6931226
0.69314086
0.6931585
0.6931756
0.6931922
0.6932082
0.6932237
0.6932387
0.69325304
0.6932669
0.6932803
0.69329304
0.6933053
0.693317
0.6933282
0.6933388
0.69334894
0.6933585
0.6933675
0.69337595
0.6933839
0.69339126
0.6933981
0.69340444
0.6934102
0.69341546
0.6934201
0.6934243
0.6934279
0.69343096
0.6934335
0.6934355
0.693437
0.6934379
0.69343823
0.69343805
0.6934374
0.69343615
0.69343436
0.69343203
0.6934291
0.6934257
0.6934218
0.6934173
0.69341224
0.6934067
0.6934006
0.69339395
0.6933868
0.69337904
0.69337076
0.69336194
0.69335264
0.69334275
0.6933323
0.69332135
0.69330984
0.6932978
0.6932852
0.69327205
0.6932584
0.6932442
0.69322944
0.6932142
0.6931983
0.693182
0.69316506
0.6931476
0.69312966
0.6931111
0.69309205
0.69307244
0.6930523
0.6930316
0.6930104
0.69298863
0.69296634
0.69294345
0.6929201
0.6928962
0.6928717
0.6928467
0.69282115
0.69279504
0.69276845
0.6927413
0.69271356
0.6926853
0.6926565
0.6926272
0.6925973
0.69256693
0.692536
0.6925045
0.69247246
0.6924399
0.69240683
0.69237316
0.692339
0.69230425
0.69226897
0.6922332
0.69219685
0.69215995
0.6921225
0.69208455
0.69204605
0.6920072
0.69196826
0.6919293
0.6918903
0.6918513
0.6918123
0.69177324
0.69173414
0.69169503
0.69165593
0.6916168
0.6915776
0.6915384
0.6914992
0.69145995
0.6914207
0.69138134
0.69134206
0.69130266
0.6912633
0.6912239
0.69118446
0.69114506
0.69110554
0.6910661
0.69102657
0.690987
0.6909474
0.69090784
0.6908682
0.69082856
0.6907889
0.6907492
0.6907095
0.6906697
0.69062996
0.6905902
0.6905504
0.6905105
0.69047064
0.69043076
0.6903908
0.6903509
0.69031096
0.69027096
0.6902309
0.69019085
0.6901508
0.69011074
0.6900706
0.69003046
0.6899903
0.6899501
0.6899099
0.68986964
0.6898294
0.6897891
0.6897488
0.6897085
0.6896681
0.6896277
0.6895873
0.6895469
0.6895064
0.68946594
0.6894254
0.6893849
0.6893443
0.6893037
0.6892631
0.68922246
0.6891818
0.68914115
0.68910044
0.6890597
0.68901896
0.68897814
0.68893737
0.68889654
0.68885565
0.68881476
0.6887739
0.6887329
0.688692
0.688651
0.68861
0.68856895
0.68852794
0.6884868
0.68844575
0.6884046
0.68836343
0.6883223
0.68828106
0.6882399
0.68819857
0.6881573
0.688116
0.6880747
0.68803334
0.687992
0.68795055
0.6879091
0.6878677
0.6878262
0.68778473
0.6877432
0.68770164
0.68766004
0.6876185
0.68757683
0.6875352
0.6874935
0.68745184
0.6874101
0.68736833
0.6873266
0.68728477
0.687243
0.68720114
0.68715924
0.68711734
0.68707544
0.6870335
0.6869915
0.68694955
0.68690753
0.68686545
0.6868234
0.6867813
0.6867392
0.68669707
0.68665487
0.6866127
0.68657047
0.68652827
0.68648595
0.6864437
0.68640137
0.68635905
0.68631667
0.6862743
0.68623185
0.6861894
0.686147
0.6861045
0.686062
0.6860194
0.68597686
0.68593425
0.6858917
0.685849
0.6858064
0.68576366
0.685721
0.68567824
0.68563545
0.6855927
0.68554986
0.68550706
0.6854642
0.6854213
0.6853784
0.68533546
0.6852925
0.6852495
0.68520653
0.6851635
0.6851204
0.68507737
0.6850342
0.6849911
0.68494797
0.68490475
0.68486154
0.6848183
0.68477505
0.6847318
0.6846885
0.6846452
0.68460184
0.68455845
0.68451506
0.6844716
0.68442816
0.6843847
0.6843412
0.6842977
0.6842541
0.68421054
0.6841669
0.6841233
0.68407965
0.68403596
0.68399227
0.6839486
0.6839048
0.683861
0.6838172
0.6837734
0.6837296
0.6836857
0.6836418
0.68359786
0.68355393
0.68350995
0.68346596
0.6834219
0.6833779
0.6833338
0.6832897
0.6832456
0.6832015
0.68315727
0.6831131
0.6830689
0.68302464
0.68298036
0.6829361
0.6828918
0.68284744
0.68280303
0.6827587
0.6827142
0.6826698
0.68262535
0.6825808
0.68253636
0.6824918
0.68244725
0.6824026
0.682358
0.6823134
0.68226874
0.68222404
0.68217933
0.68213457
0.6820898
0.68204504
0.6820002
0.6819554
0.6819105
0.68186563
0.68182075
0.6817758
0.68173087
0.68168586
0.68164086
0.6815958
0.68155074
0.6815057
0.68146056
0.68141544
0.68137026
0.6813251
0.6812799
0.68123466
0.6811894
0.6811441
0.6810988
0.68105346
0.6810081
0.68096274
0.6809173
0.6808719
0.6808264
0.68078095
0.68073547
0.68068993
0.6806444
0.6805988
0.6805532
0.6805076
0.68046194
0.6804162
0.68037057
0.6803248
0.6802791
0.6802333
0.68018746
0.6801417
0.6800958
0.68004996
0.68000406
0.6799581
0.67991215
0.6798662
0.6798202
0.67977417
0.67972815
0.6796821
0.67963594
0.6795898
0.6795437
0.67949754
0.67945135
0.6794051
0.67935884
0.6793126
0.6792663
0.67921996
0.67917365
0.6791273
0.67908084
0.6790345
0.678988
0.67894155
0.67889506
0.6788485
0.678802
0.6787554
0.67870885
0.67866224
0.67861557
0.6785689
0.6785222
0.6784755
0.67842877
0.678382
0.6783352
0.6782884
0.67824155
0.6781947
0.6781478
0.6781009
0.678054
0.678007
0.67796
0.677913
0.677866
0.6778189
0.6777718
0.6777247
0.6776776
0.6776304
0.6775832
0.677536
0.6774888
0.67744154
0.6773942
0.67734694
0.6772996
0.67725223
0.67720485
0.67715746
0.67711
0.6770626
0.67701507
0.67696756
0.67692006
0.6768725
0.6768249
0.6767773
0.6767297
0.676682
0.6766343
0.6765866
0.6765389
0.67649114
0.6764434
0.6763956
0.67634773
0.67629987
0.676252
0.6762041
0.67615616
0.67610824
0.67606026
0.6760123
0.67596424
0.6759162
0.6758681
0.67582
0.6757719
0.67572373
0.6756756
0.67562735
0.67557913
0.6755309
0.67548263
0.67543435
0.675386
0.6753377
0.6752893
0.6752409
0.6751925
0.675144
0.67509556
0.67504704
0.6749985
0.67495
0.6749014
0.67485285
0.6748042
0.6747556
0.6747069
0.67465824
0.6746095
0.6745607
0.67451197
0.6744632
0.6744144
0.6743655
0.67431664
0.67426777
0.67421883
0.6741699
0.6741209
0.67407185
0.6740228
0.67397374
0.67392457
0.6738754
0.6738262
0.673777
0.6737277
0.6736784
0.67362905
0.6735797
0.6735303
0.67348087
0.6734314
0.67338187
0.67333233
0.67328274
0.67323315
0.6731835
0.67313385
0.67308414
0.67303437
0.6729846
0.6729348
0.67288494
0.67283505
0.67278516
0.6727352
0.6726852
0.6726352
0.6725851
0.67253506
0.67248493
0.6724348
0.6723846
0.6723344
0.6722841
0.6722338
0.6721835
0.67213315
0.6720827
0.6720323
0.6719819
0.6719314
0.67188084
0.6718303
0.6717797
0.671729
0.67167836
0.6716277
0.6715769
0.6715262
0.67147535
0.6714245
0.67137367
0.67132276
0.6712718
0.67122084
0.6711698
0.6711188
0.6710677
0.67101663
0.6709655
0.6709143
0.6708631
0.67081183
0.6707606
0.67070925
0.6706579
0.6706065
0.6705551
0.6705036
0.6704522
0.6704006
0.67034906
0.6702975
0.6702459
0.6701942
0.67014253
0.6700908
0.67003906
0.66998726
0.6699354
0.66988355
0.6698317
0.6697798
0.6697278
0.66967577
0.66962373
0.6695717
0.6695196
0.66946745
0.6694153
0.6693631
0.66931087
0.6692586
0.66920626
0.6691539
0.6691016
0.6690492
0.66899675
0.66894424
0.6688917
0.6688392
0.66878664
0.668734
0.6686814
0.6686287
0.668576
0.66852325
0.66847044
0.66841763
0.6683648
0.6683119
0.668259
0.66820604
0.66815305
0.66810006
0.668047
0.6679939
0.6679408
0.6678876
0.66783446
0.66778123
0.66772795
0.66767466
0.6676213
0.66756797
0.66751456
0.66746116
0.6674077
0.66735417
0.66730064
0.6672471
0.6671935
0.6671399
0.6670862
0.6670325
0.6669788
0.666925
0.6668712
0.66681737
0.6667635
0.66670954
0.6666556
0.66660166
0.66654766
0.6664936
0.66643953
0.6663854
0.6663313
0.6662771
0.6662229
0.66616863
0.66611433
0.66606003
0.6660057
0.6659513
0.6658969
0.6658424
0.66578794
0.6657334
0.66567886
0.66562426
0.66556966
0.665515
0.6654603
0.6654056
0.6653508
0.665296
0.6652412
0.66518635
0.66513145
0.6650765
0.66502154
0.6649666
0.6649115
0.66485643
0.66480136
0.6647462
0.66469103
0.66463584
0.66458064
0.66452533
0.66447
0.6644147
0.66435933
0.6643039
0.66424847
0.66419303
0.6641375
0.66408193
0.6640264
0.66397077
0.6639151
0.6638594
0.6638037
0.66374797
0.6636922
0.6636364
0.66358054
0.6635246
0.6634687
0.66341275
0.6633568
0.66330075
0.6632447
0.66318864
0.6631325
0.66307634
0.66302013
0.6629639
0.66290766
0.6628514
0.66279507
0.6627387
0.6626823
0.66262585
0.6625694
0.6625129
0.66245633
0.66239977
0.6623432
0.6622866
0.6622299
0.6621732
0.66211647
0.66205966
0.66200286
0.66194606
0.66188914
0.6618323
0.6617753
0.6617183
0.6616613
0.6616043
0.6615472
0.6614901
0.6614329
0.66137576
0.66131854
0.6612613
0.66120404
0.6611467
0.66108936
0.66103196
0.66097456
0.6609171
0.6608596
0.66080207
0.66074455
0.6606869
0.66062933
0.66057163
0.66051394
0.66045624
0.6603985
0.66034067
0.66028285
0.660225
0.6601671
0.66010916
0.66005117
0.6599932
0.6599352
0.6598771
0.659819
0.65976083
0.65970266
0.6596445
0.65958625
0.65952796
0.65946966
0.6594113
0.65935296
0.65929455
0.6592361
0.6591776
0.6591191
0.6590606
0.659002
0.65894336
0.6588847
0.65882605
0.65876734
0.6587086
0.6586498
0.658591
0.65853214
0.65847325
0.6584143
0.65835536
0.6582964
0.65823734
0.6581783
0.6581192
0.6580601
0.65800095
0.65794176
0.6578825
0.65782326
0.65776396
0.65770465
0.6576453
0.65758586
0.65752643
0.65746695
0.65740746
0.6573479
0.6572884
0.65722877
0.6571691
0.65710944
0.6570498
0.65699
0.65693027
0.6568704
0.6568106
0.65675074
0.65669084
0.6566309
0.6565709
0.6565109
0.6564508
0.6563907
0.65633065
0.6562705
0.6562103
0.6561501
0.65608984
0.6560296
0.65596926
0.6559089
0.6558485
0.65578806
0.6557276
0.6556671
0.6556066
0.65554607
0.65548545
0.65542483
0.65536416
0.6553035
0.65524274
0.655182
0.6551212
0.65506035
0.6549995
0.6549386
0.65487766
0.6548167
0.6547557
0.6546947
0.6546336
0.6545725
0.65451133
0.6544502
0.65438896
0.65432775
0.6542665
0.65420514
0.6541438
0.6540825
0.654021
0.6539596
0.6538981
0.6538366
0.65377504
0.65371346
0.65365183
0.6535902
0.6535285
0.6534668
0.6534051
0.65334326
0.65328145
0.6532196
0.6531577
0.6530958
0.65303385
0.65297186
0.6529098
0.65284777
0.65278566
0.65272355
0.6526614
0.6525992
0.652537
0.6524747
0.6524124
0.65235007
0.6522877
0.6522253
0.6521629
0.65210044
0.6520379
0.6519754
0.6519128
0.6518502
0.6517876
0.65172505
0.6516631
0.65160173
0.65154094
0.65148073
0.6514211
0.65136206
0.6513036
0.6512458
0.65118843
0.65113175
0.65107566
0.6510201
0.65096515
0.6509108
0.65085703
0.6508038
0.6507512
0.65069914
0.6506477
0.65059686
0.65054655
0.65049684
0.6504477
0.6503992
0.6503513
0.6503039
0.6502572
0.650211
0.6501653
0.6501203
0.65007585
0.65003204
0.6499888
0.64994603
0.64990395
0.6498624
0.64982146
0.6497811
0.64974135
0.6497022
0.64966357
0.64962554
0.6495881
0.6495513
0.649515
0.6494793
0.6494442
0.6494097
0.64937574
0.6493424
0.64930964
0.64927745
0.64924586
0.64921486
0.6491844
0.6491546
0.64912534
0.64909667
0.64906853
0.64904106
0.6490141
0.64898777
0.648962
0.6489368
0.64891225
0.64888823
0.6488648
0.648842
0.64881974
0.64879805
0.64877695
0.64875644
0.64873654
0.64871716
0.64869845
0.64868027
0.6486627
0.6486457
0.64862925
0.64861345
0.6485982
0.64858353
0.64856946
0.64855593
0.648543
0.6485307
0.6485189
0.6485078
0.6484972
0.6484872
0.6484778
0.648469
0.64846075
0.64845306
0.64844596
0.6484395
0.64843357
0.64842826
0.64842355
0.6484194
0.6484158
0.6484128
0.6484104
0.6484086
0.64840734
0.6484067
0.6484066
0.64840716
0.64840823
0.6484099
0.64841217
0.648415
0.6484185
0.6484225
0.64842707
0.64843225
0.64843804
0.6484444
0.6484513
0.64845884
0.64846694
0.64847565
0.6484849
0.6484948
0.6485052
0.64851624
0.6485278
0.64854
0.6485528
0.6485661
0.6485801
0.6485946
0.64860976
0.64862543
0.6486417
0.6486586
0.64867604
0.64869404
0.64871264
0.6487318
0.6487516
0.648772
0.6487929
0.6488145
0.6488366
0.64885926
0.64888257
0.64890647
0.6489309
0.64895594
0.6489816
0.64900774
0.64903456
0.6490619
0.6490899
0.6491184
0.6491475
0.64917725
0.64920753
0.6492384
0.6492699
0.6493019
0.6493345
0.64936775
0.64940155
0.6494359
0.64947087
0.6495064
0.6495425
0.6495792
0.64961654
0.6496544
0.6496929
0.64973193
0.6497716
0.6498118
0.6498526
0.64989394
0.6499359
0.64997846
0.6500216
0.6500653
0.65010965
0.65015453
0.6502
0.650246
0.6502927
0.6503399
0.6503877
0.6504361
0.65048504
0.65053463
0.65058476
0.6506355
0.6506868
0.65073866
0.65079117
0.6508442
0.65089786
0.6509521
0.6510069
0.6510623
0.6511183
0.65117484
0.651232
0.6512897
0.65134805
0.65140694
0.6514664
0.65152645
0.6515871
0.65164834
0.65171015
0.65177256
0.65183556
0.65189916
0.6519633
0.652028
0.65209335
0.6521592
0.65222573
0.6522928
0.65236044
0.6524287
0.65249753
0.6525669
0.65263695
0.6527075
0.6527786
0.6528504
0.65292275
0.65299565
0.65306914
0.6531432
0.65321785
0.65329313
0.65336895
0.65344536
0.6535224
0.6535999
0.6536781
0.65375686
0.6538362
0.6539161
0.6539966
0.65407765
0.65415937
0.6542416
0.6543244
0.65440786
0.65449184
0.6545764
0.6546616
0.65474737
0.65483373
0.65492064
0.65500814
0.65509623
0.6551849
0.65527415
0.655364
0.6554544
0.6555454
0.655637
0.6557292
0.655822
0.6559153
0.65600926
0.65610373
0.65619886
0.6562945
0.6563908
0.65648764
0.65658504
0.6566831
0.6567817
0.65688086
0.65698063
0.657081
0.6571819
0.6572834
0.6573855
0.6574882
0.6575915
0.65769535
0.6577998
0.6579048
0.6580104
0.6581166
0.6582234
0.65833074
0.6584387
0.6585472
0.6586563
0.658766
0.6588763
0.6589871
0.65909857
0.6592106
0.6593232
0.6594364
0.6595502
0.6596646
0.6597795
0.659895
0.6600111
0.6601278
0.6602451
0.66036296
0.66048145
0.6606005
0.6607201
0.6608403
0.6609611
0.66108245
0.6612044
0.66132694
0.66145
0.66157377
0.66169804
0.6618229
0.6619484
0.6620744
0.66220105
0.66232824
0.66245604
0.6625844
0.66271335
0.6628429
0.66297305
0.66310376
0.66323507
0.6633669
0.66349936
0.66363245
0.6637661
0.66390026
0.6640351
0.66417044
0.6643064
0.66444296
0.6645801
0.6647178
0.66485614
0.664995
0.6651345
0.6652745
0.66541517
0.6655564
0.6656982
0.66584057
0.66598356
0.6661271
0.6662712
0.6664159
0.66656125
0.66670716
0.6668536
0.66700065
0.6671483
0.6672965
0.66744536
0.66759473
0.6677447
0.66789526
0.6680464
0.66819817
0.66835046
0.66850334
0.6686568
0.6688109
0.6689656
0.6691208
0.6692766
0.669433
0.66959
0.66974753
0.6699057
0.67006445
0.6702238
0.6703837
0.67054415
0.6707052
0.67086685
0.6710291
0.67119193
0.67135537
0.67151934
0.6716839
0.6718491
0.6720148
0.6721811
0.672348
0.6725155
0.6726836
0.6728523
0.6730215
0.6731913
0.6733617
0.6735327
0.6737043
0.67387646
0.6740492
0.6742223
0.67439485
0.67456686
0.67473835
0.67490923
0.6750796
0.67524934
0.6754186
0.67558724
0.6757554
0.67592293
0.67608994
0.6762564
0.6764223
0.67658764
0.67675245
0.67691666
0.67708033
0.6772435
0.677406
0.677568
0.6777294
0.67789036
0.6780507
0.67821044
0.6783697
0.67852837
0.67868644
0.67884403
0.67900103
0.6791575
0.67931336
0.6794687
0.6796235
0.6797777
0.67993134
0.68008447
0.680237
0.680389
0.68054044
0.68069136
0.6808417
0.6809914
0.68114066
0.6812893
0.68143743
0.68158495
0.68173194
0.6818784
0.6820243
0.6821696
0.6823144
0.6824586
0.6826022
0.68274534
0.6828879
0.6830299
0.68317133
0.6833122
0.6834525
0.68359226
0.6837315
0.68387014
0.68400824
0.68414575
0.6842828
0.6844192
0.68455505
0.68469036
0.6848251
0.68495935
0.685093
0.6852261
0.68535864
0.6854906
0.68562204
0.6857529
0.6858832
0.686013
0.68614215
0.68627083
0.6863989
0.6865264
0.68665344
0.68677986
0.6869057
0.68703103
0.6871558
0.68728
0.6874036
0.6875267
0.68764925
0.6877712
0.6878926
0.6880135
0.6881338
0.6882535
0.68837273
0.6884914
0.6886095
0.68872696
0.68884397
0.6889604
0.68907624
0.6891915
0.68930626
0.68942046
0.6895341
0.6896472
0.6897597
0.68987167
0.68998307
0.69009393
0.6902042
0.690314
0.6904232
0.6905318
0.69063985
0.6907474
0.6908544
0.69096076
0.6910666
0.6911719
0.69127667
0.6913808
0.69148445
0.6915875
0.69169
0.691792
0.6918934
0.69199425
0.69209456
0.6921943
0.69229347
0.69239205
0.69249016
0.6925877
0.6926846
0.69278103
0.6928769
0.6929721
0.6930669
0.6931611
0.69325465
0.69334775
0.69344026
0.69353217
0.6936236
0.69371444
0.6938047
0.69389445
0.6939836
0.69407225
0.6941603
0.6942478
0.69433475
0.6944211
0.69450694
0.69459224
0.694677
0.69476116
0.6948447
0.6949278
0.6950103
0.69509226
0.6951736
0.69525445
0.69533473
0.6954145
0.69549364
0.69557226
0.6956503
0.69572777
0.6958047
0.6958811
0.69595695
0.6960322
0.6961069
0.6961811
0.6962547
0.69632775
0.6964002
0.69647217
0.6965436
0.6966144
0.69668466
0.69675434
0.69682354
0.69689214
0.69696015
0.6970276
0.69709456
0.69716096
0.69722676
0.69729203
0.69735676
0.6974209
0.6974845
0.69754755
0.69761
0.69767195
0.69773334
0.69779414
0.6978544
0.6979141
0.69797325
0.69803184
0.6980899
0.69814736
0.6982043
0.69826066
0.6983165
0.69837177
0.6984264
0.6984806
0.6985342
0.69858724
0.6986397
0.6986916
0.698743
0.69879377
0.698844
0.6988937
0.6989429
0.6989915
0.6990395
0.69908696
0.6991339
0.69918025
0.6992261
0.6992713
0.699316
0.69936013
0.6994037
0.69944674
0.69948924
0.69953114
0.6995725
0.6996133
0.69965357
0.6996932
0.69973236
0.6997709
0.69980896
0.69984645
0.69988334
0.6999197
0.6999555
0.69999075
0.70002544
0.70005953
0.70009315
0.7001262
0.7001586
0.70019054
0.7002219
0.70025265
0.70028293
0.7003126
0.7003417
0.7003703
0.7003983
0.70042574
0.7004527
0.70047903
0.7005048
0.70053005
0.7005547
0.7005788
0.7006024
0.7006254
0.7006479
0.70066977
0.7006911
0.7007119
0.7007321
0.7007518
0.7007709
0.7007895
0.7008075
0.700825
0.70084184
0.7008582
0.700874
0.70088917
0.7009039
0.70091796
0.70093155
0.70094454
0.700957
0.70096886
0.70098025
0.700991
0.7010012
0.7010109
0.70102
0.7010286
0.7010366
0.701044
0.7010509
0.7010572
0.701063
0.7010682
0.7010729
0.701077
0.70108056
0.70108354
0.701086
0.7010879
0.7010892
0.70109
0.70109016
0.70108986
0.70108896
0.7010875
0.7010855
0.70108294
0.7010798
0.70107615
0.7010719
0.7010671
0.7010618
0.7010559
0.7010494
0.7010424
0.70103484
0.70102674
0.70101804
0.7010088
0.700999
0.70098865
0.70097774
0.7009663
0.70095426
0.7009417
0.70092857
0.7009149
0.7009007
0.7008859
0.7008705
0.7008546
0.70083815
0.7008211
0.7008036
0.7007854
0.70076674
0.7007475
0.7007277
0.7007073
0.70068645
0.70066494
0.70064294
0.70062035
0.7005972
0.70057356
0.7005493
0.7005245
0.7004991
0.7004732
0.7004467
0.7004197
0.7003921
0.700364
0.7003353
0.70030606
0.70027626
0.7002459
0.700215
0.7001835
0.70015144
0.7001189
0.70008576
0.700052
0.7000178
0.699983
0.6999476
0.6999117
0.69987524
0.69983816
0.6998006
0.69976246
0.6997237
0.6996845
0.6996447
0.6996043
0.6995634
0.6995219
0.6994799
0.69943726
0.6993941
0.6993504
0.69930613
0.6992613
0.69921595
0.69917005
0.69912356
0.6990765
0.6990289
0.69898075
0.69893205
0.69888276
0.6988329
0.69878256
0.69873166
0.6986802
0.6986287
0.6985771
0.69852537
0.6984736
0.69842166
0.6983696
0.6983175
0.69826525
0.698213
0.6981605
0.698108
0.6980554
0.69800264
0.6979498
0.6978969
0.6978439
0.69779074
0.6977375
0.6976842
0.69763076
0.69757724
0.69752365
0.6974699
0.69741607
0.6973622
0.6973081
0.697254
0.69719976
0.69714546
0.69709104
0.6970365
0.69698185
0.69692713
0.6968723
0.6968174
0.6967623
0.6967072
0.696652
0.6965966
0.6965412
0.6964857
0.69643
0.6963743
0.6963185
0.69626254
0.6962065
0.69615036
0.69609416
0.6960378
0.6959814
0.6959248
0.6958682
0.69581145
0.69575465
0.6956977
0.6956407
0.6955835
0.6955263
0.69546896
0.6954115
0.695354
0.69529635
0.6952386
0.6951808
0.69512284
0.6950648
0.69500667
0.69494843
0.6948901
0.6948316
0.6947731
0.6947144
0.6946557
0.6945969
0.69453794
0.69447887
0.69441974
0.6943605
0.6943011
0.6942417
0.69418216
0.6941225
0.69406277
0.6940029
0.69394296
0.69388294
0.6938228
0.69376254
0.6937022
0.6936418
0.6935812
0.69352055
0.6934598
0.69339895
0.69333804
0.693277
0.69321585
0.6931546
0.69309324
0.6930318
0.6929702
0.6929086
0.69284683
0.69278497
0.69272304
0.692661
0.6925988
0.6925366
0.69247425
0.6924118
0.6923492
0.69228655
0.6922238
0.69216096
0.692098
0.69203496
0.6919718
0.69190854
0.6918452
0.69178176
0.69171816
0.6916545
0.6915908
0.6915269
0.69146293
0.6913989
0.6913347
0.6912705
0.69120616
0.69114166
0.6910771
0.69101244
0.6909477
0.69088286
0.6908179
0.6907528
0.69068766
0.6906224
0.69055706
0.69049156
0.690426
0.69036037
0.69029456
0.6902287
0.6901628
0.6900967
0.6900305
0.6899643
0.6898979
0.68983144
0.68976486
0.6896982
0.68963146
0.6895646
0.68949765
0.68943053
0.6893634
0.6892961
0.6892288
0.6891613
0.6890937
0.68902606
0.6889583
0.6888904
0.68882245
0.6887544
0.6886862
0.68861794
0.6885496
0.6884811
0.68841255
0.6883439
0.6882751
0.68820626
0.68813723
0.6880682
0.687999
0.68792975
0.68786037
0.6877909
0.6877213
0.68765163
0.6875819
0.687512
0.687442
0.68737197
0.68730175
0.6872315
0.68716115
0.68709064
0.68702006
0.68694943
0.6868786
0.68680775
0.68673676
0.6866657
0.68659455
0.68652326
0.68645185
0.6863804
0.6863088
0.68623716
0.68616533
0.68609345
0.6860215
0.6859494
0.6858772
0.68580496
0.68573254
0.68566006
0.6855875
0.6855148
0.68544203
0.68536913
0.6852962
0.6852231
0.6851499
0.6850766
0.6850032
0.6849297
0.6848562
0.6847825
0.6847087
0.6846348
0.68456084
0.68448675
0.68441254
0.6843383
0.6842639
0.6841894
0.6841148
0.6840401
0.6839653
0.68389046
0.6838155
0.6837404
0.68366516
0.6835899
0.6835145
0.683439
0.68336344
0.68328774
0.6832119
0.68313605
0.68306005
0.68298393
0.68290776
0.68283147
0.6827551
0.6826786
0.682602
0.6825253
0.6824485
0.6823716
0.6822946
0.68221754
0.68214035
0.68206304
0.6819856
0.68190813
0.6818305
0.68175286
0.6816751
0.6815972
0.68151915
0.68144107
0.68136287
0.68128455
0.68120617
0.68112767
0.68104905
0.6809704
0.6808916
0.68081266
0.6807337
0.6806546
0.6805754
0.68049604
0.68041664
0.6803372
0.68025756
0.68017787
0.68009806
0.6800181
0.67993814
0.679858
0.67977786
0.6796975
0.6796171
0.67953664
0.679456
0.6793753
0.6792945
0.6792136
0.6791326
0.6790515
0.6789703
0.678889
0.67880756
0.6787261
0.6786445
0.67856276
0.6784809
0.678399
0.678317
0.67823493
0.6781527
0.67807037
0.677988
0.6779055
0.6778229
0.67774016
0.67765737
0.6775744
0.6774914
0.6774083
0.67732507
0.6772418
0.67715836
0.67707485
0.6769912
0.67690754
0.67682374
0.6767398
0.67665577
0.67657167
0.67648745
0.6764031
0.6763187
0.6762342
0.6761496
0.67606485
0.67598003
0.67589515
0.6758101
0.675725
0.67563975
0.67555445
0.67546904
0.6753835
0.6752979
0.6752122
0.6751264
0.6750404
0.6749544
0.6748683
0.6747821
0.67469573
0.6746093
0.6745228
0.6744362
0.6743495
0.67426264
0.67417574
0.6740887
0.6740016
0.6739143
0.673827
0.6737396
0.67365205
0.67356443
0.6734767
0.6733889
0.673301
0.67321295
0.6731248
0.6730366
0.67294824
0.67285985
0.6727713
0.67268264
0.67259395
0.67250514
0.6724162
0.67232716
0.672238
0.67214876
0.6720595
0.67197
0.6718805
0.67179084
0.67170113
0.6716113
0.67152137
0.67143136
0.6713412
0.671251
0.67116064
0.6710702
0.6709797
0.670889
0.6707983
0.67070746
0.6706165
0.6705255
0.67043436
0.6703431
0.6702518
0.67016035
0.6700688
0.6699772
0.66988546
0.6697936
0.66970176
0.66961
0.6695186
0.6694274
0.6693364
0.6692456
0.669155
0.6690647
0.6689746
0.6688847
0.668795
0.6687056
0.66861635
0.66852736
0.6684386
0.66835004
0.6682617
0.6681736
0.66808575
0.6679981
0.66791064
0.66782343
0.6677364
0.6676497
0.66756314
0.66747683
0.6673907
0.6673049
0.6672192
0.6671338
0.6670486
0.6669636
0.6668788
0.6667943
0.66671
0.6666259
0.66654205
0.6664584
0.666375
0.66629183
0.66620886
0.6661261
0.6660436
0.66596127
0.6658792
0.66579735
0.66571575
0.66563433
0.66555315
0.66547215
0.66539145
0.6653109
0.66523063
0.6651506
0.6650707
0.66499114
0.66491175
0.66483253
0.6647536
0.6646749
0.6645964
0.66451806
0.66444004
0.6643622
0.6642846
0.6642072
0.66413003
0.6640531
0.6639764
0.6638999
0.6638236
0.66374755
0.66367173
0.66359615
0.66352075
0.6634456
0.66337067
0.663296
0.6632215
0.6631472
0.6630732
0.6629994
0.6629258
0.6628524
0.6627793
0.6627064
0.66263366
0.6625612
0.66248894
0.6624169
0.6623451
0.6622735
0.6622022
0.662131
0.6620601
0.6619894
0.66191894
0.6618487
0.6617787
0.6617089
0.66163933
0.66156995
0.6615009
0.66143197
0.66136324
0.6612948
0.6612266
0.66115856
0.6610908
0.6610232
0.66095585
0.66088873
0.66082186
0.6607552
0.66068876
0.66062254
0.66055655
0.66049075
0.6604252
0.66035986
0.6602948
0.66022986
0.6601652
0.66010076
0.66003656
0.65997255
0.65990883
0.65984523
0.65978193
0.6597188
0.659656
0.65959334
0.6595309
0.6594687
0.6594067
0.659345
0.6592834
0.65922207
0.65916103
0.6591001
0.6590395
0.65897906
0.65891886
0.6588589
0.6587992
0.6587396
0.6586803
0.65862125
0.6585624
0.6585038
0.65844536
0.6583872
0.6583292
0.6582715
0.658214
0.6581567
0.6580996
0.6580427
0.6579861
0.6579297
0.6578736
0.6578176
0.6577619
0.6577064
0.65765107
0.657596
0.65754116
0.65748656
0.6574322
0.657378
0.6573241
0.6572703
0.65721685
0.65716356
0.6571105
0.6570577
0.6570051
0.6569527
0.6569005
0.6568486
0.6567969
0.65674543
0.6566942
0.6566431
0.6565923
0.6565417
0.65649134
0.65644115
0.65639126
0.65634155
0.6562921
0.6562428
0.6561938
0.656145
0.6560964
0.656048
0.6559999
0.655952
0.6559043
0.6558568
0.6558096
0.65576255
0.65571576
0.65566915
0.6556228
0.6555767
0.65553075
0.6554851
0.6554396
0.6553944
0.6553494
0.6553046
0.65526
0.6552157
0.6551716
0.65512764
0.655084
0.65504056
0.6549973
0.6549543
0.6549115
0.65486896
0.65482664
0.6547845
0.65474266
0.654701
0.6546595
0.6546183
0.6545773
0.65453655
0.654496
0.65445566
0.65441555
0.6543757
0.65433604
0.65429664
0.6542574
0.65421844
0.65417963
0.6541411
0.6541028
0.6540647
0.65402687
0.6539892
0.65395176
0.6539146
0.6538776
0.65384084
0.6538043
0.653768
0.65373194
0.65369606
0.6536604
0.653625
0.65358984
0.65355486
0.6535201
0.6534856
0.6534513
0.6534172
0.6533834
0.65334976
0.6533163
0.6532832
0.6532502
0.6532175
0.65318495
0.6531527
0.65312064
0.65308875
0.65305716
0.65302575
0.6529946
0.65296364
0.65293294
0.6529024
0.65287215
0.6528421
0.65281224
0.6527826
0.65275323
0.6527241
0.6526952
0.65266645
0.65263796
0.6526097
0.65258163
0.6525538
0.6525262
0.65249884
0.65247166
0.6524448
0.6524181
0.65239155
0.6523653
0.6523393
0.6523135
0.6522879
0.6522625
0.65223736
0.65221244
0.65218776
0.65216327
0.652139
0.652115
0.6520912
0.6520676
0.65204424
0.6520211
0.6519982
0.6519755
0.65195304
0.6519308
0.6519088
0.651887
0.6518654
0.6518441
0.651823
0.65180206
0.6517814
0.65176094
0.65174073
0.6517207
0.6517009
0.65168136
0.651662
0.6516429
0.651624
0.65160537
0.6515869
0.65156865
0.6515507
0.6515329
0.65151536
0.651498
0.6514809
0.65146405
0.65144736
0.65143096
0.65141475
0.6513987
0.651383
0.6513674
0.6513521
0.651337
0.6513221
0.6513075
0.6512931
0.65127885
0.6512649
0.65125114
0.6512376
0.6512243
0.6512112
0.6511983
0.6511857
0.6511733
0.6511611
0.6511491
0.65113735
0.65112585
0.6511145
0.6511035
0.6510926
0.651082
0.6510716
0.6510614
0.65105146
0.6510417
0.6510322
0.6510229
0.65101385
0.65100497
0.6509964
0.650988
0.65097976
0.65097183
0.6509641
0.65095663
0.6509493
0.65094227
0.6509354
0.6509288
0.6509224
0.6509163
0.6509103
0.6509046
0.6508991
0.6508938
0.6508888
0.650884
0.6508794
0.650875
0.6508708
0.65086687
0.6508632
0.6508597
0.65085644
0.6508534
0.6508506
0.650848
0.6508456
0.65084344
0.65084153
0.65083987
0.6508384
0.6508372
0.6508362
0.6508356
0.6508351
0.6508349
0.6508349
0.6508352
0.6508358
0.6508366
0.65083766
0.6508389
0.65084046
0.65084225
0.65084434
0.6508466
0.65084916
0.6508519
0.650855
0.6508583
0.6508618
0.6508656
0.6508696
0.6508739
0.6508785
0.65088326
0.65088826
0.65089357
0.6508991
0.6509049
0.6509109
0.65091723
0.6509237
0.6509305
0.65093756
0.6509448
0.65095234
0.65096015
0.6509682
0.6509764
0.650985
0.65099376
0.65100276
0.65101206
0.6510216
0.6510314
0.6510414
0.65105164
0.6510622
0.6510729
0.65108395
0.6510952
0.6511068
0.6511185
0.65113056
0.65114284
0.65115535
0.6511681
0.6511811
0.6511944
0.6512079
0.6512217
0.6512357
0.65124995
0.6512645
0.6512792
0.65129423
0.6513095
0.651325
0.6513408
0.65135676
0.651373
0.65138954
0.6514063
0.65142334
0.65144056
0.6514581
0.65147585
0.65149385
0.6515121
0.65153056
0.65154934
0.65156835
0.6515876
0.6516071
0.6516268
0.65164685
0.6516671
0.6516876
0.65170836
0.65172935
0.6517506
0.6517721
0.65179384
0.65181583
0.65183806
0.6518606
0.6518833
0.6519063
0.65192956
0.65195304
0.65197676
0.6520008
0.652025
0.6520495
0.6520742
0.65209925
0.65212446
0.65215
0.65217566
0.65220165
0.65222794
0.6522544
0.6522811
0.6523081
0.65233535
0.6523628
0.65239054
0.65241855
0.65244675
0.65247524
0.65250397
0.65253294
0.6525622
0.65259165
0.6526214
0.65265137
0.6526816
0.65271205
0.6527428
0.65277374
0.652805
0.65283644
0.6528682
0.65290016
0.65293235
0.65296483
0.65299755
0.6530305
0.6530638
0.6530972
0.65313095
0.6531649
0.65319914
0.6532336
0.6532683
0.65330327
0.6533385
0.65337396
0.65340966
0.6534456
0.65348184
0.65351826
0.653555
0.65359193
0.6536292
0.6536666
0.65370435
0.6537423
0.6537805
0.65381896
0.65385765
0.65389663
0.6539358
0.65397525
0.65401495
0.65405494
0.6540951
0.6541356
0.6541763
0.65421724
0.65425843
0.65429986
0.6543416
0.65438354
0.65442574
0.6544682
0.65451086
0.6545538
0.654597
0.65464044
0.6546841
0.65472806
0.6547723
0.6548167
0.6548614
0.65490633
0.6549515
0.654997
0.65504265
0.6550886
0.6551348
0.6551812
0.6552279
0.6552748
0.655322
0.65536946
0.65541714
0.65546507
0.6555132
0.6555617
0.6556104
0.6556593
0.6557085
0.6557579
0.6558076
0.6558575
0.6559077
0.6559581
0.6560088
0.65605974
0.6561109
0.6561623
0.656214
0.6562659
0.65631807
0.6563705
0.6564232
0.6564761
0.65652925
0.6565827
0.65663636
0.6566903
0.6567445
0.65679884
0.65685356
0.65690845
0.65696365
0.657019
0.6570747
0.6571306
0.65718675
0.6572432
0.6572999
0.65735674
0.6574139
0.65747136
0.657529
0.6575869
0.65764505
0.65770346
0.6577621
0.657821
0.6578802
0.6579396
0.6579992
0.6580591
0.6581193
0.6581797
0.6582404
0.65830123
0.6583624
0.6584238
0.6584855
0.65854734
0.6586095
0.6586719
0.65873456
0.65879744
0.6588606
0.658924
0.65898764
0.65905154
0.6591157
0.65918005
0.6592447
0.6593096
0.6593748
0.65944016
0.6595058
0.65957165
0.6596378
0.6597042
0.65977085
0.6598377
0.65990484
0.65997225
0.6600399
0.6601078
0.6601759
0.6602443
0.6603129
0.6603818
0.66045094
0.6605203
0.66058993
0.66065985
0.66072994
0.66080034
0.66087097
0.66094184
0.66101295
0.66108435
0.66115594
0.6612278
0.66129994
0.66137236
0.66144496
0.66151786
0.66159093
0.6616643
0.661738
0.6618118
0.6618859
0.6619603
0.6620349
0.6621098
0.6621849
0.6622603
0.6623359
0.66241175
0.66248786
0.6625642
0.66264087
0.6627177
0.6627948
0.6628722
0.6629498
0.66302764
0.6631058
0.66318417
0.6632627
0.6633416
0.66342074
0.6635001
0.6635797
0.6636595
0.6637396
0.66381997
0.6639006
0.66398144
0.66406256
0.6641439
0.6642255
0.66430736
0.6643895
0.6644718
0.6645544
0.66463727
0.66472036
0.6648037
0.6648873
0.6649712
0.6650553
0.6651396
0.6652242
0.665309
0.6653941
0.6654795
0.6655651
0.6656509
0.665737
0.66582334
0.66590995
0.6659968
0.6660839
0.6661712
0.66625875
0.6663466
0.6664347
0.66652304
0.6666116
0.6667005
0.66678953
0.6668789
0.66696846
0.6670583
0.66714835
0.6672387
0.66732925
0.6674201
0.66751117
0.66760254
0.6676941
0.66778594
0.667878
0.6679703
0.6680629
0.6681557
0.6682488
0.6683421
0.6684357
0.6685295
0.66862357
0.6687179
0.66881245
0.6689073
0.66900235
0.66909766
0.66919327
0.66928905
0.66938514
0.66948146
0.669578
0.6696748
0.6697719
0.66986924
0.66996676
0.67006457
0.6701627
0.67026097
0.67035955
0.6704583
0.6705573
0.6706559
0.670754
0.67085177
0.67094904
0.67104584
0.6711423
0.67123824
0.6713338
0.67142886
0.6715236
0.6716178
0.67171156
0.67180496
0.6718979
0.6719904
0.6720824
0.67217404
0.67226523
0.672356
0.6724463
0.6725362
0.67262566
0.67271465
0.6728032
0.6728914
0.67297906
0.6730664
0.67315316
0.6732396
0.67332554
0.6734111
0.6734962
0.6735808
0.6736651
0.67374885
0.67383224
0.67391515
0.67399764
0.6740797
0.6741613
0.6742425
0.67432326
0.67440355
0.6744834
0.6745629
0.67464185
0.67472047
0.6747986
0.6748763
0.6749535
0.67503035
0.67510676
0.67518276
0.6752583
0.6753334
0.675408
0.6754822
0.675556
0.6756294
0.6757023
0.67577475
0.6758468
0.6759184
0.6759896
0.6760603
0.67613065
0.6762005
0.67626995
0.676339
0.6764075
0.67647564
0.67654335
0.6766106
0.67667747
0.6767438
0.6768098
0.6768753
0.6769404
0.67700505
0.67706925
0.677133
0.6771964
0.67725927
0.6773218
0.6773838
0.6774454
0.67750657
0.6775673
0.6776276
0.67768747
0.6777469
0.6778059
0.6778645
0.6779226
0.6779803
0.6780375
0.6780944
0.6781508
0.6782067
0.67826223
0.6783173
0.67837197
0.67842615
0.6784799
0.67853326
0.6785862
0.67863864
0.6786907
0.6787423
0.67879343
0.67884415
0.67889446
0.6789443
0.67899376
0.67904276
0.6790913
0.6791394
0.6791871
0.6792343
0.6792812
0.67932755
0.6793735
0.679419
0.67946404
0.6795087
0.6795529
0.67959666
0.67964
0.6796829
0.67972535
0.6797674
0.679809
0.67985016
0.6798909
0.67993116
0.67997104
0.68001044
0.6800494
0.680088
0.6801261
0.68016374
0.680201
0.6802378
0.6802742
0.68031013
0.68034565
0.6803807
0.68041533
0.68044955
0.6804833
0.6805166
0.6805495
0.680582
0.680614
0.6806456
0.68067676
0.68070745
0.68073773
0.6807676
0.680797
0.68082595
0.6808545
0.68088263
0.6809103
0.6809375
0.68096435
0.6809907
0.6810166
0.68104213
0.68106717
0.68109185
0.68111604
0.68113977
0.6811631
0.68118596
0.68120843
0.6812304
0.68125206
0.68127316
0.6812939
0.6813142
0.681334
0.6813534
0.6813724
0.68139094
0.681409
0.6814267
0.6814439
0.68146074
0.68147707
0.681493
0.6815085
0.68152356
0.68153816
0.68155235
0.6815661
0.6815794
0.68159235
0.68160474
0.6816168
0.68162835
0.6816395
0.6816502
0.6816605
0.6816703
0.6816797
0.68168867
0.6816972
0.6817053
0.681713
0.6817202
0.681727
0.6817333
0.6817393
0.68174475
0.6817498
0.6817544
0.6817586
0.68176234
0.6817657
0.68176854
0.681771
0.68177295
0.68177456
0.6817757
0.6817764
0.68177664
0.68177646
0.68177587
0.68177485
0.68177336
0.68177146
0.6817691
0.68176633
0.6817631
0.6817595
0.68175536
0.68175083
0.6817459
0.6817405
0.6817347
0.6817284
0.68172175
0.6817146
0.681707
0.68169904
0.6816906
0.68168175
0.6816724
0.6816627
0.6816525
0.6816419
0.68163085
0.68161935
0.6816074
0.6815951
0.68158233
0.6815691
0.68155545
0.6815413
0.68152684
0.6815119
0.68149644
0.68148065
0.6814644
0.6814477
0.6814305
0.68141294
0.68139493
0.6813765
0.6813576
0.6813383
0.6813186
0.6812984
0.6812778
0.6812567
0.68123525
0.6812133
0.68119097
0.6811682
0.68114495
0.6811213
0.6810972
0.68107265
0.6810477
0.6810223
0.6809965
0.6809702
0.6809435
0.6809163
0.6808888
0.68086076
0.6808323
0.6808034
0.6807741
0.68074435
0.6807142
0.68068355
0.6806525
0.68062097
0.6805891
0.6805567
0.68052393
0.6804907
0.680457
0.6804229
0.6803884
0.6803534
0.680318
0.6802821
0.6802459
0.68020916
0.680172
0.6801344
0.6800964
0.68005794
0.6800191
0.67997974
0.67994
0.6798998
0.67985916
0.6798181
0.6797766
0.67973465
0.6796923
0.6796495
0.67960626
0.67956257
0.67951846
0.67947394
0.67942894
0.6793836
0.6793377
0.6792914
0.6792447
0.67919755
0.67915
0.67910194
0.6790535
0.6790046
0.67895526
0.6789055
0.6788553
0.67880464
0.6787536
0.67870206
0.67865014
0.67859775
0.67854494
0.6784917
0.67843807
0.67838395
0.67832935
0.6782744
0.67821896
0.6781631
0.67810684
0.6780501
0.67799294
0.67793536
0.6778773
0.67781883
0.67775995
0.67770064
0.67764086
0.67758065
0.67752004
0.67745894
0.67739743
0.6773355
0.6772731
0.6772103
0.67714703
0.6770834
0.67701924
0.6769547
0.6768897
0.6768243
0.6767584
0.6766921
0.6766254
0.6765582
0.6764906
0.6764226
0.6763541
0.6762852
0.6762159
0.6761461
0.6760759
0.67600524
0.67593414
0.67586267
0.67579067
0.6757183
0.6756455
0.6755722
0.67549855
0.6754244
0.67534983
0.67527485
0.67519945
0.6751236
0.6750473
0.67497057
0.6748938
0.6748169
0.67473996
0.674663
0.6745859
0.67450875
0.67443156
0.67435426
0.6742769
0.67419946
0.674122
0.67404443
0.6739668
0.6738891
0.6738113
0.6737335
0.67365557
0.6735776
0.6734995
0.6734214
0.67334324
0.673265
0.6731866
0.6731082
0.6730298
0.6729512
0.6728726
0.6727939
0.6727152
0.67263633
0.6725575
0.6724785
0.67239946
0.67232037
0.6722412
0.67216194
0.67208266
0.67200327
0.6719238
0.6718443
0.67176473
0.67168504
0.67160535
0.67152554
0.67144567
0.67136574
0.6712857
0.67120564
0.6711255
0.67104524
0.67096496
0.6708846
0.6708042
0.6707237
0.67064315
0.6705625
0.6704818
0.670401
0.67032015
0.6702392
0.67015827
0.6700772
0.6699961
0.66991484
0.6698336
0.66975224
0.6696709
0.6695894
0.66950786
0.6694262
0.66934454
0.66926277
0.669181
0.6690991
0.6690171
0.66893506
0.668853
0.6687708
0.66868854
0.6686062
0.66852385
0.6684414
0.66835886
0.66827625
0.66819364
0.66811085
0.66802806
0.6679452
0.66786224
0.66777927
0.6676962
0.667613
0.66752976
0.6674465
0.6673631
0.6672797
0.6671962
0.66711265
0.66702896
0.6669453
0.6668615
0.6667776
0.66669375
0.6666097
0.66652566
0.66644156
0.66635734
0.66627306
0.6661887
0.6661043
0.66601986
0.6659353
0.66585064
0.665766
0.66568124
0.66559637
0.6655115
0.6654265
0.6653415
0.6652564
0.6651712
0.665086
0.6650006
0.66491526
0.6648298
0.66474426
0.66465867
0.66457295
0.66448724
0.6644014
0.6643156
0.66422963
0.6641436
0.6640575
0.66397136
0.6638851
0.6637988
0.66371244
0.663626
0.6635395
0.6634529
0.6633663
0.6632796
0.6631928
0.66310596
0.663019
0.66293204
0.66284496
0.6627578
0.6626706
0.66258335
0.662496
0.6624086
0.6623211
0.66223353
0.6621459
0.66205823
0.66197044
0.66188264
0.6617947
0.66170675
0.6616187
0.6615306
0.6614424
0.6613541
0.66126585
0.66117746
0.661089
0.66100043
0.66091186
0.66082317
0.6607344
0.6606456
0.66055673
0.6604678
0.66037875
0.66028965
0.66020054
0.66011125
0.66002196
0.6599326
0.65984315
0.6597537
0.6596641
0.65957445
0.6594847
0.6593949
0.65930504
0.6592151
0.65912515
0.659035
0.6589449
0.6588547
0.6587644
0.65867406
0.65858364
0.65849316
0.6584026
0.65831196
0.6582213
0.6581305
0.6580397
0.6579488
0.6578578
0.65776676
0.6576756
0.6575844
0.6574932
0.65740186
0.6573104
0.657219
0.65712744
0.6570358
0.65694416
0.6568524
0.65676063
0.6566687
0.65657675
0.6564847
0.65639263
0.6563005
0.6562082
0.65611595
0.65602356
0.6559311
0.6558386
0.65574604
0.65565336
0.6555606
0.65546787
0.655375
0.655282
0.65518904
0.65509593
0.65500283
0.6549096
0.6548163
0.654723
0.6546295
0.65453607
0.6544425
0.65434885
0.65425515
0.6541614
0.6540675
0.65397364
0.65387964
0.6537856
0.6536915
0.6535973
0.653503
0.6534087
0.6533143
0.6532198
0.6531253
0.65303063
0.652936
0.6528412
0.6527464
0.6526515
0.65255654
0.6524615
0.6523664
0.6522713
0.652176
0.6520807
0.65198535
0.65188986
0.6517944
0.65169877
0.6516031
0.6515074
0.6514116
0.6513157
0.6512198
0.65112376
0.6510277
0.65093154
0.65083534
0.650739
0.6506427
0.65054625
0.65044975
0.6503532
0.6502565
0.65015984
0.65006304
0.64996624
0.6498693
0.6497723
0.64967525
0.64957815
0.64948094
0.64938366
0.6492863
0.64918894
0.6490914
0.6489939
0.6488963
0.6487986
0.64870083
0.648603
0.64850515
0.64840716
0.6483091
0.648211
0.64811283
0.6480146
0.6479163
0.6478179
0.64771944
0.6476209
0.64752233
0.6474237
0.6473249
0.64722615
0.6471273
0.6470283
0.6469293
0.6468302
0.6467311
0.64663184
0.64653254
0.6464332
0.64633375
0.6462343
0.6461347
0.646035
0.64593536
0.6458356
0.6457357
0.6456358
0.64553577
0.64543575
0.6453356
0.6452354
0.6451351
0.6450348
0.64493436
0.6448339
0.64473337
0.6446327
0.644532
0.6444313
0.64433044
0.64422953
0.64412856
0.64402753
0.64392644
0.64382523
0.643724
0.6436227
0.6435213
0.64341986
0.6433183
0.6432167
0.64311504
0.6430133
0.6429115
0.6428096
0.64270765
0.64260566
0.64250356
0.6424014
0.6422992
0.6421969
0.64209455
0.6419921
0.6418896
0.641787
0.64168435
0.64158165
0.64147884
0.641376
0.6412731
0.6411701
0.641067
0.64096385
0.6408607
0.6407574
0.640654
0.6405506
0.64044714
0.6403436
0.64023995
0.6401363
0.64003253
0.6399287
0.6398248
0.6397208
0.6396168
0.63951266
0.63940847
0.6393042
0.6391999
0.6390955
0.63899106
0.6388865
0.6387819
0.63867724
0.6385725
0.63846767
0.6383628
0.6382579
0.6381533
0.6380492
0.63794535
0.637842
0.63773894
0.63763636
0.6375341
0.6374322
0.6373308
0.6372297
0.637129
0.63702875
0.6369288
0.6368293
0.63673013
0.6366314
0.636533
0.6364351
0.6363375
0.6362403
0.6361435
0.63604707
0.63595104
0.6358554
0.6357601
0.63566524
0.63557076
0.6354767
0.63538295
0.63528967
0.63519675
0.6351042
0.63501203
0.63492024
0.63482887
0.6347379
0.63464725
0.63455707
0.63446724
0.6343778
0.6342887
0.6342001
0.6341118
0.6340239
0.6339364
0.63384926
0.63376254
0.63367623
0.6335903
0.6335047
0.6334195
0.63333476
0.63325036
0.6331663
0.6330827
0.6329995
0.6329166
0.63283414
0.63275206
0.6326704
0.6325891
0.63250816
0.63242763
0.6323475
0.6322678
0.63218844
0.63210946
0.63203084
0.63195264
0.63187486
0.63179743
0.6317204
0.6316438
0.6315675
0.6314916
0.63141614
0.63134104
0.63126636
0.631192
0.63111806
0.63104457
0.6309714
0.6308986
0.63082623
0.63075423
0.63068265
0.6306114
0.6305406
0.63047016
0.6304001
0.63033044
0.6302612
0.6301923
0.63012373
0.63005567
0.6299879
0.6299206
0.6298536
0.6297871
0.62972087
0.6296551
0.6295897
0.6295247
0.62946004
0.62939584
0.62933195
0.6292685
0.6292054
0.62914276
0.6290805
0.62901855
0.62895703
0.6288959
0.62883514
0.62877476
0.6287148
0.6286552
0.628596
0.62853724
0.62847877
0.62842077
0.62836313
0.62830585
0.628249
0.6281925
0.6281364
0.62808067
0.62802535
0.62797046
0.6279159
0.62786174
0.627808
0.62775457
0.6277016
0.627649
0.6275968
0.62754494
0.6274935
0.6274425
0.6273918
0.6273415
0.6272916
0.6272421
0.627193
0.6271443
0.62709594
0.62704796
0.6270004
0.62695324
0.62690645
0.62686
0.62681407
0.6267684
0.6267232
0.62667835
0.6266339
0.6265898
0.6265461
0.6265028
0.6264599
0.62641734
0.62637526
0.6263335
0.6262921
0.62625116
0.6262106
0.6261704
0.6261306
0.6260911
0.6260521
0.62601346
0.6259752
0.62593734
0.62589985
0.6258628
0.62582606
0.6257897
0.6257538
0.62571824
0.62568307
0.6256483
0.6256139
0.62557995
0.62554634
0.62551314
0.6254803
0.62544787
0.6254158
0.62538415
0.62535286
0.625322
0.62529147
0.62526137
0.6252316
0.6252023
0.62517333
0.6251448
0.6251166
0.6250888
0.6250614
0.6250344
0.62500775
0.6249815
0.62495565
0.6249302
0.6249051
0.62488043
0.6248562
0.6248322
0.6248087
0.6247856
0.62476283
0.6247405
0.6247185
0.6246969
0.6246757
0.6246549
0.6246345
0.6246145
0.6245948
0.62457556
0.62455666
0.6245382
0.6245201
0.6245024
0.6244851
0.62446815
0.6244516
0.6244354
0.6244197
0.6244043
0.6243893
0.6243747
0.6243605
0.6243467
0.6243332
0.62432015
0.6243075
0.62429523
0.6242833
0.6242718
0.6242607
0.62425
0.6242396
0.62422967
0.62422013
0.62421095
0.62420213
0.6241937
0.62418574
0.6241781
0.62417084
0.62416404
0.62415755
0.62415147
0.6241458
0.6241405
0.6241356
0.6241311
0.6241269
0.62412316
0.6241198
0.62411684
0.6241143
0.62411207
0.6241103
0.62410885
0.6241078
0.6241071
0.6241069
0.624107
0.62410754
0.62410843
0.62410975
0.6241114
0.6241135
0.62411594
0.6241188
0.624122
0.62412566
0.62412965
0.62413406
0.62413883
0.624144
0.62414956
0.6241555
0.62416184
0.6241686
0.62417567
0.6241832
0.62419105
0.62419933
0.624208
0.62421703
0.62422645
0.6242363
0.6242465
0.6242571
0.62426805
0.62427944
0.6242912
0.62430334
0.6243159
0.6243288
0.62434214
0.62435585
0.6243699
0.6243844
0.62439924
0.6244145
0.6244302
0.62444615
0.6244626
0.6244794
0.6244966
0.62451416
0.62453216
0.62455046
0.62456924
0.6245884
0.62460786
0.62462777
0.6246481
0.6246688
0.6246898
0.6247113
0.62473315
0.6247553
0.624778
0.624801
0.62482435
0.6248481
0.6248723
0.6248969
0.6249218
0.6249472
0.6249729
0.624999
0.6250255
0.6250524
0.62507963
0.6251073
0.62513536
0.6251638
0.6251926
0.62522185
0.6252514
0.6252814
0.6253118
0.62534255
0.6253737
0.62540525
0.62543714
0.62546945
0.62550217
0.62553525
0.62556875
0.6256026
0.6256369
0.6256715
0.6257065
0.62574196
0.6257777
0.6258139
0.6258505
0.62588745
0.6259248
0.62596256
0.6260007
0.6260392
0.6260781
0.6261174
0.6261571
0.62619716
0.62623763
0.62627846
0.6263197
0.6263613
0.62640333
0.6264457
0.6264885
0.62653166
0.62657523
0.62661916
0.6266635
0.6267082
0.62675333
0.6267988
0.6268447
0.62689096
0.6269376
0.62698466
0.6270321
0.62707996
0.6271281
0.62717676
0.62722576
0.6272751
0.6273249
0.627375
0.62742555
0.62747645
0.6275278
0.62757945
0.627631
0.62768245
0.6277337
0.62778485
0.62783587
0.6278867
0.62793744
0.627988
0.6280384
0.62808865
0.6281388
0.6281888
0.6282386
0.62828827
0.62833786
0.6283873
0.6284365
0.6284856
0.6285346
0.62858343
0.6286321
0.62868065
0.62872905
0.62877727
0.62882537
0.62887335
0.62892115
0.62896883
0.62901634
0.6290637
0.629111
0.6291581
0.62920505
0.62925184
0.6292985
0.629345
0.6293914
0.62943757
0.6294837
0.6295296
0.62957543
0.629621
0.62966657
0.6297119
0.6297571
0.62980217
0.6298471
0.6298919
0.6299365
0.62998104
0.6300254
0.63006955
0.63011366
0.63015753
0.63020134
0.630245
0.6302884
0.63033175
0.63037497
0.630418
0.6304609
0.63050365
0.6305463
0.6305887
0.630631
0.6306732
0.63071525
0.63075715
0.63079894
0.63084054
0.63088197
0.6309233
0.63096446
0.63100547
0.63104635
0.63108706
0.63112766
0.6311681
0.6312084
0.6312486
0.6312886
0.63132846
0.63136816
0.63140774
0.6314472
0.6314865
0.63152564
0.6315646
0.6316035
0.6316422
0.6316808
0.6317192
0.63175744
0.6317956
0.63183355
0.6318714
0.63190913
0.6319467
0.6319841
0.63202137
0.6320585
0.63209546
0.6321323
0.632169
0.63220555
0.6322419
0.6322782
0.63231426
0.63235027
0.6323861
0.63242173
0.63245726
0.63249266
0.6325279
0.632563
0.632598
0.6326328
0.6326674
0.63270193
0.6327363
0.6327706
0.63280463
0.6328386
0.6328724
0.6329061
0.6329396
0.6329729
0.63300616
0.63303924
0.63307214
0.6331049
0.6331376
0.63317007
0.63320243
0.6332346
0.6332667
0.63329864
0.6333304
0.63336205
0.6333935
0.6334249
0.63345605
0.6334871
0.63351804
0.6335488
0.6335794
0.6336099
0.6336402
0.6336704
0.63370043
0.63373035
0.6337601
0.63378966
0.63381916
0.6338485
0.63387764
0.63390666
0.6339356
0.6339643
0.6339929
0.63402134
0.63404965
0.6340778
0.63410586
0.6341337
0.6341614
0.634189
0.6342165
0.6342437
0.6342709
0.6342979
0.6343248
0.6343515
0.6343781
0.6344045
0.63443077
0.63445693
0.6344829
0.6345088
0.6345345
0.63456005
0.63458544
0.6346107
0.63463587
0.63466084
0.6346857
0.6347104
0.6347349
0.6347593
0.63478357
0.6348077
0.63483167
0.6348555
0.6348792
0.6349027
0.6349261
0.6349494
0.63497245
0.6349954
0.6350182
0.63504094
0.6350634
0.6350858
0.63510805
0.63513017
0.6351521
0.6351739
0.63519555
0.6352171
0.63523847
0.6352597
0.6352808
0.6353017
0.6353225
0.63534313
0.63536364
0.635384
0.6354042
0.6354243
0.6354442
0.635464
0.6354836
0.6355031
0.6355225
0.6355417
0.63556075
0.63557965
0.6355984
0.635617
0.6356355
0.63565385
0.63567203
0.6356901
0.635708
0.63572574
0.6357434
0.63576084
0.6357782
0.63579535
0.6358124
0.63582927
0.635846
0.63586265
0.6358791
0.6358954
0.6359116
0.63592756
0.6359435
0.6359592
0.63597476
0.63599026
0.6360055
0.6360207
0.6360357
0.6360506
0.6360653
0.6360799
0.63609433
0.6361086
0.63612276
0.6361368
0.6361506
0.6361643
0.6361779
0.6361913
0.6362046
0.6362177
0.6362307
0.6362436
0.6362563
0.6362688
0.63628125
0.6362935
0.63630563
0.6363176
0.6363294
0.6363411
0.63635266
0.63636404
0.6363753
0.63638645
0.6363974
0.6364082
0.6364189
0.6364294
0.6364398
0.63645005
0.6364602
0.63647014
0.6364799
0.63648957
0.6364991
0.63650846
0.6365177
0.6365268
0.63653576
0.6365445
0.6365532
0.6365617
0.6365701
0.6365783
0.63658637
0.6365943
0.6366021
0.63660973
0.63661724
0.6366246
0.6366318
0.6366389
0.6366458
0.6366526
0.6366592
0.6366657
0.636672
0.6366782
0.6366843
0.6366902
0.636696
0.6367016
0.63670707
0.6367124
0.63671756
0.6367226
0.6367275
0.6367323
0.63673687
0.63674134
0.63674563
0.6367498
0.63675386
0.63675773
0.6367615
0.63676506
0.6367685
0.63677186
0.636775
0.636778
0.6367809
0.6367836
0.6367862
0.63678867
0.63679093
0.6367931
0.6367951
0.63679695
0.6367987
0.6368003
0.6368017
0.636803
0.6368041
0.6368051
0.63680595
0.63680667
0.6368072
0.6368076
0.6368079
0.63680804
0.63680804
0.63680786
0.63680756
0.63680714
0.63680655
0.6368058
0.6368049
0.63680387
0.63680273
0.63680136
0.63679993
0.6367983
0.6367966
0.6367947
0.63679266
0.63679045
0.63678813
0.6367857
0.63678306
0.63678026
0.6367774
0.6367743
0.63677114
0.6367678
0.6367643
0.63676065
0.6367569
0.63675296
0.6367489
0.63674474
0.6367404
0.63673586
0.6367312
0.63672644
0.6367215
0.6367164
0.63671124
0.6367059
0.63670033
0.6366947
0.6366889
0.636683
0.6366769
0.63667065
0.6366643
0.6366578
0.6366511
0.6366444
0.63663775
0.6366311
0.6366244
0.6366177
0.63661104
0.63660437
0.6365977
0.636591
0.63658434
0.63657767
0.636571
0.6365643
0.63655764
0.6365509
0.6365442
0.63653755
0.6365309
0.6365242
0.63651747
0.6365108
0.6365041
0.63649744
0.6364907
0.636484
0.63647735
0.6364706
0.63646394
0.6364572
0.6364505
0.63644385
0.6364371
0.63643044
0.6364237
0.63641703
0.6364103
0.6364036
0.6363969
0.6363902
0.6363835
0.63637674
0.63637006
0.6363633
0.63635665
0.6363499
0.6363432
0.6363365
0.63632977
0.63632303
0.6363163
0.6363096
0.6363029
0.63629615
0.6362894
0.63628274
0.636276
0.6362693
0.63626254
0.6362558
0.63624907
0.63624233
0.63623565
0.6362289
0.6362222
0.63621545
0.6362087
0.636202
0.63619524
0.6361885
0.6361818
0.63617504
0.63616824
0.6361615
0.6361548
0.63614804
0.6361413
0.63613456
0.6361278
0.63612103
0.6361143
0.63610756
0.6361008
0.6360941
0.6360873
0.63608056
0.6360738
0.63606703
0.6360603
0.63605356
0.63604677
0.63604003
0.6360333
0.6360265
0.63601977
0.636013
0.63600624
0.63599944
0.6359927
0.6359859
0.6359792
0.6359724
0.63596565
0.63595885
0.6359521
0.6359453
0.6359385
0.6359318
0.635925
0.6359182
0.63591146
0.63590467
0.6358979
0.63589114
0.63588434
0.63587755
0.63587075
0.635864
0.6358572
0.6358504
0.63584363
0.63583684
0.63583004
0.63582325
0.6358165
0.6358097
0.6358029
0.6357961
0.63578933
0.63578254
0.63577574
0.63576895
0.63576216
0.63575536
0.63574857
0.6357418
0.635735
0.6357281
0.6357213
0.63571453
0.63570774
0.63570094
0.63569415
0.6356873
0.6356805
0.6356737
0.6356669
0.63566005
0.63565326
0.63564646
0.63563967
0.6356328
0.635626
0.63561916
0.63561237
0.6356056
0.6355987
0.6355919
0.63558507
0.6355783
0.6355714
0.6355646
0.6355578
0.635551
0.6355441
0.6355373
0.6355305
0.6355237
0.6355168
0.63550997
0.6355032
0.6354963
0.6354895
0.63548267
0.6354758
0.63546896
0.63546216
0.6354553
0.63544846
0.6354416
0.6354348
0.63542795
0.6354211
0.63541424
0.6354074
0.63540053
0.63539374
0.6353869
0.63538
0.6353732
0.6353663
0.63535947
0.6353526
0.63534576
0.6353389
0.63533205
0.6353252
0.63531834
0.6353115
0.63530463
0.6352977
0.63529086
0.635284
0.63527715
0.6352703
0.63526344
0.6352565
0.6352497
0.6352428
0.63523597
0.63522905
0.6352222
0.63521534
0.6352085
0.6352016
0.6351947
0.6351878
0.63518095
0.6351741
0.6351672
0.6351603
0.6351534
0.63514656
0.63513964
0.6351328
0.6351259
0.635119
0.6351121
0.63510525
0.63509834
0.6350915
0.63508457
0.63507766
0.6350708
0.6350639
0.635057
0.6350501
0.6350432
0.6350363
0.63502944
0.6350225
0.6350156
0.6350087
0.63500184
0.6349949
0.634988
0.6349811
0.6349742
0.63496727
0.63496035
0.6349535
0.6349466
0.6349397
0.63493276
0.63492584
0.6349189
0.634912
0.6349051
0.6348982
0.6348913
0.63488436
0.63487744
0.63487047
0.63486356
0.63485664
0.6348497
0.6348428
0.6348359
0.634829
0.634822
0.6348151
0.6348082
0.63480127
0.6347943
0.6347874
0.63478047
0.6347735
0.6347666
0.63475966
0.6347527
0.6347458
0.63473886
0.6347319
0.634725
0.634718
0.6347111
0.6347041
0.6346972
0.6346902
0.6346833
0.63467634
0.6346694
0.63466245
0.63465554
0.63464856
0.6346416
0.6346347
0.6346277
0.6346207
0.6346138
0.63460684
0.63459986
0.6345929
0.634586
0.634579
0.634572
0.63456506
0.63455814
0.63455117
0.6345442
0.6345372
0.63453025
0.6345233
0.6345163
0.6345093
0.63450235
0.63449544
0.63448846
0.6344815
0.6344745
0.63446754
0.63446057
0.63445354
0.63444656
0.6344396
0.6344326
0.63442564
0.63441867
0.6344117
0.6344047
0.6343977
0.6343907
0.63438374
0.63437676
0.6343698
0.63436276
0.6343558
0.6343488
0.6343418
0.6343348
0.6343278
0.6343208
0.6343138
0.63430685
0.6342998
0.63429284
0.6342858
0.63427883
0.63427186
0.6342648
0.63425785
0.6342508
0.63424385
0.6342368
0.6342298
0.6342228
0.6342158
0.6342088
0.63420177
0.63419473
0.63418776
0.6341807
0.6341737
0.6341667
0.6341597
0.63415265
0.6341456
0.63413864
0.6341316
0.6341246
0.63411754
0.6341105
0.63410354
0.6340965
0.63408947
0.63408244
0.6340754
0.63406837
0.63406134
0.6340543
0.63404727
0.63404024
0.6340332
0.63402617
0.63401914
0.6340121
0.63400507
0.63399804
0.633991
0.63398397
0.63397694
0.63396984
0.6339628
0.6339558
0.63394874
0.6339417
0.6339346
0.6339276
0.63392055
0.6339135
0.6339064
0.6338994
0.63389236
0.63388526
0.63387823
0.6338709
0.63386333
0.63385546
0.6338473
0.6338389
0.6338302
0.6338212
0.63381195
0.63380235
0.6337926
0.63378245
0.6337721
0.6337614
0.6337505
0.6337393
0.6337278
0.633716
0.63370395
0.6336916
0.633679
0.6336661
0.6336529
0.63363945
0.63362575
0.63361174
0.63359743
0.6335829
0.633568
0.6335529
0.6335375
0.6335218
0.6335058
0.6334896
0.63347304
0.63345623
0.6334392
0.63342184
0.6334042
0.63338625
0.6333681
0.6333496
0.6333308
0.63331175
0.63329244
0.6332729
0.633253
0.63323283
0.6332124
0.6331917
0.63317066
0.63314945
0.63312787
0.63310605
0.63308394
0.6330615
0.6330389
0.63301593
0.6329927
0.6329692
0.6329454
0.63292134
0.632897
0.6328724
0.6328475
0.6328223
0.6327968
0.6327711
0.6327451
0.6327188
0.6326922
0.63266534
0.6326382
0.6326108
0.6325831
0.6325551
0.6325269
0.6324983
0.63246953
0.63244045
0.63241106
0.63238144
0.63235146
0.6323213
0.6322908
0.63226
0.632229
0.6321977
0.632166
0.63213414
0.632102
0.6320696
0.63203686
0.63200384
0.6319706
0.631937
0.6319032
0.631869
0.6318346
0.6318
0.631765
0.6317298
0.63169426
0.6316585
0.6316224
0.6315861
0.6315494
0.6315125
0.6314753
0.63143784
0.6314001
0.6313621
0.63132375
0.6312852
0.6312463
0.63120717
0.63116777
0.6311281
0.6310881
0.6310478
0.63100725
0.6309664
0.63092536
0.630884
0.6308423
0.63080037
0.63075817
0.63071567
0.6306729
0.63062984
0.6305865
0.6305429
0.630499
0.63045484
0.6304104
0.6303656
0.6303206
0.63027537
0.6302298
0.63018394
0.6301378
0.63009137
0.6300447
0.62999773
0.6299505
0.62990296
0.62985516
0.6298071
0.6297587
0.6297101
0.6296612
0.62961197
0.6295625
0.6295127
0.6294627
0.6294124
0.6293618
0.6293109
0.62925977
0.6292083
0.62915665
0.6291047
0.6290524
0.6289998
0.628947
0.6288939
0.6288405
0.62878686
0.6287329
0.6286787
0.62862414
0.62856936
0.62851435
0.628459
0.62840337
0.62834746
0.6282913
0.6282348
0.62817806
0.6281211
0.6280638
0.6280062
0.62794834
0.6278902
0.6278318
0.6277731
0.62771416
0.62765485
0.62759537
0.6275355
0.62747544
0.62741506
0.62735444
0.6272935
0.6272323
0.6271708
0.62710905
0.627047
0.62698466
0.6269221
0.6268592
0.62679607
0.6267326
0.6266689
0.62660486
0.6265406
0.62647605
0.6264112
0.6263461
0.6262807
0.62621504
0.62614906
0.62608284
0.6260163
0.62594956
0.62588245
0.6258151
0.6257475
0.62567955
0.62561136
0.62554294
0.62547415
0.62540513
0.6253359
0.62526625
0.6251964
0.62512624
0.62505585
0.62498516
0.62491417
0.6248429
0.62477136
0.62469953
0.6246274
0.62455505
0.6244824
0.6244095
0.62433624
0.62426275
0.624189
0.62411493
0.6240406
0.623966
0.6238911
0.62381595
0.6237405
0.62366474
0.62358874
0.62351245
0.6234359
0.6233591
0.62328196
0.6232045
0.62312686
0.6230489
0.62297064
0.62289214
0.62281334
0.62273425
0.6226549
0.6225752
0.62249535
0.6224151
0.62233466
0.6222539
0.6221729
0.6220916
0.62201
0.6219281
0.62184596
0.6217635
0.6216808
0.6215978
0.62151456
0.621431
0.6213472
0.6212631
0.6211787
0.62109405
0.6210091
0.6209239
0.62083834
0.6207526
0.6206665
0.6205802
0.62049353
0.6204067
0.6203195
0.62023205
0.6201443
0.6200563
0.619968
0.6198794
0.61979055
0.61970145
0.61961204
0.61952233
0.61943233
0.6193421
0.61925155
0.6191608
0.6190697
0.6189783
0.61888665
0.61879474
0.61870253
0.61861
0.6185173
0.61842424
0.6183309
0.6182373
0.61814344
0.61804926
0.61795485
0.61786014
0.6177651
0.6176699
0.6175743
0.6174785
0.61738235
0.61728597
0.6171893
0.6170923
0.6169951
0.6168976
0.61679983
0.6167017
0.6166034
0.6165048
0.61640584
0.61630666
0.6162072
0.61610746
0.61600745
0.61590713
0.6158066
0.61570567
0.6156046
0.61550313
0.61540145
0.61529946
0.6151972
0.61509466
0.61499184
0.6148887
0.6147854
0.6146817
0.6145778
0.6144736
0.6143691
0.6142643
0.6141593
0.6140539
0.61394835
0.6138424
0.6137363
0.6136298
0.6135231
0.6134161
0.6133088
0.61320126
0.6130934
0.61298525
0.6128769
0.6127682
0.6126592
0.61255
0.61244047
0.6123307
0.6122206
0.61211026
0.61199963
0.6118887
0.6117775
0.611666
0.61155427
0.61144227
0.6113299
0.6112173
0.6111045
0.61099136
0.61087793
0.6107642
0.6106502
0.6105359
0.6104214
0.61030656
0.61019146
0.61007607
0.60996044
0.6098445
0.6097283
0.60961175
0.609495
0.6093779
0.60926056
0.60914296
0.60902506
0.6089069
0.60878843
0.6086697
0.60855067
0.6084314
0.60831183
0.608192
0.60807276
0.60795414
0.6078362
0.60771894
0.60760236
0.6074864
0.6073712
0.60725665
0.6071428
0.6070296
0.6069171
0.6068052
0.60669404
0.60658354
0.60647374
0.6063646
0.6062561
0.6061483
0.6060412
0.6059348
0.605829
0.6057239
0.60561955
0.6055158
0.6054127
0.6053104
0.60520864
0.6051076
0.6050073
0.60490763
0.6048086
0.6047103
0.60461265
0.6045157
0.6044194
0.6043238
0.60422885
0.6041346
0.604041
0.6039481
0.60385585
0.6037643
0.60367346
0.6035832
0.6034937
0.6034049
0.6033167
0.6032292
0.6031424
0.60305625
0.6029708
0.60288596
0.60280186
0.6027184
0.6026357
0.6025536
0.6024722
0.6023915
0.60231143
0.60223204
0.6021533
0.6020753
0.601998
0.60192126
0.60184526
0.60177
0.60169536
0.6016214
0.6015481
0.6014755
0.60140353
0.60133225
0.6012617
0.60119176
0.60112256
0.601054
0.6009861
0.60091895
0.60085243
0.60078657
0.60072136
0.60065687
0.6005931
0.6005299
0.60046744
0.6004057
0.60034454
0.60028416
0.6002244
0.6001653
0.6001069
0.60004914
0.5999921
0.5999357
0.59988004
0.599825
0.59977067
0.59971696
0.599664
0.5996117
0.59956
0.59950906
0.5994588
0.59940916
0.5993602
0.599312
0.5992644
0.5992175
0.5991713
0.59912574
0.59908086
0.59903663
0.5989931
0.59895027
0.5989081
0.5988666
0.5988258
0.59878564
0.5987462
0.5987074
0.5986693
0.59863186
0.5985951
0.598559
0.5985236
0.59848887
0.59845483
0.59842145
0.5983888
0.5983567
0.5983254
0.59829473
0.59826475
0.5982354
0.59820676
0.5981788
0.5981515
0.5981249
0.598099
0.5980737
0.59804916
0.59802526
0.598002
0.5979795
0.5979576
0.5979364
0.5979159
0.59789604
0.59787685
0.59785837
0.59784055
0.5978234
0.59780693
0.59779114
0.59777606
0.59776163
0.59774786
0.5977348
0.59772235
0.59771067
0.5976996
0.5976892
0.59767956
0.5976705
0.59766215
0.5976545
0.5976475
0.59764117
0.59763557
0.59763056
0.5976263
0.5976227
0.5976198
0.5976175
0.5976159
0.597615
0.59761477
0.59761524
0.5976164
0.59761816
0.59762067
0.5976238
0.59762764
0.59763217
0.59763736
0.5976432
0.59764975
0.59765697
0.59766483
0.5976734
0.59768265
0.59769255
0.59770316
0.5977144
0.5977264
0.59773904
0.59775233
0.5977663
0.59778094
0.5977963
0.5978123
0.597829
0.5978463
0.5978644
0.5978831
0.5979025
0.59792256
0.5979433
0.5979647
0.5979868
0.5980096
0.5980331
0.5980572
0.598082
0.59810746
0.5981336
0.59816045
0.598188
0.5982162
0.598245
0.5982745
0.59830475
0.5983357
0.5983672
0.59839946
0.5984324
0.598466
0.59850025
0.59853524
0.5985708
0.5986072
0.59864414
0.5986818
0.59872013
0.5987591
0.5987988
0.59883916
0.59888023
0.59892195
0.59896433
0.5990074
0.5990512
0.5990956
0.5991407
0.5991865
0.5992329
0.59928006
0.59932786
0.5993763
0.5994255
0.5994753
0.5995258
0.599577
0.59962887
0.59968144
0.5997346
0.59978855
0.5998431
0.59989834
0.59995425
0.6000109
0.60006815
0.6001261
0.60018474
0.60024405
0.600304
0.6003647
0.600426
0.600488
0.6005507
0.6006141
0.6006781
0.6007428
0.6008082
0.6008743
0.600941
0.6010085
0.60107654
0.6011453
0.60121477
0.6012849
0.60135573
0.6014272
0.6014994
0.6015722
0.6016457
0.6017199
0.6017948
0.6018703
0.60194653
0.6020234
0.60210097
0.6021792
0.60225815
0.6023378
0.602418
0.602499
0.6025806
0.6026629
0.6027459
0.6028296
0.6029139
0.6029989
0.6030846
0.60317093
0.603258
0.6033457
0.60343415
0.6035232
0.60361296
0.6037034
0.60379446
0.60388625
0.6039787
0.6040718
0.6041656
0.6042601
0.6043553
0.6044511
0.6045476
0.60464483
0.60474265
0.60484123
0.6049404
0.6050403
0.6051409
0.60524213
0.60534406
0.6054467
0.60554993
0.6056539
0.60575855
0.60586387
0.60596985
0.6060765
0.6061838
0.60629183
0.60640055
0.6065099
0.60661995
0.60673064
0.60684204
0.6069541
0.60706687
0.6071803
0.6072944
0.6074092
0.60752463
0.60764074
0.60775757
0.60787505
0.60799325
0.60811204
0.60823154
0.60835177
0.60847265
0.6085942
0.60871637
0.6088393
0.60896283
0.6090871
0.60921204
0.6093376
0.60946393
0.6095909
0.6097185
0.60984683
0.6099758
0.61010545
0.6102358
0.6103668
0.6104985
0.61063087
0.6107639
0.6108976
0.611032
0.6111671
0.61130285
0.6114393
0.6115764
0.6117141
0.6118526
0.61199176
0.61213154
0.612272
0.61241317
0.612555
0.61269754
0.6128407
0.6129846
0.61312914
0.6132744
0.61342025
0.6135668
0.6137141
0.61386204
0.61401063
0.6141599
0.61430985
0.61446047
0.6146118
0.6147638
0.61491644
0.6150697
0.61522275
0.6153752
0.6155272
0.61567867
0.61582965
0.61598015
0.6161301
0.61627954
0.6164285
0.6165769
0.6167248
0.61687225
0.6170191
0.6171655
0.6173114
0.6174568
0.61760163
0.617746
0.6178898
0.6180332
0.618176
0.6183183
0.6184601
0.61860144
0.6187422
0.6188825
0.61902225
0.61916155
0.6193003
0.6194385
0.6195763
0.6197135
0.6198502
0.6199864
0.62012213
0.6202573
0.620392
0.6205262
0.6206598
0.620793
0.62092566
0.6210578
0.6211894
0.62132055
0.62145114
0.62158126
0.62171084
0.62183994
0.6219685
0.62209654
0.6222241
0.62235117
0.6224777
0.6226037
0.62272924
0.6228543
0.62297875
0.6231028
0.6232262
0.6233492
0.6234717
0.6235936
0.6237151
0.62383604
0.62395644
0.62407637
0.62419575
0.62431467
0.6244331
0.62455094
0.62466836
0.6247852
0.62490153
0.6250174
0.62513274
0.62524754
0.62536186
0.6254757
0.625589
0.6257018
0.6258141
0.62592584
0.6260371
0.62614787
0.62625813
0.62636787
0.62647706
0.6265858
0.626694
0.6268017
0.6269089
0.6270156
0.62712175
0.6272274
0.62733257
0.62743723
0.62754136
0.627645
0.62774813
0.6278508
0.6279529
0.62805444
0.6281555
0.6282561
0.62835616
0.6284557
0.62855476
0.6286533
0.62875134
0.62884885
0.6289459
0.6290424
0.62913835
0.62923384
0.62932885
0.6294233
0.62951726
0.6296107
0.62970364
0.6297961
0.629888
0.62997943
0.6300703
0.6301607
0.6302506
0.63034
0.63042885
0.6305172
0.63060504
0.63069236
0.6307792
0.6308655
0.63095134
0.63103664
0.63112146
0.63120574
0.6312895
0.63137275
0.63145554
0.6315378
0.6316195
0.63170075
0.63178146
0.6318617
0.6319414
0.6320206
0.6320993
0.6321774
0.6322551
0.63233227
0.6324089
0.63248503
0.6325607
0.6326358
0.6327104
0.6327845
0.6328581
0.6329312
0.6330038
0.63307583
0.6331474
0.63321847
0.633289
0.633359
0.6334285
0.63349754
0.6335661
0.63363403
0.63370156
0.6337685
0.63383496
0.63390094
0.6339664
0.63403136
0.6340957
0.6341597
0.6342231
0.634286
0.6343484
0.63441026
0.63447165
0.6345325
0.6345929
0.63465273
0.6347121
0.63477093
0.6348292
0.63488704
0.6349443
0.6350011
0.63505745
0.6351132
0.6351685
0.6352232
0.6352775
0.6353312
0.63538444
0.6354372
0.6354894
0.6355411
0.6355923
0.635643
0.63569313
0.63574284
0.63579196
0.63584065
0.63588876
0.6359364
0.6359835
0.63603014
0.6360763
0.63612187
0.63616693
0.6362115
0.63625556
0.63629913
0.63634217
0.6363847
0.63642675
0.6364683
0.6365093
0.63654983
0.6365898
0.6366293
0.63666826
0.6367067
0.6367447
0.63678217
0.63681906
0.63685554
0.6368914
0.63692683
0.63696176
0.63699615
0.63703007
0.63706344
0.6370963
0.63712865
0.6371605
0.63719183
0.63722265
0.637253
0.6372828
0.6373121
0.6373409
0.6373692
0.637397
0.63742423
0.637451
0.6374773
0.637503
0.63752824
0.637553
0.6375772
0.6376009
0.6376241
0.6376468
0.63766897
0.6376906
0.63771176
0.63773245
0.6377526
0.6377722
0.63779134
0.63780993
0.63782805
0.63784564
0.63786274
0.6378793
0.6378954
0.63791096
0.637926
0.6379405
0.6379546
0.6379681
0.6379811
0.63799363
0.6380056
0.6380171
0.6380281
0.6380386
0.6380485
0.63805795
0.6380669
0.63807535
0.6380833
0.63809067
0.6380976
0.63810396
0.63810986
0.6381152
0.6381201
0.63812447
0.63812834
0.6381317
0.63813454
0.63813686
0.63813865
0.63813996
0.63814074
0.63814104
0.63814086
0.6381401
0.6381389
0.6381371
0.63813484
0.6381321
0.6381288
0.63812506
0.6381208
0.63811594
0.63811064
0.6381048
0.6380985
0.6380916
0.6380843
0.6380764
0.6380681
0.6380592
0.63804984
0.63803995
0.6380295
0.6380186
0.63800716
0.63799524
0.63798285
0.63796985
0.63795644
0.63794243
0.637928
0.637913
0.6378975
0.6378815
0.637865
0.63784796
0.63783044
0.63781244
0.63779384
0.6377748
0.6377552
0.6377352
0.63771456
0.63769346
0.6376719
0.6376498
0.6376272
0.63760406
0.6375804
0.63755625
0.6375316
0.6375064
0.63748074
0.63745457
0.63742787
0.6374007
0.637373
0.6373448
0.63731605
0.6372868
0.63725704
0.63722676
0.637196
0.6371648
0.63713294
0.6371007
0.63706785
0.63703454
0.63700074
0.6369664
0.6369316
0.63689625
0.6368604
0.636824
0.6367871
0.63674974
0.63671184
0.63667345
0.6366345
0.63659513
0.6365552
0.6365148
0.63647383
0.63643235
0.6363904
0.63634795
0.636305
0.63626146
0.6362175
0.63617295
0.63612795
0.6360824
0.6360364
0.63598984
0.63594276
0.6358952
0.63584715
0.6357986
0.63574946
0.63569987
0.63564974
0.63559914
0.635548
0.6354964
0.6354443
0.63539207
0.6353399
0.6352879
0.63523585
0.6351839
0.635132
0.63508016
0.63502836
0.6349767
0.634925
0.6348734
0.6348219
0.6347704
0.63471895
0.6346676
0.6346163
0.63456506
0.63451385
0.6344627
0.6344117
0.6343607
0.6343097
0.6342588
0.63420796
0.6341572
0.63410646
0.63405585
0.63400525
0.6339547
0.6339042
0.6338538
0.6338034
0.6337531
0.6337029
0.6336527
0.63360256
0.6335525
0.6335025
0.63345253
0.63340265
0.6333528
0.63330305
0.63325334
0.6332037
0.6331541
0.63310456
0.6330551
0.6330057
0.63295627
0.632907
0.63285774
0.63280857
0.63275945
0.6327104
0.63266134
0.6326124
0.63256353
0.6325147
0.63246596
0.6324172
0.63236856
0.63232
0.63227147
0.63222295
0.63217455
0.6321262
0.6320779
0.63202965
0.6319815
0.63193333
0.6318853
0.6318373
0.6317893
0.63174146
0.6316936
0.63164586
0.6315981
0.6315505
0.6315029
0.63145536
0.6314079
0.6313605
0.63131315
0.6312658
0.6312186
0.6311714
0.6311243
0.63107723
0.6310302
0.6309833
0.6309364
0.6308896
0.6308428
0.6307961
0.63074946
0.63070285
0.63065636
0.63060987
0.63056344
0.6305171
0.6304708
0.63042456
0.63037837
0.6303323
0.6302862
0.6302402
0.63019425
0.6301484
0.6301026
0.6300568
0.6300111
0.6299654
0.6299199
0.62987435
0.6298289
0.62978345
0.6297381
0.6296928
0.62964755
0.62960243
0.6295573
0.62951225
0.62946725
0.6294223
0.6293774
0.6293326
0.62928784
0.62924314
0.6291985
0.6291539
0.6291094
0.6290649
0.6290205
0.62897617
0.6289319
0.62888765
0.6288434
0.6287993
0.6287553
0.6287113
0.62866735
0.6286235
0.6285797
0.6285359
0.6284922
0.62844855
0.628405
0.62836146
0.628318
0.62827456
0.6282312
0.62818795
0.62814474
0.6281015
0.62805843
0.6280154
0.62797236
0.62792945
0.6278866
0.62784374
0.627801
0.6277583
0.62771565
0.6276731
0.62763053
0.6275881
0.6275457
0.62750334
0.6274611
0.6274188
0.6273767
0.62733454
0.6272925
0.6272505
0.6272086
0.6271667
0.6271249
0.6270831
0.62704146
0.6269998
0.62695825
0.6269167
0.6268752
0.62683386
0.6267925
0.62675124
0.62671
0.6266688
0.62662774
0.6265867
0.62654567
0.6265048
0.6264639
0.62642306
0.6263823
0.62634164
0.626301
0.6262604
0.62621987
0.62617946
0.62613904
0.6260987
0.6260584
0.62601817
0.62597805
0.62593794
0.6258979
0.6258579
0.62581795
0.6257781
0.62573826
0.6256985
0.6256588
0.6256192
0.62557966
0.62554014
0.6255007
0.6254613
0.62542194
0.62538266
0.62534344
0.6253043
0.6252652
0.62522614
0.6251871
0.6251482
0.6251093
0.6250705
0.62503177
0.6249931
0.62495446
0.6249159
0.6248774
0.6248389
0.6248005
0.6247622
0.6247239
0.6246857
0.6246475
0.6246094
0.6245714
0.6245334
0.6244955
0.6244576
0.6244198
0.6243821
0.62434435
0.62430674
0.6242692
0.62423164
0.6241942
0.62415683
0.62411946
0.6240822
0.624045
0.6240078
0.62397075
0.6239337
0.6238967
0.62385976
0.6238229
0.62378615
0.6237494
0.6237127
0.62367606
0.6236395
0.623603
0.62356657
0.62353015
0.6234938
0.62345755
0.6234213
0.6233852
0.6233491
0.62331307
0.62327707
0.6232411
0.6232053
0.6231695
0.6231337
0.6230981
0.62306243
0.62302685
0.6229914
0.6229559
0.6229205
0.62288517
0.62284994
0.6228147
0.62277955
0.62274444
0.62270945
0.62267447
0.62263954
0.62260467
0.62256986
0.6225351
0.6225005
0.62246585
0.6224313
0.62239677
0.6223623
0.6223279
0.6222936
0.6222593
0.6222251
0.62219095
0.62215686
0.6221228
0.62208885
0.62205493
0.6220211
0.6219873
0.62195355
0.6219199
0.62188625
0.6218527
0.6218192
0.62178576
0.6217524
0.62171906
0.6216858
0.62165254
0.6216194
0.6215863
0.6215533
0.62152034
0.62148744
0.62145454
0.62142175
0.62138903
0.62135637
0.6213237
0.62129116
0.6212587
0.62122625
0.6211938
0.6211615
0.6211293
0.621097
0.6210649
0.62103283
0.62100077
0.6209688
0.62093693
0.62090504
0.6208733
0.6208415
0.62080985
0.62077826
0.6207467
0.6207152
0.6206837
0.6206524
0.620621
0.6205898
0.62055856
0.62052745
0.62049633
0.62046534
0.62043434
0.62040347
0.6203726
0.6203418
0.6203111
0.6202804
0.6202498
0.62021923
0.6201887
0.6201583
0.6201279
0.6200976
0.62006736
0.62003714
0.620007
0.61997694
0.6199469
0.6199169
0.619887
0.6198572
0.6198274
0.61979765
0.61976796
0.61973834
0.61970884
0.61967933
0.6196499
0.6196205
0.6195912
0.6195619
0.6195327
0.6195036
0.61947453
0.6194455
0.61941653
0.6193876
0.6193588
0.61933
0.61930126
0.6192726
0.619244
0.6192154
0.61918694
0.6191585
0.6191299
0.619101
0.6190719
0.6190425
0.6190129
0.61898303
0.61895293
0.61892253
0.6188919
0.618861
0.6188299
0.61879855
0.6187669
0.618735
0.6187029
0.6186705
0.6186379
0.618605
0.6185719
0.6185385
0.6185049
0.618471
0.6184369
0.6184025
0.61836785
0.618333
0.6182979
0.61826247
0.6182268
0.61819094
0.6181548
0.6181184
0.6180818
0.6180449
0.6180078
0.61797035
0.61793274
0.6178948
0.6178567
0.6178183
0.6177797
0.61774075
0.61770165
0.61766225
0.6176226
0.6175827
0.61754256
0.61750215
0.6174615
0.6174206
0.6173794
0.61733806
0.6172964
0.6172545
0.61721236
0.61717
0.6171273
0.6170844
0.61704123
0.61699784
0.6169542
0.6169103
0.6168661
0.6168217
0.61677706
0.6167322
0.616687
0.6166416
0.6165959
0.61655
0.61650383
0.61645746
0.6164108
0.6163639
0.61631674
0.6162693
0.6162216
0.61617374
0.6161256
0.6160771
0.6160285
0.61597955
0.6159304
0.61588097
0.6158313
0.61578137
0.61573124
0.6156808
0.6156301
0.6155792
0.61552805
0.6154766
0.61542493
0.615373
0.6153208
0.6152684
0.6152157
0.6151628
0.6151096
0.6150562
0.6150025
0.6149486
0.6148944
0.61484
0.6147853
0.61473036
0.61467516
0.61461973
0.61456406
0.61450815
0.61445194
0.6143955
0.6143388
0.6142819
0.6142247
0.6141673
0.6141096
0.61405164
0.61399347
0.613935
0.61387634
0.6138174
0.6137582
0.6136987
0.61363906
0.6135791
0.6135189
0.61345845
0.6133978
0.6133368
0.61327565
0.6132142
0.6131525
0.6130905
0.61302835
0.6129659
0.6129032
0.61284024
0.612777
0.6127136
0.61264986
0.6125859
0.6125217
0.6124573
0.61239254
0.6123276
0.61226237
0.6121969
0.61213124
0.61206526
0.61199903
0.6119326
0.6118659
0.61179894
0.6117317
0.61166424
0.6115965
0.6115286
0.6114604
0.6113919
0.6113232
0.6112542
0.611185
0.6111155
0.61104584
0.61097586
0.61090565
0.61083513
0.61076444
0.61069345
0.6106222
0.61055076
0.61047906
0.61040705
0.6103349
0.6102624
0.6101897
0.61011666
0.61004347
0.60997
0.60989624
0.6098223
0.60974807
0.60967356
0.6095988
0.60952383
0.6094486
0.60937315
0.6092974
0.6092214
0.60914516
0.6090687
0.608992
0.608915
0.6088377
0.60876024
0.6086825
0.60860455
0.6085263
0.6084478
0.60836905
0.6082901
0.60821086
0.60813135
0.6080516
0.6079716
0.6078914
0.60781085
0.60773015
0.60764915
0.6075679
0.6074864
0.60740465
0.60732263
0.60724044
0.6071579
0.60707515
0.6069922
0.6069089
0.6068254
0.60674167
0.6066577
0.6065734
0.6064889
0.6064041
0.6063191
0.6062339
0.60614836
0.60606265
0.60597664
0.60589033
0.60580385
0.60571706
0.6056301
0.60554284
0.60545534
0.60536754
0.60527956
0.6051913
0.6051028
0.605014
0.604925
0.6048357
0.6047462
0.60465646
0.6045664
0.60447615
0.6043856
0.60429484
0.6042038
0.60411257
0.6040211
0.6039293
0.60383725
0.603745
0.6036525
0.6035597
0.6034667
0.6033734
0.6032799
0.6031861
0.6030921
0.6029978
0.60290325
0.6028085
0.60271347
0.60261816
0.6025227
0.6024269
0.6023308
0.60223454
0.60213804
0.60204124
0.6019442
0.60184693
0.60174936
0.6016516
0.60155356
0.6014553
0.60135674
0.6012579
0.6011589
0.6010596
0.6009601
0.6008603
0.6007602
0.60065997
0.6005594
0.6004586
0.6003576
0.60025626
0.60015476
0.60005295
0.5999509
0.5998486
0.59974605
0.59964323
0.59954023
0.5994369
0.59933335
0.5992296
0.5991255
0.5990212
0.59891665
0.59881186
0.5987068
0.5986015
0.59849596
0.59839016
0.59828407
0.5981778
0.5980712
0.5979644
0.59785736
0.59775007
0.5976425
0.59753466
0.5974266
0.5973183
0.59720975
0.5971009
0.59699184
0.5968825
0.59677297
0.5966632
0.5965531
0.59644276
0.5963322
0.5962214
0.59611034
0.595999
0.5958874
0.5957756
0.59566355
0.59555125
0.59543866
0.5953258
0.59521276
0.59509945
0.59498584
0.59487206
0.594758
0.59464365
0.5945291
0.59441423
0.59429914
0.59418386
0.5940682
0.5939524
0.59383637
0.59372
0.59360343
0.5934866
0.59336954
0.5932522
0.5931346
0.59301674
0.59289867
0.59278035
0.59266174
0.59254295
0.59242386
0.5923045
0.5921849
0.5920651
0.591945
0.59182465
0.5917041
0.5915832
0.59146214
0.5913408
0.5912192
0.59109735
0.5909752
0.5908529
0.5907303
0.59060746
0.5904844
0.590361
0.59023744
0.5901136
0.5899895
0.5898651
0.5897405
0.58961564
0.58949053
0.5893652
0.5892396
0.5891138
0.58898765
0.5888613
0.5887347
0.58860785
0.5884807
0.58835334
0.5882258
0.5880979
0.5879698
0.58784145
0.5877128
0.58758396
0.58745486
0.5873255
0.58719593
0.5870668
0.58693844
0.5868108
0.586684
0.5865579
0.5864326
0.586308
0.58618414
0.58606106
0.58593875
0.58581716
0.58569634
0.5855763
0.58545697
0.5853384
0.5852206
0.5851036
0.5849872
0.5848717
0.5847569
0.5846428
0.5845296
0.58441705
0.5843052
0.5841942
0.5840839
0.5839744
0.58386564
0.5837576
0.58365035
0.58354384
0.58343804
0.583333
0.58322877
0.5831253
0.58302253
0.58292055
0.5828193
0.5827188
0.5826191
0.58252007
0.58242184
0.5823243
0.58222765
0.5821316
0.58203644
0.58194196
0.58184826
0.5817553
0.5816631
0.58157164
0.5814809
0.581391
0.58130175
0.5812133
0.5811256
0.58103865
0.58095247
0.58086705
0.58078235
0.58069843
0.5806153
0.58053285
0.5804512
0.58037025
0.5802901
0.5802107
0.58013207
0.5800541
0.579977
0.57990056
0.5798249
0.57975006
0.5796759
0.57960254
0.5795299
0.579458
0.5793869
0.5793165
0.5792469
0.579178
0.5791099
0.57904255
0.5789759
0.57891005
0.57884496
0.5787806
0.578717
0.57865417
0.57859206
0.5785307
0.5784701
0.5784103
0.5783512
0.5782929
0.5782353
0.57817847
0.57812244
0.5780671
0.5780125
0.5779587
0.57790565
0.5778534
0.5778018
0.57775104
0.577701
0.5776517
0.57760316
0.57755536
0.57750833
0.577462
0.5774165
0.5773717
0.5773277
0.57728446
0.5772419
0.5772002
0.5771591
0.5771189
0.57707936
0.5770406
0.57700264
0.5769654
0.57692885
0.57689315
0.57685816
0.5768239
0.57679045
0.5767577
0.5767257
0.5766945
0.57666403
0.5766343
0.5766054
0.5765771
0.5765497
0.57652295
0.576497
0.5764718
0.57644737
0.5764237
0.57640076
0.5763785
0.5763571
0.57633644
0.5763165
0.57629734
0.5762789
0.5762612
0.5762443
0.57622814
0.57621276
0.5761981
0.57618415
0.57617104
0.57615864
0.57614696
0.57613605
0.5761259
0.57611656
0.5761079
0.57610005
0.5760929
0.5760865
0.5760809
0.57607603
0.5760719
0.5760685
0.5760659
0.57606405
0.576063
0.5760626
0.576063
0.57606417
0.5760661
0.5760687
0.57607216
0.57607627
0.5760812
0.5760869
0.5760933
0.57610047
0.5761084
0.5761171
0.5761265
0.5761367
0.5761477
0.57615936
0.5761718
0.576185
0.57619894
0.57621366
0.5762291
0.5762453
0.5762623
0.57628
0.5762985
0.57631767
0.57633764
0.5763584
0.5763799
0.5764021
0.5764251
0.57644886
0.5764733
0.57649857
0.57652456
0.5765513
0.5765788
0.5766071
0.5766361
0.5766659
0.5766964
0.5767276
0.57675964
0.5767924
0.576826
0.57686025
0.5768953
0.57693106
0.5769676
0.5770049
0.57704294
0.57708174
0.5771213
0.5771616
0.5772027
0.57724446
0.577287
0.57733035
0.5773744
0.5774192
0.5774648
0.57751113
0.5775582
0.577606
0.57765466
0.57770395
0.5777541
0.5778049
0.5778565
0.5779089
0.577962
0.5780158
0.5780704
0.5781258
0.5781819
0.5782388
0.5782964
0.5783548
0.5784139
0.57847375
0.5785344
0.5785958
0.5786579
0.5787208
0.57878447
0.57884884
0.57891405
0.5789799
0.57904655
0.57911396
0.57918215
0.57925105
0.5793207
0.5793912
0.57946235
0.57953423
0.57960695
0.5796804
0.57975453
0.5798295
0.57990515
0.5799816
0.5800588
0.5801368
0.58021545
0.5802949
0.58037513
0.5804561
0.5805378
0.5806203
0.5807035
0.5807875
0.5808722
0.5809577
0.5810439
0.5811309
0.58121866
0.5813071
0.5813964
0.58148634
0.5815771
0.5816686
0.5817609
0.58185387
0.5819476
0.58204216
0.5821374
0.5822334
0.5823302
0.58242774
0.582526
0.5826251
0.58272487
0.58282536
0.5829267
0.58302873
0.5831315
0.5832351
0.5833394
0.5834444
0.5835502
0.5836568
0.58376414
0.5838722
0.583981
0.5840906
0.5842009
0.58431196
0.5844238
0.5845364
0.58464974
0.5847638
0.5848787
0.58499426
0.5851106
0.5852277
0.58534557
0.5854642
0.5855835
0.5857037
0.5858245
0.58594614
0.5860685
0.58619165
0.5863155
0.58644015
0.5865655
0.5866917
0.5868186
0.5869462
0.5870746
0.58720374
0.5873336
0.5874643
0.5875957
0.58772784
0.58786076
0.58799446
0.58812886
0.58826405
0.58839995
0.5885366
0.58867407
0.58881223
0.5889512
0.5890909
0.5892313
0.5893725
0.58951443
0.5896572
0.5898006
0.58994484
0.5900898
0.5902355
0.590382
0.5905292
0.59067714
0.59082586
0.59097534
0.5911256
0.5912766
0.5914283
0.5915808
0.59173405
0.591888
0.5920428
0.5921983
0.59235454
0.59251153
0.5926693
0.5928278
0.59298706
0.5931471
0.59330785
0.5934694
0.5936317
0.5937947
0.5939585
0.594123
0.5942883
0.59445435
0.5946211
0.5947887
0.594957
0.59512603
0.59529585
0.59546643
0.59563774
0.5958098
0.5959826
0.5961562
0.59633046
0.5965046
0.59667826
0.59685135
0.5970239
0.5971959
0.5973674
0.5975384
0.5977088
0.59787875
0.59804815
0.598217
0.59838533
0.5985531
0.59872043
0.59888715
0.5990534
0.599219
0.5993842
0.5995488
0.59971297
0.5998765
0.60003954
0.6002021
0.6003641
0.6005255
0.60068643
0.6008468
0.60100675
0.60116607
0.60132486
0.60148317
0.60164094
0.6017982
0.6019549
0.60211104
0.60226667
0.6024218
0.6025764
0.60273045
0.602884
0.60303694
0.60318947
0.6033414
0.6034928
0.6036437
0.60379404
0.6039439
0.6040932
0.60424197
0.6043902
0.6045379
0.60468507
0.60483176
0.6049779
0.60512346
0.60526854
0.6054131
0.6055571
0.6057006
0.60584354
0.605986
0.60612786
0.60626924
0.6064101
0.6065504
0.60669017
0.60682946
0.60696816
0.6071064
0.6072441
0.6073812
0.60751784
0.6076539
0.60778946
0.60792446
0.608059
0.608193
0.6083264
0.6084593
0.6085917
0.6087236
0.6088549
0.60898566
0.60911596
0.6092457
0.6093749
0.60950357
0.6096318
0.6097594
0.60988647
0.61001307
0.6101391
0.6102646
0.6103896
0.61051404
0.61063796
0.6107614
0.61088425
0.6110066
0.6111284
0.6112497
0.61137044
0.61149067
0.61161035
0.61172956
0.6118482
0.6119663
0.61208385
0.6122009
0.61231744
0.6124335
0.61254895
0.61266387
0.6127783
0.61289215
0.6130055
0.61311835
0.61323065
0.6133424
0.6134537
0.6135644
0.6136746
0.6137842
0.61389333
0.6140019
0.61411
0.6142176
0.61432457
0.6144311
0.614537
0.61464244
0.61474735
0.6148517
0.61495554
0.61505884
0.61516166
0.6152639
0.6153656
0.61546683
0.6155675
0.61566764
0.61576724
0.6158663
0.6159649
0.61606294
0.6161604
0.61625737
0.6163538
0.6164497
0.61654514
0.61664
0.61673427
0.6168281
0.61692137
0.6170141
0.6171063
0.617198
0.6172891
0.6173798
0.61746985
0.61755943
0.6176485
0.617737
0.617825
0.6179124
0.6179994
0.61808574
0.61817163
0.618257
0.6183418
0.6184261
0.6185098
0.61859304
0.61867577
0.6187579
0.61883956
0.6189207
0.61900127
0.6190813
0.61916083
0.6192398
0.6193183
0.6193962
0.61947364
0.6195505
0.6196269
0.6197027
0.619778
0.6198528
0.619927
0.6200007
0.6200739
0.6201466
0.6202187
0.6202903
0.6203613
0.6204319
0.6205019
0.6205714
0.62064034
0.62070876
0.62077665
0.620844
0.6209109
0.62097716
0.62104297
0.6211082
0.6211729
0.6212371
0.6213008
0.62136394
0.6214265
0.62148863
0.62155014
0.6216112
0.6216717
0.62173164
0.6217911
0.62185
0.62190837
0.62196624
0.6220236
0.6220804
0.62213665
0.6221924
0.6222476
0.62230223
0.6223564
0.62241006
0.6224631
0.6225157
0.6225677
0.6226193
0.62267023
0.62272066
0.6227706
0.62282
0.6228689
0.6229172
0.62296504
0.6230123
0.62305903
0.6231053
0.62315094
0.6231961
0.62324077
0.6232849
0.62332845
0.62337154
0.62341404
0.623456
0.6234975
0.62353843
0.62357885
0.6236187
0.62365806
0.6236969
0.6237352
0.623773
0.6238102
0.6238469
0.62388307
0.6239187
0.6239539
0.62398845
0.62402254
0.62405604
0.62408906
0.62412155
0.6241535
0.6241849
0.62421584
0.6242462
0.62427604
0.6243053
0.6243341
0.62436235
0.62439007
0.6244173
0.62444395
0.62447006
0.6244957
0.6245208
0.62454534
0.62456936
0.62459284
0.6246158
0.62463826
0.62466013
0.62468153
0.6247024
0.6247227
0.6247425
0.62476176
0.6247805
0.6247987
0.62481636
0.6248335
0.62485015
0.62486625
0.6248818
0.6248968
0.62491137
0.6249253
0.6249388
0.6249517
0.6249641
0.624976
0.6249873
0.6249981
0.6250084
0.6250181
0.62502736
0.62503606
0.6250442
0.62505186
0.62505895
0.62506557
0.6250716
0.6250771
0.6250821
0.62508655
0.6250905
0.62509394
0.6250968
0.6250991
0.625101
0.6251022
0.625103
0.62510324
0.62510294
0.62510216
0.6251008
0.6250989
0.6250965
0.6250936
0.6250901
0.6250861
0.6250816
0.62507653
0.6250709
0.62506485
0.62505823
0.625051
0.62504333
0.6250351
0.6250264
0.6250171
0.6250073
0.62499696
0.6249861
0.62497467
0.62496275
0.62495035
0.62493736
0.6249238
0.6249098
0.6248952
0.62488014
0.6248645
0.62484837
0.6248317
0.62481445
0.62479675
0.62477845
0.6247597
0.62474036
0.6247205
0.6247001
0.6246792
0.62465775
0.6246358
0.62461334
0.6245903
0.62456673
0.62454265
0.62451804
0.62449294
0.62446725
0.624441
0.6244143
0.6243871
0.6243593
0.624331
0.62430215
0.62427276
0.6242429
0.62421244
0.6241815
0.62415004
0.62411803
0.6240855
0.6240524
0.62401885
0.6239847
0.62395006
0.6239149
0.62387913
0.62384295
0.6238062
0.62376887
0.623731
0.6236927
0.6236538
0.6236148
0.6235758
0.6235368
0.6234979
0.623459
0.6234201
0.62338126
0.6233424
0.6233036
0.6232648
0.62322605
0.62318736
0.6231486
0.62310994
0.6230713
0.6230327
0.6229941
0.62295556
0.622917
0.6228785
0.62284005
0.6228016
0.62276316
0.6227248
0.6226864
0.622648
0.62260973
0.6225714
0.62253314
0.62249494
0.62245667
0.6224185
0.6223804
0.6223422
0.62230414
0.62226605
0.622228
0.62219
0.622152
0.622114
0.6220761
0.6220382
0.6220003
0.6219624
0.6219246
0.6218868
0.621849
0.6218113
0.62177354
0.6217358
0.62169814
0.62166053
0.6216229
0.6215853
0.62154776
0.6215102
0.6214727
0.6214352
0.62139773
0.62136036
0.62132293
0.62128556
0.6212482
0.6212109
0.6211736
0.62113637
0.6210991
0.62106186
0.6210247
0.62098753
0.6209504
0.6209133
0.62087625
0.6208392
0.62080216
0.62076515
0.6207282
0.62069124
0.62065434
0.62061745
0.6205806
0.6205438
0.62050694
0.62047017
0.62043345
0.62039673
0.62036
0.62032336
0.6202867
0.6202501
0.6202135
0.6201769
0.6201404
0.6201039
0.6200674
0.62003094
0.6199945
0.61995816
0.61992174
0.61988544
0.6198491
0.6198128
0.61977655
0.6197403
0.61970407
0.6196679
0.61963177
0.61959565
0.6195595
0.61952347
0.6194874
0.6194514
0.6194154
0.6193794
0.61934346
0.6193076
0.6192717
0.6192358
0.6192
0.61916417
0.6191284
0.61909264
0.61905694
0.61902124
0.61898553
0.6189499
0.6189143
0.6188787
0.61884314
0.6188076
0.6187721
0.6187366
0.61870116
0.61866575
0.61863035
0.61859494
0.6185596
0.6185243
0.618489
0.61845374
0.6184185
0.6183833
0.6183481
0.61831295
0.61827785
0.61824274
0.61820763
0.6181726
0.6181376
0.6181026
0.6180676
0.6180327
0.61799777
0.6179629
0.617928
0.6178932
0.6178584
0.6178236
0.61778885
0.61775416
0.6177195
0.6176848
0.61765015
0.6176155
0.61758095
0.6175464
0.6175118
0.61747736
0.61744285
0.6174084
0.61737394
0.61733955
0.6173052
0.6172708
0.61723655
0.6172022
0.617168
0.61713374
0.6170995
0.61706537
0.6170312
0.61699706
0.61696297
0.6169289
0.61689484
0.6168608
0.61682683
0.61679286
0.61675894
0.616725
0.6166911
0.61665726
0.61662346
0.6165896
0.61655587
0.6165221
0.6164884
0.61645466
0.616421
0.61638737
0.61635375
0.6163202
0.61628664
0.6162531
0.6162196
0.6161861
0.61615264
0.6161192
0.6160858
0.61605245
0.61601907
0.61598575
0.6159525
0.61591923
0.615886
0.6158528
0.6158196
0.61578643
0.6157533
0.6157202
0.61568713
0.6156541
0.6156211
0.61558807
0.6155551
0.61552215
0.61548924
0.61545634
0.6154235
0.61539066
0.6153579
0.6153251
0.6152924
0.61525965
0.6152269
0.61519426
0.6151616
0.615129
0.6150964
0.61506385
0.6150313
0.6149988
0.61496633
0.6149339
0.6149015
0.61486906
0.6148367
0.6148043
0.614772
0.6147397
0.61470747
0.6146752
0.61464304
0.61461085
0.61457866
0.61454654
0.61451447
0.6144824
0.61445034
0.6144183
0.6143863
0.6143544
0.6143224
0.61429054
0.61425865
0.61422676
0.6141949
0.6141631
0.61413133
0.6140996
0.61406785
0.6140362
0.6140045
0.6139729
0.61394125
0.61390966
0.61387813
0.6138466
0.61381507
0.6137836
0.6137521
0.6137207
0.6136893
0.61365795
0.6136266
0.6135953
0.613564
0.6135327
0.6135015
0.6134703
0.6134391
0.61340797
0.6133768
0.61334574
0.6133146
0.6132836
0.6132526
0.6132216
0.61319065
0.61315966
0.6131288
0.6130979
0.61306703
0.6130362
0.6130054
0.61297464
0.6129439
0.61291313
0.61288244
0.6128518
0.61282116
0.6127905
0.61275995
0.6127294
0.61269885
0.61266834
0.6126379
0.6126074
0.61257696
0.61254656
0.6125162
0.6124859
0.61245555
0.61242527
0.612395
0.61236477
0.61233455
0.6123044
0.6122742
0.6122441
0.612214
0.6121839
0.6121539
0.61212385
0.61209387
0.6120639
0.61203396
0.61200404
0.6119742
0.6119443
0.61191446
0.61188465
0.6118549
0.61182517
0.6117954
0.61176574
0.61173606
0.61170644
0.6116768
0.61164725
0.6116177
0.6115881
0.6115586
0.6115292
0.6114997
0.6114703
0.6114409
0.6114115
0.6113822
0.61135286
0.61132354
0.61129427
0.61126506
0.61123586
0.61120665
0.6111775
0.6111484
0.6111193
0.61109024
0.61106116
0.6110321
0.61100316
0.6109742
0.6109453
0.6109163
0.61088747
0.6108586
0.6108298
0.610801
0.6107722
0.61074346
0.61071473
0.610686
0.61065733
0.6106287
0.6106001
0.6105715
0.61054295
0.6105144
0.6104859
0.6104574
0.610429
0.61040056
0.6103722
0.6103438
0.61031544
0.61028713
0.6102589
0.61023057
0.6102024
0.6101742
0.610146
0.6101178
0.61008966
0.6100614
0.6100328
0.610004
0.6099749
0.60994554
0.6099159
0.609886
0.60985583
0.6098254
0.6097947
0.6097637
0.60973245
0.6097009
0.60966915
0.6096371
0.6096048
0.6095722
0.60953933
0.6095062
0.6094728
0.60943913
0.6094052
0.60937107
0.60933656
0.60930187
0.6092669
0.6092316
0.60919607
0.60916024
0.6091242
0.6090878
0.6090512
0.60901433
0.6089772
0.6089398
0.6089021
0.6088642
0.608826
0.6087875
0.60874873
0.6087097
0.6086704
0.6086309
0.608591
0.60855097
0.6085106
0.60846996
0.6084291
0.6083879
0.60834646
0.6083048
0.6082628
0.6082206
0.6081781
0.6081353
0.60809225
0.6080489
0.60800534
0.60796154
0.6079174
0.607873
0.6078284
0.60778344
0.60773826
0.60769284
0.6076471
0.6076011
0.60755485
0.6075083
0.6074615
0.6074145
0.60736716
0.60731953
0.6072717
0.6072236
0.6071752
0.6071265
0.60707754
0.6070283
0.60697883
0.6069291
0.6068791
0.6068288
0.60677826
0.6067275
0.6066764
0.606625
0.6065734
0.60652155
0.6064694
0.60641694
0.60636425
0.6063113
0.6062581
0.60620457
0.6061508
0.6060968
0.6060425
0.6059879
0.60593307
0.605878
0.6058226
0.60576695
0.60571104
0.6056549
0.60559845
0.6055417
0.6054847
0.6054275
0.60537
0.60531217
0.6052541
0.6051958
0.6051372
0.6050784
0.6050193
0.60495985
0.6049002
0.6048403
0.6047801
0.6047196
0.60465884
0.60459787
0.6045366
0.6044751
0.6044133
0.60435116
0.6042888
0.60422623
0.60416335
0.6041002
0.6040368
0.6039731
0.60390913
0.60384494
0.60378045
0.6037157
0.6036507
0.60358536
0.60351986
0.603454
0.6033879
0.60332155
0.6032549
0.60318804
0.60312086
0.6030534
0.60298574
0.60291773
0.6028495
0.602781
0.6027122
0.6026432
0.6025739
0.6025043
0.60243446
0.6023643
0.6022939
0.6022233
0.60215235
0.6020812
0.6020097
0.601938
0.601866
0.60179377
0.6017212
0.60164845
0.6015754
0.601502
0.60142845
0.60135454
0.6012804
0.601206
0.6011313
0.6010564
0.6009812
0.6009057
0.60082996
0.60075396
0.60067767
0.60060114
0.6005243
0.60044724
0.6003699
0.60029227
0.60021436
0.6001362
0.6000578
0.5999791
0.5999001
0.5998209
0.5997414
0.59966165
0.5995816
0.5995013
0.5994207
0.5993399
0.5992588
0.5991774
0.59909576
0.59901386
0.59893167
0.59884924
0.5987665
0.59868354
0.59860027
0.59851676
0.59843296
0.5983489
0.5982646
0.59818
0.5980951
0.59801
0.5979246
0.59783894
0.597753
0.5976668
0.5975803
0.5974936
0.5974066
0.5973193
0.5972318
0.59714395
0.5970559
0.5969676
0.59687895
0.5967901
0.5967009
0.5966115
0.5965218
0.59643185
0.5963416
0.59625113
0.5961604
0.59606934
0.5959781
0.5958865
0.5957947
0.5957026
0.5956102
0.5955176
0.59542465
0.5953315
0.5952381
0.5951444
0.5950504
0.59495616
0.5948616
0.59476686
0.59467185
0.5945765
0.59448093
0.5943851
0.59428895
0.59419256
0.5940959
0.59399897
0.5939018
0.59380436
0.5937066
0.5936086
0.5935103
0.5934118
0.59331304
0.593214
0.5931146
0.593015
0.5929151
0.592815
0.5927146
0.59261394
0.59251297
0.59241176
0.5923103
0.5922085
0.5921065
0.59200424
0.59190166
0.59179884
0.5916958
0.59159243
0.5914888
0.5913849
0.59128076
0.59117633
0.5910716
0.59096664
0.59086144
0.5907559
0.59065014
0.5905441
0.59043777
0.5903312
0.5902244
0.5901173
0.59000987
0.5899022
0.58979434
0.58968616
0.5895777
0.58946896
0.58936
0.58925074
0.58914125
0.58903146
0.58892137
0.58881104
0.5887005
0.5885896
0.58847845
0.58836704
0.5882554
0.58814347
0.58803123
0.58791876
0.58780605
0.58769304
0.5875798
0.58746624
0.5873524
0.5872383
0.587124
0.5870094
0.58689445
0.58677936
0.5866639
0.5865482
0.5864323
0.58631605
0.5861995
0.5860828
0.58596575
0.58584845
0.5857309
0.5856131
0.585495
0.5853766
0.58525795
0.58513904
0.5850199
0.58490044
0.58478075
0.58466077
0.5845405
0.58442
0.5842992
0.58417815
0.58405685
0.58393526
0.5838134
0.5836913
0.5835689
0.58344626
0.5833233
0.5832001
0.58307666
0.5829529
0.58282894
0.58270466
0.58258015
0.58245534
0.5823303
0.58220494
0.5820793
0.58195347
0.5818273
0.58170086
0.5815742
0.58144724
0.58132005
0.58119255
0.5810648
0.5809368
0.5808085
0.58067995
0.58055115
0.58042204
0.5802927
0.58016306
0.5800331
0.579903
0.57977253
0.5796419
0.57951087
0.5793797
0.57924813
0.57911634
0.5789843
0.578852
0.57871944
0.5785866
0.5784535
0.5783201
0.57818645
0.5780525
0.57791835
0.5777839
0.5776492
0.5775142
0.5773789
0.5772434
0.5771076
0.57697153
0.5768352
0.57669926
0.5765641
0.5764296
0.57629585
0.5761629
0.5760306
0.57589906
0.5757683
0.5756383
0.57550895
0.5753804
0.5752526
0.5751255
0.57499915
0.57487357
0.5747487
0.5746246
0.5745012
0.5743786
0.57425666
0.57413554
0.5740151
0.5738954
0.5737765
0.5736583
0.5735408
0.5734241
0.5733081
0.5731929
0.5730784
0.5729646
0.5728516
0.5727393
0.5726278
0.572517
0.5724069
0.5722976
0.572189
0.57208115
0.57197404
0.5718677
0.5717621
0.5716572
0.57155305
0.57144964
0.57134694
0.571245
0.57114387
0.57104343
0.5709437
0.5708447
0.5707465
0.570649
0.5705523
0.57045627
0.570361
0.5702665
0.57017267
0.5700796
0.56998736
0.56989574
0.56980497
0.56971484
0.5696255
0.5695369
0.569449
0.5693619
0.5692755
0.56918985
0.56910497
0.5690208
0.56893736
0.5688547
0.56877273
0.5686915
0.568611
0.56853133
0.5684523
0.5683741
0.56829655
0.5682198
0.5681437
0.56806844
0.56799394
0.5679201
0.567847
0.5677747
0.5677031
0.56763226
0.56756216
0.5674928
0.5674241
0.5673562
