-1.970169091895797742e-03
5.444260197390103206e-04
5.562430130491425109e-03
4.300395103440958315e-03
-5.878754386665409901e-04
-1.414139804776020368e-03
-1.012659872489358494e-03
2.068486507268379234e-03
4.114643717458155679e-03
8.292868411823083128e-04
-4.115283660047982378e-03
-6.703649674417162634e-03
-8.985245049183210667e-03
-1.312648421563795270e-02
-9.363628996899870521e-03
-1.191201202357284814e-03
7.746052924673101775e-03
1.546841039222951290e-02
1.844212061089400834e-02
1.050008415211890929e-02
2.672347764394135926e-03
-1.227923422984922817e-03
-6.277411062565130262e-03
-8.275132684804611602e-03
-7.311015945732505898e-03
-1.802832320845216586e-03
4.190707400912614851e-03
2.962835030357238893e-03
-4.779900219543423492e-03
-8.234748501538090640e-03
-1.302042931183900604e-03
3.680869116877520490e-03
2.638847788098782569e-03
-9.435479204315515441e-05
-2.159674339571056485e-03
-1.808219757031672391e-03
-2.641000021454236509e-03
-3.547916030164484109e-03
-3.142353410540417273e-03
6.880216489139230618e-04
6.044444059683215346e-03
1.067573507587955654e-02
1.472591333901388140e-02
1.387429998349442271e-02
8.961141910367818181e-03
9.703829297360073601e-04
-9.558490751946924213e-03
-1.548776687581098800e-02
-1.633476674880642715e-02
-1.215138411022936155e-02
-8.550008143790987364e-03
-7.089880360523139781e-03
-4.369951760481276433e-03
2.156465088089618704e-03
5.919709735386397172e-03
6.619612730102196994e-03
6.537461562429176636e-03
1.066510654432138369e-02
1.478449873987159637e-02
1.171185828808130741e-02
4.568514988275766860e-03
-1.150386097020737568e-03
-5.958454897326285506e-03
-9.039540249043263864e-03
-9.146843338136841431e-03
-9.011838531688279655e-03
-5.869954708778830042e-03
-1.521039451096234223e-03
3.627888349361841659e-03
5.071998837629695077e-03
9.219412880560297818e-04
-1.842871298329399211e-03
-2.332162046506303620e-03
-8.671320586442115078e-04
2.510761355564198011e-04
2.839521620754194373e-03
4.283926657397361774e-03
4.707090377409595475e-03
3.458109769319285803e-03
2.165174275328638973e-03
2.297493991992758181e-03
8.981084532244035376e-04
-2.695735694620448718e-03
-5.930254209781588189e-03
-6.843810026299621853e-03
-6.961907317430436788e-03
-4.886954362143344603e-03
-4.195637999537694799e-04
2.843266422650584345e-03
2.689929920115240701e-03
5.458694390701288209e-03
8.330616489254058163e-03
6.343009309087684414e-03
-2.898923498515183967e-04
-1.905787472337415640e-03
-3.349992714915935466e-03
-4.747518249463563572e-03
-2.111178834757271566e-03
-1.530386442839580443e-03
-3.300987767570933047e-03
-1.772713468118290205e-03
1.222074433411306487e-03
2.470233640139796703e-03
5.803785344032145977e-04
2.542804362280512518e-03
4.655673888768883072e-03
5.953904283958182803e-03
4.244759389246579272e-03
-3.780775567969203569e-04
-3.850239721237219779e-03
-5.759830069466604849e-03
-5.832255398000096153e-03
-4.689154194531063198e-03
-3.389034554182207906e-03
-2.970678885900608114e-03
1.646564875383350543e-03
3.804120011860030130e-03
4.780946938479170572e-03
5.241373068979677564e-03
3.855312371346130557e-03
-1.333511357874444386e-03
-3.908239744274285415e-03
-3.881628149140893894e-03
-3.118765445444123333e-03
-3.009187283070326375e-04
3.125347252074135544e-03
9.207331040564295868e-03
9.757944173604919669e-03
3.604688091101305308e-03
-4.164925311864652036e-03
-6.161105298695849358e-03
-6.720261061941176957e-03
-8.163813677813890751e-03
-5.451918143567906737e-03
-6.663707884545935572e-05
5.022198753339862133e-03
7.183549459136546501e-03
3.355196178431261913e-03
-5.234861916850312193e-03
-1.262075499722693089e-02
-1.055129097047959909e-02
-1.929626166961564623e-03
8.787652908294956572e-03
1.344323552382671073e-02
1.512444324321401794e-02
1.351113950751453748e-02
8.234857533938471502e-03
1.175884108001483928e-03
-6.269958678655976857e-03
-1.286970509920038613e-02
-1.524760707464034408e-02
-1.443196876989088183e-02
-1.172545550664725808e-02
-3.208001427390119210e-03
6.986047486697823973e-03
1.322242485610033123e-02
1.064612154645061710e-02
2.190099776086120754e-03
-3.722735007767039202e-03
-2.799545155418736546e-03
4.050051616594062091e-03
9.644394651045572198e-03
8.770827587263370015e-03
1.241376174950430643e-03
-7.796023743577226717e-03
-8.765851123335118011e-03
-9.478098446001176000e-03
-6.894202956835250237e-03
-3.146172876750875924e-03
2.550086450626491870e-03
5.194025636540692235e-03
4.981669027340472101e-03
4.553173086174875164e-03
1.663046280903156260e-03
-6.009839542005106271e-04
-3.891897451059602928e-03
-2.703216352944556432e-03
3.881354146308906451e-03
5.169722835584772240e-03
2.056806932581043204e-03
1.229414723622908627e-03
-2.408736436394075416e-04
-2.990953966245210333e-03
-4.598336996845024671e-03
-4.307134333390176366e-03
-1.499260987275109844e-03
9.498121417948170641e-04
1.248021880859827553e-03
2.102210394465637915e-04
-3.018030784999387213e-03
-1.352185499765796994e-03
2.983478096056287835e-03
8.916618110485096836e-04
-1.020287307581768145e-03
2.160010536671418211e-03
4.796484540705822294e-03
3.672778240105684273e-03
5.862584322382764042e-04
-8.544592390211360128e-04
-2.550223065328591828e-03
-1.072910486189210038e-03
-1.087831684093523189e-03
-8.950002890144789238e-05
-1.457701572609733495e-04
-3.315684104573178408e-03
-1.269791986366179855e-03
3.502907079101087208e-03
3.800314605814726458e-03
2.203941372056010246e-04
-3.721512293761469314e-03
-4.645188953302378625e-03
-3.579786659206520699e-03
-9.313685888640467351e-04
1.834565770570924801e-03
3.256361717437484572e-03
3.244453216431715872e-03
2.313807735798392457e-03
1.427708093895596348e-03
1.690275645160889319e-03
-1.300159796656856753e-03
-2.191855484062217758e-03
-5.266674798667046178e-04
9.405077432881845138e-04
-7.040700693404909226e-04
-3.952810384860975731e-03
-1.043276893102582439e-03
3.428370760696288540e-03
5.632033381448292055e-03
5.099659889294201956e-03
-1.528920544817942082e-03
-6.008425126954117755e-03
-8.323466947367045773e-03
-6.770518729079320029e-03
-1.164189664759250620e-03
3.344276845938045500e-03
3.433363044721677790e-03
1.877813828989300911e-03
2.812827989737188422e-03
4.558104912511695868e-03
4.040534068911113066e-03
3.050317859174086349e-03
-9.118112760053937805e-04
-2.422846603060584310e-03
-3.381529652300090225e-04
1.452914676346912532e-03
7.483478855400408280e-04
-1.891540279100285132e-03
-5.885175785833727385e-03
-6.811550093142555717e-03
-5.412091927850844718e-03
-1.947135611469947170e-03
-6.261859584496123421e-04
3.026018450856044124e-04
1.676737320982790887e-03
6.003833311545843029e-03
8.450347397340839464e-03
6.600838327855096735e-03
3.048731139627722415e-03
9.716390927657678851e-04
-1.205351184685408798e-03
-1.868382950954905562e-03
-2.920075802577012936e-03
-4.622601225507499121e-04
-2.334477597781375782e-03
-5.370521854740790794e-03
-2.564209197452708283e-03
-2.139546636906174051e-03
-6.947566230521697939e-04
1.231480954045143742e-03
3.759689496201567768e-04
-2.541905804833550619e-03
-1.149901803438088460e-03
1.156685093840364260e-03
3.107696201968607273e-03
3.871002410712840597e-03
3.960643327568106123e-03
-7.196277329507128452e-04
-3.620829903437135320e-03
-2.198076192249299142e-03
2.396077707700451989e-03
5.620585745307612492e-03
7.486561628636733030e-03
4.936263482313985387e-03
-1.737739467710126134e-03
-5.371063269928728380e-03
-3.969474786832103558e-03
-1.154953821852332946e-03
-2.341337889530545769e-03
-4.962133171350516757e-03
-5.486838419644541297e-03
-5.831203550873019156e-03
-6.038961625841519042e-03
-3.681484942119612417e-03
1.856516603501889634e-03
9.667042507369955767e-03
8.606011374589472504e-03
5.203294585276360164e-03
4.121317976301205020e-03
7.233948633893086053e-03
6.149179391052852703e-03
6.767082287807067676e-04
-3.604779082038525942e-03
-3.575642907510413141e-03
-4.513061412201523417e-03
-6.345213844263171248e-03
-4.250525163663919880e-03
-2.687660597922367570e-03
-2.726433589289195027e-03
-2.352796986860887594e-03
-2.728773099637800490e-03
-2.248911288772552884e-03
7.029317044320570204e-04
-3.455770673114538978e-04
2.462561308443299811e-03
5.972222487272377082e-03
6.229804818432627470e-03
5.038150384527927649e-03
6.597619249797500272e-03
8.353735708230209875e-03
5.430069267978464113e-03
-2.187996204389645177e-03
-6.281110448260611261e-03
-8.079608394232854970e-03
-6.498409465946347607e-03
-6.821363845300002296e-03
-7.569749819810889929e-03
-4.770947293809965281e-03
-2.336035758644466886e-03
-3.171373052674041786e-04
1.572475104755044961e-03
5.928917760056382977e-03
1.077732874321932384e-02
9.558853023227910015e-03
8.855832556827349751e-04
-3.074559479877786092e-03
-1.321043281279852752e-03
2.081971026480581785e-03
1.364290936435841838e-03
1.718072059574933270e-03
-1.144211966647676847e-03
-5.115458847595236863e-03
-9.471132319962065685e-03
-9.372477402356298171e-03
-2.578497123726077034e-03
4.603180078051115169e-03
8.911711377149430721e-03
6.621926324004530004e-03
4.682511216100164984e-03
5.763484836706708400e-03
4.750041223733952357e-03
-2.249272980474728394e-03
-7.061906208263735857e-03
-8.059821436166536915e-03
-6.643789158361608320e-03
-4.492801748307243687e-03
5.568962457420779206e-04
3.523526300797339209e-03
1.583017981330071822e-03
-1.665101502839847012e-03
-7.830579407371325963e-04
4.020264617966253645e-03
5.050463252641555073e-03
2.432676271230427864e-04
-3.789219190836757775e-03
-2.087025061513605467e-06
2.600892233346756895e-03
5.212248033230835673e-03
3.506012377445414524e-03
-1.219760257780380663e-03
-2.953286414100033189e-03
-3.017097119208255081e-03
-2.279123292901027737e-03
-1.451044059606598161e-03
9.015905310040417007e-04
1.498270962054503016e-03
5.876798302440370625e-04
1.200842578389773663e-04
1.918774884448574969e-03
6.625104005269265642e-04
-1.313108022257576755e-03
-3.477087271343052861e-03
-5.427193514421995747e-03
-3.842673746980282325e-03
-2.408903794740529895e-03
-2.975492121674246787e-03
8.429934342946337816e-04
5.346744596419372719e-03
1.062732028647265028e-02
1.125297947544799497e-02
4.352168834091727119e-03
-3.156599601089744010e-04
-2.939510391083958833e-03
-5.258274321516174209e-03
-5.212530815980446347e-03
-6.397376877801748581e-03
-6.917100420517150426e-03
-5.484286472754761228e-03
7.185556264012806253e-04
8.257188901815192342e-03
8.817952698359450558e-03
3.244750729801407912e-03
6.232796640964660987e-04
2.768392451963250732e-04
1.229463850642458682e-03
6.839046737293583708e-04
-1.396250928035230833e-03
-2.282150667987723012e-03
-3.189897115035281346e-03
-4.242993254607286234e-03
-6.913689092691497479e-03
-5.022707594249004558e-03
-9.184815396520077226e-04
3.213317458986379108e-03
8.393207254265863324e-03
8.463431355815618715e-03
2.745277872350367250e-03
-2.593202263593040804e-03
-3.085378623537737668e-03
-1.460220551498230251e-03
-1.080121810104407677e-03
2.759057764764283674e-03
5.131555361552663994e-03
2.472960597981797067e-03
-1.920686720006241702e-03
-2.769091009786127638e-03
4.852017861766265579e-04
-1.199755915403647680e-03
-3.572069725658224681e-03
-3.731158069260577786e-03
-3.788802164092999573e-03
-9.523517912865951023e-04
4.169372786616835544e-04
5.470925942634975682e-04
-1.092876233265910064e-03
-2.444725741985531633e-03
-1.158672412297557120e-03
4.788002551893864346e-03
9.607397570952811230e-03
7.326046673005145657e-03
1.244207031920556254e-03
-6.393708126774651440e-04
7.980760673269494563e-04
3.896133057382678987e-04
-1.240059710103967767e-03
-3.156442879004488743e-03
-3.951623704584479764e-03
-2.192384759905500850e-03
-2.821526522866787175e-03
-4.488680509732266913e-03
-4.737283486407323392e-03
-2.295845439780434642e-03
-1.966419914864279885e-03
9.311116759611227792e-04
3.917075291407329588e-03
6.954723339910519331e-03
8.015720659099875856e-03
7.039971382921558947e-03
1.658496339632649884e-03
-1.364093838210901112e-03
-5.354592385755408551e-03
-7.248732800759977342e-03
-4.606378029995421459e-03
-3.379087623836480648e-04
1.724091449636218527e-03
2.320569523932843482e-03
6.310315161599986365e-03
2.682857748306900249e-03
-1.717630166303661752e-03
-4.162949843976085189e-03
-2.529534295263184511e-03
1.803551545152372055e-03
-1.651506140990139932e-04
-5.071691104780417549e-03
-6.802400487212250692e-03
-3.669585421612949795e-03
-1.315946200272368263e-03
2.080578573363932315e-03
7.561518041982536083e-03
1.217952839926437700e-02
1.189638745183026203e-02
4.942532639479258090e-03
-2.988249629594165110e-03
-4.069115921697984313e-03
-1.297535375282513883e-03
-1.920803112337148271e-03
-6.895459813654948589e-03
-7.521174330324877956e-03
-5.729938251572779494e-03
-5.541303477166306495e-03
-7.422396442316326302e-03
-8.146551854044522742e-03
-3.555779427411363477e-03
4.858852356897351392e-03
1.390423843411680085e-02
1.607233033489644664e-02
9.138184613743953813e-03
4.238173096660284404e-03
4.353401896198258632e-03
3.857679485576077320e-03
1.805042600760904540e-03
2.688545939807811844e-04
-3.266777685689064778e-03
-1.008686029644361402e-02
-1.625781712102639456e-02
-1.413660316870500068e-02
-5.481890832769732193e-03
2.823496535560773672e-03
1.036829962530043565e-02
9.168827311788845663e-03
3.648711041791761686e-03
-8.162870441676416166e-04
-2.487821362192210554e-03
-1.751330338780094850e-03
-4.180275107892520228e-03
-7.273710333053818103e-03
-2.910523239864038283e-03
5.127748848253962412e-04
4.163090703835556176e-03
1.021653797318782843e-02
1.193447245370619393e-02
7.242835882548170380e-03
4.992838600586768996e-03
1.320026104676675065e-03
-3.403434760860223236e-03
-4.245183714788442440e-03
-4.357616159354385510e-03
-7.481827888343956477e-03
-5.571240678622422886e-03
-5.176582588422968222e-03
-7.449223536748442176e-03
-4.476965065950340092e-03
-8.022624300325745294e-04
2.438857568427605770e-03
4.758635619227184928e-03
5.235914675212707294e-03
6.927313665165542485e-03
6.783709685094693395e-03
3.116593294226157294e-03
-3.799168593538592743e-03
-4.558370320660245709e-03
-1.226951288078660749e-03
-2.001551381777212993e-03
-4.562072317715511476e-04
4.318575261026809387e-03
6.498719318527637449e-03
9.251029612686152378e-05
-3.506191421356189605e-03
-2.309475519115625501e-04
-5.080383066996195214e-04
-2.395217658719060467e-03
-1.800507688013034367e-03
-3.313043635130307613e-03
-4.333114221081605169e-03
-3.008183130684531116e-03
-1.440907810926582997e-03
1.171762466702279491e-03
4.259332993225259205e-03
3.276604822269441573e-03
3.582584623223600967e-03
3.192894230061764285e-03
2.389690962990296749e-03
-9.380666554756211957e-05
-1.273437481565615603e-03
-9.295672385819477761e-04
-2.286489698668094735e-04
1.140398667359691801e-04
7.566985598046821948e-04
-7.680085515271838233e-05
-2.928206826415294742e-03
-3.436881699896882775e-03
-1.032490816965114539e-03
2.441746793851420644e-03
2.578433736739827332e-03
7.988096119962241398e-04
-6.835843220532497296e-04
-2.985124024984783797e-03
-3.536912373317883680e-03
-2.651555169868417394e-03
-1.394128948350533857e-03
-2.353884673807490370e-03
-2.177384882952771751e-03
-1.497202052380039537e-03
1.008846881418809125e-03
7.388220009146188177e-03
1.201511725835303565e-02
1.211659134044345242e-02
7.011767170684377569e-03
5.602600721441082119e-04
-5.693022018201391622e-03
-9.299464818643335753e-03
-8.112543366062582861e-03
-5.767299506744499697e-03
-5.566079758607679097e-03
-1.926913087354311001e-03
-8.280544375524665325e-04
-1.261917562668377535e-04
-7.010413879866590888e-04
2.501415990361183467e-04
2.946478081338155600e-03
4.402685874783879814e-03
2.386637109270239171e-03
3.193348235157962046e-03
4.091936700667476307e-03
4.919951269929604375e-03
2.896321021997188671e-03
7.125831522294499972e-04
-7.846571820887571777e-04
-2.585303046673850715e-03
-4.912709122961867597e-03
-8.130702411757671430e-03
-5.717686471712614751e-03
-4.365694705019433825e-04
3.143598440996941273e-03
1.850812664477398308e-03
-1.057868396067173852e-03
-2.462561232025654596e-03
6.135495120958170488e-04
4.436697053165644493e-03
5.270405501978747340e-03
2.574644809719121678e-03
-1.913643069531479127e-03
-1.894232465084577221e-03
-1.763546508817595863e-03
-7.455425218482837407e-04
1.463368281759468018e-03
1.186320854307019480e-03
2.212227526485361154e-03
1.760410446940793199e-03
-9.712718587985060556e-04
-8.356568974261103632e-04
-1.991641269318375051e-03
-4.168311713795488926e-03
-2.968026046992810162e-03
9.792646462250206331e-04
9.476287128847713436e-04
7.458819484097034156e-04
-5.433247511044236432e-04
-4.788687595407905835e-04
1.750079083354406635e-04
9.559652282486940603e-04
3.685583113617949338e-03
6.059988710726330746e-03
2.108122173006796423e-03
-2.700314772684057896e-03
-1.980640696283736922e-03
-7.894768375542153289e-04
-2.956693506056796115e-03
-4.674157607670104304e-03
-2.276334373539596039e-03
-1.090455747991290591e-03
-1.094789940051544511e-03
9.424040900881570796e-04
2.304189471517232701e-03
5.765589300588145304e-03
6.315624085725997199e-03
2.752374442342409369e-03
1.242557285436916381e-04
-2.628348428378269024e-03
-5.041538869441784983e-03
-6.498866361303176457e-03
-4.551110757384078769e-03
5.067358419220713587e-04
3.193464105516637119e-03
2.300497751207267703e-03
-2.570032022680199591e-05
2.019625183243554598e-03
4.775710528794217466e-03
5.644617739003732551e-03
1.871506463807333463e-03
-4.265310524269748729e-03
-5.604213875190874015e-03
-3.525275301500302612e-03
-2.760283318881716266e-03
-2.847160836354709068e-03
-4.196957239474860915e-04
4.141054569042347771e-04
7.333738299518784360e-04
2.833196649785197935e-03
4.727793120318877357e-03
1.673639815602168037e-03
-8.618700703870294704e-04
1.661104976151484783e-03
6.601036699244809854e-03
4.139021756698300046e-03
1.087869662870518013e-03
-2.752844091157950063e-03
-6.808713314664645126e-03
-1.003082701888538715e-02
-9.825203122669734848e-03
-9.530427411918064931e-03
-4.078806878967611294e-03
4.584745324054119789e-03
1.191846349235707765e-02
1.596255242540055991e-02
1.397531372810405584e-02
6.244839302919355691e-03
-2.230758676442692011e-03
-5.551795113624471804e-03
-5.605045702138355609e-03
-7.475236469899796711e-03
-8.906110778695098054e-03
-6.548250830103642325e-03
1.909868414312314820e-03
7.062437988854918490e-03
4.111698196885693081e-03
-1.337892657233419845e-03
-5.798083209055473336e-03
-6.073625678229366796e-03
-4.001724568150183924e-03
2.515669800819938574e-04
6.044444580662176707e-03
9.044916199801420267e-03
7.783770410431769919e-03
3.496562975250639728e-03
8.847166092678103748e-04
-2.258594885880278041e-03
-4.514767522056304695e-03
-2.663267948911568223e-03
-1.133014710936432017e-03
1.282533892755739757e-03
1.974795585903165937e-03
3.837489361639158207e-03
3.221138111138189489e-03
-2.276999091828035664e-03
-8.465945920535648470e-03
-1.157591519302731548e-02
-6.426125620145487459e-03
-9.229913396086613557e-04
3.312837394403150663e-03
5.750187998259242983e-03
5.869622852703415376e-03
4.984968950128869022e-03
5.014453671245366027e-03
3.876117723598291958e-04
-1.511271709950758567e-03
1.955829518793603637e-03
2.731049379379794223e-03
-1.914847222304750032e-03
-6.632299232910313785e-03
-7.602385761646483428e-03
-3.602057483886476549e-03
-2.749469907457223667e-04
1.618199059202061509e-03
3.757392510250736218e-03
5.532086368945084848e-03
5.871511278595042266e-03
3.092353407044027766e-03
-3.694817044737437801e-04
-1.465703519393026042e-03
-3.551360644048656787e-03
-2.496161494741929061e-03
-2.398814269102712317e-03
-4.295000298309117198e-03
-6.311629729449112249e-03
-5.501967904251217276e-03
-3.192550540048661768e-03
2.027811547008118512e-03
8.043185112563968134e-03
1.072833329949272364e-02
9.588594185220946850e-03
4.400531277835493388e-03
-6.664515484044115966e-04
-2.842594051190362649e-03
-1.969235250521522099e-03
-1.555438535836425277e-03
-2.204260554412992932e-03
-1.600539959281907162e-03
1.074993062161051262e-03
-1.711919753204655878e-03
-6.311807579083943132e-03
-6.891515130368941304e-03
-3.369886221908882651e-03
-2.033093821506437235e-03
2.767354503433517177e-03
4.952092566174930675e-03
-6.345137680092350534e-04
-4.505302884606717830e-03
-1.617189140978260962e-03
4.497047711343583540e-03
8.280587597239401007e-03
1.191222731241612515e-02
1.141932655285966478e-02
3.700240155283593749e-03
-5.532940938104526432e-03
-7.388184023484636875e-03
-5.648586317902965816e-03
-4.703718474209921292e-03
-3.891335868260641442e-03
-4.812120268238672186e-03
-4.457660668012643039e-03
-1.160075363891264338e-03
-2.406017952268224168e-04
-2.724552958702575970e-03
-3.519495371671990582e-03
-1.802134540859117633e-03
4.616149842046723094e-03
1.332819667176806007e-02
1.808652242646679315e-02
1.353020237219281462e-02
2.815916416839331186e-03
-8.479059083714053646e-03
-1.402523307052932176e-02
-1.329065147232973317e-02
-7.257835349686975364e-03
-1.925555242531231011e-03
2.399337553416254368e-04
-1.068569205699706516e-03
-1.713963650530410344e-03
2.759339301973444489e-03
8.268238191241290835e-03
8.287513750213096331e-03
3.915000668475897110e-03
5.343714803570420903e-05
-3.887858151367185934e-04
-7.686111824124058087e-04
-1.397138476441740036e-03
-1.061073404377812536e-03
-6.969925745382212086e-05
-2.081486693506533030e-03
-2.503919032773540675e-03
-2.987301245684583287e-03
-3.337391774992031369e-03
-2.127575211489483517e-03
-2.501023537259009638e-03
-1.647654318939240168e-03
9.494712510189855627e-04
4.727885900241046019e-03
6.818721917435191862e-03
8.145636045047642201e-03
6.556327486980862568e-03
1.804842712637551533e-04
-4.326492713386534232e-03
-2.610925789189469035e-03
-3.294421199090714902e-03
-6.146086813492557428e-03
-8.484420484605627658e-03
-4.866962938017117823e-03
8.640496450572363388e-03
1.417127990534354336e-02
9.442290902222028742e-03
-6.383801366256666417e-04
-1.007534175652447482e-02
-1.255000096963056373e-02
-1.271497912168105364e-02
-8.346922818770998592e-03
6.421898950430114271e-04
8.074097197627775821e-03
1.018968228360120527e-02
6.858596741356999017e-03
5.538506164044772022e-03
8.912087301098820316e-03
1.046418395353091065e-02
7.764916995208248456e-03
-1.637077999486219286e-03
-9.669230699427992098e-03
-1.236496858900935740e-02
-8.625335468359135796e-03
-6.765786538465361037e-03
-3.296975015483400752e-03
-2.452462311327925117e-03
-1.085085528360737496e-03
-2.560632400590771244e-03
-3.342935852103847121e-03
-1.402420821271008373e-03
3.002870653986915335e-03
7.461632597503272714e-03
1.136006034871546271e-02
9.612762585644233151e-03
6.540299960731050556e-03
3.812669975853442625e-03
7.583552627762707400e-04
-4.253310133444441858e-03
-4.186190192934011005e-03
-7.173317663170202365e-04
-2.695715661307654040e-03
-7.665055811234872292e-03
-1.039733679875759487e-02
-9.293843036590284171e-03
-2.261920195796736192e-03
7.180636527747779295e-03
1.234263196014807711e-02
7.930531326988600471e-03
-3.459458319718172943e-04
-7.683005764402354477e-03
-7.748182273576834957e-03
-4.741116463179490502e-03
1.554092520818864138e-03
9.659987350708509196e-03
7.704058135431342096e-03
5.460053379495508237e-03
6.272392250136934501e-03
1.566532582173254737e-03
-5.036065223009162511e-03
-6.712974474406171489e-03
-6.097715589898358539e-03
-3.981542533416768462e-03
-2.665997621966692370e-03
-3.825344443424728413e-03
-6.677431116572163546e-03
-5.242033022687161287e-03
3.259556640193840907e-03
9.088175728400040357e-03
7.678726808054468257e-03
9.094199084318589296e-03
7.810073882106638443e-03
3.009417311358312738e-03
-8.016380742919680018e-04
-3.464193858473460356e-04
-1.195925113938304998e-03
-4.176442203035088570e-03
-6.121225149926468913e-03
-6.117757304243229277e-03
-7.791542930223536480e-03
-8.319587435351945282e-03
-7.895979803043681050e-03
-6.843022623789767923e-03
-1.200764401053503773e-03
5.811676669444639474e-03
1.507001637341113046e-02
2.222164706311634264e-02
1.874336158095421187e-02
3.381887555296162438e-03
-5.787681444887895869e-03
-5.530769573770133452e-03
-3.928095744175546210e-03
-6.929859503959959720e-03
-6.130779309200131907e-03
-3.626304234821458618e-03
-5.744865755721259050e-03
-7.324749008868054051e-03
-6.361565092071092518e-03
-2.944765639422449247e-03
-2.776798774497012123e-03
2.497254362762935109e-03
8.723738117660358865e-03
1.158420988294486288e-02
9.480632192071302561e-03
4.440507145816376990e-03
7.378776122844613690e-04
-1.363492300016826489e-03
-3.012265081658495151e-03
-5.693880133111876678e-03
-3.438439213173568373e-03
5.289165447403608271e-03
9.056881191220304481e-03
4.840628104686908913e-03
-4.709698143822027214e-03
-7.291353926624690590e-03
-6.268842499314569890e-03
-7.087456095494202614e-03
-5.369748145305574573e-03
-3.856225865236165284e-03
1.776729078950831445e-03
3.372393817987272540e-03
-9.548326823489318828e-04
-6.380896632024992722e-03
-9.479533383669408800e-03
-7.654215877388324991e-04
1.316250704197861020e-02
1.738877658432442033e-02
1.690175478553841357e-02
1.263675426070080474e-02
6.977400739749024111e-03
3.162050914641838413e-03
-3.084806140627987386e-03
-1.147013823630888864e-02
-1.740879457261715335e-02
-1.489677484304493572e-02
-1.434420486536908297e-02
-1.296188825102211929e-02
-1.062848323305485426e-02
-1.810407224837089039e-03
1.191163890969176332e-02
2.136621940849836240e-02
2.197864737917726990e-02
1.344881759018734871e-02
3.553997137414887340e-03
-1.164773757454470697e-03
-5.015741290473027351e-03
-1.140311040918959642e-02
-1.366585156645996023e-02
-6.058462491252697944e-03
2.367030306171377316e-03
1.799653527097643327e-03
-3.532129223725369131e-03
-4.978816759755213227e-03
-2.599819951554242260e-03
3.372884997453306621e-03
9.016501884485559129e-03
8.388195826241829495e-03
4.963764711704226652e-03
1.106857686276495854e-03
8.169579250324629461e-04
4.263696033651454540e-04
-3.610140844034096051e-03
-5.703099635325651999e-03
-3.630064555665586147e-03
-2.797606678408477189e-03
-8.200885706108712288e-04
4.707260932802912606e-03
6.298120658842695611e-03
5.655822143118888722e-03
8.626422005629123596e-04
-3.238255047752472329e-03
-5.108872280629922491e-03
-4.682615393524921198e-03
-6.111111446153114253e-03
-4.492977473583464540e-03
-4.344913477464166889e-03
-6.491032827716179329e-03
-3.958187062145473827e-03
4.731511303861029964e-03
8.523695548616476436e-03
1.265428704505354440e-02
1.559556394800301442e-02
9.811039494671512651e-03
-8.515507893835173913e-04
-6.344337299694776180e-03
-7.042666503935891657e-03
-6.409097873615455902e-03
-4.266643027704962975e-03
-3.195125583426280426e-03
-1.806707608109687883e-03
6.847302495919586852e-04
3.494454619548210072e-04
2.944373753936686106e-04
-3.216335703557398934e-04
-2.626809594890399009e-03
-1.781544261449621858e-03
1.879636281781530034e-03
3.150104743359950776e-03
4.002468916678436628e-03
5.041215051649090319e-03
4.433290886490665918e-03
1.969563550259502643e-04
-4.914191013079535764e-03
-5.392970219875710056e-03
-2.589816465848124825e-03
6.288580347863723932e-04
-5.773227627471139633e-04
-2.801037443734626878e-03
-2.630217055481318122e-03
-1.535341996796987579e-03
-8.394644090410278807e-04
1.069992954482644151e-04
3.310341349607825393e-03
4.957462583643473981e-03
7.010061922590080444e-03
7.591849276300621611e-03
3.585999001749422960e-03
-2.028985483475622840e-04
-2.025806426708225833e-03
-1.652362628522426264e-03
-1.885487950175676782e-03
-5.346978000056991365e-03
-9.587245071260594095e-03
-8.302386819266099546e-03
-6.746570016876029564e-03
-4.953297847871342315e-03
5.756580324038578595e-04
4.038987664585160300e-03
7.410068863165717411e-03
1.096118688241112804e-02
9.740974062899967686e-03
5.009396843931426639e-03
-9.544109535385140357e-04
-1.341667292956011392e-03
3.906365622878154621e-04
1.362764197369456098e-03
-8.685512285743396442e-04
-4.177137708027756254e-03
-5.363732571002728135e-03
-4.874119284808800349e-03
-3.584778866544778043e-03
-4.908572156056477219e-05
1.724849271827413530e-03
1.888346796900790313e-03
1.698854003383610742e-03
1.592045454333906754e-04
-2.325968079741509709e-03
-5.941195877174344255e-03
-5.823174090138560216e-03
6.051104463643546157e-04
6.146997571483493739e-03
2.366639910832018558e-03
2.925686087255389804e-03
5.581847494843006872e-03
5.307463702907318399e-03
3.902108362640328842e-03
9.931444205821000210e-04
-1.380045593231578110e-03
-3.029298531184288976e-03
-4.080959226477496801e-03
-1.607635753290468685e-03
-6.037979248416986593e-04
-3.600512023864928853e-03
-1.502933713239781172e-03
3.068538654462272565e-03
2.494294431111999163e-03
-2.875039524529890249e-03
-6.552860987972330443e-03
-1.087610972720475661e-02
-7.787738976059122194e-03
1.773776588977384570e-03
9.235454152372292447e-03
1.195787241238695578e-02
1.093593655102334007e-02
8.808356268555101592e-03
3.294138134217775189e-03
-1.513251066231657491e-03
-4.904623727186389545e-03
-3.594382102880333725e-03
-5.747664698397225887e-03
-5.792923857428248363e-03
-5.470585628156545040e-03
-4.214505407779379174e-03
-1.896514758224747930e-03
-8.114926194467808997e-04
1.184679229994059502e-03
1.665888786038647283e-03
2.325707030776761990e-03
4.850017084497621443e-03
5.875309517207893267e-03
2.782825307176890750e-03
1.631657203179187783e-03
3.732519140748506714e-03
2.752902987937765663e-03
-9.330152149318169568e-04
-6.339729732260359664e-03
-6.368583657012366096e-03
-4.126615409500924633e-03
-2.238901765770852717e-03
2.954126237575764244e-03
6.902831888079361683e-03
2.050955788248804963e-04
-6.829212916522823217e-03
-6.002301652670420998e-03
-8.472925470885793323e-04
7.810532959479831111e-05
-2.626710879278336755e-03
1.746104454840941499e-04
3.562622332504732613e-03
7.932072256050080525e-03
7.388681584065521883e-03
5.614790595296025727e-03
4.883146086159658068e-03
1.177847450664209171e-03
-4.354728986410858795e-03
-6.922994888772249396e-03
-7.541217452115836321e-03
-5.544207484903968322e-03
-5.447313085553026971e-03
-2.141639664805864741e-03
1.711910011452029944e-03
2.852951800006598999e-03
3.827582249957062373e-03
4.898141137780601118e-03
5.414095448730590725e-03
4.421446343972258546e-03
2.647316676740498094e-03
5.191354322571947689e-04
-2.899214620164484654e-03
-5.172283197298540962e-03
-3.235139009810185373e-03
-2.850745075419523072e-03
-4.876239407479306467e-03
-6.790799379000128297e-03
-6.210098042598481000e-03
6.319557549798836401e-04
4.988148586456569479e-03
7.255105244218548570e-03
8.571326369818775201e-03
7.452802874312196985e-03
4.213915106369194204e-03
6.619529596599750152e-04
-3.256399208049564654e-03
-7.159806809224998972e-03
-3.510021852856781178e-03
2.713510606011591310e-03
2.415120228264921922e-03
-8.240301694850228143e-04
-3.403532590527810157e-03
-3.986909008421538059e-03
4.693772773052719955e-04
1.289645891232238037e-03
-1.017392816604174681e-03
-2.560283706102520207e-03
-4.767889139756383531e-03
-6.309825584979926287e-03
-5.089399089612657232e-03
2.814133185546028974e-03
1.077547654715043171e-02
1.534699768618801204e-02
8.775417799419212017e-03
-4.014722809013915512e-04
-2.764567948633050477e-03
-2.503844448716875150e-03
-4.135016664946812061e-03
-2.876953273783967955e-03
-2.189716447155990592e-03
-4.000452765983003416e-03
-5.034684655475047711e-03
-3.373358317723606017e-03
-2.821830907791352178e-04
1.618829076444565970e-03
4.151340837278348975e-03
6.251110899794171290e-03
2.438578757534083045e-03
-5.521001159498121732e-04
-7.124942834226978940e-04
-3.034134955528607265e-04
-8.200790224401906898e-04
-9.310766206229687350e-05
-2.231127856166470957e-04
-1.019585706180585949e-03
-7.643326407865119049e-04
-4.849314340891753812e-04
-2.277868145723381879e-03
-4.122800931575549589e-03
-3.852689828225879659e-03
-5.303174611863003965e-04
3.564881130535483243e-03
8.580102789967136018e-03
1.037440439607636121e-02
8.149542123171382019e-03
7.920807557497574992e-04
-3.811946362764582347e-03
-2.959217073852283761e-03
-6.597147465489588969e-03
-6.798864009620447617e-03
-5.071807623860514688e-03
-6.711298000336987472e-03
-9.512896816312782847e-03
-1.018952287878929601e-02
-6.062240671854184255e-03
9.197374908352810852e-03
2.342680660154235900e-02
2.457544437511572852e-02
1.000454254649907684e-02
-4.816348224444826250e-03
-6.292176638706034261e-03
3.729082333003326945e-04
2.331471499480263464e-03
-3.035184824853902862e-03
-6.266628153333756064e-03
-7.320745140537983191e-03
-6.099570996232909006e-03
-5.950343925011137430e-03
-8.170193015063711636e-03
-9.874544225529068367e-03
-6.907510602195869945e-03
-1.793350344408662159e-03
6.160857807543370333e-03
1.382364092813890763e-02
1.528587612458230660e-02
1.557628752282969216e-02
1.081381377409990248e-02
2.852272690139209983e-03
-4.988473889661895581e-03
-8.980840958891555051e-03
-8.027382531587291120e-03
-6.696927091937036197e-03
-5.443766737461914508e-03
-1.967804261453186439e-03
-3.596510678174738075e-04
9.607180300551164355e-04
8.554168138015793036e-04
1.878439416990835935e-03
2.645211299655220519e-03
-4.916474197091434207e-04
-9.340631908268936254e-04
-1.527265212954656819e-03
-2.222384589137419775e-04
-2.136534398115019513e-03
-3.997136443124032351e-03
-1.929444467878515222e-03
1.822123214696316860e-03
6.822857599688789826e-03
8.797844957159847018e-03
8.022627502007568384e-03
4.441782051092903368e-03
-2.173952654678460578e-03
-8.711007473548627172e-03
-8.551722697138003024e-03
-4.993214202154233616e-03
-5.583399960402405564e-04
4.078582652686849747e-03
4.908055880786321191e-03
9.966526770992117663e-04
-4.443717744079087213e-03
-2.987776865542821590e-03
-3.768401400599143808e-04
1.107110863320649686e-04
2.538510444887079331e-03
2.896140638853009729e-03
-3.776448227867297580e-04
-3.043714865384339156e-03
-2.545315589280735136e-03
-1.676270735674958556e-03
-1.720662804970653692e-03
-4.751406722010553243e-04
4.236213991662066657e-03
7.233511398258088594e-03
6.965057449299114599e-03
2.608217579194514746e-03
-6.080578449509967121e-03
-9.910829705850169452e-03
-4.289422359117808607e-03
6.362005245173499128e-03
9.683507505641479260e-03
7.663575663079206721e-03
2.000252760349817936e-03
-3.600054870137448741e-03
-6.159431995311566606e-03
-7.082270182679167685e-03
-8.335056664955492120e-03
-4.205059555057504006e-03
-3.123473742291149428e-03
-3.259177089324514619e-03
-1.838640589189000866e-03
1.085911567084268654e-04
3.836363682811396586e-03
6.303456869326254895e-03
5.498638817818489281e-03
4.090597392383574053e-03
7.894624564217240029e-03
8.170672618903864273e-03
7.872816701562024982e-03
5.179997311303309072e-03
2.251299811989246737e-04
-6.869865366391543146e-03
-1.063355873941357506e-02
-1.289111521200801518e-02
-1.161034786840645962e-02
-8.369052492766549875e-03
-2.553787978053609527e-03
7.018324459653473317e-04
3.019976000903069890e-03
4.067712848021429357e-03
8.255540821790306391e-03
7.784863757632775466e-03
6.896079291877133845e-03
3.242682129904626322e-03
-3.657089667815795046e-04
-1.458742568535208346e-03
-1.413522433884503368e-03
-7.202684811290226185e-04
-1.265135461239168301e-03
-2.203318602314130546e-03
-2.088004397926112275e-03
-1.915226393128393895e-03
-2.350146782886687721e-04
4.447706106811962433e-04
-2.345159803509548212e-04
-3.275364636436363581e-04
-1.840185590942887547e-03
-3.253098156479495434e-03
-2.117021149040698800e-03
2.656156407945817546e-03
5.144981876348937722e-03
5.690967167120011307e-03
5.861146849689741548e-03
1.580502867270361551e-03
-2.677578228290708288e-03
-6.555860588325248921e-03
-7.099478554937746141e-03
-3.792630677036916940e-03
-2.986818356135398974e-03
-3.868121908266681022e-03
-3.194740051604597064e-03
-7.987397344124091665e-04
2.999153345728354427e-03
7.229363235116555500e-03
1.209965482812684623e-02
1.212807126898146452e-02
8.049601340782997286e-03
4.538079345036042690e-03
1.524888398078852285e-03
-4.407377939048943288e-03
-6.269566051864408456e-03
-4.801944839540445674e-03
-7.234611120460013658e-03
-1.003164647288792843e-02
-1.277061810773815441e-02
-1.585647927638267340e-02
-1.412480436124288752e-02
-5.254729651122064769e-03
7.456901313729177340e-03
1.750534767785288243e-02
2.124967051144574168e-02
1.864769371656394004e-02
1.048877387583967320e-02
5.554351249337538370e-03
3.679833560418381382e-03
3.407333365786739134e-04
-8.753852208452653910e-03
-1.558634961152690311e-02
-1.384674395521196498e-02
-5.320398618030041694e-03
-2.006686613451565300e-03
-3.184224115676737217e-04
1.074037945987916381e-03
1.400088193350058907e-03
4.656971553908743726e-03
7.554949280450850083e-03
4.398631922985609018e-03
-2.501120206577657338e-04
-2.560472198430995862e-03
-5.996177808421438403e-03
-3.770710405066870705e-03
-1.129032287075154095e-03
-1.619925857725141921e-03
-1.914574175074500303e-03
-5.384731836913092534e-05
3.933427592570684986e-03
7.565158705111291182e-03
5.289268265300001333e-03
7.585617849994045537e-05
-1.467903178129555813e-03
-1.762651584620596136e-03
-9.636107674060175824e-04
-9.307430124947519467e-06
-2.906580095420246979e-03
-2.535744256544310467e-03
1.275348563904310387e-04
1.814652180571554169e-03
2.308551623229335593e-03
2.921683504972654843e-03
4.973975145268215263e-03
6.413940799791618486e-04
-4.762638620619419165e-03
-7.432853552256816348e-03
-6.901767171047653096e-03
-4.514413842186014610e-03
-1.447656591990970423e-03
3.573518536613508323e-03
5.114147717935730274e-03
6.433656305359518324e-03
7.119924039352188740e-03
3.237173953631484850e-03
-4.131683904006719019e-03
-6.444102530699965040e-03
-2.802844532050355678e-03
2.030049627919207865e-03
4.960534739416843676e-03
3.497927602500346990e-03
-1.036932566340617807e-03
-3.355098772021463185e-03
-5.944936008637742922e-03
-4.573043133234827411e-03
8.841918017862261626e-04
3.694965459729740963e-03
2.936712173218615843e-03
5.960527817828667604e-04
4.169130690555770095e-05
1.140307469424439333e-03
4.078778870444600322e-04
-2.430321682732342926e-03
-4.441121749502227774e-03
-4.520527377464177848e-03
4.189917458964691698e-04
5.222939449729618357e-03
6.716201545587113450e-03
7.516492251834956152e-03
3.522091984579614216e-03
-5.100548069526475610e-03
-1.116795560950669015e-02
-7.953921211922638373e-03
1.351998011909215890e-03
7.459997948167919508e-03
5.203061787186794192e-03
5.547998277811069237e-04
-1.731840484202849806e-03
-5.908539200309740128e-03
-7.228636697374132489e-03
-6.446004442891276574e-03
-2.056562817187189884e-04
1.025486113103438179e-02
1.360904044660788889e-02
9.344410594135028544e-03
8.972003022101360551e-04
-3.275412500929022336e-03
-4.794783196106844683e-03
-4.061062582843315109e-03
-2.838786496819668999e-03
-4.707326869068536278e-03
-3.764131016167825312e-03
-2.780066671328309657e-03
-2.976261195992150037e-03
-2.043348208418389704e-03
6.655299590099423039e-04
3.060312911416093566e-03
6.868799918485368576e-03
9.391360367761567365e-03
8.532807399487701491e-03
4.632649390080944077e-03
-1.432099018035512311e-04
-5.155052930116237747e-03
-1.082609846598530171e-02
-1.070282277744375767e-02
-5.947545611252029289e-03
1.681005251483800970e-03
4.331719197659633820e-03
1.330594816744085388e-03
-4.183881580330312856e-03
-4.353975189066097359e-03
-6.497014277392748052e-04
4.515394366820676096e-03
9.303867812398898540e-03
1.367187655715833630e-02
1.341917992101564899e-02
5.687990762658106346e-03
-5.228408756797971006e-03
-1.046594113587977215e-02
-7.713453303951539608e-03
-5.623440789833122032e-03
-9.915281879436986523e-03
-1.146679205993731375e-02
-4.165962505822189306e-03
1.961929763814934322e-03
2.870180721486609993e-03
3.224473802901036291e-03
6.622968993479320422e-03
8.715982334960606717e-03
6.044365946265300819e-03
1.676997027772604044e-03
-1.812322851892607563e-03
8.597945873502001483e-04
5.178510017027476535e-03
4.925798044998872145e-03
-7.898972677744525847e-04
-2.791048153334452307e-03
-6.079542567518339026e-03
-1.014066124646391398e-02
-1.015374287431045942e-02
-3.699212959498944173e-03
7.260927540840238399e-03
1.302583896620914707e-02
6.070984080157022268e-03
-4.766132728007383725e-03
-5.278522927333766102e-03
-5.194052708359468522e-03
-3.546969787045203826e-03
-6.236262647251128791e-03
-9.558635132178833205e-03
-1.290276431873476574e-03
6.645545054903403102e-03
1.448206859354911162e-02
1.888355885481404067e-02
1.614602708096360070e-02
5.709724031672546753e-03
-4.032777747925249921e-03
-8.233418366104640687e-03
-1.182599072972810063e-02
-1.119623051215106087e-02
-8.660400611595477777e-03
-6.348694093547006291e-03
-3.756119377538966707e-03
1.191479379582719052e-03
2.979213797837529203e-03
4.365502599229421563e-03
4.013290782598338650e-03
2.583537372764964195e-03
1.504930517052319172e-03
6.769371758699858519e-04
4.719906875794178773e-03
6.186941313679429275e-03
3.263322968668423175e-03
1.599377738725835628e-03
-3.385808270962912397e-03
-7.273134737515910865e-03
-6.403756183284053764e-03
-5.504058296279446330e-03
-2.729426484761082912e-03
7.231303906544919334e-04
3.817648082201690642e-03
1.556104153271686136e-03
1.606484261156544560e-03
4.157166867120323794e-03
1.760967983387360259e-03
8.480727904745617913e-05
-2.492580664862506187e-04
-9.171984588701760513e-04
3.111004045872661251e-03
1.906012540511279078e-03
-3.173121269508706252e-03
-4.816791198976664960e-03
-2.732377570075990129e-03
6.299243198299168045e-04
7.783816617586334871e-05
3.635224901041130349e-05
1.118868189055848960e-03
4.306807342644059671e-04
-1.261385694886383094e-03
-4.465407428609307998e-04
1.040963286920450290e-03
1.971314059447812177e-03
2.786437778006400738e-03
1.022375246425993390e-03
1.603380683007511449e-04
7.784887166730314985e-04
1.012316635860233474e-03
-1.153510791577634555e-03
-2.236346649439990668e-03
-2.255634258903566405e-03
-2.442350763189791996e-03
-2.339337470267849762e-03
-2.396233895319242573e-03
-4.124435782905583325e-03
-1.824358063554177374e-04
5.020569946863080897e-03
5.696454167062383125e-03
4.135295327870368645e-03
2.158834048935514595e-03
5.698714649143207626e-03
6.183740718336793764e-03
6.865497607645556838e-04
-7.459570554281449301e-03
-1.384190498471869410e-02
-1.082632561932706135e-02
-3.711176605768743060e-04
7.041838182088008651e-03
4.154263845064830665e-03
-1.323404199595632803e-03
7.704504896963478141e-04
6.868620220442564137e-03
5.010182801823572125e-03
-3.496917826732174467e-03
-9.420688672656283083e-03
-4.916688048759314950e-03
1.667454546226614358e-03
3.488890979282454740e-03
4.667058579551544746e-03
2.886632833677736307e-03
8.410662374075118493e-04
1.503656341790001599e-03
1.111727347176693931e-03
9.208757124547014986e-04
-7.232461887253689714e-04
-3.037141396131801119e-03
-2.639413061611817820e-03
-2.575254150316885261e-04
1.939320758937564343e-04
6.208509194345969732e-04
-8.600436594754459372e-04
-3.815966720753395398e-03
-5.803317485389977888e-03
-3.895431572777952219e-03
1.041423413400614610e-03
6.479509789545031401e-03
1.051316620970440575e-02
7.428864340441097489e-03
-1.922599544691588370e-03
-6.313797194661309974e-03
-3.825769483888098992e-03
-7.807036962168316862e-04
-1.061822621042525592e-03
-3.168582840324110834e-04
-3.661084950719380171e-03
-5.844786518642209293e-03
-4.075441665103643127e-03
1.824336881713425548e-03
5.291680194222803633e-03
7.057354572623957857e-03
7.056576060966894895e-03
9.160382399328525008e-03
7.447663522770328962e-03
-5.317524080928136791e-05
-6.927277606141515366e-03
-6.141623360139715493e-03
-4.832287672170686513e-03
-4.761143785071869292e-03
-5.663971612033443306e-03
-5.093293547793410064e-03
-3.606531402507090651e-03
-4.160540329407428316e-03
-2.660228270961304334e-03
2.263571836992809075e-03
8.934908956162411486e-03
1.231343145938103463e-02
1.039059518655283294e-02
4.180202757710833363e-03
-4.118343486858611589e-03
-7.612513617755641351e-03
-6.312380922756163394e-03
-2.702753188196294499e-03
-2.502380673272499613e-03
-4.692023597522039361e-04
3.887426272948007328e-03
7.074495579347186633e-03
5.740956136364108557e-03
2.177900936785864133e-03
-7.084674598056836048e-04
-1.676282378839126811e-03
-2.053897114508674519e-03
-4.510238869683277398e-03
-5.570770004151429262e-03
-4.462942885906416059e-03
6.999408360164222380e-04
1.625221114348383454e-03
2.823223962265718960e-04
-2.091847932842965611e-03
-4.240656668864226791e-03
-5.815834989230168027e-03
-5.255041628934603408e-03
-5.589826170473787643e-04
9.474503476195272889e-03
1.745742668102800987e-02
1.930653044477009805e-02
9.969387919382148230e-03
-1.922417243512762088e-03
-9.606865854312862663e-03
-1.092377676038887822e-02
-9.519751284864893734e-03
-9.035165827288421311e-03
-8.972753449277190083e-03
-4.080020908011280055e-03
4.361898964533179358e-03
8.994657404612469917e-03
8.585540486219848250e-03
1.613170836626179501e-03
-2.904582022984647342e-03
-2.505761861210083728e-03
-9.836810381574931459e-04
1.542757335736296526e-04
2.446675091783878393e-03
2.846635520941107229e-03
1.197707182432774511e-03
2.341548295800810703e-04
1.004816499669784020e-03
1.197183812887935234e-03
-8.920182288263062750e-04
-3.148851396803654858e-03
-2.995594043138159138e-03
-7.447696214594007021e-04
-3.601567674090811453e-04
3.095786153661030950e-04
2.053599698993015081e-03
-1.806224200131855903e-03
-3.445261832130690552e-03
-1.596700961342590978e-03
-2.013446223726174204e-03
-2.976812211389955141e-03
2.562746595343262830e-03
8.823872460785123564e-03
8.636079298295589249e-03
5.494131336096482431e-03
2.879556728627324404e-03
-1.590491245050583370e-04
-2.895119449309410242e-03
-3.983956242158786382e-03
-7.405921303831438512e-03
-8.117417349390115833e-03
-8.070049612734542938e-03
-5.836036137132912839e-03
-2.717213349086581263e-03
1.365789018985692424e-03
4.657794296100037541e-03
9.202743500270525734e-03
1.045684026562350953e-02
7.961795979925320385e-03
5.341201416717082998e-03
2.824977267530004443e-03
-2.286905444390517107e-03
-5.391276676745865477e-03
-2.504161470987280400e-03
-6.237543233237201378e-04
-2.306741895247622735e-03
-6.268362924325544469e-03
-7.832930118099755770e-03
-7.017550656799241733e-03
-4.107824695349856191e-03
-8.833550186235886214e-04
5.630203002450568685e-03
8.655028569666611132e-03
4.772863212828927677e-03
3.238305255214854266e-04
1.785701139862685451e-03
4.782798854337304457e-03
5.070827211274666138e-03
3.879201845766953091e-03
-7.817653735266890920e-04
-2.669809154552578619e-03
-3.476793417031509310e-03
-3.970333868056335515e-03
-3.986719141121221159e-03
-2.273526823861673866e-03
-3.506944194983124818e-03
-1.066416972087805282e-02
-1.022777334201331254e-02
1.102811465609941644e-03
1.258566503726925474e-02
1.331013357528197834e-02
7.750079414493265227e-03
1.107487197332284075e-03
-1.912319088117783901e-03
-1.523207279873589040e-04
3.237225877239781942e-03
2.331800003446914821e-03
-8.767752348364067161e-04
-3.488523393665301196e-03
-5.651378477177169610e-03
-3.836806742042145509e-03
-2.732849613922535073e-03
-2.725532939365991371e-03
-2.336688710014641224e-03
8.613026820753956090e-04
4.140299114181501990e-03
4.037807247138877099e-03
2.455552553990390623e-03
-1.433373890828227963e-03
-2.950865168609848738e-03
-3.822034621379131504e-03
-3.484382776107786388e-03
-1.230965428466390286e-03
7.308840666939716386e-04
1.392936521272778415e-03
6.281354873347030389e-03
1.188948162129607571e-02
6.287738794491755552e-03
-2.034479399817159910e-03
-5.830368497725038970e-03
-6.258966621221669947e-03
-9.735216136900266175e-04
4.749674205641608513e-03
4.429494721502923345e-03
-1.066750626103843240e-03
-4.127017572984616536e-03
-4.886040086894140669e-03
-7.256747981223186927e-03
-8.556701171866357841e-03
-7.296566593642936881e-03
-5.021622891755222508e-03
1.456587547812008502e-03
1.073702385401826935e-02
1.177862551369723842e-02
8.759490717982014105e-03
9.929787234640646137e-03
9.298867686750781833e-03
3.881661849466221982e-03
-9.509857139108416875e-04
-5.648803608389246084e-03
-9.293899492770443804e-03
-1.141525979411891871e-02
-1.029605107296135101e-02
-6.930842041968885391e-03
-3.800083328320828964e-03
1.646904831667195485e-04
3.472003547217840033e-03
5.571207572848600048e-03
7.299760446197181389e-03
6.905431325531348474e-03
3.851911522929117072e-03
-4.249299529261600151e-04
-2.063142148719156362e-03
-5.741450185453544604e-04
2.074026678309109049e-03
4.053751798275037621e-03
-4.377704705853453543e-04
-4.541511636466737632e-03
-3.380161106799176290e-03
-3.514484561786307588e-03
-4.172430009359194385e-03
-2.741711347814449525e-03
-1.119838485923570161e-04
-3.732784539503917619e-04
-2.925801442227759955e-04
1.830103704066813122e-03
2.798843262071534256e-03
3.366787643084989332e-03
4.112875813141088528e-03
5.440757542602523734e-03
4.223521661487791672e-03
1.284969313951395218e-03
-2.560731881226737967e-03
-3.296009609481015921e-03
-4.524183854233869602e-03
-3.880047913003237432e-03
-2.024787846139933407e-03
-9.617957782712024646e-04
3.138250548500879679e-03
4.984545338212706053e-03
-6.988202050213376967e-05
-7.029481271201373609e-03
-9.960047193026139861e-03
-6.880338061824369141e-03
-2.672445271395054722e-03
2.501785225402455241e-03
7.388489911990324226e-03
8.102735710423351889e-03
6.357608962615519249e-03
6.100730907157197840e-03
7.104234493299096086e-03
4.206187453071237765e-03
9.007740942449953990e-04
-1.076260280138382407e-04
-1.464240869601088953e-03
-3.362523685355026277e-03
-6.729460273870614163e-03
-5.884595408565281710e-03
-8.363721754487343438e-03
-7.293120843763017946e-03
-6.107678573310340239e-03
-5.586219520909552379e-03
-8.109860483976484959e-04
8.745560049648472278e-03
9.283474361385943632e-03
3.783164448426906169e-03
-1.594135425023855517e-03
-4.389574685782528241e-03
2.227244354533542466e-03
1.190170915245760720e-02
1.226176495441956213e-02
4.145283247826267795e-03
-3.733767053371392190e-03
-2.708225449499361212e-03
4.462726527616902943e-04
-3.348634508876370368e-03
-5.161911846668094939e-03
-3.823709635575897256e-03
-3.927481059205571029e-03
-3.459729767577700982e-03
-4.169671441073967075e-03
-4.090744636669254967e-03
-1.663350076110474765e-03
-9.297836462802115285e-04
2.048403015365807495e-04
3.399008326012296390e-03
6.809974471533162231e-03
7.522708609545355508e-03
3.522962680864500339e-03
9.820401435346989339e-05
-2.376575397252789332e-04
1.491596037136213790e-03
2.404675137493603090e-03
3.608353020172939290e-04
-2.067130095567574610e-03
-3.384666339127036933e-03
-4.084430152797994748e-03
-5.419886117839527694e-03
-3.755396661896504007e-03
-9.399808604220921725e-04
7.283391541004325493e-04
4.146929030487966038e-03
4.588813143635565861e-03
3.127812592733167883e-03
3.889758445563278218e-03
-4.447843844973629738e-04
-3.158933756228250213e-03
-4.251457683240651708e-03
-2.044308904143715515e-03
4.085251881221439708e-04
-2.085708418800495505e-03
-4.347661214908432256e-03
-1.051060608630872409e-03
5.188247199918887866e-03
9.761771274266908480e-03
9.730090927694754616e-03
1.687811861044532548e-03
-5.416155142764612386e-03
-9.195332308869959628e-03
-9.853892726765156249e-03
-4.537134332401822172e-03
-1.465716878288675828e-04
2.529842433597323005e-03
5.460217782741068858e-03
9.095363393103182356e-03
1.007969287888704421e-02
4.761820669547768732e-03
-2.563056016160823736e-03
-7.126221151273448053e-03
-7.801518984400815544e-03
-8.170990353035456275e-03
-7.980056981097155902e-03
-5.735019726958465701e-03
1.137309685287338570e-03
5.293274792157356794e-03
4.261618573558455941e-03
8.892332253763274253e-04
3.635676339445090971e-03
5.813301435954883190e-03
8.471348832667433340e-03
1.063077658812420015e-02
7.458491021877852213e-03
-8.727568078246403281e-04
-9.171094934771787180e-03
-1.041484035909947918e-02
-8.402615089710208443e-03
-8.890982384928726445e-03
-7.531696763465905130e-03
-5.492729632081409146e-04
5.339743233577718892e-03
5.281508602460568275e-03
5.432726325770764232e-03
3.878585437102359881e-03
1.152794884057708504e-03
-1.448579254061746653e-03
-2.026188275723578465e-03
-9.817790156200808648e-04
4.592118319739921592e-05
-1.669061549301798604e-03
4.343470586146600215e-04
4.961450792842787144e-03
6.377572085474179572e-03
3.403117598442076484e-03
-2.507930621086865760e-03
-7.467480343034977458e-03
-4.078769514942427558e-03
7.172816381344871524e-04
1.211821654889473892e-03
1.630368022183350737e-03
1.488071514274671341e-03
6.277470974775780982e-04
2.895312295618934100e-04
-3.602652425975778980e-03
-5.641159565480531081e-03
-2.381469809559195495e-03
-1.349415348947432224e-03
-1.428659135601354944e-04
4.382097454443115354e-04
-1.068484080669790425e-04
2.285172490941241464e-03
6.316354738397763659e-03
9.442696921328161755e-03
6.498666177582469727e-03
1.752528459554753351e-03
-2.076186993927798402e-03
-4.268473254980634755e-03
-6.861808205572784113e-03
-8.997812986240095665e-03
-9.206137237842167489e-03
-4.944284246880674069e-03
2.061452908890614756e-03
1.008577520880907415e-02
1.068656610956574861e-02
2.281324036744047414e-03
-4.362348639819764277e-03
-3.369962448843304755e-03
1.205723205309217668e-03
6.221625231376574743e-03
5.939750163593883817e-03
3.020047504412809794e-03
-1.692789333956097196e-04
4.403802543749497423e-04
-4.327353578848349390e-03
-1.064204613907330198e-02
-1.066530671344761982e-02
-7.351970811889854164e-03
-4.384094974348448116e-03
-1.297512393589349711e-03
2.232624473907650862e-03
8.055047664999353402e-03
9.303485888286010946e-03
6.404684915140069525e-03
5.389789618826542825e-03
5.681946189678085089e-03
4.521319708237608523e-03
3.531550140028311916e-03
6.422428799671740058e-04
-4.862766203489785055e-03
-7.448176006254512461e-03
-7.977907877523622571e-03
-7.141854614742846469e-03
-5.294933704352425274e-03
-4.131716676833108344e-03
-3.330419774935248177e-03
-1.931474026639454396e-03
2.264152291146827312e-03
9.632510327580405887e-03
1.200174085795028579e-02
7.595877008123104630e-03
7.224002749649454476e-04
-3.114642563666110246e-03
-4.692392523423745410e-03
-5.269288757201575323e-03
-1.088701077914235038e-03
2.281931988276567416e-03
2.773079498577779665e-03
5.972970262190779043e-04
-6.775430496884578442e-04
-5.316808191575555674e-04
9.531594182109057655e-04
-5.634252246733455682e-04
-2.079523618065865203e-03
-1.182059538322392583e-03
1.056307598783540799e-03
8.410363374605069964e-04
2.000546037611116280e-04
-4.004702503152607861e-03
-1.001025149243451283e-02
-7.801025825317249064e-03
4.557358955376972914e-03
1.282318512105027827e-02
1.052726811306593270e-02
2.628704406687429329e-03
-3.034144333343587012e-03
-3.374495013108350268e-03
-5.618237945265264032e-05
2.492763505044999148e-03
1.966871622997971164e-03
-2.575201329516996641e-03
-6.433700119790041264e-03
-6.588056510502272520e-03
1.369955245611270917e-04
1.356283986439252558e-03
1.167695162616181215e-03
1.993235891523327270e-03
2.593924464470967386e-03
2.340824215570711485e-03
1.366648713808903300e-03
-1.974920022146730376e-04
-1.306185592721091897e-03
-2.135024064584991992e-03
1.930790730048129145e-04
1.996115890351773774e-03
-2.235683918025168498e-03
-2.291427310931422497e-03
6.002384651509871808e-04
1.858299930632373136e-03
1.330963555102194790e-03
-1.587898420938226680e-03
-3.229540931122171915e-03
-1.297356189134225152e-03
-8.192660515069561701e-04
1.567274619627275932e-03
4.033558281884185720e-03
3.526028159673226092e-03
1.869785276422690837e-03
1.344626535684325047e-03
1.095774777709705163e-04
-9.276713481769614670e-04
-2.990260817536685711e-03
-2.257471585436563854e-03
-1.306605389278549462e-03
-3.313782156862611801e-03
-2.289123353991744450e-03
-3.373532523150588654e-03
-3.159109414119416932e-03
3.870997053569630113e-04
4.407399921609103481e-03
6.793253107844896173e-03
6.180560235341231619e-03
2.099666939359795710e-03
6.212648332988606392e-04
3.830861599853899267e-03
4.799015519193180861e-03
-8.143901969788221564e-04
-6.664364000703553413e-03
-7.766761507561968647e-03
-6.442145468006058202e-03
-5.292250595278897435e-03
-4.299653118458899442e-03
-3.576708103560820567e-03
1.359221138451848377e-03
9.202175013390682598e-03
1.162843257166245974e-02
6.258581951167995969e-03
-1.212419288258462409e-03
-3.275171233373295847e-03
-2.814365689563906505e-03
-3.648007627248189139e-03
-7.602653778264876388e-04
1.390178595874974957e-03
3.063368136143351274e-03
1.153744003532100127e-03
-2.109287206217246025e-03
-3.125424422674688129e-03
-1.192726754545107241e-03
4.272814571131808617e-04
2.752057129940949521e-03
4.061394157721806390e-03
2.047721968343534061e-04
-1.968936047686753107e-03
-1.852245223457514188e-03
-2.331416559490303263e-03
-3.072449597661327646e-03
-1.590225754071794605e-03
1.561222889482405830e-03
-5.716291473288502220e-04
-2.272544394932254474e-03
8.017719135289467754e-04
6.276584352029222595e-03
6.886305611021424113e-03
1.915828067821645497e-03
-2.953417218401914457e-03
-3.730602248371723325e-03
-8.610647344708099440e-04
-1.403472125058355770e-04
-1.573821832378723660e-03
-2.732541600208230562e-03
-3.177770468209651505e-03
-1.104132730753444157e-03
2.387370869198109959e-03
3.593831262311867128e-03
3.534261497527910710e-03
3.067218352234684156e-03
2.282083675891254711e-03
8.071991480628984026e-04
1.028016578773945360e-04
-2.485066667157447527e-03
-3.496241162025725061e-03
-2.965164206352103107e-03
-2.739396777675598242e-03
-2.511093000158393963e-03
-1.648839201594576136e-03
-1.184067908810609686e-03
-1.534032448678570649e-04
1.038796110923994633e-03
1.377307848445423217e-03
1.976889625754327598e-03
6.230258677412340435e-03
9.276767364919037695e-03
4.258114012421208502e-03
-1.962960333876451365e-03
-4.209678836792879464e-03
-6.157053315712535113e-03
-4.151402935025544187e-03
2.828955372775765627e-04
2.947645683889346994e-04
-1.795738415928675030e-03
-2.584698305954261782e-03
-2.793120351317115641e-05
-1.379637462940396268e-03
-1.378034409131012692e-03
8.104790261388143289e-04
1.278560458674642955e-03
-1.000323339723046580e-03
-5.905069781199440490e-05
2.256393895479199673e-03
3.302176371562649555e-03
4.213029804194217375e-03
7.157540673494960752e-03
8.171796123257838232e-03
3.424158651360125621e-03
-4.364467920640565865e-03
-9.264121026200076991e-03
-9.293547513895784526e-03
-4.271303073681354152e-03
2.210729663677825189e-03
3.404450518795108273e-03
-1.130881612179212084e-03
-3.087651577557692928e-03
2.431130093070433781e-04
-1.054162450048582150e-03
-8.929994017998672123e-03
-1.051571046676212477e-02
-2.399269698395705298e-03
9.511901744627819164e-03
1.531640381505864658e-02
1.407592626566210071e-02
7.550212265373577002e-03
1.719194367818278717e-03
-2.828352457360098701e-03
-9.057387271360435935e-03
-1.310102670532307251e-02
-7.301135440687915243e-03
5.764931896614324501e-03
1.298989830955185609e-02
1.165110988611381231e-02
8.750337227016908052e-04
-7.825427934818877940e-03
-1.205843655261593962e-02
-1.458111556871832283e-02
-1.307522685289875912e-02
-3.660446764004302890e-03
7.958398921471376841e-03
1.639783957948702173e-02
1.231015606974207588e-02
4.191022391538071039e-03
-3.145402785578976269e-03
-2.469722565406343856e-03
-2.909103046394685525e-03
-1.261439490261330497e-03
2.747388342176387832e-03
4.635755042284524924e-03
1.274529466350217931e-03
-3.308739330077187148e-03
-3.874202653858389075e-03
-9.820717702199032069e-04
-2.970048615680944033e-03
-2.296959125953336196e-03
-1.054120779917113013e-04
2.020637462074368392e-03
4.041072224006667102e-03
2.882640711085219468e-03
6.787557419850454151e-04
-2.097397168812551154e-03
-3.582114865209046293e-03
-4.642895415189277238e-03
-5.219295032766310162e-03
-1.275399081965427478e-03
2.072277560087224402e-03
3.823981746568213668e-03
5.870234311588294444e-03
5.205123475973252867e-03
3.231269471346211349e-03
1.028979733125276810e-03
-3.368887502626689173e-04
-3.170243107856068800e-03
-4.441355257435492324e-03
-2.953117419270005328e-03
5.115078469023229225e-04
1.973162085863373796e-03
1.125886256076904677e-03
2.712106076332755915e-04
-1.021395236776322102e-03
-3.320765879596951960e-03
-3.978745530716845148e-03
-1.405808584605834589e-03
4.145371114254809217e-05
-1.248128006032717336e-03
8.882772363064955637e-04
1.306964253391612032e-03
2.319444393876906284e-03
2.090441658649826260e-03
3.026823613759477370e-03
2.468818729994935388e-03
3.983452806205291068e-03
6.077967821978221691e-03
2.512767473454889829e-03
-2.277061761491006898e-03
-1.409812033572793505e-03
-9.564598465845744685e-04
-4.518172035682233197e-03
-7.113982529052170593e-03
-9.823948363102878376e-03
-1.002269916933801706e-02
-6.571516402321098647e-03
-1.200428590207070628e-03
4.378425210336436661e-03
1.043988992364672762e-02
1.297532017846245340e-02
1.268332949965093361e-02
9.163800174637779655e-03
3.509557636883331617e-03
-2.606127937232908219e-03
-7.532496762654334287e-03
-8.257961491613414334e-03
-7.571073503487779459e-03
-5.963982937104458752e-03
-5.745631333015220610e-03
-4.477247735645845626e-03
1.823012780428763004e-03
6.317196570986558998e-03
5.838205280958937496e-03
4.088235996505982725e-03
7.995744731633590242e-04
-2.986013278603185682e-05
1.468635030967374317e-03
4.848493351862768683e-03
4.313341897391013112e-03
-1.820405702770597125e-03
-7.763736388003064821e-03
-8.797107349272569390e-03
-6.456458605271315696e-03
-2.887023514940596954e-03
2.054545651378397904e-03
7.898370600277685241e-03
8.522836122801960221e-03
5.122029271450468171e-03
8.640863059504766712e-04
-1.396828774029224528e-03
-2.474908275721850355e-03
-3.492004517522134463e-03
-3.126798596246751268e-03
-5.216142212781216774e-05
1.269839353954273697e-03
5.084926409336909233e-04
-1.433476642501738596e-03
-4.098224293517722418e-03
-2.743488347118573992e-03
6.691588341785182454e-04
2.507001499258660476e-03
3.566593362560669268e-03
3.425027153425263572e-03
2.726401346249489408e-03
-7.868529184421230215e-04
-1.135398004165906905e-03
1.809919922870700055e-04
-6.275078958762064655e-04
-2.315345549327112347e-03
-2.262739152524749931e-03
-9.003290935793393244e-04
-9.466174266186390364e-04
-2.678964584178197827e-03
-1.036389479659753947e-03
1.102815257406185171e-03
4.057426478608555827e-03
3.559135684979377202e-03
4.636799377429374688e-03
4.374088349439357593e-03
4.559620890521044723e-04
-2.572408893859760501e-03
-6.272080938296181393e-03
-8.236077148084582425e-03
-4.985978365295985586e-03
-3.631224317422422827e-04
7.270749098227307977e-04
2.384326422750857304e-03
7.945860893540639819e-03
1.189782159041631419e-02
6.131298499900910901e-03
-2.203145592432605680e-03
-6.866392582659836853e-03
-5.120488699263365390e-03
-4.896292392054317835e-03
-3.886415786972391602e-03
-3.125357015455192729e-03
-4.550635887778473922e-03
-5.514840468772817458e-03
-2.302530901711251354e-03
5.436068000128572129e-03
1.116693263369427508e-02
1.214635729070575633e-02
9.417002768203003651e-03
3.383051398564602096e-03
3.761464903060621353e-04
-2.137097421512053255e-03
-7.762021684082589211e-03
-1.246651907076665872e-02
-1.067365668787056444e-02
-1.967134905780278629e-03
7.693092761794155000e-03
7.803561959411294859e-03
2.999954182113187366e-03
-4.341255961958956529e-03
-5.562846356378121221e-03
-3.586040301982234765e-03
-1.931999299402434485e-03
-6.865320111910506997e-07
1.426047626677648308e-03
2.463258680409234451e-03
4.571453967868113408e-03
3.224902475623487620e-03
2.555164807984190798e-03
4.668175415090863693e-03
2.016491104892436347e-03
4.450428212054051490e-04
8.885060479051148322e-04
6.021679470738001581e-04
-1.791172450787436622e-03
-4.458362046584567369e-03
-4.786322899636235272e-03
-4.255739956893403626e-03
-3.399238896033231726e-03
-3.781841452980514839e-03
2.385950019734606761e-04
1.824237403076443137e-03
1.335284054227080675e-03
1.134418850883080893e-03
1.611114771963283957e-03
1.478367922012880937e-03
9.692797022943228221e-04
1.520774907671677367e-04
2.282224111380609828e-03
4.339143912066411278e-03
3.586862319667809273e-03
3.221607623396598153e-04
-2.427004675244824432e-03
-1.795499228299168078e-03
-4.154704094020086912e-04
1.524571116362595079e-03
-7.333710991623865498e-04
-3.847071474870943000e-03
-4.610437881808576027e-03
-5.140076433916776141e-03
-1.584624931530904685e-03
1.681453023439939080e-03
2.733936784169427488e-03
-6.541634213206322769e-04
-1.559160340755823271e-03
2.201021957087663516e-03
4.093717000191661112e-03
4.431252172042420348e-03
4.723171088720105881e-03
5.540580367666650408e-03
1.331428755013150476e-03
-3.704709156554950034e-03
-5.527546175322876378e-03
-3.757657684772489331e-03
-3.042260813930602794e-03
-1.910132513260864515e-03
8.239315263236234336e-04
1.636126427299271820e-03
-5.348190045361055035e-04
-5.052640015952433554e-03
-6.230399340128465503e-03
-2.643595395957340586e-03
4.542061069124542043e-03
8.664971911366147958e-03
9.311149483730914167e-03
7.122230696555881778e-03
3.336223019192287656e-03
-1.584619493387970021e-03
-9.476376605100029007e-03
-1.119394665716324545e-02
-6.595887055722164660e-03
3.413230848641600631e-04
3.660690619011397126e-03
5.800268398492308512e-03
4.316624031017273627e-03
1.229908767618235566e-04
-1.901600761916334096e-03
-1.152641345904587998e-03
1.293937381362523804e-03
2.987563146915357855e-03
1.477344911532093522e-03
-1.719348337781926445e-03
-4.777649938297374825e-03
-4.495978937786039228e-03
-1.101924133982630277e-04
4.112230769841267695e-03
4.364482088349501583e-03
4.569017810502775360e-05
-3.646582172306296176e-03
-3.957631903789855105e-03
-2.103103755634657974e-03
2.222481540526746735e-03
2.756913636214909039e-03
-5.587170761233434252e-05
2.306944164365018132e-03
6.306045527092543797e-03
4.886874289385931269e-03
1.978869580548969862e-03
-1.995837051031862635e-03
-8.286287985751901800e-03
-9.279436261891284982e-03
-7.722887264564673448e-03
-1.159705838577365124e-03
6.931579439709885035e-03
8.202088960162876030e-03
4.229541157702155878e-03
1.173441580554410862e-03
-1.977942405522715129e-03
-2.882101826279119539e-03
-5.305313029233759380e-03
-5.239520566347959964e-03
-3.651880627628199664e-04
5.063518410963522252e-03
7.388401398246439468e-03
5.987696703641449611e-03
3.276737690716266353e-03
1.328795769669041031e-04
-5.015741264173489283e-03
-5.808828233499312155e-03
3.024660312220148694e-04
1.837210256374527222e-03
-1.381911586243381954e-03
-5.245513432343675876e-03
-6.087527184396878538e-03
-4.196563585886479465e-03
6.053460854698820273e-04
5.905677661826573381e-03
5.932422928942855493e-03
2.229454530018217754e-03
1.820905946278871933e-03
2.712664152363615262e-03
3.047212553971907940e-03
1.105407715545919049e-03
-2.095843810978811460e-03
-3.256295107083222694e-03
-3.042735567046983992e-03
1.727708719202017981e-04
1.009968193720290654e-03
-7.088005931347088730e-04
-5.449486615045204783e-03
-5.726002106966774849e-03
-1.207605821183132394e-03
2.041187444654015293e-03
4.373870774485644208e-03
4.470065671154232513e-03
3.756028098229734907e-03
2.891435161206812581e-03
5.462306057565047236e-04
-2.480677096396147717e-03
-4.482298734607875410e-03
-2.995818223647703574e-03
-1.428216120691901245e-04
4.224631083175732645e-04
-6.889649682628134868e-04
-2.874204130081608674e-03
1.062612086226148343e-04
3.953326896121467891e-03
4.662586992805122649e-03
3.558633299469730004e-04
-1.087698608241805236e-03
5.764257549681631653e-04
4.066043462480245160e-03
4.594087864670357187e-03
-1.741970192302761571e-04
-2.180139648736593300e-03
-1.886391941113102228e-03
-2.626303485291109352e-03
-5.413271397643252408e-03
-7.415258576682318310e-03
-9.283083850540260751e-03
-8.597130901395600225e-03
-1.557431272936961840e-03
6.320893104144823145e-03
8.432041294226885406e-03
1.217146223932768535e-02
1.145901716037795760e-02
6.569461777621236030e-03
3.980062213552807739e-03
2.949358523706374288e-03
-4.574730802890633776e-05
-4.274840348254097672e-03
-7.482343545885859759e-03
-8.463311776801362221e-03
-7.047343349969948170e-03
-4.849267444301581624e-03
-2.515297425829053982e-03
-2.162644904142132715e-03
-6.691957895578510987e-04
-3.629123274073875623e-04
-2.930301744123832170e-03
-2.564483813248919809e-03
1.812073587289334334e-03
8.515810870023036647e-03
1.171532715803124888e-02
1.149222641579926603e-02
6.816882730431110364e-03
-1.399618390898992905e-03
-4.349229922656256547e-03
-3.780651094559992105e-03
-2.984653467872850144e-03
-8.302788146016174377e-04
-4.501091491447241550e-04
-2.973810169437200723e-03
-6.757725450569830594e-03
-9.364725825859225583e-03
-7.564624583957717079e-03
-2.832108997244498633e-03
1.238552323652392616e-03
5.483208690373913251e-03
7.830735998790847030e-03
7.105411646211267501e-03
5.763478724233025811e-03
4.241042243699963410e-03
1.715108266420934703e-03
3.277935640113784077e-03
1.938630430051072658e-03
6.062038970530689080e-04
-1.325459086016486220e-03
-7.201031522701229620e-03
-8.442260018621495013e-03
-4.373400158488972324e-03
-2.060909953199472136e-03
-2.271674364586401436e-03
-3.593441139014748667e-03
-3.202322769798202681e-03
-1.600958671215256751e-03
1.490976361466173376e-03
2.852689833826086568e-03
6.279388177480784740e-03
1.189133751497782263e-02
1.551673878828250912e-02
1.097773160745260657e-02
-2.431426694706968587e-03
-1.749812314326034540e-02
-1.740628631193274350e-02
-8.841667841414527565e-03
-3.203451652664001032e-04
1.779225574030529437e-03
3.851169276599908874e-04
-3.107133575898526987e-03
-1.437312807846675403e-04
8.348530618753969776e-03
1.210942121654858157e-02
1.031077681945767252e-02
6.979703993786622734e-03
1.714915576984068192e-05
-5.060636668076952567e-03
-5.334458151229102413e-03
-8.862697314763466269e-03
-8.883161764343559461e-03
-5.930070624891767631e-03
-9.628593264537763834e-04
2.956279537430328563e-03
3.711618946331617964e-03
3.027878639156364460e-03
-8.608577543399677972e-04
-3.910917405357227684e-03
9.766941814516524878e-04
7.317063369499988285e-03
7.242327394099669358e-03
-2.630772514933084534e-04
-4.329622410065353186e-03
-3.413130351660028684e-03
1.419946748573755989e-03
4.358315889554413396e-03
-2.685026811422903015e-04
-3.033152827958112991e-03
-3.210431055030408751e-03
-3.812225181114210792e-04
2.214008291762710294e-03
-1.855838073036675891e-04
-5.836428105845620305e-04
8.544035907691560324e-04
1.685558781058272941e-03
6.996497467514302187e-04
-1.622630367548119233e-03
-3.567914261786922156e-03
-3.717334223424848157e-03
-1.711758536483416792e-03
5.242045634172499318e-04
9.143517471741077285e-04
4.245501112775918427e-03
5.073462185254343053e-03
3.436215445954367027e-03
1.037061254056964414e-03
-2.265719588865964477e-03
-3.575743971741618746e-03
-4.739523364086314743e-03
-5.478866131068967082e-03
-2.169259795048361986e-03
4.531331892653539181e-03
8.462315975834759987e-03
7.574551537891439403e-03
2.253989528258175997e-03
-2.843812920533671240e-03
-4.129639609825507852e-03
-4.568606828881107210e-03
-1.468255985771194615e-03
-8.180119681929915983e-04
-3.096308475119591980e-03
-3.575402757927208935e-03
-1.935868281095261528e-03
-2.859664177922311150e-04
2.632615247575469282e-03
7.930812195848541135e-03
7.260373703476320252e-03
3.715699450802851904e-03
2.361603393554690072e-04
-2.834610300518368431e-03
-1.948470332570143623e-03
-4.083377425885320947e-03
-5.379297957582994567e-03
-4.870642583798065993e-03
-3.572106168207615177e-03
-1.888041824877488388e-03
1.450549359632485012e-03
2.055623610034196247e-03
1.930255507785417091e-03
7.327123766558805637e-03
1.043474856316268726e-02
7.382569204296889585e-03
3.279417207532962786e-03
-2.886397375112867598e-03
-8.472777779041812743e-03
-9.768109160441839148e-03
-9.764028066345256662e-03
-3.804797088527001221e-03
3.937950859428606364e-03
8.859632425530365382e-03
6.075278619031217707e-03
2.625239446642234180e-03
-1.752868651604086968e-03
-5.166104035061593741e-03
-5.705406042655676406e-03
-5.569402432141624774e-03
-9.987858419460335889e-04
1.085223097255920074e-03
1.079107247382416358e-03
5.469250109258493031e-03
1.049894213799258506e-02
7.199625805648545568e-03
-3.001384622352849655e-04
-4.539155615451378675e-03
-3.722836829450150258e-03
-1.870886628992467476e-03
-2.861001776073890217e-03
-4.778125300450624703e-03
-3.725111033205733436e-03
-2.286143160040617886e-04
1.983232817804443660e-03
3.611019564805489739e-03
4.596632025608364189e-03
5.192322923752971768e-03
4.284078265579352972e-03
-1.215833798082020106e-03
-5.073587753390121184e-03
-4.089329671694841295e-03
-2.365981063617428673e-03
4.425309968255040373e-04
3.638951557348511171e-03
2.277286375581279946e-03
-3.074634625335942017e-03
-9.239463485612692262e-03
-1.165837903724570128e-02
-6.842100526270819723e-03
1.361424878280800485e-03
8.925995287789379937e-03
1.285568563653465869e-02
1.193804623757379127e-02
7.043805617784822636e-03
4.636421499677228358e-03
3.502798722845301520e-03
-1.115740790215030611e-03
-8.200635902051044493e-03
-9.565836081147948908e-03
-7.693664511025499059e-03
-4.123106073093111938e-03
4.094067287093967693e-04
4.299415777399422621e-03
1.111036357712404110e-03
-5.011518715282743154e-03
-5.450667580612002239e-03
5.187192086023896531e-04
3.889496613185555816e-03
-5.040723909549232011e-05
-2.574649955016515557e-03
-1.519758187537873645e-03
2.670397312676763522e-03
7.697128193429157370e-03
8.025416006852177306e-03
1.897685921977500072e-03
-1.231064849664997623e-04
1.959975254616504181e-03
1.092043927469796500e-03
-6.523564361646422586e-04
-3.962883254028225048e-03
-6.791807466134332054e-03
-7.855991765496549498e-03
-6.631147170097244012e-03
-4.111381675831943250e-03
1.159109732795509350e-03
8.965416947059141536e-03
1.497904966517195520e-02
1.167257240783891280e-02
9.851016969193446618e-04
-5.217272517162624586e-03
-7.110030611820473447e-03
-8.818693794450117515e-03
-8.344844492874078923e-03
-5.042171661458857979e-03
-2.212782203120100544e-03
5.168365539898492301e-04
3.678592650496062023e-03
6.885796003381726774e-03
6.688264047458960561e-03
3.584245135853981502e-03
1.405513294653081176e-03
4.111592967408002515e-03
3.737079255003837412e-03
-3.776864253342660329e-04
-4.479047812846079397e-03
-4.969767223768305903e-03
-4.046830487749946727e-03
-3.743604735854283959e-03
-3.483380627932023983e-03
-1.602522368580191862e-03
9.877676015086433135e-04
2.172992516531772108e-03
1.836419460608931364e-03
2.923043012506812161e-03
3.805832352646060235e-03
7.230923382820036950e-04
-2.001571961527772933e-03
-1.422433583866251211e-03
-1.772130166851453460e-03
-2.256386355100017949e-03
-1.022803056318159851e-03
-3.501134227543784201e-04
1.438091882712749098e-03
4.174817467061549096e-03
5.697915574876110702e-03
5.056656575341325448e-03
3.431016461211568343e-03
-2.882583894326428754e-04
-4.000614704963549768e-03
-7.425430500069554567e-03
-1.026668337999960684e-02
-1.083787868371061114e-02
-6.673850878385622319e-03
3.023067854334141567e-03
1.127216880565533839e-02
1.291884834816751926e-02
7.678354771405604406e-03
2.266090532723295282e-03
-4.253776695568852427e-03
-5.819753002485821870e-03
-2.035131548865144226e-03
4.631911095478181951e-04
2.658741530960631420e-03
4.921978570933190945e-03
2.591884104409104654e-03
-3.488741655695031755e-03
-6.356564975928892698e-03
-6.655278746581273948e-03
-5.002558132266220377e-03
1.215754347796264324e-03
6.400770093165657551e-03
6.045725892489584898e-03
2.682920714344459983e-03
-3.771227725698247089e-04
-5.917320798265454825e-03
-9.239452277531153002e-03
-6.105255298792726208e-03
-2.356895016273426093e-03
3.469995654905576841e-03
8.541749629104070443e-03
1.060299029528717629e-02
9.193584194921564437e-03
6.106447050717787699e-03
-5.591142033697372700e-04
-4.182218488098817140e-03
-3.189754187073423099e-03
-1.349253982581676524e-03
-2.568913449585309879e-03
-7.377890317280475993e-03
-8.799322441801045447e-03
-8.063774523466722341e-03
-6.370882422998994793e-03
-9.278549959593520831e-04
2.528928113398077552e-03
8.490674638699981930e-03
1.426932569105853615e-02
1.151328485941245997e-02
4.358544241068805329e-03
-1.560242665984520015e-03
-4.601276219869184121e-03
-3.600979471111906242e-03
-2.902078997021357177e-03
-3.495305895371471610e-03
-3.316620384545901790e-03
-5.972616954629737492e-04
2.021707715375116107e-03
1.765439123415857335e-03
-7.633553194364539173e-04
-3.110125010551309001e-03
-3.258744114710806876e-03
-2.075908867735938232e-03
6.517396996290463493e-04
7.189266974026595420e-04
7.871024618727550217e-04
3.206684190395471101e-03
3.297753822490450369e-03
2.315897464211655581e-03
2.109259699733669492e-03
-6.981535652213956430e-05
6.438638944388931206e-04
1.472915784940608160e-03
5.470240751326152029e-04
-1.413047038294155348e-03
-3.836253525939577452e-03
-2.481203051184845826e-03
-2.249193180074714280e-03
2.136380832122416389e-04
6.482045963665553035e-04
1.516089643087768616e-04
-2.760045208791784242e-03
-4.526498051403296877e-03
-4.788723725140922940e-03
-3.343889820915377838e-03
2.136232134652648034e-03
1.121558993256138725e-02
1.366945688035032733e-02
9.470795828769496341e-03
3.988175238978851843e-04
-5.226231244758646963e-03
-4.284806291419025574e-03
-4.799836146269946709e-03
-6.243662490514887038e-03
-6.549208150439284233e-03
-2.409643141964402414e-03
6.534399750533908006e-04
2.785609964785217951e-03
3.123437651329851150e-05
-1.480383314265242131e-03
7.264948592889352002e-04
1.806001605113767691e-03
1.029161181776830358e-03
2.237036016939995819e-03
5.140163047588208224e-03
6.385646046129176030e-03
7.791355532754368858e-04
-7.062483287327052600e-04
9.993560345127653309e-04
-6.437223258089517586e-05
-5.573213087846262855e-03
-7.419160530324528380e-03
-4.795943148656886708e-03
-1.298061405706464611e-03
2.097112843056640058e-03
1.837305890659680137e-03
-4.396506298439391801e-03
-5.186352847746574304e-03
3.515409418717982859e-04
6.828990996805727430e-03
6.085543966810172400e-03
3.812125917910343630e-03
1.386977449291341286e-03
-2.449042073715795853e-03
-2.284591684458408233e-03
1.300430291764532228e-03
6.318438743568087317e-03
7.246444325365320079e-03
3.124042074514107176e-03
-3.502028964823462355e-03
-5.343489835118233992e-03
-4.242494570399745098e-03
-2.767293395264510021e-03
-3.745240538261369011e-03
-5.679650706706992902e-03
-2.901165078438494669e-03
-2.508237250239878265e-03
-3.164867730057315410e-03
-1.215171866407169666e-03
-1.988563184517277808e-03
7.845786371952415258e-04
7.257837447371458077e-03
1.511781472181193686e-02
1.331842725333171572e-02
5.727198438152944666e-03
7.498347337191916357e-04
-3.312598151517570123e-03
-6.199790641660924209e-03
-7.664398412665675286e-03
-1.051238549542689825e-02
-6.860507101551503381e-03
-1.628311893904753511e-03
-2.304624199590135113e-05
2.417131921913688120e-04
1.618426625896478375e-03
2.447954033462259021e-03
6.261630767943763068e-03
9.416356942538457730e-03
3.989876636259950815e-03
-2.384740419089845936e-03
-3.151121345969924367e-03
-2.593584116591407876e-03
-1.491400239369881486e-03
-3.067174161892222920e-03
-3.066632495421268804e-03
-1.354250261532288866e-03
-1.455525556515845391e-03
-1.820349447851026361e-04
1.533124060212711194e-03
4.126620966427585642e-03
4.368025347934799234e-03
2.225757056932191683e-03
8.679310709531579083e-04
1.934449175943396982e-03
5.052152946395459905e-04
-1.162462170928013887e-03
-1.563674685436423906e-03
-3.603690848650854123e-03
-4.218808327097462070e-03
-4.140609107740818827e-03
-2.861434279901799594e-03
-3.520464760036148659e-03
-2.838376405871076424e-03
2.619482441205973899e-03
5.601557089533981855e-03
9.372422775443124687e-03
1.031197973987032362e-02
4.778677423256086701e-03
-2.040610992643521193e-03
-7.266941695338481957e-03
-8.493738318931362899e-03
-5.154802154522284720e-03
-1.418521886140760441e-03
3.773582755013997979e-04
6.289802211592462021e-03
6.358296071340692295e-03
-1.590037133378459193e-03
-5.225300011735618984e-03
-1.517308556062315749e-03
2.197338573120479529e-03
3.932508315550407342e-03
-2.714271425501831665e-04
-2.309707516262517364e-03
-1.239990743152888895e-03
-3.436356338810649461e-03
-4.128443482258293933e-03
-2.205681030266163842e-03
3.890573557771144736e-04
2.622320728433233904e-03
6.044355905211092235e-03
5.325465918040819292e-03
3.818507190571536047e-03
3.793997678382830287e-03
9.499686669480403431e-04
-2.002772530853046736e-03
-3.574268152112750584e-03
-5.014987411252141980e-03
-5.580188499884144310e-03
-4.357384568562158896e-03
-2.401439497124308736e-03
-2.736099792832625156e-03
-7.449248421323345680e-04
3.615906931982100329e-03
7.184231563709282502e-03
6.637190272873569503e-03
3.216192303524066654e-03
1.295920077844990809e-04
-1.950059211734178394e-04
-2.060739112743028255e-03
-4.291961267161618736e-03
-4.350678349344112850e-03
-2.452609966068615421e-03
2.251324847723407824e-03
4.049345881651233124e-03
5.778825609923528804e-03
5.402714871676265324e-03
7.444257186772239082e-04
-1.046721625857514708e-03
-3.937486198735946560e-03
-6.527498173067735991e-03
-6.472660001294690789e-03
-7.352900527831743478e-03
-7.232860026224697571e-03
-2.790024497162005897e-03
3.502512760026641175e-03
7.940912375619727653e-03
1.015548146743546799e-02
7.606614309107135111e-03
1.986012172007479114e-03
-9.389341173800812334e-04
1.810158319554113068e-03
5.698753892270669655e-03
6.471638198483560360e-03
2.302473092685301467e-03
-3.444388661367729296e-03
-8.606965227239925936e-03
-9.617441555840605324e-03
-1.064653829972090661e-02
-1.078012645886928904e-02
-7.223434002522084903e-03
-9.526189808015448181e-04
8.157097584769250689e-03
1.109362013339869682e-02
6.171701395750179946e-03
2.069734827598707604e-03
2.711133871061966599e-03
5.119348440302808230e-03
6.127170027278525284e-03
3.139344230180612060e-03
-1.591434522857595839e-03
-5.840727679805749438e-03
-5.877932135946073618e-03
-4.239096399684023214e-03
-2.394121501215126617e-03
-2.570704990859486519e-03
-2.408580075512393656e-03
-2.968836728728169367e-04
2.948885931911588744e-03
6.223424507351940811e-03
6.147752668887565379e-03
3.019942350661424229e-03
-7.106158740164274278e-04
-4.867837389317345581e-03
-6.971054206171789676e-03
-5.439933600029553049e-03
-2.037869802376741316e-03
1.079902659619508146e-04
1.842140854960363713e-03
2.328835648556655449e-03
2.860513101133534998e-03
5.631533130615673857e-03
7.477964030139110096e-03
3.079759288967052165e-03
-6.494424527990795559e-03
-7.834642504683070677e-03
-2.500120544131477062e-03
4.607094101340344374e-04
2.366013687981389883e-03
1.628115907414951630e-03
-1.361217949830260954e-03
-1.176616227564452862e-03
1.962211579897046778e-03
4.176713722369733775e-03
5.262540478322701339e-04
-1.256064053012787615e-03
-1.054653919504322957e-03
-2.248886773018733080e-03
-2.097960152142016275e-03
6.308925089796541897e-04
6.270669197041537800e-04
-2.316320531031019201e-04
-3.104676304437542240e-03
-3.799858576120556351e-03
-1.018327401034783096e-04
2.577109953935655898e-03
2.025454270832038536e-03
1.516191357121342547e-03
2.630916685666151965e-03
4.646513019709978994e-03
1.634632606244915826e-03
6.200087500987725006e-04
-3.903245958470473735e-04
-1.570323388545939551e-03
-3.102541837232265180e-03
-5.937840246390332401e-03
-6.605017893057824226e-03
-4.228772419419075425e-03
1.911392334503321348e-03
7.802151503151592664e-03
7.136056289949251237e-03
2.907093765990287609e-03
-6.585733710062690260e-05
1.811273880766435442e-03
2.671825617521528771e-03
9.265074866892070811e-04
-2.256540927493414991e-03
-5.387271516316349818e-03
-7.106556507740345412e-03
-6.183072202802521698e-03
-3.343698649678223962e-03
2.996907842226222835e-03
4.219659062913527423e-03
2.551995407019200940e-03
3.797457840102419989e-04
8.505334089075115801e-04
2.374380872719836222e-03
2.128177873876310484e-03
6.297292512751796875e-04
1.125414216309315657e-03
-2.326244618030894558e-05
-8.264688178623093599e-04
-1.140738487799646678e-03
1.758960980713299583e-03
1.433246978737388660e-03
-2.764729001996442566e-03
-4.923308930845797515e-03
-3.098513795312465412e-03
-7.554716662924002859e-05
2.936910907330239086e-04
2.616829526531191572e-04
3.759106965971594286e-03
4.339131208380807812e-03
-4.802758920686408584e-04
-2.960570080334439230e-03
-1.469123404496445583e-03
1.322377004257832653e-04
1.186464219193038858e-03
3.785826565064260088e-03
5.908386824357474490e-03
4.015552814580118993e-03
-8.403746420406361115e-04
-6.674265715543421795e-03
-9.496760782188149244e-03
-8.958432057107544935e-03
-5.756689525377213686e-03
1.259669938301297490e-03
9.743679978110616688e-03
1.109587296541568111e-02
4.494328989432310947e-03
-4.790985562419876505e-03
-7.234975393118620382e-03
-4.625479952371996419e-03
-6.054862094727343205e-04
6.192024128961136874e-03
1.161579347406311961e-02
7.524490230259734021e-03
1.017522330964079798e-03
-4.326165603414595072e-03
-5.845267192822285393e-03
-5.906563165849297060e-03
-1.825396189860308861e-03
-8.123766896653423749e-04
-2.116253353017483532e-03
-3.583758814076153099e-03
-2.576654009356250420e-03
-8.588023657589129384e-04
-3.302804322153697928e-04
6.265157071891915529e-04
5.459405516559948969e-03
6.162467314253130928e-03
4.478076252926954659e-03
4.470138827833381400e-04
-2.559645676935812242e-03
-2.571978489978735908e-03
-3.937086363040703525e-04
2.231254307684931576e-03
2.317308416514991896e-03
1.592746118754339831e-03
-1.734600332848036880e-03
-5.494763551878664026e-03
-6.296469139659960530e-03
-3.336543014020931959e-03
5.419362857806560643e-03
1.027073515289121837e-02
7.028284202541422096e-03
-8.460526989353358467e-04
-5.134276711472402811e-03
-3.234430348783915755e-03
-1.361946005137473943e-03
-3.562049473312958129e-03
-6.217759626780090289e-03
-6.598830843504821519e-03
-4.394597075040943164e-03
2.548896883667367726e-03
7.688891939863697934e-03
6.302381853259157903e-03
3.409302267189698657e-03
1.250902131794914308e-03
-2.590897109901024579e-04
1.344993940843084053e-03
3.146139725127727448e-03
2.493499191702272695e-03
-1.008049827876868199e-03
-1.522343193432438256e-03
1.431392277383916264e-03
1.921405481391860997e-03
-6.361524044369446180e-04
-3.908123584370540998e-03
-5.534501722833162947e-03
-5.257988521494184539e-03
-2.326372852076001065e-03
1.303278986096305034e-03
1.724200842321573987e-03
-2.501603951777462646e-03
-4.706891173529533130e-03
-3.558276440286990000e-03
-1.695693562153355186e-03
2.188920643497299298e-03
5.709600334325647467e-03
6.132623386863936960e-03
6.625323142210484510e-03
7.555868082047818499e-03
7.106285091311646991e-03
4.027327579303882459e-03
-2.118096954025185054e-04
-3.377536602966126783e-04
-1.290885733534801339e-03
-5.082066546741265643e-03
-7.416537921466118642e-03
-9.427637966428358343e-03
-8.511388576386226881e-03
-5.036968149010992955e-03
-6.928373695463541614e-03
-8.160892618689304101e-03
-5.563632666461092689e-03
1.310267348303624166e-03
1.046330440637076482e-02
1.727556575476433057e-02
1.707630308330441993e-02
1.077300811389922224e-02
3.774233642740679358e-03
-1.793184900997747515e-03
-5.246195446215407877e-03
-4.280757205395688790e-03
-9.056394921924836765e-04
-4.995510430177211957e-05
-1.761815301982014824e-03
-4.547306803015805851e-03
-5.660490278779971123e-03
-8.111221760678579210e-03
-7.383648868702998892e-03
-4.710361868277517308e-03
-3.628358775571022808e-04
3.593052018192345858e-03
4.352814162671051965e-03
1.868755817816257145e-03
1.124565987148028363e-03
6.019013414981311608e-03
1.004802931596750909e-02
7.895045035659313884e-03
1.837634078564364531e-03
-2.217494075023146959e-03
-4.188919059432966510e-03
-2.792795074735288964e-03
-3.162275313535121025e-03
-4.630526332927580729e-03
-3.773632374552372479e-03
-1.117475281294195120e-03
8.767471714937651928e-05
1.256118221419614980e-04
1.135920607153469326e-03
8.562787565349151480e-04
2.489033748109315577e-04
2.923197592143513576e-04
1.671726420395426918e-03
8.069761545976969963e-04
-3.865745372511747977e-04
-2.589878811778821999e-03
-4.049234142499442447e-03
6.402916077978660454e-04
3.441351038876388265e-03
1.944896921855193521e-03
1.962434933627530201e-03
3.792939813908590210e-03
2.529693442190201081e-03
8.812167797236115105e-04
1.852286136212737784e-03
9.684172043991848148e-04
1.579199226007808716e-05
-3.785775369351074369e-03
-8.622148905555650916e-03
-1.128608279401034295e-02
-8.397893783574634022e-03
1.149669977288189475e-03
8.555343620750270606e-03
7.002236321246666645e-03
1.261031698737469925e-03
-1.779730519335608573e-03
-1.402533486925392392e-04
2.329918904519334266e-03
6.173220012550727047e-03
8.085636240850343354e-03
6.109648512075677509e-03
2.541937725058267088e-03
-6.326578639530092965e-04
-4.016376806453903110e-03
-8.800843792949073624e-03
-8.972327526986392451e-03
-8.239193844384132617e-03
-4.767542180575392793e-03
4.271701794297211806e-04
2.102768430080882885e-03
3.952687551235708747e-04
6.552298716561007165e-04
2.448723447588022507e-03
3.358969731180698297e-03
4.314674634173271302e-03
4.696826632182161086e-03
2.941300162512360331e-03
5.015149548952614915e-04
1.599592065125392447e-05
1.190130698155871837e-03
1.899800256651767918e-04
-4.334609481135251225e-04
-2.819822711090576328e-04
-3.543989150195860950e-03
-6.627720326926763578e-03
-4.411328084117585244e-03
2.437239008432146373e-03
2.274643281256754669e-03
1.010983688769711913e-04
-1.208964623253002031e-03
-1.672039538485229444e-03
-8.416474084933291697e-04
2.340712973618485314e-03
2.675437132065306735e-03
1.976569743607250497e-03
1.744875076468133807e-03
2.669259704358261493e-04
-1.892388848254749050e-03
-5.246426447209957648e-03
-2.993206894645266715e-03
2.049336219620408357e-03
7.059194515300189210e-03
7.688239952225444686e-03
6.307141701710919021e-03
5.145532734299555593e-03
-2.397759594096733789e-03
-9.468921079831547558e-03
-1.040078858254172428e-02
-1.154252767235976369e-02
-8.981830464071889966e-03
-3.655970442057533513e-03
-4.458104828423360894e-04
4.933581080441488791e-03
9.743560278479767092e-03
9.852872375521078141e-03
7.202066123430647671e-03
7.201225636983847947e-03
7.282763248511496361e-03
3.159801616042057920e-03
-2.316611954289176864e-03
-4.792547296265153335e-03
-6.485793635550114386e-03
-7.628511266451410561e-03
-9.203398189185345996e-03
-9.579849093275071351e-03
-7.563207206156930679e-03
-1.176100878894905007e-03
6.384708894462486940e-03
1.009686103794087998e-02
1.012242408669348018e-02
9.663958493538992930e-03
5.346594711589734705e-03
-4.236227729080616262e-04
-4.645440836124392625e-03
-5.548384266761459231e-03
-3.196456205392167980e-03
-2.075174997433950480e-03
-1.777516208553652031e-03
-3.561365649129952953e-04
-7.292395485846726042e-04
-2.897796203132956862e-03
-2.268279580169992558e-03
-1.557547712172918566e-03
-1.184338031016242583e-03
1.030372919037062050e-03
3.753994435779403529e-03
7.324934742273294004e-03
5.203608538130029444e-03
1.365352796621579698e-03
-8.382960056499026225e-04
-6.608450727198868268e-04
-2.618762463607508893e-04
-5.819632082320472851e-04
-1.489734631599565987e-03
-2.844879134395515360e-03
-4.188938197799751961e-03
-5.048082915936663931e-03
-3.254247372185212379e-03
-2.873923881342218948e-04
1.009795873467979983e-03
5.887605948344817354e-03
8.763249669221311045e-03
4.812846699900718075e-03
-2.250178760326974371e-03
-4.907555973104189319e-03
-4.044284184603338245e-03
-4.041309535095959278e-04
-8.303997311846937949e-05
-7.965796286476014816e-04
-1.340917167688128854e-03
-6.778581088632190449e-04
3.285478696213120237e-03
4.236320918240757752e-03
1.190071288956536877e-03
-1.660295710746247880e-03
1.761007463673572120e-04
1.268877848585773984e-03
1.377659281962235289e-03
1.948191089806122116e-03
1.082819113377090324e-03
-6.554621753205647000e-04
-5.431710452868672000e-04
-1.322051968489125571e-03
-6.619795146427856318e-03
-1.179584056843724013e-02
-1.111733619018173518e-02
-4.022980993203644981e-03
4.713689184913843859e-03
1.092278919756298206e-02
1.255164215342569577e-02
1.072279394319933070e-02
