5.340965311967311308e-02
5.341637663498328970e-02
5.342309972533927642e-02
5.342982239035520831e-02
5.343654462964502611e-02
5.344326644282253874e-02
5.344998782950138860e-02
5.345670878929507236e-02
5.346342932181694096e-02
5.347014942668017884e-02
5.347686910349783163e-02
5.348358835188278537e-02
5.349030717144775959e-02
5.349702556180530033e-02
5.350374352256782179e-02
5.351046105334754388e-02
5.351717815375651305e-02
5.352389482340667165e-02
5.353061106190983021e-02
5.353732686887763270e-02
5.354404224392159128e-02
5.355075718665305851e-02
5.355747169668322039e-02
5.356418577362312416e-02
5.357089941708365055e-02
5.357761262667552066e-02
5.358432540200930294e-02
5.359103774269537851e-02
5.359774964834396194e-02
5.360446111856510820e-02
5.361117215296874045e-02
5.361788275116464997e-02
5.362459291276244766e-02
5.363130263737164033e-02
5.363801192460156825e-02
5.364472077406143985e-02
5.365142918536031091e-02
5.365813715810708456e-02
5.366484469191056678e-02
5.367155178637941088e-02
5.367825844112208283e-02
5.368496465574694454e-02
5.369167042986221217e-02
5.369837576307597699e-02
5.370508065499622619e-02
5.371178510523082206e-02
5.371848911338750199e-02
5.372519267907387847e-02
5.373189580189743908e-02
5.373859848146555346e-02
5.374530071738544551e-02
5.375200250926424200e-02
5.375870385670891705e-02
5.376540475932632679e-02
5.377210521672318166e-02
5.377880522850603945e-02
5.378550479428131220e-02
5.379220391365532178e-02
5.379890258623421656e-02
5.380560081162403391e-02
5.381229858943066546e-02
5.381899591925988491e-02
5.382569280071735490e-02
5.383238923340862014e-02
5.383908521693910737e-02
5.384578075091416005e-02
5.385247583493898288e-02
5.385917046861869728e-02
5.386586465155833447e-02
5.387255838336280772e-02
5.387925166363692620e-02
5.388594449198539499e-02
5.389263686801280817e-02
5.389932879132362104e-02
5.390602026152215009e-02
5.391271127821258002e-02
5.391940184099901917e-02
5.392609194948543710e-02
5.393278160327569931e-02
5.393947080197357413e-02
5.394615954518267031e-02
5.395284783250648558e-02
5.395953566354844133e-02
5.396622303791183406e-02
5.397290995519986312e-02
5.397959641501562378e-02
5.398628241696210722e-02
5.399296796064220749e-02
5.399965304565872148e-02
5.400633767161434895e-02
5.401302183811163699e-02
5.401970554475300779e-02
5.402638879114075865e-02
5.403307157687708973e-02
5.403975390156405545e-02
5.404643576480359229e-02
5.405311716619753959e-02
5.405979810534764646e-02
5.406647858185557182e-02
5.407315859532288438e-02
5.407983814535104183e-02
5.408651723154141167e-02
5.409319585349523646e-02
5.409987401081370328e-02
5.410655170309789513e-02
5.411322892994877704e-02
5.411990569096722381e-02
5.412658198575402702e-02
5.413325781390989494e-02
5.413993317503542485e-02
5.414660806873110299e-02
5.415328249459731152e-02
5.415995645223433547e-02
5.416662994124237657e-02
5.417330296122154637e-02
5.417997551177183152e-02
5.418664759249312152e-02
5.419331920298522259e-02
5.419999034284783690e-02
5.420666101168056944e-02
5.421333120908292807e-02
5.422000093465437209e-02
5.422667018799431221e-02
5.423333896870209669e-02
5.424000727637695585e-02
5.424667511061801589e-02
5.425334247102436142e-02
5.426000935719501456e-02
5.426667576872892806e-02
5.427334170522496448e-02
5.428000716628189615e-02
5.428667215149840519e-02
5.429333666047308354e-02
5.430000069280446068e-02
5.430666424809101056e-02
5.431332732593117246e-02
5.431998992592329545e-02
5.432665204766562450e-02
5.433331369075635603e-02
5.433997485479365175e-02
5.434663553937561092e-02
5.435329574410028425e-02
5.435995546856561833e-02
5.436661471236953203e-02
5.437327347510989561e-02
5.437993175638450305e-02
5.438658955579107196e-02
5.439324687292727833e-02
5.439990370739074960e-02
5.440656005877906459e-02
5.441321592668973278e-02
5.441987131072019424e-02
5.442652621046784739e-02
5.443318062553004905e-02
5.443983455550408662e-02
5.444648799998723365e-02
5.445314095857672898e-02
5.445979343086975594e-02
5.446644541646346316e-02
5.447309691495495765e-02
5.447974792594125620e-02
5.448639844901931317e-02
5.449304848378602045e-02
5.449969802983822137e-02
5.450634708677270374e-02
5.451299565418624843e-02
5.451964373167555999e-02
5.452629131883729441e-02
5.453293841526805213e-02
5.453958502056437813e-02
5.454623113432281734e-02
5.455287675613989390e-02
5.455952188561209032e-02
5.456616652233586828e-02
5.457281066590766866e-02
5.457945431592392538e-02
5.458609747198105849e-02
5.459274013367543948e-02
5.459938230060339820e-02
5.460602397236122285e-02
5.461266514854516696e-02
5.461930582875147711e-02
5.462594601257639293e-02
5.463258569961614713e-02
5.463922488946693079e-02
5.464586358172492803e-02
5.465250177598632297e-02
5.465913947184727201e-02
5.466577666890390375e-02
5.467241336675229130e-02
5.467904956498850777e-02
5.468568526320862627e-02
5.469232046100872685e-02
5.469895515798487567e-02
5.470558935373314585e-02
5.471222304784961049e-02
5.471885623993037046e-02
5.472548892957156130e-02
5.473212111636931165e-02
5.473875279991974319e-02
5.474538397981898452e-02
5.475201465566317816e-02
5.475864482704848740e-02
5.476527449357108945e-02
5.477190365482715456e-02
5.477853231041290155e-02
5.478516045992457006e-02
5.479178810295842056e-02
5.479841523911076206e-02
5.480504186797791055e-02
5.481166798915620975e-02
5.481829360224199643e-02
5.482491870683164209e-02
5.483154330252152514e-02
5.483816738890805176e-02
5.484479096558768363e-02
5.485141403215688938e-02
5.485803658821217926e-02
5.486465863335009824e-02
5.487128016716722595e-02
5.487790118926012817e-02
5.488452169922544005e-02
5.489114169665984533e-02
5.489776118116004855e-02
5.490438015232278895e-02
5.491099860974486824e-02
5.491761655302308115e-02
5.492423398175430571e-02
5.493085089553547545e-02
5.493746729396357248e-02
5.494408317663562746e-02
5.495069854314872659e-02
5.495731339310000463e-02
5.496392772608665184e-02
5.497054154170589318e-02
5.497715483955500915e-02
5.498376761923130795e-02
5.499037988033218111e-02
5.499699162245511030e-02
5.500360284519766746e-02
5.501021354815751468e-02
5.501682373093238348e-02
5.502343339312006781e-02
5.503004253431845183e-02
5.503665115412551684e-02
5.504325925213927884e-02
5.504986682795785097e-02
5.505647388117942270e-02
5.506308041140230147e-02
5.506968641822486410e-02
5.507629190124557067e-02
5.508289686006292984e-02
5.508950129427554743e-02
5.509610520348207779e-02
5.510270858728123083e-02
5.510931144527176501e-02
5.511591377705253592e-02
5.512251558222244774e-02
5.512911686038052261e-02
5.513571761112590064e-02
5.514231783405779824e-02
5.514891752877553593e-02
5.515551669487851749e-02
5.516211533196626465e-02
5.516871343963833385e-02
5.517531101749439254e-02
5.518190806513416369e-02
5.518850458215748822e-02
5.519510056816430421e-02
5.520169602275463300e-02
5.520829094552860694e-02
5.521488533608643473e-02
5.522147919402836669e-02
5.522807251895473640e-02
5.523466531046600236e-02
5.524125756816269939e-02
5.524784929164545250e-02
5.525444048051500467e-02
5.526103113437217523e-02
5.526762125281791532e-02
5.527421083545330099e-02
5.528079988187953320e-02
5.528738839169793778e-02
5.529397636450997244e-02
5.530056379991717119e-02
5.530715069752119295e-02
5.531373705692380072e-02
5.532032287772686852e-02
5.532690815953238139e-02
5.533349290194240072e-02
5.534007710455905726e-02
5.534666076698461362e-02
5.535324388882144342e-02
5.535982646967200355e-02
5.536640850913888967e-02
5.537299000682480848e-02
5.537957096233257770e-02
5.538615137526509830e-02
5.539273124522538227e-02
5.539931057181655266e-02
5.540588935464181575e-02
5.541246759330449578e-02
5.541904528740803498e-02
5.542562243655598658e-02
5.543219904035207035e-02
5.543877509840014484e-02
5.544535061030419348e-02
5.545192557566835240e-02
5.545849999409689646e-02
5.546507386519421851e-02
5.547164718856482934e-02
5.547821996381335774e-02
5.548479219054455042e-02
5.549136386836327206e-02
5.549793499687448450e-02
5.550450557568323978e-02
5.551107560439471483e-02
5.551764508261419068e-02
5.552421400994712181e-02
5.553078238599908067e-02
5.553735021037573688e-02
5.554391748268291268e-02
5.555048420252652747e-02
5.555705036951262554e-02
5.556361598324734835e-02
5.557018104333698999e-02
5.557674554938797640e-02
5.558330950100683759e-02
5.558987289780019381e-02
5.559643573937479016e-02
5.560299802533751057e-02
5.560955975529541934e-02
5.561612092885567099e-02
5.562268154562552414e-02
5.562924160521240391e-02
5.563580110722386729e-02
5.564236005126759615e-02
5.564891843695139728e-02
5.565547626388323704e-02
5.566203353167122059e-02
5.566859023992361266e-02
5.567514638824883066e-02
5.568170197625542384e-02
5.568825700355208019e-02
5.569481146974761959e-02
5.570136537445095903e-02
5.570791871727114736e-02
5.571447149781739994e-02
5.572102371569909174e-02
5.572757537052570181e-02
5.573412646190684799e-02
5.574067698945225913e-02
5.574722695277177509e-02
5.575377635147539535e-02
5.576032518517321651e-02
5.576687345347543928e-02
5.577342115599237538e-02
5.577996829233444753e-02
5.578651486211221727e-02
5.579306086493641265e-02
5.579960630041787273e-02
5.580615116816754068e-02
5.581269546779646373e-02
5.581923919891582792e-02
5.582578236113695802e-02
5.583232495407128987e-02
5.583886697733039112e-02
5.584540843052598902e-02
5.585194931326995654e-02
5.585848962517431238e-02
5.586502936585123480e-02
5.587156853491306169e-02
5.587810713197229745e-02
5.588464515664160609e-02
5.589118260853381120e-02
5.589771948726188211e-02
5.590425579243896159e-02
5.591079152367833122e-02
5.591732668059337663e-02
5.592386126279764308e-02
5.593039526990482152e-02
5.593692870152871394e-02
5.594346155728328190e-02
5.594999383678263272e-02
5.595652553964104020e-02
5.596305666547288227e-02
5.596958721389267560e-02
5.597611718451509649e-02
5.598264657695498775e-02
5.598917539082733791e-02
5.599570362574726734e-02
5.600223128133003520e-02
5.600875835719107410e-02
5.601528485294597626e-02
5.602181076821046574e-02
5.602833610260037761e-02
5.603486085573168574e-02
5.604138502722055826e-02
5.604790861668330210e-02
5.605443162373635602e-02
5.606095404799629062e-02
5.606747588907981528e-02
5.607399714660377815e-02
5.608051782018519393e-02
5.608703790944123690e-02
5.609355741398924788e-02
5.610007633344671341e-02
5.610659466743121715e-02
5.611311241556046769e-02
5.611962957745231934e-02
5.612614615272476515e-02
5.613266214099598556e-02
5.613917754188429976e-02
5.614569235500813105e-02
5.615220657998605536e-02
5.615872021643675271e-02
5.616523326397906968e-02
5.617174572223199158e-02
5.617825759081464254e-02
5.618476886934627157e-02
5.619127955744625258e-02
5.619778965473409826e-02
5.620429916082942540e-02
5.621080807535198259e-02
5.621731639792165031e-02
5.622382412815843389e-02
5.623033126568247053e-02
5.623683781011400845e-02
5.624334376107342770e-02
5.624984911818119854e-02
5.625635388105794388e-02
5.626285804932439766e-02
5.626936162260145341e-02
5.627586460051015732e-02
5.628236698267170823e-02
5.628886876870742989e-02
5.629536995823877094e-02
5.630187055088728409e-02
5.630837054627462618e-02
5.631486994402260665e-02
5.632136874375318764e-02
5.632786694508844921e-02
5.633436454765061718e-02
5.634086155106204918e-02
5.634735795494526245e-02
5.635385375892286441e-02
5.636034896261755273e-02
5.636684356565214993e-02
5.637333756764960346e-02
5.637983096823300649e-02
5.638632376702557014e-02
5.639281596365060267e-02
5.639930755773153032e-02
5.640579854889195277e-02
5.641228893675558770e-02
5.641877872094627072e-02
5.642526790108792767e-02
5.643175647680465090e-02
5.643824444772065074e-02
5.644473181346026242e-02
5.645121857364791135e-02
5.645770472790813399e-02
5.646419027586560557e-02
5.647067521714514010e-02
5.647715955137166954e-02
5.648364327817026465e-02
5.649012639716612799e-02
5.649660890798458013e-02
5.650309081025105262e-02
5.650957210359110888e-02
5.651605278763043028e-02
5.652253286199480919e-02
5.652901232631016293e-02
5.653549118020254061e-02
5.654196942329813014e-02
5.654844705522320270e-02
5.655492407560416129e-02
5.656140048406751303e-02
5.656787628023987602e-02
5.657435146374799328e-02
5.658082603421869805e-02
5.658729999127892762e-02
5.659377333455573034e-02
5.660024606367623085e-02
5.660671817826765095e-02
5.661318967795730961e-02
5.661966056237265066e-02
5.662613083114124285e-02
5.663260048389077289e-02
5.663906952024907321e-02
5.664553793984408031e-02
5.665200574230386255e-02
5.665847292725660622e-02
5.666493949433058092e-02
5.667140544315420192e-02
5.667787077335598167e-02
5.668433548456452281e-02
5.669079957640853901e-02
5.669726304851686188e-02
5.670372590051841327e-02
5.671018813204219827e-02
5.671664974271731219e-02
5.672311073217296135e-02
5.672957110003845616e-02
5.673603084594322499e-02
5.674248996951678642e-02
5.674894847038873535e-02
5.675540634818879854e-02
5.676186360254684149e-02
5.676832023309283382e-02
5.677477623945684920e-02
5.678123162126906542e-02
5.678768637815979209e-02
5.679414050975944983e-02
5.680059401569855643e-02
5.680704689560769211e-02
5.681349914911748566e-02
5.681995077585866999e-02
5.682640177546210286e-02
5.683285214755871145e-02
5.683930189177952008e-02
5.684575100775565021e-02
5.685219949511831350e-02
5.685864735349883958e-02
5.686509458252864829e-02
5.687154118183924967e-02
5.687798715106225089e-02
5.688443248982934242e-02
5.689087719777227020e-02
5.689732127452290511e-02
5.690376471971322903e-02
5.691020753297527240e-02
5.691664971394115591e-02
5.692309126224305571e-02
5.692953217751325207e-02
5.693597245938405299e-02
5.694241210748781507e-02
5.694885112145691569e-02
5.695528950092378778e-02
5.696172724552094058e-02
5.696816435488095270e-02
5.697460082863644443e-02
5.698103666642008458e-02
5.698747186786461832e-02
5.699390643260285327e-02
5.700034036026763867e-02
5.700677365049192785e-02
5.701320630290876434e-02
5.701963831715127495e-02
5.702606969285264893e-02
5.703250042964611716e-02
5.703893052716497297e-02
5.704535998504254440e-02
5.705178880291216642e-02
5.705821698040720175e-02
5.706464451716104086e-02
5.707107141280715057e-02
5.707749766697905319e-02
5.708392327931033350e-02
5.709034824943462483e-02
5.709677257698560909e-02
5.710319626159701678e-02
5.710961930290264776e-02
5.711604170053635049e-02
5.712246345413199422e-02
5.712888456332351761e-02
5.713530502774490094e-02
5.714172484703016613e-02
5.714814402081332123e-02
5.715456254872841590e-02
5.716098043040950677e-02
5.716739766549065044e-02
5.717381425360588965e-02
5.718023019438928101e-02
5.718664548747492971e-02
5.719306013249699644e-02
5.719947412908970436e-02
5.720588747688733211e-02
5.721230017552415836e-02
5.721871222463445483e-02
5.722512362385251405e-02
5.723153437281262856e-02
5.723794447114908396e-02
5.724435391849617971e-02
5.725076271448822918e-02
5.725717085875956652e-02
5.726357835094454674e-02
5.726998519067755949e-02
5.727639137759297366e-02
5.728279691132519974e-02
5.728920179150863434e-02
5.729560601777762552e-02
5.730200958976652825e-02
5.730841250710967671e-02
5.731481476944142589e-02
5.732121637639613076e-02
5.732761732760812551e-02
5.733401762271170959e-02
5.734041726134115474e-02
5.734681624313073267e-02
5.735321456771470122e-02
5.735961223472733905e-02
5.736600924380291788e-02
5.737240559457569555e-02
5.737880128667991603e-02
5.738519631974980939e-02
5.739159069341956410e-02
5.739798440732335472e-02
5.740437746109527950e-02
5.741076985436938812e-02
5.741716158677970944e-02
5.742355265796024455e-02
5.742994306754494599e-02
5.743633281516773853e-02
5.744272190046254001e-02
5.744911032306318499e-02
5.745549808260347335e-02
5.746188517871719803e-02
5.746827161103812420e-02
5.747465737919995460e-02
5.748104248283632256e-02
5.748742692158081979e-02
5.749381069506702413e-02
5.750019380292844401e-02
5.750657624479851154e-02
5.751295802031061027e-02
5.751933912909808211e-02
5.752571957079422038e-02
5.753209934503229067e-02
5.753847845144544754e-02
5.754485688966681778e-02
5.755123465932945187e-02
5.755761176006635171e-02
5.756398819151042900e-02
5.757036395329452605e-02
5.757673904505142271e-02
5.758311346641387107e-02
5.758948721701453305e-02
5.759586029648600114e-02
5.760223270446077071e-02
5.760860444057126772e-02
5.761497550444982102e-02
5.762134589572871779e-02
5.762771561404019666e-02
5.763408465901641992e-02
5.764045303028948047e-02
5.764682072749139491e-02
5.765318775025412429e-02
5.765955409820954641e-02
5.766591977098942806e-02
5.767228476822545968e-02
5.767864908954919989e-02
5.768501273459208933e-02
5.769137570298544376e-02
5.769773799436048872e-02
5.770409960834839425e-02
5.771046054458021241e-02
5.771682080268690507e-02
5.772318038229934389e-02
5.772953928304829646e-02
5.773589750456442626e-02
5.774225504647827883e-02
5.774861190842028175e-02
5.775496809002075849e-02
5.776132359090995622e-02
5.776767841071801801e-02
5.777403254907500368e-02
5.778038600561086896e-02
5.778673877995544467e-02
5.779309087173842979e-02
5.779944228058940536e-02
5.780579300613786220e-02
5.781214304801318704e-02
5.781849240584463478e-02
5.782484107926134237e-02
5.783118906789232183e-02
5.783753637136646725e-02
5.784388298931253392e-02
5.785022892135918693e-02
5.785657416713493872e-02
5.786291872626820459e-02
5.786926259838730963e-02
5.787560578312043319e-02
5.788194828009562976e-02
5.788829008894082195e-02
5.789463120928380058e-02
5.790097164075225927e-02
5.790731138297373209e-02
5.791365043557562126e-02
5.791998879818517632e-02
5.792632647042951499e-02
5.793266345193561623e-02
5.793899974233035488e-02
5.794533534124044621e-02
5.795167024829243202e-02
5.795800446311273613e-02
5.796433798532762277e-02
5.797067081456321741e-02
5.797700295044547203e-02
5.798333439260017208e-02
5.798966514065295730e-02
5.799599519422929395e-02
5.800232455295450951e-02
5.800865321645378575e-02
5.801498118435217954e-02
5.802130845627462286e-02
5.802763503184589500e-02
5.803396091069062263e-02
5.804028609243327974e-02
5.804661057669813912e-02
5.805293436310934863e-02
5.805925745129089655e-02
5.806557984086661850e-02
5.807190153146019052e-02
5.807822252269510127e-02
5.808454281419465209e-02
5.809086240558198472e-02
5.809718129648006046e-02
5.810349948651168106e-02
5.810981697529948170e-02
5.811613376246593105e-02
5.812244984763333122e-02
5.812876523042384558e-02
5.813507991045944318e-02
5.814139388736192654e-02
5.814770716075298718e-02
5.815401973025412230e-02
5.816033159548665565e-02
5.816664275607173751e-02
5.817295321163032384e-02
5.817926296178322493e-02
5.818557200615104980e-02
5.819188034435426177e-02
5.819818797601314375e-02
5.820449490074783294e-02
5.821080111817829306e-02
5.821710662792427965e-02
5.822341142960534011e-02
5.822971552284084140e-02
5.823601890724997704e-02
5.824232158245173929e-02
5.824862354806493309e-02
5.825492480370814824e-02
5.826122534899976640e-02
5.826752518355798188e-02
5.827382430700082938e-02
5.828012271894613544e-02
5.828642041901151843e-02
5.829271740681438163e-02
5.829901368197190625e-02
5.830530924410105842e-02
5.831160409281864465e-02
5.831789822774122167e-02
5.832419164848518661e-02
5.833048435466672149e-02
5.833677634590181404e-02
5.834306762180622996e-02
5.834935818199551288e-02
5.835564802608501911e-02
5.836193715368991064e-02
5.836822556442512050e-02
5.837451325790538742e-02
5.838080023374527666e-02
5.838708649155915920e-02
5.839337203096116313e-02
5.839965685156523617e-02
5.840594095298514560e-02
5.841222433483447135e-02
5.841850699672659908e-02
5.842478893827470626e-02
5.843107015909176222e-02
5.843735065879053503e-02
5.844363043698357074e-02
5.844990949328318641e-02
5.845618782730146318e-02
5.846246543865027401e-02
5.846874232694131146e-02
5.847501849178605993e-02
5.848129393279583033e-02
5.848756864958170459e-02
5.849384264175452874e-02
5.850011590892491287e-02
5.850638845070325889e-02
5.851266026669978831e-02
5.851893135652448674e-02
5.852520171978713159e-02
5.853147135609728519e-02
5.853774026506429473e-02
5.854400844629724376e-02
5.855027589940495214e-02
5.855654262399603155e-02
5.856280861967885082e-02
5.856907388606155673e-02
5.857533842275205321e-02
5.858160222935803602e-02
5.858786530548696497e-02
5.859412765074605706e-02
5.860038926474227944e-02
5.860665014708235643e-02
5.861291029737279723e-02
5.861916971521989594e-02
5.862542840022970381e-02
5.863168635200807777e-02
5.863794357016065967e-02
5.864420005429284849e-02
5.865045580400984893e-02
5.865671081891667138e-02
5.866296509861807645e-02
5.866921864271860965e-02
5.867547145082254584e-02
5.868172352253393786e-02
5.868797485745658876e-02
5.869422545519407952e-02
5.870047531534976909e-02
5.870672443752676661e-02
5.871297282132793144e-02
5.871922046635587311e-02
5.872546737221290281e-02
5.873171353850108189e-02
5.873795896482226359e-02
5.874420365077805128e-02
5.875044759596977778e-02
5.875669079999854688e-02
5.876293326246521259e-02
5.876917498297038606e-02
5.877541596111447719e-02
5.878165619649765999e-02
5.878789568871985172e-02
5.879413443738069900e-02
5.880037244207959868e-02
5.880660970241565616e-02
5.881284621798772705e-02
5.881908198839445184e-02
5.882531701323420736e-02
5.883155129210510675e-02
5.883778482460504805e-02
5.884401761033170725e-02
5.885024964888252441e-02
5.885648093985471063e-02
5.886271148284528271e-02
5.886894127745100069e-02
5.887517032326841648e-02
5.888139861989385992e-02
5.888762616692346658e-02
5.889385296395310831e-02
5.890007901057840028e-02
5.890630430639473558e-02
5.891252885099725056e-02
5.891875264398081791e-02
5.892497568494008825e-02
5.893119797346946243e-02
5.893741950916310535e-02
5.894364029161491825e-02
5.894986032041857338e-02
5.895607959516749319e-02
5.896229811545487115e-02
5.896851588087366480e-02
5.897473289101660271e-02
5.898094914547619139e-02
5.898716464384470837e-02
5.899337938571416751e-02
5.899959337067635368e-02
5.900580659832285746e-02
5.901201906824500576e-02
5.901823078003391732e-02
5.902444173328046106e-02
5.903065192757524920e-02
5.903686136250863720e-02
5.904307003767077927e-02
5.904927795265159374e-02
5.905548510704074217e-02
5.906169150042763633e-02
5.906789713240143125e-02
5.907410200255101829e-02
5.908030611046505981e-02
5.908650945573199614e-02
5.909271203793998312e-02
5.909891385667696839e-02
5.910511491153064290e-02
5.911131520208844775e-02
5.911751472793756734e-02
5.912371348866495013e-02
5.912991148385728785e-02
5.913610871310105016e-02
5.914230517598245002e-02
5.914850087208743667e-02
5.915469580100170266e-02
5.916088996231069069e-02
5.916708335559962145e-02
5.917327598045345888e-02
5.917946783645691017e-02
5.918565892319443272e-02
5.919184924025022027e-02
5.919803878720825835e-02
5.920422756365226191e-02
5.921041556916569609e-02
5.921660280333179011e-02
5.922278926573354418e-02
5.922897495595365325e-02
5.923515987357456242e-02
5.924134401817849477e-02
5.924752738934739582e-02
5.925370998666295436e-02
5.925989180970665793e-02
5.926607285805974429e-02
5.927225313130319445e-02
5.927843262901773269e-02
5.928461135078380573e-02
5.929078929618164517e-02
5.929696646479123978e-02
5.930314285619237707e-02
5.930931846996458784e-02
5.931549330568718081e-02
5.932166736293927045e-02
5.932784064129972140e-02
5.933401314034714852e-02
5.934018485965994461e-02
5.934635579881628042e-02
5.935252595739407694e-02
5.935869533497097755e-02
5.936486393112435506e-02
5.937103174543128387e-02
5.937719877746861635e-02
5.938336502681296203e-02
5.938953049304071530e-02
5.939569517572802076e-02
5.940185907445077323e-02
5.940802218878464547e-02
5.941418451830509512e-02
5.942034606258730922e-02
5.942650682120625277e-02
5.943266679373665484e-02
5.943882597975300858e-02
5.944498437882952957e-02
5.945114199054016280e-02
5.945729881445863813e-02
5.946345485015841481e-02
5.946961009721271618e-02
5.947576455519455046e-02
5.948191822367665527e-02
5.948807110223150452e-02
5.949422319043133622e-02
5.950037448784815247e-02
5.950652499405374024e-02
5.951267470861964365e-02
5.951882363111717089e-02
5.952497176111739424e-02
5.953111909819115005e-02
5.953726564190903875e-02
5.954341139184140402e-02
5.954955634755835364e-02
5.955570050862975251e-02
5.956184387462520879e-02
5.956798644511410168e-02
5.957412821966560218e-02
5.958026919784867315e-02
5.958640937923202069e-02
5.959254876338415663e-02
5.959868734987336381e-02
5.960482513826771689e-02
5.961096212813508238e-02
5.961709831904309781e-02
5.962323371055915089e-02
5.962936830225042811e-02
5.963550209368388699e-02
5.964163508442623524e-02
5.964776727404395851e-02
5.965389866210331349e-02
5.966002924817032788e-02
5.966615903181081426e-02
5.967228801259041870e-02
5.967841619007458603e-02
5.968454356382853904e-02
5.969067013341730621e-02
5.969679589840570094e-02
5.970292085835829377e-02
5.970904501283940541e-02
5.971516836141313456e-02
5.972129090364335785e-02
5.972741263909376458e-02
5.973353356732780811e-02
5.973965368790875446e-02
5.974577300039964761e-02
5.975189150436331642e-02
5.975800919936238159e-02
5.976412608495930423e-02
5.977024216071633034e-02
5.977635742619549775e-02
5.978247188095860837e-02
5.978858552456728370e-02
5.979469835658298565e-02
5.980081037656696796e-02
5.980692158408028314e-02
5.981303197868377552e-02
5.981914155993811599e-02
5.982525032740376725e-02
5.983135828064100464e-02
5.983746541920990231e-02
5.984357174267031232e-02
5.984967725058185778e-02
5.985578194250393280e-02
5.986188581799570946e-02
5.986798887661615859e-02
5.987409111792401512e-02
5.988019254147781273e-02
5.988629314683587002e-02
5.989239293355631127e-02
5.989849190119708733e-02
5.990459004931598941e-02
5.991068737747064221e-02
5.991678388521849696e-02
5.992287957211678978e-02
5.992897443772256943e-02
5.993506848159266959e-02
5.994116170328373655e-02
5.994725410235222235e-02
5.995334567835439166e-02
5.995943643084630098e-02
5.996552635938382642e-02
5.997161546352265671e-02
5.997770374281831407e-02
5.998379119682614030e-02
5.998987782510130373e-02
5.999596362719878534e-02
6.000204860267335794e-02
6.000813275107956535e-02
6.001421607197177099e-02
6.002029856490416482e-02
6.002638022943079105e-02
6.003246106510551350e-02
6.003854107148204333e-02
6.004462024811389048e-02
6.005069859455439835e-02
6.005677611035676461e-02
6.006285279507404123e-02
6.006892864825913447e-02
6.007500366946477710e-02
6.008107785824354230e-02
6.008715121414783672e-02
6.009322373672992129e-02
6.009929542554186266e-02
6.010536628013558869e-02
6.011143630006283295e-02
6.011750548487519025e-02
6.012357383412409578e-02
6.012964134736082517e-02
6.013570802413651523e-02
6.014177386400216402e-02
6.014783886650866551e-02
6.015390303120675408e-02
6.015996635764696981e-02
6.016602884537970014e-02
6.017209049395515208e-02
6.017815130292339387e-02
6.018421127183436192e-02
6.019027040023786773e-02
6.019632868768359790e-02
6.020238613372108638e-02
6.020844273789974221e-02
6.021449849976884261e-02
6.022055341887750518e-02
6.022660749477469488e-02
6.023266072700925178e-02
6.023871311512987020e-02
6.024476465868512653e-02
6.025081535722346532e-02
6.025686521029317150e-02
6.026291421744238430e-02
6.026896237821907643e-02
6.027500969217113036e-02
6.028105615884627594e-02
6.028710177779211810e-02
6.029314654855613687e-02
6.029919047068566657e-02
6.030523354372793049e-02
6.031127576723001316e-02
6.031731714073885336e-02
6.032335766380120951e-02
6.032939733596372200e-02
6.033543615677289251e-02
6.034147412577510472e-02
6.034751124251659660e-02
6.035354750654346734e-02
6.035958291740169818e-02
6.036561747463715238e-02
6.037165117779552670e-02
6.037768402642235133e-02
6.038371602006301769e-02
6.038974715826275069e-02
6.039577744056660868e-02
6.040180686651953901e-02
6.040783543566635022e-02
6.041386314755168435e-02
6.041989000172004465e-02
6.042591599771582334e-02
6.043194113508324611e-02
6.043796541336639988e-02
6.044398883210926054e-02
6.045001139085569297e-02
6.045603308914945101e-02
6.046205392653412891e-02
6.046807390255316134e-02
6.047409301674984416e-02
6.048011126866734144e-02
6.048612865784871312e-02
6.049214518383690814e-02
6.049816084617476442e-02
6.050417564440501578e-02
6.051018957807026422e-02
6.051620264671300070e-02
6.052221484987558436e-02
6.052822618710024249e-02
6.053423665792906361e-02
6.054024626190403213e-02
6.054625499856700760e-02
6.055226286745968994e-02
6.055826986812369583e-02
6.056427600010053786e-02
6.057028126293160369e-02
6.057628565615820471e-02
6.058228917932154123e-02
6.058829183196264706e-02
6.059429361362242417e-02
6.060029452384162185e-02
6.060629456216083677e-02
6.061229372812053373e-02
6.061829202126101102e-02
6.062428944112246282e-02
6.063028598724493068e-02
6.063628165916833124e-02
6.064227645643244929e-02
6.064827037857693087e-02
6.065426342514128322e-02
6.066025559566488173e-02
6.066624688968698387e-02
6.067223730674669441e-02
6.067822684638300712e-02
6.068421550813475618e-02
6.069020329154064392e-02
6.069619019613921307e-02
6.070217622146882597e-02
6.070816136706771310e-02
6.071414563247397311e-02
6.072012901722555200e-02
6.072611152086026393e-02
6.073209314291578426e-02
6.073807388292965653e-02
6.074405374043929939e-02
6.075003271498197188e-02
6.075601080609482896e-02
6.076198801331490068e-02
6.076796433617905752e-02
6.077393977422405891e-02
6.077991432698656021e-02
6.078588799400311965e-02
6.079186077481016359e-02
6.079783266894398658e-02
6.080380367594077906e-02
6.080977379533662047e-02
6.081574302666743065e-02
6.082171136946897677e-02
6.082767882327687337e-02
6.083364538762659618e-02
6.083961106205350300e-02
6.084557584609279896e-02
6.085153973927956428e-02
6.085750274114876818e-02
6.086346485123527578e-02
6.086942606907384812e-02
6.087538639419910746e-02
6.088134582614553730e-02
6.088730436444748928e-02
6.089326200863921790e-02
6.089921875825481112e-02
6.090517461282818346e-02
6.091112957189317306e-02
6.091708363498351403e-02
6.092303680163278085e-02
6.092898907137441616e-02
6.093494044374174468e-02
6.094089091826792454e-02
6.094684049448598206e-02
6.095278917192877705e-02
6.095873695012905824e-02
6.096468382861946339e-02
6.097062980693247064e-02
6.097657488460036385e-02
6.098251906115528115e-02
6.098846233612924966e-02
6.099440470905415773e-02
6.100034617946178267e-02
6.100628674688379077e-02
6.101222641085168180e-02
6.101816517089680980e-02
6.102410302655038310e-02
6.103003997734347125e-02
6.103597602280703277e-02
6.104191116247188048e-02
6.104784539586873698e-02
6.105377872252821386e-02
6.105971114198083249e-02
6.106564265375694078e-02
6.107157325738676867e-02
6.107750295240040039e-02
6.108343173832778139e-02
6.108935961469870446e-02
6.109528658104283749e-02
6.110121263688973736e-02
6.110713778176878747e-02
6.111306201520921855e-02
6.111898533674013645e-02
6.112490774589052211e-02
6.113082924218921077e-02
6.113674982516489192e-02
6.114266949434606774e-02
6.114858824926105996e-02
6.115450608943801686e-02
6.116042301440496182e-02
6.116633902368976555e-02
6.117225411682011837e-02
6.117816829332355794e-02
6.118408155272746229e-02
6.118999389455902216e-02
6.119590531834530334e-02
6.120181582361319123e-02
6.120772540988943938e-02
6.121363407670063483e-02
6.121954182357315644e-02
6.122544865003323039e-02
6.123135455560691637e-02
6.123725953982008668e-02
6.124316360219848182e-02
6.124906674226767572e-02
6.125496895955313131e-02
6.126087025358009641e-02
6.126677062387368700e-02
6.127267006995885251e-02
6.127856859136040363e-02
6.128446618760301223e-02
6.129036285821115593e-02
6.129625860270917354e-02
6.130215342062123735e-02
6.130804731147140169e-02
6.131394027478354741e-02
6.131983231008136109e-02
6.132572341688836276e-02
6.133161359472789897e-02
6.133750284312313589e-02
6.134339116159706617e-02
6.134927854967253680e-02
6.135516500687222124e-02
6.136105053271864729e-02
6.136693512673416229e-02
6.137281878844094013e-02
6.137870151736097429e-02
6.138458331301609866e-02
6.139046417492797364e-02
6.139634410261805841e-02
6.140222309560765257e-02
6.140810115341784059e-02
6.141397827556955430e-02
6.141985446158353817e-02
6.142572971098037710e-02
6.143160402328047553e-02
6.143747739800405061e-02
6.144334983467115291e-02
6.144922133280164567e-02
6.145509189191517702e-02
6.146096151153122855e-02
6.146683019116906677e-02
6.147269793034776386e-02
6.147856472858621857e-02
6.148443058540311451e-02
6.149029550031694102e-02
6.149615947284601397e-02
6.150202250250848268e-02
6.150788458882232301e-02
6.151374573130533735e-02
6.151960592947516154e-02
6.152546518284923022e-02
6.153132349094479758e-02
6.153718085327894438e-02
6.154303726936855012e-02
6.154889273873028616e-02
6.155474726088061566e-02
6.156060083533579363e-02
6.156645346161186694e-02
6.157230513922467424e-02
6.157815586768987381e-02
6.158400564652293657e-02
6.158985447523914608e-02
6.159570235335354998e-02
6.160154928038100858e-02
6.160739525583616011e-02
6.161324027923342078e-02
6.161908435008699170e-02
6.162492746791085885e-02
6.163076963221877924e-02
6.163661084252426009e-02
6.164245109834062125e-02
6.164829039918095360e-02
6.165412874455807046e-02
6.165996613398456311e-02
6.166580256697284240e-02
6.167163804303506247e-02
6.167747256168309294e-02
6.168330612242857447e-02
6.168913872478291871e-02
6.169497036825727365e-02
6.170080105236252360e-02
6.170663077660931695e-02
6.171245954050809390e-02
6.171828734356907958e-02
6.172411418530225624e-02
6.172994006521734245e-02
6.173576498282378616e-02
6.174158893763079248e-02
6.174741192914729587e-02
6.175323395688198103e-02
6.175905502034328975e-02
6.176487511903938632e-02
6.177069425247817824e-02
6.177651242016730243e-02
6.178232962161414599e-02
6.178814585632586009e-02
6.179396112380931144e-02
6.179977542357114467e-02
6.180558875511771993e-02
6.181140111795516145e-02
6.181721251158933672e-02
6.182302293552585648e-02
6.182883238927008862e-02
6.183464087232713041e-02
6.184044838420184320e-02
6.184625492439882466e-02
6.185206049242240878e-02
6.185786508777665893e-02
6.186366870996538869e-02
6.186947135849213408e-02
6.187527303286013275e-02
6.188107373257235172e-02
6.188687345713148047e-02
6.189267220603993092e-02
6.189846997879983048e-02
6.190426677491302210e-02
6.191006259388104338e-02
6.191585743520511970e-02
6.192165129838624049e-02
6.192744418292511072e-02
6.193323608832215083e-02
6.193902701407751066e-02
6.194481695969104168e-02
6.195060592466231086e-02
6.195639390849060069e-02
6.196218091067492301e-02
6.196796693071401213e-02
6.197375196810629705e-02
6.197953602234990839e-02
6.198531909294267839e-02
6.199110117938213399e-02
6.199688228116546906e-02
6.200266239778959299e-02
6.200844152875110288e-02
6.201421967354629056e-02
6.201999683167111477e-02
6.202577300262122201e-02
6.203154818589191183e-02
6.203732238097819235e-02
6.204309558737478025e-02
6.204886780457607304e-02
6.205463903207614207e-02
6.206040926936876034e-02
6.206617851594735391e-02
6.207194677130500188e-02
6.207771403493445722e-02
6.208348030632810516e-02
6.208924558497797008e-02
6.209500987037575026e-02
6.210077316201280395e-02
6.210653545938014941e-02
6.211229676196844407e-02
6.211805706926800535e-02
6.212381638076877599e-02
6.212957469596033094e-02
6.213533201433187741e-02
6.214108833537226873e-02
6.214684365857000431e-02
6.215259798341324360e-02
6.215835130938977132e-02
6.216410363598698363e-02
6.216985496269188810e-02
6.217560528899113148e-02
6.218135461437095113e-02
6.218710293831725827e-02
6.219285026031562413e-02
6.219859657985127993e-02
6.220434189640909606e-02
6.221008620947357515e-02
6.221582951852887289e-02
6.222157182305877027e-02
6.222731312254667357e-02
6.223305341647564215e-02
6.223879270432830513e-02
6.224453098558691694e-02
6.225026825973337813e-02
6.225600452624920067e-02
6.226173978461548714e-02
6.226747403431293071e-02
6.227320727482180823e-02
6.227893950562200104e-02
6.228467072619296718e-02
6.229040093601374839e-02
6.229613013456301862e-02
6.230185832131902163e-02
6.230758549575962646e-02
6.231331165736232747e-02
6.231903680560421654e-02
6.232476093996201089e-02
6.233048405991201829e-02
6.233620616493016492e-02
6.234192725449193978e-02
6.234764732807244331e-02
6.235336638514633184e-02
6.235908442518778988e-02
6.236480144767055783e-02
6.237051745206795283e-02
6.237623243785288957e-02
6.238194640449783168e-02
6.238765935147479180e-02
6.239337127825535234e-02
6.239908218431066550e-02
6.240479206911144633e-02
6.241050093212792416e-02
6.241620877282989810e-02
6.242191559068669543e-02
6.242762138516717851e-02
6.243332615573976563e-02
6.243902990187239627e-02
6.244473262303257277e-02
6.245043431868732564e-02
6.245613498830319965e-02
6.246183463134623304e-02
6.246753324728201995e-02
6.247323083557570350e-02
6.247892739569196885e-02
6.248462292709504318e-02
6.249031742924871652e-02
6.249601090161628625e-02
6.250170334366056402e-02
6.250739475484387575e-02
6.251308513462808247e-02
6.251877448247457336e-02
6.252446279784426575e-02
6.253015008019763288e-02
6.253583632899467615e-02
6.254152154369492511e-02
6.254720572375738197e-02
6.255288886864052156e-02
6.255857097780229137e-02
6.256425205070018092e-02
6.256993208679116625e-02
6.257561108553173768e-02
6.258128904637789980e-02
6.258696596878518537e-02
6.259264185220862753e-02
6.259831669610278759e-02
6.260399049992169951e-02
6.260966326311885599e-02
6.261533498514725016e-02
6.262100566545937552e-02
6.262667530350719824e-02
6.263234389874212937e-02
6.263801145061512199e-02
6.264367795857664345e-02
6.264934342207659212e-02
6.265500784056438066e-02
6.266067121348894986e-02
6.266633354029871317e-02
6.267199482044151504e-02
6.267765505336471421e-02
6.268331423851511430e-02
6.268897237533900546e-02
6.269462946328213659e-02
6.270028550178970150e-02
6.270594049030638051e-02
6.271159442827629882e-02
6.271724731514309592e-02
6.272289915034988395e-02
6.272854993333920604e-02
6.273419966355306410e-02
6.273984834043286329e-02
6.274549596341952307e-02
6.275114253195340774e-02
6.275678804547431267e-02
6.276243250342151969e-02
6.276807590523379721e-02
6.277371825034935848e-02
6.277935953820583392e-02
6.278499976824034046e-02
6.279063893988943990e-02
6.279627705258909731e-02
6.280191410577469491e-02
6.280755009888101814e-02
6.281318503134231124e-02
6.281881890259229106e-02
6.282445171206417489e-02
6.283008345919063875e-02
6.283571414340380357e-02
6.284134376413522127e-02
6.284697232081588869e-02
6.285259981287620590e-02
6.285822623974605949e-02
6.286385160085476709e-02
6.286947589563106342e-02
6.287509912350311425e-02
6.288072128389848858e-02
6.288634237624417256e-02
6.289196239996652782e-02
6.289758135449140253e-02
6.290319923924403422e-02
6.290881605364913309e-02
6.291443179713079870e-02
6.292004646911253385e-02
6.292566006901730014e-02
6.293127259626747627e-02
6.293688405028484423e-02
6.294249443049058923e-02
6.294810373630535527e-02
6.295371196714924511e-02
6.295931912244177864e-02
6.296492520160187900e-02
6.297053020404781709e-02
6.297613412919728093e-02
6.298173697646740343e-02
6.298733874527473464e-02
6.299293943503526949e-02
6.299853904516447556e-02
6.300413757507719592e-02
6.300973502418767691e-02
6.301533139190959587e-02
6.302092667765603340e-02
6.302652088083945947e-02
6.303211400087180283e-02
6.303770603716436771e-02
6.304329698912787550e-02
6.304888685617243693e-02
6.305447563770753827e-02
6.306006333314199963e-02
6.306564994188401663e-02
6.307123546334122977e-02
6.307681989692065505e-02
6.308240324202869787e-02
6.308798549807119460e-02
6.309356666445339878e-02
6.309914674057996720e-02
6.310472572585497375e-02
6.311030361968189561e-02
6.311588042146364097e-02
6.312145613060252125e-02
6.312703074650030666e-02
6.313260426855815677e-02
6.313817669617660666e-02
6.314374802875559467e-02
6.314931826569436524e-02
6.315488740639162157e-02
6.316045545024547014e-02
6.316602239665340679e-02
6.317158824501233061e-02
6.317715299471851620e-02
6.318271664516762753e-02
6.318827919575471797e-02
6.319384064587427186e-02
6.319940099492012131e-02
6.320496024228551557e-02
6.321051838736309325e-02
6.321607542954488235e-02
6.322163136822228635e-02
6.322718620278616752e-02
6.323273993262677750e-02
6.323829255713379893e-02
6.324384407569634547e-02
6.324939448770292016e-02
6.325494379254138766e-02
6.326049198959900199e-02
6.326603907826240658e-02
6.327158505791764809e-02
6.327712992795020419e-02
6.328267368774496970e-02
6.328821633668622881e-02
6.329375787415768284e-02
6.329929829954240861e-02
6.330483761222291395e-02
6.331037581158101279e-02
6.331591289699788072e-02
6.332144886785413818e-02
6.332698372352983662e-02
6.333251746340440302e-02
6.333805008685668148e-02
6.334358159326490545e-02
6.334911198200664229e-02
6.335464125245883482e-02
6.336016940399785691e-02
6.336569643599947177e-02
6.337122234783883201e-02
6.337674713889046574e-02
6.338227080852827655e-02
6.338779335612555743e-02
6.339331478105499074e-02
6.339883508268870371e-02
6.340435426039819911e-02
6.340987231355432741e-02
6.341538924152727297e-02
6.342090504368665116e-02
6.342641971940145285e-02
6.343193326804003052e-02
6.343744568897011216e-02
6.344295698155880125e-02
6.344846714517261843e-02
6.345397617917751532e-02
6.345948408293879128e-02
6.346499085582110733e-02
6.347049649718849995e-02
6.347600100640438114e-02
6.348150438283158004e-02
6.348700662583227350e-02
6.349250773476805554e-02
6.349800770899995117e-02
6.350350654788837479e-02
6.350900425079314404e-02
6.351450081707352147e-02
6.351999624608811734e-02
6.352549053719487582e-02
6.353098368975106103e-02
6.353647570311332649e-02
6.354196657663771508e-02
6.354745630967970071e-02
6.355294490159417442e-02
6.355843235173543049e-02
6.356391865945715258e-02
6.356940382411244150e-02
6.357488784505377355e-02
6.358037072163302827e-02
6.358585245320144685e-02
6.359133303910970147e-02
6.359681247870788146e-02
6.360229077134556264e-02
6.360776791637169636e-02
6.361324391313465110e-02
6.361871876098217082e-02
6.362419245926143052e-02
6.362966500731900843e-02
6.363513640450089992e-02
6.364060665015251750e-02
6.364607574361870468e-02
6.365154368424368048e-02
6.365701047137103941e-02
6.366247610434380699e-02
6.366794058250442589e-02
6.367340390519472815e-02
6.367886607175596292e-02
6.368432708152876875e-02
6.368978693385315970e-02
6.369524562806858081e-02
6.370070316351386652e-02
6.370615953952728228e-02
6.371161475544652453e-02
6.371706881060870686e-02
6.372252170435031837e-02
6.372797343600727915e-02
6.373342400491495419e-02
6.373887341040812560e-02
6.374432165182102039e-02
6.374976872848722720e-02
6.375521463973971015e-02
6.376065938491086438e-02
6.376610296333251604e-02
6.377154537433593617e-02
6.377698661725181295e-02
6.378242669141027943e-02
6.378786559614084417e-02
6.379330333077241899e-02
6.379873989463330508e-02
6.380417528705124852e-02
6.380960950735338477e-02
6.381504255486632193e-02
6.382047442891608524e-02
6.382590512882811706e-02
6.383133465392730466e-02
6.383676300353792465e-02
6.384219017698375409e-02
6.384761617358800101e-02
6.385304099267333222e-02
6.385846463356180391e-02
6.386388709557493104e-02
6.386930837803365957e-02
6.387472848025833871e-02
6.388014740156872096e-02
6.388556514128397590e-02
6.389098169872270416e-02
6.389639707320295126e-02
6.390181126404224921e-02
6.390722427055753330e-02
6.391263609206523921e-02
6.391804672788127528e-02
6.392345617732099472e-02
6.392886443969918175e-02
6.393427151433007938e-02
6.393967740052737547e-02
6.394508209760420281e-02
6.395048560487315292e-02
6.395588792164630387e-02
6.396128904723516473e-02
6.396668898095068945e-02
6.397208772210326300e-02
6.397748527000268748e-02
6.398288162395814049e-02
6.398827678327827229e-02
6.399367074727119187e-02
6.399906351524442538e-02
6.400445508650492998e-02
6.400984546035912159e-02
6.401523463611290266e-02
6.402062261307162050e-02
6.402600939054006735e-02
6.403139496782256357e-02
6.403677934422288831e-02
6.404216251904433499e-02
6.404754449158969742e-02
6.405292526116124208e-02
6.405830482706074969e-02
6.406368318858948752e-02
6.406906034504816772e-02
6.407443629573700283e-02
6.407981103995570582e-02
6.408518457700347615e-02
6.409055690617898593e-02
6.409592802678036605e-02
6.410129793810522003e-02
6.410666663945063792e-02
6.411203413011323793e-02
6.411740040938912477e-02
6.412276547657388970e-02
6.412812933096259660e-02
6.413349197184980977e-02
6.413885339852963552e-02
6.414421361029568058e-02
6.414957260644103820e-02
6.415493038625827427e-02
6.416028694903939955e-02
6.416564229407591136e-02
6.417099642065883514e-02
6.417634932807873838e-02
6.418170101562571672e-02
6.418705148258940785e-02
6.419240072825896370e-02
6.419774875192307828e-02
6.420309555287000147e-02
6.420844113038741419e-02
6.421378548376248385e-02
6.421912861228194769e-02
6.422447051523205719e-02
6.422981119189852262e-02
6.423515064156654075e-02
6.424048886352085042e-02
6.424582585704570470e-02
6.425116162142492648e-02
6.425649615594185293e-02
6.426182945987934936e-02
6.426716153251979535e-02
6.427249237314515418e-02
6.427782198103697275e-02
6.428315035547631229e-02
6.428847749574380377e-02
6.429380340111963410e-02
6.429912807088354609e-02
6.430445150431483847e-02
6.430977370069239363e-02
6.431509465929462210e-02
6.432041437939950423e-02
6.432573286028461790e-02
6.433105010122709688e-02
6.433636610150364477e-02
6.434168086039054879e-02
6.434699437716366599e-02
6.435230665109842318e-02
6.435761768146983086e-02
6.436292746755249705e-02
6.436823600862066896e-02
6.437354330394816360e-02
6.437884935280832610e-02
6.438415415447408530e-02
6.438945770821792591e-02
6.439476001331193022e-02
6.440006106902775029e-02
6.440536087463660797e-02
6.441065942940936428e-02
6.441595673261647781e-02
6.442125278352803242e-02
6.442654758141373728e-02
6.443184112554287135e-02
6.443713341518436666e-02
6.444242444960678051e-02
6.444771422807830941e-02
6.445300274986678901e-02
6.445829001423970805e-02
6.446357602046415280e-02
6.446886076780682095e-02
6.447414425553406325e-02
6.447942648291192513e-02
6.448470744920606346e-02
6.448998715368176038e-02
6.449526559560395111e-02
6.450054277423725169e-02
6.450581868884593117e-02
6.451109333869387008e-02
6.451636672304458808e-02
6.452163884116124404e-02
6.452690969230667761e-02
6.453217927574336765e-02
6.453744759073344606e-02
6.454271463653872554e-02
6.454798041242068574e-02
6.455324491764043160e-02
6.455850815145873500e-02
6.456377011313602088e-02
6.456903080193235334e-02
6.457429021710747730e-02
6.457954835792081849e-02
6.458480522363144183e-02
6.459006081349805140e-02
6.459531512677903209e-02
6.460056816273244962e-02
6.460581992061600887e-02
6.461107039968709553e-02
6.461631959920276225e-02
6.462156751841975633e-02
