Control Box No.76(Total),CH1,CH2,CH3,CH4,CH5,CH6,CH7,CH8,CH9,CH10,CH11,CH12,CH13,CH14,CH15,CH16,CH17,CH18,CH19,CH20,CH21,CH22,Mark,Time,PreScan,HbOffset
1,0.00000000,0.00000000,0.00000000,0.21871063,0.20409237,0.09339710,0.48985547,0.04927714,-0.04886742,0.20508388,0.00000000,0.05367937,-0.08724114,0.34409136,-0.06951790,0.07378279,0.00000000,0.00000000,-0.02103081,0.00000000,0.00000000,0.00000000,0,18:46:33.0,0,0
2,0.00000000,0.00000000,0.00000000,0.21079469,0.25445950,0.03146601,0.35254997,-0.14620425,-0.02484996,0.05579144,0.00000000,0.03928894,-0.14391240,3.25261045,-0.04317351,-0.00272961,0.00000000,0.00000000,0.01005096,0.00000000,0.00000000,0.00000000,0,18:46:33.0,0,0
3,0.00000000,0.00000000,0.00000000,0.23459411,0.27913970,0.10426593,0.28804287,-0.14620425,-0.03994393,0.27294654,0.00000000,0.13971601,-0.14391240,0.34409136,-0.00679951,0.07378279,0.00000000,0.00000000,-0.00774782,0.00000000,0.00000000,0.00000000,0,18:46:33.0,0,0
4,0.00000000,0.00000000,0.00000000,0.24259900,0.19302848,0.05319254,0.19322293,0.24162953,-0.05089895,0.20508388,0.00000000,0.09470633,0.21289831,-1.23711920,-0.04756584,-0.15637089,0.00000000,0.00000000,-0.00333036,0.00000000,0.00000000,0.00000000,0,18:46:34.0,0,0
5,0.00000000,0.00000000,0.00000000,0.21871063,0.27669245,0.01258421,0.19409429,-0.32119155,-0.02814238,0.07153638,0.00000000,-0.00714141,1.29399014,-1.23711920,-0.12111631,-0.15637089,0.00000000,0.00000000,0.01552496,0.00000000,0.00000000,0.00000000,0,18:46:34.0,0,0
6,0.00000000,0.00000000,0.00000000,0.30011666,0.31228614,0.04216072,0.08253916,-0.14620425,-0.04353019,0.18020338,0.00000000,0.09974548,0.18522254,3.25261045,-0.02944490,-0.08276336,0.00000000,0.00000000,0.00441494,0.00000000,0.00000000,0.00000000,0,18:46:34.0,0,0
7,0.00000000,0.00000000,0.00000000,0.25754696,0.20269004,0.08024439,0.10714430,0.04927714,-0.03803271,0.23942772,0.00000000,0.11803912,-0.05041268,0.34409136,-0.01684889,-0.00272961,0.00000000,0.00000000,-0.00557874,0.00000000,0.00000000,0.00000000,0,18:46:34.0,0,0
8,0.00000000,0.00000000,0.00000000,0.27255088,0.34437871,0.02310281,0.23102532,0.44368434,-0.02250040,0.00689068,0.00000000,0.03827879,0.25006753,0.34409136,-0.08420332,0.31796753,0.00000000,0.00000000,0.02193532,0.00000000,0.00000000,0.00000000,0,18:46:34.0,0,0
9,0.00000000,0.00000000,0.00000000,0.25754696,0.21683243,0.00746948,0.13933431,-0.32119155,-0.00342877,-0.00759028,0.00000000,-0.07096192,0.18113387,-1.23711920,-0.15482335,-0.22865002,0.00000000,0.00000000,-0.01977427,0.00000000,0.00000000,0.00000000,0,18:46:35.0,0,0
10,0.00000000,0.00000000,0.00000000,0.23535430,0.27669245,0.07124387,0.20381947,0.24162953,-0.01046787,0.26530987,0.00000000,0.10153319,0.05723262,0.00000000,-0.01454217,0.07378279,0.00000000,0.00000000,-0.01106099,0.00000000,0.00000000,0.00000000,0,18:46:35.0,0,0
11,0.00000000,0.00000000,0.00000000,0.26618573,0.29333222,0.07256506,0.37882298,0.24162953,-0.03746013,0.12985732,0.00000000,0.09589352,0.25006753,-1.23711920,-0.03429263,0.15178484,0.00000000,0.00000000,-0.02946428,0.00000000,0.00000000,0.00000000,0,18:46:35.0,0,0
12,0.00000000,0.00000000,0.00000000,0.24954203,0.19904919,0.03629934,0.35323966,0.04927714,0.02544368,0.10442102,0.00000000,0.01866827,-0.36115855,-1.23711920,-0.09328469,-0.08276336,0.00000000,0.00000000,-0.03278254,0.00000000,0.00000000,0.00000000,0,18:46:35.0,0,0
13,0.00000000,0.00000000,0.00000000,0.30444545,0.30683041,0.01871145,0.32478878,-0.14620425,0.00197984,0.05589511,0.00000000,-0.09423744,-0.28243667,-1.23711920,-0.14036715,-0.00272961,0.00000000,0.00000000,-0.00449169,0.00000000,0.00000000,0.00000000,0,18:46:35.0,0,0
14,0.00000000,0.00000000,0.00000000,0.24880102,0.39219368,0.04098235,0.29689148,0.44368434,-0.00822261,0.21369191,0.00000000,0.09248988,-0.14391240,-1.23711920,-0.02545922,-0.08276336,0.00000000,0.00000000,-0.05140623,0.00000000,0.00000000,0.00000000,0,18:46:36.0,0,0
15,0.00000000,0.00000000,0.00000000,0.25754696,0.39309880,0.05099525,0.19090377,-0.14620425,-0.00942149,0.22277310,0.00000000,0.07870482,0.18113387,3.25261045,-0.08420332,-0.08276336,0.00000000,0.00000000,-0.03608536,0.00000000,0.00000000,0.00000000,0,18:46:36.0,0,0
16,0.00000000,0.00000000,0.00000000,0.25754696,0.20269004,-0.01285913,0.03538005,0.04927714,-0.01249645,0.11261615,0.00000000,-0.00992034,-0.14391240,-1.23711920,-0.09031292,-0.08276336,0.00000000,0.00000000,-0.07002693,0.00000000,0.00000000,0.00000000,0,18:46:36.0,0,0
17,0.00000000,0.00000000,0.00000000,0.22671553,0.24730541,-0.04892344,0.07974985,-0.32119155,0.00675470,-0.08115999,0.00000000,-0.10170180,-0.34119594,-1.23711920,-0.14137024,-0.15637089,0.00000000,0.00000000,-0.05580315,0.00000000,0.00000000,0.00000000,0,18:46:36.0,0,0
18,0.00000000,0.00000000,0.00000000,0.21884917,0.34786856,0.00175236,-0.00250983,0.04927714,-0.02432293,0.08020020,0.00000000,0.07207075,0.19339621,-2.36790395,-0.05283870,-0.00272961,0.00000000,0.00000000,-0.08148493,0.00000000,0.00000000,0.00000000,0,18:46:36.0,0,0
19,0.00000000,0.00000000,0.00000000,0.26618573,0.30852672,0.03056658,-0.01093993,0.04927714,-0.01365811,0.13835196,0.00000000,0.04812344,-0.55762815,-1.23711920,-0.04620353,-0.22865002,0.00000000,0.00000000,-0.00774782,0.00000000,0.00000000,0.00000000,0,18:46:37.0,0,0
20,0.00000000,0.00000000,0.00000000,0.28267127,0.30402812,-0.02856068,0.08747770,0.24162953,0.00476456,0.03232698,0.00000000,-0.03011278,0.07875645,0.34409136,-0.11129732,-0.15637089,0.00000000,0.00000000,0.00441494,0.00000000,0.00000000,0.00000000,0,18:46:37.0,0,0
21,0.00000000,0.00000000,0.00000000,0.26618573,0.14043418,-0.01140962,0.08092913,0.04927714,-0.00342113,0.10442102,0.00000000,-0.02103809,-0.14391240,-1.23711920,-0.04030696,-0.08276336,0.00000000,0.00000000,0.02301240,0.00000000,0.00000000,0.00000000,0,18:46:37.0,0,0
22,0.00000000,0.00000000,0.00000000,0.18237822,-0.03766401,0.04926729,-0.03389309,-0.32119155,0.01675849,0.12211099,0.00000000,0.10846847,0.09172285,0.34409136,-0.01198941,-0.08276336,0.00000000,0.00000000,-0.00005393,0.00000000,0.00000000,0.00000000,0,18:46:37.0,0,0
23,0.00000000,0.00000000,0.00000000,0.26386172,0.16248442,0.04734207,0.20430821,0.24162953,-0.00717789,0.17112572,0.00000000,0.03943577,-0.16988492,0.34409136,-0.04996051,-0.08276336,0.00000000,0.00000000,-0.08386261,0.00000000,0.00000000,0.00000000,0,18:46:37.0,0,0
24,0.00000000,0.00000000,0.00000000,0.06458625,0.59905440,-0.10973717,0.29404360,-0.14620425,0.06468455,0.06421829,0.00000000,-0.10210511,0.12754560,0.34409136,-0.12214212,0.15178484,0.00000000,0.00000000,-0.14181142,0.00000000,0.00000000,0.00000000,0,18:46:38.0,0,0
25,0.00000000,0.00000000,0.00000000,-0.20483553,0.69268417,-0.10524473,0.31343243,0.24162953,-0.00684888,0.12985732,0.00000000,-0.06078490,-0.08724114,-1.23711920,-0.04996051,0.07378279,0.00000000,0.00000000,-0.11957055,0.00000000,0.00000000,0.00000000,0,18:46:38.0,0,0
26,0.00000000,0.00000000,0.00000000,-0.39719266,0.81309199,-0.12348188,0.14981121,-0.14620425,0.00591305,0.20532772,0.00000000,-0.00158757,1.00889540,0.34409136,-0.02170224,-0.29964831,0.00000000,0.00000000,-0.17294696,0.00000000,0.00000000,0.00000000,0,18:46:38.0,0,0
27,0.00000000,0.00000000,0.00000000,-0.19016953,0.43449235,-0.04941851,-0.02979787,0.24162953,0.00751659,0.15464017,0.00000000,-0.00030700,-0.05740720,-2.36790395,-0.05991141,-0.22865002,0.00000000,0.00000000,-0.16971862,0.00000000,0.00000000,0.00000000,0,18:46:38.0,0,0
28,0.00000000,0.00000000,0.00000000,0.07581346,0.17249016,-0.07048480,-0.19060713,0.04927714,0.01753269,-0.09734179,0.00000000,-0.08029869,-0.10629316,-1.23711920,-0.13665067,-0.15637089,0.00000000,0.00000000,-0.15366372,0.00000000,0.00000000,0.00000000,0,18:46:38.0,0,0
29,0.00000000,0.00000000,0.00000000,0.12163641,0.13017955,-0.05270325,-0.04359514,0.24162953,0.00835442,0.07200506,0.00000000,-0.03173319,-0.08724114,3.25261045,-0.05394620,0.23133540,0.00000000,0.00000000,-0.19494751,0.00000000,0.00000000,0.00000000,0,18:46:39.0,0,0
30,0.00000000,0.00000000,0.00000000,0.18813214,0.12663843,-0.00983984,-0.08519709,0.24162953,-0.00545343,0.23870690,0.00000000,0.04839456,0.46424389,3.25261045,-0.01454217,-0.15637089,0.00000000,0.00000000,-0.18857592,0.00000000,0.00000000,0.00000000,0,18:46:39.0,0,0
31,0.00000000,0.00000000,0.00000000,0.15744086,0.11298718,-0.00972104,-0.12905777,-0.48885497,0.01438089,0.06409024,0.00000000,0.00755940,-0.10629316,-1.23711920,-0.05615444,-0.00272961,0.00000000,0.00000000,-0.19280928,0.00000000,0.00000000,0.00000000,0,18:46:39.0,0,0
32,0.00000000,0.00000000,0.00000000,0.27173132,0.31556365,-0.04208770,-0.04477706,0.04927714,0.03647276,-0.06608084,0.00000000,-0.10895866,0.13751572,0.34409136,-0.09406990,-0.08276336,0.00000000,0.00000000,-0.34325173,0.00000000,0.00000000,0.00000000,0,18:46:39.0,0,0
33,0.00000000,0.00000000,0.00000000,0.37446439,0.44900009,0.01295196,0.04135214,0.24162953,0.01219655,0.11261615,0.00000000,-0.00747389,1.18931150,0.34409136,0.00407615,-0.00272961,0.00000000,0.00000000,-0.26840138,0.00000000,0.00000000,0.00000000,0,18:46:39.0,0,0
34,0.00000000,0.00000000,0.00000000,0.46967524,0.19904919,0.06495000,-0.01343365,-0.14620425,0.03436531,0.23041648,0.00000000,0.00996862,0.36979091,0.34409136,-0.01574638,-0.00272961,0.00000000,0.00000000,-0.32595947,0.00000000,0.00000000,0.00000000,0,18:46:40.0,0,0
35,0.00000000,0.00000000,0.00000000,0.47862595,0.08582407,0.01675386,0.04573721,0.04927714,0.02601791,0.11361636,0.00000000,-0.07203247,0.35008848,0.34409136,-0.04756584,-0.00272961,0.00000000,0.00000000,-0.33418173,0.00000000,0.00000000,0.00000000,0,18:46:40.0,0,0
36,0.00000000,0.00000000,0.00000000,0.39807525,-0.02643553,-0.07169709,-0.05564129,-0.32119155,0.07358302,0.04697713,0.00000000,-0.13729417,-0.22655618,3.25261045,-0.07566368,-0.00272961,0.00000000,0.00000000,-0.28370094,0.00000000,0.00000000,0.00000000,0,18:46:40.0,0,0
37,0.00000000,0.00000000,0.00000000,0.38265955,0.11556723,0.00888159,0.05322379,0.65647268,0.00682789,0.07954129,0.00000000,0.05959601,0.00135213,-1.23711920,0.02662316,0.40092215,0.00000000,0.00000000,-0.27949914,0.00000000,0.00000000,0.00000000,0,18:46:40.0,0,0
38,0.00000000,0.00000000,0.00000000,0.38871208,0.11298718,-0.03715656,-0.08814344,0.04927714,0.02583790,0.18763848,0.00000000,0.03085444,0.00625857,-1.23711920,-0.00192806,-0.00272961,0.00000000,0.00000000,-0.40037668,0.00000000,0.00000000,0.00000000,0,18:46:40.0,0,0
39,0.00000000,0.00000000,0.00000000,0.34404132,0.09993343,-0.08061399,-0.15257198,0.65647268,0.04448274,-0.03332609,0.00000000,-0.02672262,0.07875645,-1.23711920,-0.05509964,-0.29964831,0.00000000,0.00000000,-0.29925954,0.00000000,0.00000000,0.00000000,0,18:46:41.0,0,0
40,0.00000000,0.00000000,0.00000000,0.23459411,0.09938261,-0.11582302,-0.25152728,0.04927714,0.02522955,0.13001215,0.00000000,0.03755131,-0.41991788,-1.23711920,0.03677249,-0.29964831,0.00000000,0.00000000,-0.23897132,0.00000000,0.00000000,0.00000000,0,18:46:41.0,0,0
41,0.00000000,0.00000000,0.00000000,0.21884917,0.11298718,-0.08587187,-0.09385704,0.04927714,0.00964000,0.21358256,0.00000000,0.13037899,-0.14391240,0.34409136,0.07238823,0.07378279,0.00000000,0.00000000,-0.17609105,0.00000000,0.00000000,0.00000000,0,18:46:41.0,0,0
42,0.00000000,0.00000000,0.00000000,0.16509604,0.12352495,-0.11743888,-0.20436613,0.04927714,0.00885829,0.11261615,0.00000000,0.09132826,0.49535298,-1.23711920,0.00564578,-0.15637089,0.00000000,0.00000000,-0.11850495,0.00000000,0.00000000,0.00000000,0,18:46:41.0,0,0
43,0.00000000,0.00000000,0.00000000,0.11380742,0.17933163,-0.14214250,-0.26814532,0.04927714,0.04306719,-0.06582076,0.00000000,-0.00254678,-0.36645544,0.34409136,-0.05338684,-0.15637089,0.00000000,0.00000000,-0.03301987,0.00000000,0.00000000,0.00000000,0,18:46:41.0,0,0
44,0.00000000,0.00000000,0.00000000,0.12955235,0.13017955,-0.13982494,-0.14957459,-0.32119155,0.01849813,0.18007648,0.00000000,0.13400061,0.43659377,0.34409136,0.06671537,-0.08276336,0.00000000,0.00000000,-0.02210946,0.00000000,0.00000000,0.00000000,0,18:46:42.0,0,0
45,0.00000000,0.00000000,0.00000000,0.09789500,0.11995424,-0.11503176,-0.03710975,-0.14620425,0.00041021,0.18007648,0.00000000,0.15819451,-0.19979288,-1.23711920,0.06556145,-0.00272961,0.00000000,0.00000000,-0.08599854,0.00000000,0.00000000,0.00000000,0,18:46:42.0,0,0
46,0.00000000,0.00000000,0.00000000,0.10488159,0.14125073,-0.11899525,-0.12735707,0.04927714,0.04939941,0.03133549,0.00000000,0.06667709,1.34987068,3.25261045,-0.01307206,-0.00272961,0.00000000,0.00000000,-0.11849342,0.00000000,0.00000000,0.00000000,0,18:46:42.0,0,0
47,0.00000000,0.00000000,0.00000000,0.15081075,0.15962809,-0.15423441,-0.04610032,-0.32119155,0.03505176,-0.01465394,0.00000000,-0.03729588,-0.08202791,0.34409136,-0.07463227,-0.00272961,0.00000000,0.00000000,-0.06883344,0.00000000,0.00000000,0.00000000,0,18:46:42.0,0,0
48,0.00000000,0.00000000,0.00000000,0.03257919,0.24131607,-0.17393541,-0.05010718,0.04927714,0.01971454,0.16283531,0.00000000,0.17631015,-0.16988492,-1.23711920,0.10009724,0.07378279,0.00000000,0.00000000,0.17200062,0.00000000,0.00000000,0.00000000,0,18:46:42.0,0,0
49,0.00000000,0.00000000,0.00000000,-0.32871011,0.34505847,-0.21382287,-0.01770000,0.24162953,-0.03060332,0.03135923,0.00000000,0.17297404,-0.10629316,3.25261045,0.05448876,0.23133540,0.00000000,0.00000000,0.45946240,0.00000000,0.00000000,0.00000000,0,18:46:43.0,0,0
50,0.00000000,0.00000000,0.00000000,-0.25987524,0.25090426,-0.25710064,-0.25470865,0.24162953,-0.00012296,-0.05816490,0.00000000,0.06740163,-0.08202791,-1.23711920,-0.01792541,0.23133540,0.00000000,0.00000000,0.33010691,0.00000000,0.00000000,0.00000000,0,18:46:43.0,0,0
51,0.00000000,0.00000000,0.00000000,-0.26746219,0.17933163,-0.30245328,-0.29302645,0.04927714,0.01548686,-0.14547662,0.00000000,-0.02551127,-0.13767576,0.34409136,-0.02170224,-0.22865002,0.00000000,0.00000000,0.37276423,0.00000000,0.00000000,0.00000000,0,18:46:43.0,0,0
52,0.00000000,0.00000000,0.00000000,-0.24542829,0.29543921,-0.26615566,-0.38040748,-0.14620425,-0.03011755,0.08849062,0.00000000,0.11706197,-0.16505247,-1.23711920,0.05448876,-0.00272961,0.00000000,0.00000000,0.29830128,0.00000000,0.00000000,0.00000000,0,18:46:43.0,0,0
53,0.00000000,0.00000000,0.00000000,-0.28666931,0.17615879,-0.28249288,-0.25225616,0.24162953,-0.03282695,-0.02560377,0.00000000,0.08445680,-0.13767576,0.34409136,0.01947949,0.23133540,0.00000000,0.00000000,0.36688250,0.00000000,0.00000000,0.00000000,0,18:46:43.0,0,0
54,0.00000000,0.00000000,0.00000000,-0.24662572,0.15178850,-0.30453992,-0.35126740,-0.48885497,0.02846652,-0.12939040,0.00000000,-0.03799103,0.05723262,-1.23711920,-0.06808984,-0.29964831,0.00000000,0.00000000,0.19287372,0.00000000,0.00000000,0.00000000,0,18:46:44.0,0,0
55,0.00000000,0.00000000,0.00000000,-0.13426134,0.03665096,-0.17904620,-0.31928888,0.04927714,0.00545925,0.02280480,0.00000000,-0.02021639,-0.05740720,0.34409136,0.01418747,-0.15637089,0.00000000,0.00000000,-0.04698208,0.00000000,0.00000000,0.00000000,0,18:46:44.0,0,0
56,0.00000000,0.00000000,0.00000000,-0.14888844,0.07486895,-0.15443212,-0.21921396,0.24162953,0.00400907,-0.03443778,0.00000000,0.03757683,-0.16531044,0.34409136,0.05041624,-0.08276336,0.00000000,0.00000000,0.08143651,0.00000000,0.00000000,0.00000000,0,18:46:44.0,0,0
57,0.00000000,0.00000000,0.00000000,-0.01203688,0.31556365,-0.16291977,-0.14152569,0.24162953,-0.01514163,-0.01760386,0.00000000,0.01079917,-0.31286705,3.25261045,-0.00821258,-0.29964831,0.00000000,0.00000000,-0.19368766,0.00000000,0.00000000,0.00000000,0,18:46:44.0,0,0
58,0.00000000,0.00000000,0.00000000,-0.07745621,0.12747654,-0.16232780,-0.30259526,-0.14620425,0.05883183,-0.14372404,0.00000000,-0.16464245,-0.11172205,0.34409136,-0.09883559,-0.15637089,0.00000000,0.00000000,-0.21928102,0.00000000,0.00000000,0.00000000,0,18:46:44.0,0,0
59,0.00000000,0.00000000,0.00000000,-0.04158141,0.09356776,-0.10377462,-0.10522601,0.44368434,-0.00202702,0.04725634,0.00000000,-0.03128448,-0.39551085,0.34409136,0.01908936,-0.00272961,0.00000000,0.00000000,-0.21928102,0.00000000,0.00000000,0.00000000,0,18:46:45.0,0,0
60,0.00000000,0.00000000,0.00000000,0.00319215,0.05806530,-0.09838916,-0.11276147,0.04927714,0.02294639,0.09637520,0.00000000,-0.03123859,-0.31286705,0.34409136,0.01794444,0.07378279,0.00000000,0.00000000,-0.18247613,0.00000000,0.00000000,0.00000000,0,18:46:45.0,0,0
61,0.00000000,0.00000000,0.00000000,-0.07026934,0.14945194,-0.09675197,-0.15868419,0.04927714,0.00731846,-0.11391476,0.00000000,-0.10452896,-0.43296158,0.34409136,-0.04912221,-0.00272961,0.00000000,0.00000000,-0.11849342,0.00000000,0.00000000,0.00000000,0,18:46:45.0,0,0
62,0.00000000,0.00000000,0.00000000,-0.05617633,0.07808611,-0.15096390,-0.34242323,0.04927714,0.02709877,-0.17612137,0.00000000,-0.16063066,-0.55762815,-1.23711920,-0.02830804,-0.08276336,0.00000000,0.00000000,-0.17178726,0.00000000,0.00000000,0.00000000,0,18:46:45.0,0,0
63,0.00000000,0.00000000,0.00000000,0.07491904,0.11702439,-0.11584723,-0.18793772,0.24162953,-0.00045194,0.04697713,0.00000000,-0.03229569,0.29420805,0.34409136,0.01304854,-0.08276336,0.00000000,0.00000000,-0.24527347,0.00000000,0.00000000,0.00000000,0,18:46:45.0,0,0
64,0.00000000,0.00000000,0.00000000,0.26407614,0.39032623,-0.08712580,-0.28066471,0.04927714,0.00605852,-0.02560377,0.00000000,-0.09728836,-0.02914679,0.34409136,-0.02414052,-0.08276336,0.00000000,0.00000000,-0.43549383,0.00000000,0.00000000,0.00000000,0,18:46:46.0,0,0
65,0.00000000,0.00000000,0.00000000,0.50979668,0.46259841,-0.08001171,-0.19664615,-0.14620425,0.04172470,-0.08935514,0.00000000,-0.22051159,-0.29016411,-1.23711920,-0.11265145,-0.37401852,0.00000000,0.00000000,-0.51790076,0.00000000,0.00000000,0.00000000,0,18:46:46.0,0,0
66,0.00000000,0.00000000,0.00000000,0.60832727,0.49723539,-0.09761528,-0.25197676,-0.14620425,0.03224635,-0.10483079,0.00000000,-0.22894019,-0.21936736,3.25261045,-0.06389711,0.07378279,0.00000000,0.00000000,-0.52591527,0.00000000,0.00000000,0.00000000,0,18:46:46.0,0,0
67,0.00000000,0.00000000,0.00000000,0.52827883,0.56660062,-0.04487053,-0.18321866,-0.14620425,0.01846710,0.03929035,0.00000000,-0.07002325,-0.21819156,0.34409136,0.02172127,0.15178484,0.00000000,0.00000000,-0.23483923,0.00000000,0.00000000,0.00000000,0,18:46:46.0,0,0
68,0.00000000,0.00000000,0.00000000,0.22222745,0.51584458,-0.15453541,-0.21973191,0.04927714,0.01665588,-0.07286958,0.00000000,-0.07976887,-0.10629316,-1.23711920,-0.06389711,-0.22865002,0.00000000,0.00000000,0.12899606,0.00000000,0.00000000,0.00000000,0,18:46:46.0,0,0
69,0.00000000,0.00000000,0.00000000,0.21871063,0.51986247,-0.16395497,-0.13688341,0.04927714,0.00457192,-0.13662507,0.00000000,-0.15431151,-0.43296158,0.34409136,-0.09883559,-0.00272961,0.00000000,0.00000000,0.02330370,0.00000000,0.00000000,0.00000000,0,18:46:47.0,0,0
70,0.00000000,0.00000000,0.00000000,0.11380742,0.60408342,-0.13133323,-0.21657844,0.04927714,0.01782592,-0.05015999,0.00000000,-0.02896628,-0.27295575,3.25261045,-0.00821258,-0.15637089,0.00000000,0.00000000,0.33921778,0.00000000,0.00000000,0.00000000,0,18:46:47.0,0,0
71,0.00000000,0.00000000,0.00000000,-0.23922402,0.49696976,-0.23668395,-0.24192891,-0.32119155,-0.03797453,-0.13689017,0.00000000,0.00660200,-0.27295575,0.34409136,-0.02654996,-0.15637089,0.00000000,0.00000000,0.47047246,0.00000000,0.00000000,0.00000000,0,18:46:47.0,0,0
72,0.00000000,0.00000000,0.00000000,-0.67741382,0.65135336,-0.37985387,-0.06590796,0.04927714,0.00429690,-0.14372404,0.00000000,-0.11154263,0.07466447,-1.23711920,-0.09883559,-0.15637089,0.00000000,0.00000000,0.32906270,0.00000000,0.00000000,0.00000000,0,18:46:47.0,0,0
73,0.00000000,0.00000000,0.00000000,-0.88079476,0.80874360,-0.40153742,-0.17715751,-0.32119155,-0.02546255,-0.23910640,0.00000000,-0.25329348,-0.48378587,-1.23711920,-0.13665067,-0.22865002,0.00000000,0.00000000,0.23078543,0.00000000,0.00000000,0.00000000,0,18:46:47.0,0,0
74,0.00000000,0.00000000,0.00000000,-0.66425258,0.81696439,-0.30484128,-0.35844186,0.04927714,-0.03495375,-0.05816490,0.00000000,-0.09523602,-0.21819156,0.34409136,-0.04242670,0.23133540,0.00000000,0.00000000,0.17035805,0.00000000,0.00000000,0.00000000,0,18:46:48.0,0,0
75,0.00000000,0.00000000,0.00000000,-0.47612119,0.56660062,-0.28398007,-0.40052372,-0.14620425,-0.02730113,-0.08935514,0.00000000,-0.09160855,-0.27383941,-1.23711920,-0.06198409,-0.15637089,0.00000000,0.00000000,0.24726333,0.00000000,0.00000000,0.00000000,0,18:46:48.0,0,0
76,0.00000000,0.00000000,0.00000000,-0.43717945,0.38552040,-0.32326651,-0.61011428,-0.32119155,-0.00925170,-0.16584817,0.00000000,-0.17899871,0.38227892,-2.36790395,-0.14137024,-0.22865002,0.00000000,0.00000000,0.24012442,0.00000000,0.00000000,0.00000000,0,18:46:48.0,0,0
77,0.00000000,0.00000000,0.00000000,-0.42364553,0.48809761,-0.33499473,-0.47970653,-0.48885497,0.00232765,-0.26599503,0.00000000,-0.18156293,-0.23524201,0.34409136,-0.08653609,-0.15637089,0.00000000,0.00000000,0.26929820,0.00000000,0.00000000,0.00000000,0,18:46:48.0,0,0
78,0.00000000,0.00000000,0.00000000,-0.41053939,0.53054124,-0.28089228,-0.43095809,-0.48885497,-0.02457806,-0.07382566,0.00000000,-0.08199089,-0.41933656,0.34409136,-0.04858061,-0.00272961,0.00000000,0.00000000,0.22046392,0.00000000,0.00000000,0.00000000,0,18:46:48.0,0,0
79,0.00000000,0.00000000,0.00000000,-0.41029876,0.39610752,-0.25918201,-0.46480170,-0.64978313,0.01422567,-0.09799390,0.00000000,-0.12588075,-0.38148466,0.34409136,-0.10965717,-0.22865002,0.00000000,0.00000000,0.21147633,0.00000000,0.00000000,0.00000000,0,18:46:49.0,0,0
80,0.00000000,0.00000000,0.00000000,-0.34900677,0.37875003,-0.28303871,-0.52861053,-0.64978313,0.03799746,-0.25308481,0.00000000,-0.23407248,-0.41933656,-1.23711920,-0.18793857,-0.22865002,0.00000000,0.00000000,0.18830784,0.00000000,0.00000000,0.00000000,0,18:46:49.0,0,0
81,0.00000000,0.00000000,0.00000000,-0.39719266,0.30852672,-0.27354819,-0.35908601,0.04927714,-0.00916965,-0.12013952,0.00000000,-0.14251159,-0.11172205,-1.23711920,-0.08818901,-0.08276336,0.00000000,0.00000000,0.22388788,0.00000000,0.00000000,0.00000000,0,18:46:49.0,0,0
82,0.00000000,0.00000000,0.00000000,-0.33576784,0.33351982,-0.21753402,-0.48581722,-0.14620425,0.03348060,-0.12939040,0.00000000,-0.12782387,-0.41933656,-1.23711920,-0.09883559,-0.08276336,0.00000000,0.00000000,0.21594879,0.00000000,0.00000000,0.00000000,0,18:46:49.0,0,0
83,0.00000000,0.00000000,0.00000000,-0.32248503,0.41482073,-0.23976286,-0.40829390,-0.32119155,-0.00103903,-0.18808496,0.00000000,-0.20038693,-0.92240417,-1.23711920,-0.16519855,-0.00272961,0.00000000,0.00000000,0.18830784,0.00000000,0.00000000,0.00000000,0,18:46:49.0,0,0
84,0.00000000,0.00000000,0.00000000,-0.35015264,0.37768596,-0.31178862,-0.42909342,-0.32119155,0.03670985,-0.24516885,0.00000000,-0.27807689,-0.62747276,-1.23711920,-0.15182376,-0.08276336,0.00000000,0.00000000,0.20099550,0.00000000,0.00000000,0.00000000,0,18:46:50.0,0,0
85,0.00000000,0.00000000,0.00000000,-0.29566848,0.44787350,-0.23201115,-0.36861467,0.04927714,-0.02221998,-0.09734179,0.00000000,-0.13786945,-0.50198030,0.34409136,-0.10490879,-0.15637089,0.00000000,0.00000000,0.24125171,0.00000000,0.00000000,0.00000000,0,18:46:50.0,0,0
86,0.00000000,0.00000000,0.00000000,-0.23199862,0.51174861,-0.25177801,-0.56952351,-0.64978313,-0.00759824,-0.18379879,0.00000000,-0.17713854,0.12754560,-1.23711920,-0.14209904,-0.22865002,0.00000000,0.00000000,0.24958003,0.00000000,0.00000000,0.00000000,0,18:46:50.0,0,0
87,0.00000000,0.00000000,0.00000000,-0.28147370,0.45198432,-0.30320549,-0.49333087,-0.14620425,0.01424127,-0.16118470,0.00000000,-0.27749664,-0.18915272,-1.23711920,-0.20810641,-0.37401852,0.00000000,0.00000000,0.24820484,0.00000000,0.00000000,0.00000000,0,18:46:50.0,0,0
88,0.00000000,0.00000000,0.00000000,-0.27450234,0.51519090,-0.30321968,-0.63864720,-0.14620425,-0.00882865,-0.22297956,0.00000000,-0.17867972,0.96732187,0.34409136,-0.10490879,-0.37401852,0.00000000,0.00000000,0.36104888,0.00000000,0.00000000,0.00000000,0,18:46:50.0,0,0
89,0.00000000,0.00000000,0.00000000,-0.28792197,0.37444919,-0.27960473,-0.47548527,-0.32119155,-0.00222713,-0.22033003,0.00000000,-0.14837204,-0.16531044,0.34409136,-0.12513117,-0.00272961,0.00000000,0.00000000,0.32897234,0.00000000,0.00000000,0.00000000,0,18:46:51.0,0,0
90,0.00000000,0.00000000,0.00000000,-0.27329484,0.36699003,-0.29232234,-0.46121186,-0.32119155,0.00403423,-0.17413858,0.00000000,-0.21312669,-0.89060867,0.34409136,-0.16713485,-0.44250852,0.00000000,0.00000000,0.35640094,0.00000000,0.00000000,0.00000000,0,18:46:51.0,0,0
91,0.00000000,0.00000000,0.00000000,-0.27329484,0.50397897,-0.31209221,-0.46606982,-0.32119155,0.05370443,-0.27248344,0.00000000,-0.30529338,-0.34301353,0.34409136,-0.18422209,-0.29964831,0.00000000,0.00000000,0.41956818,0.00000000,0.00000000,0.00000000,0,18:46:51.0,0,0
92,0.00000000,0.00000000,0.00000000,-0.28088179,0.63035983,-0.25199944,-0.37224406,-0.48885497,0.01772530,-0.18379879,0.00000000,-0.14054364,-0.27295575,-1.23711920,-0.10113196,-0.15637089,0.00000000,0.00000000,0.36318773,0.00000000,0.00000000,0.00000000,0,18:46:51.0,0,0
93,0.00000000,0.00000000,0.00000000,-0.25268838,0.70180553,-0.26852959,-0.16539399,-0.48885497,-0.02007685,-0.23063475,0.00000000,-0.19020693,-0.36645544,3.25261045,-0.14209904,-0.29964831,0.00000000,0.00000000,0.33595961,0.00000000,0.00000000,0.00000000,0,18:46:51.0,0,0
94,0.00000000,0.00000000,0.00000000,-0.26103801,0.68982720,-0.25336292,-0.40619951,-0.32119155,0.06499826,-0.36764157,0.00000000,-0.29291904,-0.37614059,-1.23711920,-0.22109039,-0.70956647,0.00000000,0.00000000,0.31512782,0.00000000,0.00000000,0.00000000,0,18:46:52.0,0,0
95,0.00000000,0.00000000,0.00000000,-0.29566848,0.64559579,-0.23139036,-0.30907398,0.04927714,-0.00769334,-0.22303000,0.00000000,-0.22515777,-0.39551085,3.25261045,-0.11815643,-0.29964831,0.00000000,0.00000000,0.30437988,0.00000000,0.00000000,0.00000000,0,18:46:52.0,0,0
96,0.00000000,0.00000000,0.00000000,-0.24662572,0.61878365,-0.24994898,-0.27740818,-0.14620425,0.00351386,-0.18430778,0.00000000,-0.17459501,-0.73865122,-1.23711920,-0.10208333,-0.29964831,0.00000000,0.00000000,0.23667857,0.00000000,0.00000000,0.00000000,0,18:46:52.0,0,0
97,0.00000000,0.00000000,0.00000000,-0.25399783,0.74926990,-0.26421016,-0.28460985,-0.81460118,-0.01289108,-0.22302020,0.00000000,-0.23447974,0.01901662,-1.23711920,-0.14806679,-0.00272961,0.00000000,0.00000000,0.24012442,0.00000000,0.00000000,0.00000000,0,18:46:52.0,0,0
98,0.00000000,0.00000000,0.00000000,-0.25987524,0.58747822,-0.29935402,-0.56213528,-0.48885497,0.01305003,-0.32033756,0.00000000,-0.30423743,-0.31286705,3.25261045,-0.17487752,-0.15637089,0.00000000,0.00000000,0.25416088,0.00000000,0.00000000,0.00000000,0,18:46:52.0,0,0
99,0.00000000,0.00000000,0.00000000,-0.27450234,0.65430105,-0.27877516,-0.35162139,-0.14620425,-0.01414608,-0.12024650,0.00000000,-0.15130137,-0.27295575,0.34409136,-0.09406990,-0.22865002,0.00000000,0.00000000,0.23191640,0.00000000,0.00000000,0.00000000,0,18:46:53.0,0,0
100,0.00000000,0.00000000,0.00000000,-0.23922402,0.71398860,-0.29842693,-0.50119686,-0.32119155,-0.01357667,-0.23808089,0.00000000,-0.18157534,-0.32531631,-1.23711920,-0.11439946,-0.29964831,0.00000000,0.00000000,0.24471980,0.00000000,0.00000000,0.00000000,0,18:46:53.0,0,0
101,0.00000000,0.00000000,0.00000000,-0.27450234,0.64308906,-0.31740284,-0.41626474,-0.48885497,0.02333711,-0.26799536,0.00000000,-0.26941943,-0.38148466,0.34409136,-0.17270260,-0.22865002,0.00000000,0.00000000,0.26469555,0.00000000,0.00000000,0.00000000,0,18:46:53.0,0,0
102,0.00000000,0.00000000,0.00000000,-0.21844012,0.78053087,-0.28194255,-0.29612619,0.04927714,-0.00669580,-0.10599881,0.00000000,-0.16195144,-0.81543338,0.34409136,-0.08176518,-0.44250852,0.00000000,0.00000000,0.24958003,0.00000000,0.00000000,0.00000000,0,18:46:53.0,0,0
103,0.00000000,0.00000000,0.00000000,-0.17745100,0.77697867,-0.21924344,-0.25185215,-0.14620425,0.02198333,-0.07286958,0.00000000,-0.12787442,-0.08202791,-1.23711920,-0.08420332,-0.15637089,0.00000000,0.00000000,-0.21317686,0.00000000,0.00000000,0.00000000,0,18:46:53.0,0,0
104,0.00000000,0.00000000,0.00000000,0.15744086,0.92647308,-0.08110359,-0.31630373,0.04927714,0.05077630,-0.12648287,0.00000000,-0.23377301,-0.58070225,0.34409136,-0.14898749,-0.44250852,0.00000000,0.00000000,-0.13283642,0.00000000,0.00000000,0.00000000,0,18:46:54.0,0,0
105,0.00000000,0.00000000,0.00000000,0.10555020,0.89013028,-0.19750786,-0.21653891,-0.32119155,0.02234017,-0.30657876,0.00000000,-0.31144199,-0.65992934,0.34409136,-0.13192554,-0.37401852,0.00000000,0.00000000,-0.16330768,0.00000000,0.00000000,0.00000000,0,18:46:54.0,0,0
106,0.00000000,0.00000000,0.00000000,0.06831922,0.79660368,-0.12220536,-0.30825412,-0.32119155,0.03781041,-0.05035862,0.00000000,-0.11408527,0.12754560,0.34409136,-0.05237761,-0.22865002,0.00000000,0.00000000,-0.09579612,0.00000000,0.00000000,0.00000000,0,18:46:54.0,0,0
107,0.00000000,0.00000000,0.00000000,-0.02617929,0.72875679,-0.14105245,-0.30659181,-0.32119155,-0.00275156,-0.12888527,0.00000000,-0.13781127,-0.60910505,-1.23711920,-0.08044635,-0.22865002,0.00000000,0.00000000,-0.01995046,0.00000000,0.00000000,0.00000000,0,18:46:54.0,0,0
108,0.00000000,0.00000000,0.00000000,-0.06300926,0.71004617,-0.23377360,-0.33752972,0.04927714,0.03699087,-0.26182228,0.00000000,-0.22380589,-0.43296158,-1.23711920,-0.13738455,-0.29964831,0.00000000,0.00000000,0.02632557,0.00000000,0.00000000,0.00000000,0,18:46:54.0,0,0
109,0.00000000,0.00000000,0.00000000,-0.06274417,0.74441755,-0.19890006,-0.28182635,-0.32119155,-0.01700464,-0.11391476,0.00000000,-0.10398380,-0.08202791,3.25261045,-0.03277315,-0.29964831,0.00000000,0.00000000,0.11147181,0.00000000,0.00000000,0.00000000,0,18:46:55.0,0,0
110,0.00000000,0.00000000,0.00000000,-0.12105225,0.78855485,-0.18545650,-0.46261770,0.24162953,-0.01720795,-0.07382566,0.00000000,-0.04420856,-0.21936736,3.25261045,-0.04376883,-0.22865002,0.00000000,0.00000000,0.15208125,0.00000000,0.00000000,0.00000000,0,18:46:55.0,0,0
111,0.00000000,0.00000000,0.00000000,-0.11247955,0.74487996,-0.25538951,-0.37938571,-0.48885497,-0.00467418,-0.11391476,0.00000000,-0.09129187,0.24717045,0.34409136,-0.09328469,-0.08276336,0.00000000,0.00000000,0.19987547,0.00000000,0.00000000,0.00000000,0,18:46:55.0,0,0
112,0.00000000,0.00000000,0.00000000,-0.07798689,0.73729163,-0.27463245,-0.50279140,-0.64978313,-0.00738857,-0.05718199,0.00000000,-0.09852426,-0.60910505,0.34409136,-0.03654999,-0.00272961,0.00000000,0.00000000,0.18147635,0.00000000,0.00000000,0.00000000,0,18:46:55.0,0,0
113,0.00000000,0.00000000,0.00000000,-0.09197819,0.76013976,-0.20986953,-0.32271090,-0.14620425,-0.00763967,-0.02579900,0.00000000,0.00761914,-0.31286705,0.34409136,-0.01412840,-0.08276336,0.00000000,0.00000000,0.20805235,0.00000000,0.00000000,0.00000000,0,18:46:55.0,0,0
114,0.00000000,0.00000000,0.00000000,-0.07798689,0.76487005,-0.23453495,-0.26351768,0.04927714,-0.01585170,-0.04898685,0.00000000,-0.02607640,0.71786094,0.34409136,-0.03760271,-0.15637089,0.00000000,0.00000000,0.23444024,0.00000000,0.00000000,0.00000000,0,18:46:56.0,0,0
115,0.00000000,0.00000000,0.00000000,-0.06924124,0.84112573,-0.24635467,-0.29439285,-0.32119155,0.04368173,-0.06230272,0.00000000,-0.11099814,-0.41933656,-1.23711920,-0.08233444,-0.37401852,0.00000000,0.00000000,0.23667857,0.00000000,0.00000000,0.00000000,0,18:46:56.0,0,0
116,0.00000000,0.00000000,0.00000000,-0.09243383,0.82894272,-0.17093123,-0.30900946,-0.32119155,0.01248464,0.06336629,0.00000000,0.06565825,-0.44909921,-1.23711920,0.02662316,-0.37401852,0.00000000,0.00000000,0.22046392,0.00000000,0.00000000,0.00000000,0,18:46:56.0,0,0
117,0.00000000,0.00000000,0.00000000,-0.01860545,0.78855485,-0.21037695,-0.10996193,-0.32119155,-0.02654246,0.03099994,0.00000000,0.03483935,-0.21936736,3.25261045,-0.00679951,-0.15637089,0.00000000,0.00000000,0.25788406,0.00000000,0.00000000,0.00000000,0,18:46:56.0,0,0
118,0.00000000,0.00000000,0.00000000,-0.07798689,0.82472074,-0.21342538,-0.34954870,-0.14620425,0.04123830,-0.15313181,0.00000000,-0.06211439,0.00625857,-1.23711920,-0.08420332,-0.00272961,0.00000000,0.00000000,0.20099550,0.00000000,0.00000000,0.00000000,0,18:46:56.0,0,0
119,0.00000000,0.00000000,0.00000000,-0.08524697,0.89825380,-0.19036229,-0.26549110,-0.14620425,-0.02387405,-0.07382566,0.00000000,0.04383630,-0.08202791,0.34409136,0.02662316,-0.15637089,0.00000000,0.00000000,0.24272648,0.00000000,0.00000000,0.00000000,0,18:46:57.0,0,0
120,0.00000000,0.00000000,0.00000000,-0.05567442,0.88624614,-0.22351131,-0.25249913,-0.32119155,-0.01585577,0.04082161,0.00000000,0.08143710,-0.11172205,0.34409136,0.01794444,-0.22865002,0.00000000,0.00000000,0.21147633,0.00000000,0.00000000,0.00000000,0,18:46:57.0,0,0
121,0.00000000,0.00000000,0.00000000,-0.12036742,0.79282939,-0.26183730,-0.25621948,0.04927714,-0.01792675,-0.00175482,0.00000000,0.01579425,0.01901662,3.25261045,-0.02277313,-0.29964831,0.00000000,0.00000000,0.17944656,0.00000000,0.00000000,0.00000000,0,18:46:57.0,0,0
122,0.00000000,0.00000000,0.00000000,-0.09067775,0.77171594,-0.29305285,-0.51759362,-0.48885497,0.00239949,-0.15066957,0.00000000,-0.05462908,0.01901662,3.25261045,-0.03547133,-0.29964831,0.00000000,0.00000000,0.18488389,0.00000000,0.00000000,0.00000000,0,18:46:57.0,0,0
123,0.00000000,0.00000000,0.00000000,-0.10642514,0.83287859,-0.28059858,-0.28579876,0.04927714,-0.02757556,-0.03443778,0.00000000,0.12400961,-0.41933656,0.34409136,0.03509974,-0.15637089,0.00000000,0.00000000,0.20805235,0.00000000,0.00000000,0.00000000,0,18:46:57.0,0,0
124,0.00000000,0.00000000,0.00000000,-0.06274417,0.79625309,-0.30257955,-0.39468342,-0.32119155,-0.02730113,0.03014322,0.00000000,0.08482710,-0.36645544,-1.23711920,0.00294956,-0.15637089,0.00000000,0.00000000,0.21259634,0.00000000,0.00000000,0.00000000,0,18:46:58.0,0,0
125,0.00000000,0.00000000,0.00000000,-0.08524697,0.82527506,-0.30949664,-0.36236721,0.24162953,0.00910158,-0.05718199,0.00000000,-0.01571969,-0.64735752,-1.23711920,-0.06389711,-0.00272961,0.00000000,0.00000000,0.21147633,0.00000000,0.00000000,0.00000000,0,18:46:58.0,0,0
126,0.00000000,0.00000000,0.00000000,-0.09923828,0.80843610,-0.29974508,-0.24010493,0.04927714,-0.02229146,-0.03375515,0.00000000,0.03521991,0.05723262,0.34409136,-0.00850958,-0.00272961,0.00000000,0.00000000,0.18377097,0.00000000,0.00000000,0.00000000,0,18:46:58.0,0,0
127,0.00000000,0.00000000,0.00000000,-0.12105225,0.74263334,-0.26831686,-0.19107905,-0.48885497,0.01197932,0.09578224,0.00000000,0.09914891,-0.16531044,0.34409136,0.02001131,-0.22865002,0.00000000,0.00000000,0.14061542,0.00000000,0.00000000,0.00000000,0,18:46:58.0,0,0
128,0.00000000,0.00000000,0.00000000,-0.09197819,0.77171594,-0.25754908,-0.31375045,-0.32119155,0.02347116,0.04697713,0.00000000,0.03615683,-0.41933656,0.34409136,-0.01792541,-0.08276336,0.00000000,0.00000000,0.14988498,0.00000000,0.00000000,0.00000000,0,18:46:58.0,0,0
129,0.00000000,0.00000000,0.00000000,-0.14184198,0.63132089,-0.31147340,-0.20662320,-0.32119155,-0.00235024,-0.07410004,0.00000000,-0.06056326,-0.11172205,0.34409136,-0.10318331,-0.00272961,0.00000000,0.00000000,0.18488389,0.00000000,0.00000000,0.00000000,0,18:46:59.0,0,0
130,0.00000000,0.00000000,0.00000000,-0.14902884,0.61494231,-0.24619812,-0.33218926,-0.14620425,0.01538163,0.00616112,0.00000000,0.09293483,-0.05740720,0.34409136,0.00648529,0.15178484,0.00000000,0.00000000,0.23483746,0.00000000,0.00000000,0.00000000,0,18:46:59.0,0,0
131,0.00000000,0.00000000,0.00000000,-0.07798689,1.06708145,-0.28403008,-0.31232950,-0.14620425,-0.04453388,-0.08174161,0.00000000,0.11026467,-0.59447640,3.25261045,-0.01454217,0.15178484,0.00000000,0.00000000,0.10110013,0.00000000,0.00000000,0.00000000,0,18:46:59.0,0,0
132,0.00000000,0.00000000,0.00000000,-0.02743900,0.96451443,-0.32767367,-0.37840813,-0.14620425,0.00293844,-0.16055794,0.00000000,-0.04687817,-0.38148466,3.25261045,-0.11781558,-0.15637089,0.00000000,0.00000000,-0.04370934,0.00000000,0.00000000,0.00000000,0,18:46:59.0,0,0
133,0.00000000,0.00000000,0.00000000,-0.01983374,1.00210428,-0.34178379,-0.32954004,0.24162953,-0.00331713,-0.13721938,0.00000000,-0.00688919,-1.22582960,-1.23711920,-0.02830804,-0.22865002,0.00000000,0.00000000,0.03554332,0.00000000,0.00000000,0.00000000,0,18:46:59.0,0,0
134,0.00000000,0.00000000,0.00000000,-0.05524993,0.91946924,-0.35268891,-0.49653646,-0.32119155,-0.02232798,-0.05015999,0.00000000,0.03765592,-0.54088813,3.25261045,-0.02459155,-0.00272961,0.00000000,0.00000000,0.01552496,0.00000000,0.00000000,0.00000000,0,18:47:00.0,0,0
135,0.00000000,0.00000000,0.00000000,-0.18399742,0.85435480,-0.39954269,-0.38816875,0.04927714,-0.00319012,-0.04898685,0.00000000,-0.07503107,-0.53397310,-1.23711920,-0.08091728,-0.22865002,0.00000000,0.00000000,0.01661030,0.00000000,0.00000000,0.00000000,0,18:47:00.0,0,0
136,0.00000000,0.00000000,0.00000000,-0.13458189,0.77468199,-0.40840405,-0.49702442,-0.32119155,0.01062309,-0.19954371,0.00000000,-0.22057125,-0.68032211,-1.23711920,-0.16610116,-0.29964831,0.00000000,0.00000000,-0.02303213,0.00000000,0.00000000,0.00000000,0,18:47:00.0,0,0
137,0.00000000,0.00000000,0.00000000,-0.16282389,0.70815980,-0.32011956,-0.35002127,-0.32119155,-0.00019018,-0.00896009,0.00000000,-0.05406532,-0.41933656,-1.23711920,-0.04170632,0.07378279,0.00000000,0.00000000,-0.05580315,0.00000000,0.00000000,0.00000000,0,18:47:00.0,0,0
138,0.00000000,0.00000000,0.00000000,-0.04158141,0.59221381,-0.25835228,-0.26768076,-0.14620425,-0.00314135,-0.04960592,0.00000000,-0.15533853,-0.52782112,3.25261045,-0.10318331,-0.00272961,0.00000000,0.00000000,-0.28053474,0.00000000,0.00000000,0.00000000,0,18:47:00.0,0,0
139,0.00000000,0.00000000,0.00000000,0.07581346,0.49221081,-0.21912625,-0.35968959,-0.32119155,0.06103878,-0.05015999,0.00000000,-0.28091440,-0.16988492,0.00000000,-0.14406435,-0.29964831,0.00000000,0.00000000,-0.21700981,0.00000000,0.00000000,0.00000000,0,18:47:01.0,0,0
140,0.00000000,0.00000000,0.00000000,0.00194804,0.50397897,-0.21630317,-0.44613314,-0.14620425,0.05918633,-0.02560377,0.00000000,-0.23589039,0.30755156,0.34409136,-0.09213714,-0.00272961,0.00000000,0.00000000,-0.24528138,0.00000000,0.00000000,0.00000000,0,18:47:01.0,0,0
141,0.00000000,0.00000000,0.00000000,-0.07065205,0.42631871,-0.22102341,-0.32938886,0.24162953,0.00364759,-0.03332609,0.00000000,-0.09573212,-0.30527806,3.25261045,-0.03472637,0.15178484,0.00000000,0.00000000,-0.13779181,0.00000000,0.00000000,0.00000000,0,18:47:01.0,0,0
142,0.00000000,0.00000000,0.00000000,-0.07026934,0.48809761,-0.24169636,-0.48597115,-0.32119155,0.04635725,-0.04134870,0.00000000,-0.13749489,-0.21819156,0.34409136,-0.09213714,-0.08276336,0.00000000,0.00000000,-0.10977861,0.00000000,0.00000000,0.00000000,0,18:47:01.0,0,0
143,0.00000000,0.00000000,0.00000000,0.19490874,0.44399503,-0.22395468,-0.59305358,-0.32119155,0.06342553,-0.22297956,0.00000000,-0.28968307,-0.32583684,0.00000000,-0.14187309,-0.50984728,0.00000000,0.00000000,-0.32771838,0.00000000,0.00000000,0.00000000,0,18:47:01.0,0,0
144,0.00000000,0.00000000,0.00000000,0.40488863,0.60408342,-0.15928249,-0.41426378,1.38987207,0.03187783,0.08849062,0.00000000,-0.16750771,-1.65557408,-5.14504814,-0.06135988,-0.22865002,0.00000000,0.00000000,-0.43833786,0.00000000,0.00000000,0.00000000,0,18:47:02.0,0,0
145,0.00000000,0.00000000,0.00000000,-0.02393468,0.74622381,-0.33605093,-0.33471492,1.66130137,0.01894040,-0.26820564,0.00000000,-0.20885406,-0.47917706,-3.24878716,-0.05908533,-0.64552796,0.00000000,0.00000000,-0.38311946,0.00000000,0.00000000,0.00000000,0,18:47:02.0,0,0
146,0.00000000,0.00000000,0.00000000,0.00165030,0.93189073,-0.36996007,-0.51360768,0.65647268,0.04868896,-0.45608133,0.00000000,-0.28249305,-0.50403786,0.00000000,-0.15164918,-0.29964831,0.00000000,0.00000000,-0.38211066,0.00000000,0.00000000,0.00000000,0,18:47:02.0,0,0
147,0.00000000,0.00000000,0.00000000,0.16895160,0.94562912,-0.32166189,-0.47368291,1.38987207,0.03423342,0.45210701,0.00000000,-0.09639550,-0.47423273,-2.36790395,-0.04646304,-0.15637089,0.00000000,0.00000000,-0.12698543,0.00000000,0.00000000,0.00000000,0,18:47:02.0,0,0
148,0.00000000,0.00000000,0.00000000,0.14271596,0.88473409,-0.31518018,-0.49283779,1.66130137,0.01670073,0.13132972,0.00000000,-0.04767856,-0.54675889,0.00000000,-0.02830428,-0.44250852,0.00000000,0.00000000,-0.25687066,0.00000000,0.00000000,0.00000000,0,18:47:02.0,0,0
149,0.00000000,0.00000000,0.00000000,0.23459411,1.02593231,-0.28731430,-0.41072336,1.38987207,0.04663853,0.28244394,0.00000000,-0.11521368,0.22885132,0.00000000,-0.09575797,-0.44250852,0.00000000,0.00000000,-0.22317167,0.00000000,0.00000000,0.00000000,0,18:47:03.0,0,0
150,0.00000000,0.00000000,0.00000000,0.39711416,1.13987243,-0.30675876,-0.34832931,0.44368434,0.05538219,0.21527119,0.00000000,-0.23221259,1.12826562,0.00000000,-0.04999301,1.58157897,0.00000000,0.00000000,-0.48721653,0.00000000,0.00000000,0.00000000,0,18:47:03.0,0,0
151,0.00000000,0.00000000,0.00000000,0.46296519,0.91946924,-0.17249526,-0.29389900,-0.64978313,0.06239836,0.40570158,0.00000000,-0.07575555,-0.15809152,0.00000000,0.02933899,1.47058654,0.00000000,0.00000000,-0.41968662,0.00000000,0.00000000,0.00000000,0,18:47:03.0,0,0
152,0.00000000,0.00000000,0.00000000,0.32569721,0.81696439,-0.16977809,-0.45757186,-0.96319342,0.05276565,-0.03249070,0.00000000,-0.09968367,1.06813598,0.00000000,0.02469490,0.23133540,0.00000000,0.00000000,-0.19711073,0.00000000,0.00000000,0.00000000,0,18:47:03.0,0,0
153,0.00000000,0.00000000,0.00000000,0.17221971,0.66971672,-0.27782351,-0.40270108,-1.10647082,0.01929697,-0.43345496,0.00000000,-0.15867254,-0.19979288,0.00000000,-0.08176518,-0.50984728,0.00000000,0.00000000,0.01044194,0.00000000,0.00000000,0.00000000,0,18:47:03.0,0,0
154,0.00000000,0.00000000,0.00000000,0.07491904,0.63562149,-0.27913392,-0.46866173,-0.81460118,0.01109949,-0.15139399,0.00000000,0.00313005,-0.76908362,-4.01426363,0.04778218,0.23133540,0.00000000,0.00000000,0.11482640,0.00000000,0.00000000,0.00000000,0,18:47:04.0,0,0
155,0.00000000,0.00000000,0.00000000,0.03851014,0.60408342,-0.24509647,-0.57771587,-0.96319342,-0.01440326,-0.11952007,0.00000000,0.03727392,-0.38164604,-4.61941767,-0.00968842,-0.70956647,0.00000000,0.00000000,0.08986367,0.00000000,0.00000000,0.00000000,0,18:47:04.0,0,0
156,0.00000000,0.00000000,0.00000000,0.13446489,0.52718723,-0.23863830,-0.63342196,0.44368434,0.01351510,-0.15272425,0.00000000,-0.05755072,-1.00011659,-1.23711920,-0.07131080,-0.95993030,0.00000000,0.00000000,-0.12388755,0.00000000,0.00000000,0.00000000,0,18:47:04.0,0,0
157,0.00000000,0.00000000,0.00000000,0.13514212,0.28926536,-0.24757248,-0.67272508,0.24162953,0.01682276,-0.16856284,0.00000000,-0.05997936,-0.48751831,0.00000000,-0.03064999,-0.44250852,0.00000000,0.00000000,-0.05681819,0.00000000,0.00000000,0.00000000,0,18:47:04.0,0,0
158,0.00000000,0.00000000,0.00000000,0.06296258,0.21314220,-0.21566954,-0.67842788,1.13567030,0.00761287,0.09637520,0.00000000,0.07592513,-0.32531631,-4.01426363,0.07041762,0.66658491,0.00000000,0.00000000,0.31365901,0.00000000,0.00000000,0.00000000,0,18:47:04.0,0,0
159,0.00000000,0.00000000,0.00000000,-0.07026934,0.33506584,-0.31055862,-0.53359783,-0.32119155,0.02961800,0.38378412,0.00000000,0.06953266,0.13294291,0.00000000,0.02304554,0.31796753,0.00000000,0.00000000,0.19592984,0.00000000,0.00000000,0.00000000,0,18:47:05.0,0,0
160,0.00000000,0.00000000,0.00000000,0.53432733,1.19443417,-0.15356345,-0.51234901,0.65647268,0.00016926,-0.11586678,0.00000000,0.05147494,0.83608758,0.00000000,0.02469490,-0.00272961,0.00000000,0.00000000,-0.30555400,0.00000000,0.00000000,0.00000000,0,18:47:05.0,0,0
161,0.00000000,0.00000000,0.00000000,0.23117818,0.89013028,-0.25159943,-0.51049972,0.89663893,-0.00429596,-0.00989842,0.00000000,0.16145109,0.12598196,0.00000000,0.12920858,0.66658491,0.00000000,0.00000000,0.08470411,0.00000000,0.00000000,0.00000000,0,18:47:05.0,0,0
162,0.00000000,0.00000000,0.00000000,0.14298175,0.56660062,-0.24173884,-0.44015282,-1.64147401,-0.02946315,-0.00951904,0.00000000,0.12009288,-0.57986146,-1.23711920,0.12662549,0.40092215,0.00000000,0.00000000,-0.05364414,0.00000000,0.00000000,0.00000000,0,18:47:05.0,0,0
163,0.00000000,0.00000000,0.00000000,0.11986998,0.49221081,-0.25396487,-0.47545335,-1.51638901,0.03199174,-0.44889450,0.00000000,-0.02475012,0.19883966,-2.36790395,-0.00679951,0.15178484,0.00000000,0.00000000,0.00021764,0.00000000,0.00000000,0.00000000,0,18:47:05.0,0,0
164,0.00000000,0.00000000,0.00000000,0.05290177,0.43468440,-0.26673830,-0.56048119,0.89663893,0.03267589,-0.54872310,0.00000000,-0.06604229,-1.17807484,-3.24878716,-0.00080741,-0.29964831,0.00000000,0.00000000,-0.08705656,0.00000000,0.00000000,0.00000000,0,18:47:06.0,0,0
165,0.00000000,0.00000000,0.00000000,0.07581346,0.43074563,-0.19648942,-0.38112101,1.13567030,-0.02150052,-0.21330528,0.00000000,0.05262082,-1.17432308,-2.36790395,0.01908158,-0.50984728,0.00000000,0.00000000,-0.11850495,0.00000000,0.00000000,0.00000000,0,18:47:06.0,0,0
166,0.00000000,0.00000000,0.00000000,0.14411278,0.55741358,-0.17882726,-0.49290150,0.44368434,0.00597759,0.01690307,0.00000000,0.00709184,-1.36184847,-4.61941767,-0.03935030,-0.44250852,0.00000000,0.00000000,-0.04150888,0.00000000,0.00000000,0.00000000,0,18:47:06.0,0,0
167,0.00000000,0.00000000,0.00000000,0.09738734,0.57857895,-0.22727017,-0.61809564,1.13567030,0.00908669,-0.19788954,0.00000000,-0.10942869,-1.02797413,3.25261045,-0.11404590,-0.70956647,0.00000000,0.00000000,-0.17182575,0.00000000,0.00000000,0.00000000,0,18:47:06.0,0,0
168,0.00000000,0.00000000,0.00000000,0.08388227,0.64442527,-0.23284835,-0.57624769,1.66130137,-0.00209093,0.22564763,0.00000000,-0.04208647,-0.19326615,0.00000000,-0.03679654,-0.37401852,0.00000000,0.00000000,-0.21189338,0.00000000,0.00000000,0.00000000,0,18:47:06.0,0,0
169,0.00000000,0.00000000,0.00000000,0.11380742,0.52443564,-0.19982202,-0.53145975,2.28828931,0.00057036,0.13263607,0.00000000,-0.02875640,0.17138785,0.00000000,-0.01814118,0.40092215,0.00000000,0.00000000,-0.42339158,0.00000000,0.00000000,0.00000000,0,18:47:07.0,0,0
170,0.00000000,0.00000000,0.00000000,0.24954203,0.33807385,-0.14303760,-0.69738972,-0.81460118,0.02618257,0.09464648,0.00000000,-0.12468835,0.81028962,0.00000000,-0.05530179,0.15178484,0.00000000,0.00000000,-0.34040025,0.00000000,0.00000000,0.00000000,0,18:47:07.0,0,0
171,0.00000000,0.00000000,0.00000000,0.28690991,0.34925836,-0.19149026,-0.64837152,-0.96319342,0.03844568,-0.23413551,0.00000000,-0.24888967,1.58550596,0.00000000,-0.07889140,0.31796753,0.00000000,0.00000000,-0.41361719,0.00000000,0.00000000,0.00000000,0,18:47:07.0,0,0
172,0.00000000,0.00000000,0.00000000,0.31858954,0.36699003,-0.12847428,-0.61553490,-0.14620425,-0.02597192,-0.28272429,0.00000000,-0.10722844,0.77662015,0.00000000,0.05304258,0.48563099,0.00000000,0.00000000,-0.49739659,0.00000000,0.00000000,0.00000000,0,18:47:07.0,0,0
173,0.00000000,0.00000000,0.00000000,0.32755578,0.19904919,-0.15119016,-0.69486046,-0.96319342,0.00067776,-0.44604546,0.00000000,-0.18820614,0.11786032,0.34409136,-0.00967073,0.40092215,0.00000000,0.00000000,-0.54435265,0.00000000,0.00000000,0.00000000,0,18:47:07.0,0,0
174,0.00000000,0.00000000,0.00000000,0.35782072,0.23636624,-0.20095314,-0.63217747,-1.10647082,0.00458840,-0.56395215,0.00000000,-0.30955297,-0.83056808,-4.61941767,-0.09928077,-0.00272961,0.00000000,0.00000000,-0.53278804,0.00000000,0.00000000,0.00000000,0,18:47:08.0,0,0
175,0.00000000,0.00000000,0.00000000,0.37296712,0.15009788,-0.20964363,-0.58703333,-0.32119155,0.03952357,-0.65040213,0.00000000,-0.27554476,-1.17825520,-1.23711920,-0.09213714,-0.58044970,0.00000000,0.00000000,-0.39739782,0.00000000,0.00000000,0.00000000,0,18:47:08.0,0,0
176,0.00000000,0.00000000,0.00000000,0.41328996,0.19252580,-0.11190562,-0.58376139,0.04927714,0.01767364,-0.44157362,0.00000000,-0.14146778,-1.74438024,-2.36790395,-0.05653590,-1.01917076,0.00000000,0.00000000,-0.36980498,0.00000000,0.00000000,0.00000000,0,18:47:08.0,0,0
177,0.00000000,0.00000000,0.00000000,0.38265955,0.25667167,-0.14446849,-0.50143510,0.65647268,0.00057755,-0.39244008,0.00000000,-0.18571094,-1.45488822,-2.36790395,-0.12372863,-0.29964831,0.00000000,0.00000000,-0.43448651,0.00000000,0.00000000,0.00000000,0,18:47:08.0,0,0
178,0.00000000,0.00000000,0.00000000,0.46445680,0.30533835,-0.09383827,-0.66627371,0.65647268,0.05712222,-0.24909854,0.00000000,-0.29262587,-1.40700948,-4.01426363,-0.18665552,0.07378279,0.00000000,0.00000000,-0.59454525,0.00000000,0.00000000,0.00000000,0,18:47:08.0,0,0
179,0.00000000,0.00000000,0.00000000,0.65976292,0.54246563,-0.01235726,-0.60925388,1.13567030,0.00892819,-0.08216705,0.00000000,-0.16279218,-0.91158581,0.00000000,-0.08719103,-0.22865002,0.00000000,0.00000000,-0.45156389,0.00000000,0.00000000,0.00000000,0,18:47:09.0,0,0
180,0.00000000,0.00000000,0.00000000,0.66719937,0.53054124,-0.01874337,-0.54631621,1.13567030,0.00215733,-0.01979676,0.00000000,-0.12379956,-0.15191436,0.00000000,-0.05445132,-0.44250852,0.00000000,0.00000000,-0.43255240,0.00000000,0.00000000,0.00000000,0,18:47:09.0,0,0
181,0.00000000,0.00000000,0.00000000,0.60064691,0.37602910,-0.05717005,-0.53709805,-0.32119155,0.03602195,-0.04152122,0.00000000,-0.22474670,-0.37452370,0.00000000,-0.09940761,0.94471610,0.00000000,0.00000000,-0.51967913,0.00000000,0.00000000,0.00000000,0,18:47:09.0,0,0
182,0.00000000,0.00000000,0.00000000,0.47145984,0.48572028,-0.12461311,-0.70972407,-0.81460118,0.06876300,-0.13322417,0.00000000,-0.35398951,-0.52701211,-2.36790395,-0.16970466,0.75716680,0.00000000,0.00000000,-0.41764724,0.00000000,0.00000000,0.00000000,0,18:47:09.0,0,0
183,0.00000000,0.00000000,0.00000000,0.26418665,0.40470973,-0.15362990,-0.54385138,-0.96319342,0.02167527,-0.31943291,0.00000000,-0.21355060,0.13751572,0.00000000,-0.02170224,-0.08276336,0.00000000,0.00000000,-0.30334723,0.00000000,0.00000000,0.00000000,0,18:47:09.0,0,0
184,0.00000000,0.00000000,0.00000000,0.31891698,0.28279442,-0.14172991,-0.48370188,-1.38727224,0.00104925,-0.49004996,0.00000000,-0.21290633,-0.19979288,0.00000000,-0.08044635,-0.77259713,0.00000000,0.00000000,-0.30757892,0.00000000,0.00000000,0.00000000,0,18:47:10.0,0,0
185,0.00000000,0.00000000,0.00000000,0.27168089,0.14094111,-0.12088232,-0.59909874,-1.38727224,0.05756693,-0.49276283,0.00000000,-0.26850069,-0.96143019,-5.14504814,-0.13343774,0.23133540,0.00000000,0.00000000,-0.34032542,0.00000000,0.00000000,0.00000000,0,18:47:10.0,0,0
186,0.00000000,0.00000000,0.00000000,0.19470847,0.22702557,-0.15055661,-0.42228368,-1.25385594,0.02237389,-0.56684440,0.00000000,-0.27548110,-0.12997913,-5.14504814,-0.12823358,-0.15637089,0.00000000,0.00000000,-0.34447870,0.00000000,0.00000000,0.00000000,0,18:47:10.0,0,0
187,0.00000000,0.00000000,0.00000000,0.24037544,0.34420305,-0.08731854,-0.32154241,-0.32119155,0.04761891,-0.50000095,0.00000000,-0.16190946,-1.45126486,-2.36790395,-0.09449811,-1.08141017,0.00000000,0.00000000,-0.30968726,0.00000000,0.00000000,0.00000000,0,18:47:10.0,0,0
188,0.00000000,0.00000000,0.00000000,0.27255088,0.50809431,-0.06005245,-0.43540290,0.65647268,0.04775057,-0.47055781,0.00000000,-0.17975365,-0.89706111,0.00000000,-0.15538695,-1.01917076,0.00000000,0.00000000,-0.30453944,0.00000000,0.00000000,0.00000000,0,18:47:10.0,0,0
189,0.00000000,0.00000000,0.00000000,0.24259900,0.63035983,-0.13185094,-0.46579310,0.89663893,0.03283849,-0.11305686,0.00000000,-0.25976062,-1.27411175,-3.24878716,-0.19482306,0.07378279,0.00000000,0.00000000,-0.27010196,0.00000000,0.00000000,0.00000000,0,18:47:11.0,0,0
190,0.00000000,0.00000000,0.00000000,0.09789500,0.65489697,-0.08443704,-0.45373383,0.65647268,0.02271752,0.11745465,0.00000000,-0.13802761,0.24717045,-2.36790395,-0.07790443,0.40092215,0.00000000,0.00000000,-0.29307604,0.00000000,0.00000000,0.00000000,0,18:47:11.0,0,0
191,0.00000000,0.00000000,0.00000000,0.24354945,0.40749878,-0.02710137,-0.55469441,0.89663893,0.00371517,-0.12108320,0.00000000,-0.08412488,0.05311453,0.00000000,-0.09456024,-0.50984728,0.00000000,0.00000000,-0.17914213,0.00000000,0.00000000,0.00000000,0,18:47:11.0,0,0
192,0.00000000,0.00000000,0.00000000,0.21188197,0.42136797,-0.03262874,-0.55857503,0.44368434,0.01730368,-0.08133215,0.00000000,-0.16277336,-0.07607377,0.00000000,-0.09190550,0.07378279,0.00000000,0.00000000,-0.18961926,0.00000000,0.00000000,0.00000000,0,18:47:11.0,0,0
193,0.00000000,0.00000000,0.00000000,0.17537037,0.55741358,-0.11633141,-0.53508860,-0.64978313,0.04493394,-0.01707497,0.00000000,-0.25124744,-0.42600060,0.00000000,-0.11186280,0.84984422,0.00000000,0.00000000,-0.19809160,0.00000000,0.00000000,0.00000000,0,18:47:11.0,0,0
194,0.00000000,0.00000000,0.00000000,-0.06336319,0.49382105,0.00548613,-0.60734934,-1.88823271,0.02132401,0.12090658,0.00000000,-0.07645569,-0.67711294,-4.01426363,-0.00088999,0.57216918,0.00000000,0.00000000,-0.15363827,0.00000000,0.00000000,0.00000000,0,18:47:12.0,0,0
195,0.00000000,0.00000000,0.00000000,-0.04965539,0.52812362,-0.01364738,-0.44122639,-1.38727224,-0.00032203,-0.39508367,0.00000000,-0.09897982,0.05723262,0.00000000,-0.07498887,-0.70956647,0.00000000,0.00000000,-0.12379542,0.00000000,0.00000000,0.00000000,0,18:47:12.0,0,0
196,0.00000000,0.00000000,0.00000000,-0.07095017,0.35165215,-0.04578178,-0.43690079,-1.10647082,0.00485552,-0.42452759,0.00000000,-0.17144546,-0.86811984,-1.23711920,-0.12955581,-0.64552796,0.00000000,0.00000000,-0.16113690,0.00000000,0.00000000,0.00000000,0,18:47:12.0,0,0
197,0.00000000,0.00000000,0.00000000,-0.02742071,0.34685618,0.02413246,-0.51799691,-0.48885497,0.03815541,-0.34433973,0.00000000,-0.12631586,-1.52883244,-5.60964966,-0.07351327,-0.08276336,0.00000000,0.00000000,-0.16008410,0.00000000,0.00000000,0.00000000,0,18:47:12.0,0,0
198,0.00000000,0.00000000,0.00000000,0.01703110,0.17008026,0.07273051,-0.40811318,-0.96319342,-0.00624241,-0.12872952,0.00000000,0.03173722,-0.92338973,-5.14504814,-0.06014952,-0.83875477,0.00000000,0.00000000,-0.08088741,0.00000000,0.00000000,0.00000000,0,18:47:12.0,0,0
199,0.00000000,0.00000000,0.00000000,0.11200125,0.42597830,0.08404574,-0.31018168,-0.64978313,0.02600412,-0.25379777,0.00000000,0.01324325,-0.90297544,0.34409136,-0.08133971,-1.01917076,0.00000000,0.00000000,-0.09356503,0.00000000,0.00000000,0.00000000,0,18:47:13.0,0,0
200,0.00000000,0.00000000,0.00000000,0.19710311,0.52606994,0.09613425,-0.36358470,1.97264814,0.04258763,-0.31934053,0.00000000,-0.08400556,-0.98057413,0.00000000,-0.15862054,-0.77259713,0.00000000,0.00000000,-0.10012598,0.00000000,0.00000000,0.00000000,0,18:47:13.0,0,0
201,0.00000000,0.00000000,0.00000000,0.17537037,0.39448443,0.12804130,-0.30542552,0.04927714,-0.02178269,0.13070810,0.00000000,0.05380061,-0.71157396,0.34409136,0.00992265,0.31796753,0.00000000,0.00000000,-0.11526507,0.00000000,0.00000000,0.00000000,0,18:47:13.0,0,0
202,0.00000000,0.00000000,0.00000000,0.17335328,0.52443564,0.17293847,-0.29616359,-0.81460118,-0.00743087,0.32357609,0.00000000,0.06951466,0.25006753,0.00000000,-0.00403640,0.40092215,0.00000000,0.00000000,-0.14184377,0.00000000,0.00000000,0.00000000,0,18:47:13.0,0,0
203,0.00000000,0.00000000,0.00000000,-0.01264688,0.51489455,0.14105907,-0.46000868,-0.32119155,-0.00845927,0.07507211,0.00000000,-0.03940550,0.07070354,0.00000000,-0.04941165,0.23133540,0.00000000,0.00000000,-0.20654646,0.00000000,0.00000000,0.00000000,0,18:47:13.0,0,0
204,0.00000000,0.00000000,0.00000000,-0.09707743,0.48914543,0.11449832,-0.53266490,0.04927714,-0.00283158,-0.14925677,0.00000000,-0.07403429,0.78686869,0.00000000,0.02894019,0.31796753,0.00000000,0.00000000,-0.20980829,0.00000000,0.00000000,0.00000000,0,18:47:14.0,0,0
205,0.00000000,0.00000000,0.00000000,-0.07065205,0.50595355,0.19869143,-0.29015386,-0.96319342,-0.02418870,0.04181641,0.00000000,0.07809604,-0.57986146,-4.01426363,0.07440331,0.31796753,0.00000000,0.00000000,-0.22317167,0.00000000,0.00000000,0.00000000,0,18:47:14.0,0,0
206,0.00000000,0.00000000,0.00000000,-0.02605397,0.60853082,0.29478177,-0.37562862,-2.00238800,-0.00756685,-0.22968383,0.00000000,0.05370348,-0.37452370,-4.61941767,0.07440331,-0.00272961,0.00000000,0.00000000,-0.32595947,0.00000000,0.00000000,0.00000000,0,18:47:14.0,0,0
207,0.00000000,0.00000000,0.00000000,0.11986998,0.54981434,0.24041191,-0.30806631,-1.77072966,0.01688654,-0.46306357,0.00000000,-0.04048099,-0.43296158,0.34409136,-0.04800913,-0.70956647,0.00000000,0.00000000,-0.33002844,0.00000000,0.00000000,0.00000000,0,18:47:14.0,0,0
208,0.00000000,0.00000000,0.00000000,0.25560448,0.77986079,0.32422912,-0.10748580,0.65647268,-0.01541987,-0.49917394,0.00000000,0.02779689,-0.98669398,-4.01426363,0.02933899,-0.44250852,0.00000000,0.00000000,-0.46834493,0.00000000,0.00000000,0.00000000,0,18:47:14.0,0,0
209,0.00000000,0.00000000,0.00000000,0.60305125,0.92497164,0.50058174,-0.06659257,0.89663893,0.01114945,-0.16796696,0.00000000,0.11372723,-1.32443047,-4.01426363,0.07960036,-0.50984728,0.00000000,0.00000000,-0.49643123,0.00000000,0.00000000,0.00000000,0,18:47:15.0,0,0
210,0.00000000,0.00000000,0.00000000,0.69174814,1.14323521,0.50134504,0.04831070,-0.48885497,-0.01528288,-0.09307188,0.00000000,0.04722690,-0.89210820,-1.23711920,0.00049376,-0.83875477,0.00000000,0.00000000,-0.54608351,0.00000000,0.00000000,0.00000000,0,18:47:15.0,0,0
211,0.00000000,0.00000000,0.00000000,0.81234956,1.14741278,0.44172478,0.02682060,1.13567030,0.03499757,-0.00186385,0.00000000,-0.06143712,-0.60367072,-1.23711920,-0.04646304,-0.77259713,0.00000000,0.00000000,-0.55624032,0.00000000,0.00000000,0.00000000,0,18:47:15.0,0,0
212,0.00000000,0.00000000,0.00000000,0.69948429,1.08647966,0.53398335,0.04557401,2.28828931,-0.00415703,0.36867809,0.00000000,0.11961652,-0.13629818,0.00000000,0.11027467,0.15178484,0.00000000,0.00000000,-0.59012961,0.00000000,0.00000000,0.00000000,0,18:47:15.0,0,0
213,0.00000000,0.00000000,0.00000000,0.64531499,1.14323521,0.51982075,0.01763833,0.65647268,-0.02778621,0.28409582,0.00000000,0.12093043,0.13025457,0.00000000,0.15057857,0.57216918,0.00000000,0.00000000,-0.51035863,0.00000000,0.00000000,0.00000000,0,18:47:15.0,0,0
214,0.00000000,0.00000000,0.00000000,0.42826605,1.04234195,0.39867389,-0.08214846,-1.10647082,-0.02043564,0.17248848,0.00000000,0.10874987,0.25231320,0.00000000,0.14612609,0.48563099,0.00000000,0.00000000,-0.29896921,0.00000000,0.00000000,0.00000000,0,18:47:16.0,0,0
215,0.00000000,0.00000000,0.00000000,0.24794929,0.90196645,0.29706720,-0.29503059,-1.10647082,-0.02620487,-0.04419976,0.00000000,0.07907373,0.66538870,0.00000000,0.15522857,0.40092215,0.00000000,0.00000000,-0.28351974,0.00000000,0.00000000,0.00000000,0,18:47:16.0,0,0
216,0.00000000,0.00000000,0.00000000,0.33415294,0.74759918,0.46424842,-0.16182786,-1.25385594,-0.06541204,-0.07332015,0.00000000,0.24610838,0.01321954,3.25261045,0.27899331,0.75716680,0.00000000,0.00000000,-0.43354827,0.00000000,0.00000000,0.00000000,0,18:47:16.0,0,0
217,0.00000000,0.00000000,0.00000000,0.31823209,0.84655261,0.40778303,-0.01603252,-1.51638901,-0.06469136,-0.15689743,0.00000000,0.24555580,-0.26599476,-2.36790395,0.24708217,0.75716680,0.00000000,0.00000000,-0.26313961,0.00000000,0.00000000,0.00000000,0,18:47:16.0,0,0
218,0.00000000,0.00000000,0.00000000,0.31860316,0.80746257,0.40014294,-0.08730347,-1.25385594,-0.03281702,-0.41979182,0.00000000,0.16623446,-0.29016411,-2.36790395,0.14598700,-0.08276336,0.00000000,0.00000000,-0.31758475,0.00000000,0.00000000,0.00000000,0,18:47:16.0,0,0
219,0.00000000,0.00000000,0.00000000,0.39688307,0.77730012,0.46034384,0.07024074,-0.32119155,-0.04335044,-0.32120717,0.00000000,0.24370475,-0.75448233,-2.36790395,0.20197803,-0.70956647,0.00000000,0.00000000,-0.36506122,0.00000000,0.00000000,0.00000000,0,18:47:17.0,0,0
220,0.00000000,0.00000000,0.00000000,0.47145984,0.86820781,0.52678525,0.24632090,0.65647268,-0.06934014,-0.04847220,0.00000000,0.28111452,-0.85549384,-2.36790395,0.23285291,-0.44250852,0.00000000,0.00000000,-0.53119648,0.00000000,0.00000000,0.00000000,0,18:47:17.0,0,0
221,0.00000000,0.00000000,0.00000000,0.55144668,0.83974749,0.55725980,0.13252902,0.65647268,-0.01648438,-0.03338093,0.00000000,0.21785887,-0.97259134,-2.36790395,0.19524038,0.57216918,0.00000000,0.00000000,-0.61746049,0.00000000,0.00000000,0.00000000,0,18:47:17.0,0,0
222,0.00000000,0.00000000,0.00000000,0.63836181,1.03218651,0.49129814,0.20875841,1.66130137,-0.03063742,-0.01386684,0.00000000,0.12125886,-0.25339592,0.00000000,0.11291848,-0.50984728,0.00000000,0.00000000,-0.56607413,0.00000000,0.00000000,0.00000000,0,18:47:17.0,0,0
223,0.00000000,0.00000000,0.00000000,0.49815992,1.05208564,0.47195467,0.28244996,0.89663893,-0.04319682,0.28214377,0.00000000,0.31663105,0.96627975,0.00000000,0.27980900,-0.15637089,0.00000000,0.00000000,-0.48338443,0.00000000,0.00000000,0.00000000,0,18:47:17.0,0,0
224,0.00000000,0.00000000,0.00000000,0.50441980,1.17364657,0.51755399,0.19476381,-0.14620425,-0.04039863,0.44900930,0.00000000,0.32738391,0.34208655,0.00000000,0.33862907,1.81323707,0.00000000,0.00000000,-0.58117384,0.00000000,0.00000000,0.00000000,0,18:47:18.0,0,0
225,0.00000000,0.00000000,0.00000000,0.51968175,1.07650328,0.43830878,0.08929479,-0.48885497,-0.04059741,0.29024571,0.00000000,0.25764084,-0.31887585,-1.23711920,0.25207812,0.94471610,0.00000000,0.00000000,-0.48944181,0.00000000,0.00000000,0.00000000,0,18:47:18.0,0,0
226,0.00000000,0.00000000,0.00000000,0.35705471,0.96312213,0.35707283,0.02825585,-1.25385594,-0.03154213,-0.18430778,0.00000000,0.13806994,0.97420192,0.00000000,0.17967384,0.07378279,0.00000000,0.00000000,-0.47643825,0.00000000,0.00000000,0.00000000,0,18:47:18.0,0,0
227,0.00000000,0.00000000,0.00000000,0.39688307,0.83443362,0.42896709,-0.01968750,-0.96319342,-0.07944468,-0.23773888,0.00000000,0.33703268,0.05153263,0.00000000,0.33587995,-0.22865002,0.00000000,0.00000000,-0.49145603,0.00000000,0.00000000,0.00000000,0,18:47:18.0,0,0
228,0.00000000,0.00000000,0.00000000,0.41296929,0.81268394,0.46608016,0.00824228,-0.48885497,-0.07048756,-0.07278217,0.00000000,0.32914919,0.15108490,-5.14504814,0.30647033,0.57216918,0.00000000,0.00000000,-0.55516839,0.00000000,0.00000000,0.00000000,0,18:47:18.0,0,0
229,0.00000000,0.00000000,0.00000000,0.42061085,0.79282939,0.40074342,0.08508232,-0.96319342,-0.04160751,-0.08077836,0.00000000,0.25302783,0.19883966,-4.61941767,0.19418910,-0.50984728,0.00000000,0.00000000,-0.56497788,0.00000000,0.00000000,0.00000000,0,18:47:19.0,0,0
230,0.00000000,0.00000000,0.00000000,0.46891189,0.88454413,0.37026083,0.00674340,-0.96319342,-0.00798804,-0.25831357,0.00000000,0.11760077,-0.30018520,3.25261045,0.13597523,-0.89980054,0.00000000,0.00000000,-0.61529469,0.00000000,0.00000000,0.00000000,0,18:47:19.0,0,0
231,0.00000000,0.00000000,0.00000000,0.49434820,0.90037888,0.46494266,0.23628926,3.00565886,-0.04734610,0.01647621,0.00000000,0.28779185,-0.27500558,0.00000000,0.23257416,0.07378279,0.00000000,0.00000000,-0.66141450,0.00000000,0.00000000,0.00000000,0,18:47:19.0,0,0
232,0.00000000,0.00000000,0.00000000,0.52274805,1.01557052,0.48275402,0.31623071,1.13567030,-0.05926899,0.35466212,0.00000000,0.26912972,-0.29693079,0.00000000,0.27343357,0.84984422,0.00000000,0.00000000,-0.71224833,0.00000000,0.00000000,0.00000000,0,18:47:19.0,0,0
233,0.00000000,0.00000000,0.00000000,0.45401448,1.02534866,0.47330809,0.08116090,-1.25385594,0.00645876,0.37235957,0.00000000,0.19439577,0.44254726,0.00000000,0.20812932,0.84984422,0.00000000,0.00000000,-0.58076298,0.00000000,0.00000000,0.00000000,0,18:47:19.0,0,0
234,0.00000000,0.00000000,0.00000000,0.34923428,1.15726840,0.44067913,0.22480935,0.04927714,-0.04984834,-0.08855608,0.00000000,0.17608517,2.03558874,0.00000000,0.26651904,1.25050688,0.00000000,0.00000000,-0.55817115,0.00000000,0.00000000,0.00000000,0,18:47:20.0,0,0
235,0.00000000,0.00000000,0.00000000,0.28118962,0.77437222,0.46923241,0.29001659,0.44368434,-0.05254745,0.05729204,0.00000000,0.24463689,0.37951666,0.00000000,0.29504496,0.75716680,0.00000000,0.00000000,-0.63552946,0.00000000,0.00000000,0.00000000,0,18:47:20.0,0,0
236,0.00000000,0.00000000,0.00000000,0.27255088,0.36069283,0.49226612,0.03932980,-1.38727224,-0.03608473,-0.10599881,0.00000000,0.15431203,-0.31887585,-2.36790395,0.24330533,0.84984422,0.00000000,0.00000000,-0.61158985,0.00000000,0.00000000,0.00000000,0,18:47:20.0,0,0
237,0.00000000,0.00000000,0.00000000,0.20319156,0.35614687,0.40683171,-0.09786534,-1.88823271,-0.02987917,-0.51487458,0.00000000,0.05857004,-0.02914679,-2.36790395,0.13424835,-0.08276336,0.00000000,0.00000000,-0.49145603,0.00000000,0.00000000,0.00000000,0,18:47:20.0,0,0
238,0.00000000,0.00000000,0.00000000,0.23449698,0.52623832,0.41823658,0.04848236,-0.32119155,-0.05873839,-0.27348012,0.00000000,0.18521896,-0.34119594,-2.36790395,0.21576592,-0.64552796,0.00000000,0.00000000,-0.55290538,0.00000000,0.00000000,0.00000000,0,18:47:20.0,0,0
239,0.00000000,0.00000000,0.00000000,0.45318967,0.50895965,0.47466022,-0.05101892,1.66130137,-0.04607340,-0.22174913,0.00000000,0.20987317,-0.90834320,-3.24878716,0.20197803,-0.44250852,0.00000000,0.00000000,-0.63255990,0.00000000,0.00000000,0.00000000,0,18:47:21.0,0,0
240,0.00000000,0.00000000,0.00000000,0.63412106,0.73690325,0.42570528,-0.07585387,0.44368434,-0.03633776,-0.09185243,0.00000000,0.17504561,-0.81523871,-3.24878716,0.13251069,0.31796753,0.00000000,0.00000000,-0.50239986,0.00000000,0.00000000,0.00000000,0,18:47:21.0,0,0
241,0.00000000,0.00000000,0.00000000,0.62541902,0.84452266,0.30110401,0.00999713,0.89663893,-0.01815319,0.03135923,0.00000000,0.09731965,-0.50403786,3.25261045,0.07878087,-0.64552796,0.00000000,0.00000000,-0.45872003,0.00000000,0.00000000,0.00000000,0,18:47:21.0,0,0
242,0.00000000,0.00000000,0.00000000,0.58472300,1.04304552,0.39303437,0.09979705,0.89663893,-0.02973561,0.29043418,0.00000000,0.25851065,0.60014009,0.00000000,0.22149515,-0.22865002,0.00000000,0.00000000,-0.47943276,0.00000000,0.00000000,0.00000000,0,18:47:21.0,0,0
243,0.00000000,0.00000000,0.00000000,0.51612794,0.80016834,0.35360029,0.04245952,-0.48885497,-0.01318558,0.25890875,0.00000000,0.21671623,0.96520442,0.00000000,0.21523738,1.47058654,0.00000000,0.00000000,-0.45977333,0.00000000,0.00000000,0.00000000,0,18:47:21.0,0,0
244,0.00000000,0.00000000,0.00000000,0.37296712,0.87058353,0.25717664,0.04744020,-0.64978313,-0.01806591,0.07238066,0.00000000,0.14609605,-0.04345171,-1.23711920,0.14910080,1.04845202,0.00000000,0.00000000,-0.36706582,0.00000000,0.00000000,0.00000000,0,18:47:22.0,0,0
245,0.00000000,0.00000000,0.00000000,0.27151471,0.53714108,0.19392881,-0.25914133,-1.25385594,0.01780152,-0.19872561,0.00000000,0.08160704,0.83608758,0.00000000,0.13678241,-0.15637089,0.00000000,0.00000000,-0.38005778,0.00000000,0.00000000,0.00000000,0,18:47:22.0,0,0
246,0.00000000,0.00000000,0.00000000,0.27947399,0.57793176,0.21877792,-0.07866067,-0.48885497,-0.04698078,-0.32909164,0.00000000,0.23372561,-0.44479728,0.00000000,0.17660688,-0.29964831,0.00000000,0.00000000,-0.43255240,0.00000000,0.00000000,0.00000000,0,18:47:22.0,0,0
247,0.00000000,0.00000000,0.00000000,0.31743997,0.63132089,0.14775547,-0.12490225,-0.64978313,-0.02064355,-0.28559202,0.00000000,0.19275741,-0.18050122,-5.14504814,0.13448951,0.31796753,0.00000000,0.00000000,-0.43347770,0.00000000,0.00000000,0.00000000,0,18:47:22.0,0,0
248,0.00000000,0.00000000,0.00000000,0.27168089,0.72875679,0.12031490,-0.27641755,-0.81460118,0.00724600,-0.20044321,0.00000000,0.10073511,-0.29016411,-4.01426363,0.02056539,-0.44250852,0.00000000,0.00000000,-0.47832885,0.00000000,0.00000000,0.00000000,0,18:47:22.0,0,0
249,0.00000000,0.00000000,0.00000000,0.24880102,0.79034942,0.06838915,-0.29099473,3.00565886,-0.01318420,-0.20780095,0.00000000,0.13994844,-0.62801886,0.00000000,0.09024005,-0.50984728,0.00000000,0.00000000,-0.47540268,0.00000000,0.00000000,0.00000000,0,18:47:23.0,0,0
250,0.00000000,0.00000000,0.00000000,0.26772335,0.85794377,0.04120988,-0.20119652,2.28828931,-0.02098028,0.24975196,0.00000000,0.20373642,-0.02279758,0.00000000,0.11614442,-0.00272961,0.00000000,0.00000000,-0.43857285,0.00000000,0.00000000,0.00000000,0,18:47:23.0,0,0
251,0.00000000,0.00000000,0.00000000,0.25754696,0.82016313,0.00526202,-0.49712887,-0.96319342,0.00395712,0.33634263,0.00000000,0.16678247,1.25546908,0.00000000,0.10425131,0.66658491,0.00000000,0.00000000,-0.37491626,0.00000000,0.00000000,0.00000000,0,18:47:23.0,0,0
252,0.00000000,0.00000000,0.00000000,0.17996079,0.88353229,-0.04774904,-0.55340743,-1.10647082,0.03267375,-0.06391883,0.00000000,0.05850001,1.18931150,0.00000000,0.06430177,0.31796753,0.00000000,0.00000000,-0.38105509,0.00000000,0.00000000,0.00000000,0,18:47:23.0,0,0
253,0.00000000,0.00000000,0.00000000,0.13472453,0.67398047,-0.07512331,-0.38420016,0.44368434,-0.00786811,-0.05068815,0.00000000,0.20785281,0.13294291,3.25261045,0.21442421,1.04845202,0.00000000,0.00000000,-0.34140903,0.00000000,0.00000000,0.00000000,0,18:47:23.0,0,0
254,0.00000000,0.00000000,0.00000000,0.09789500,0.58441228,-0.06870148,-0.42800874,-1.10647082,0.01058644,-0.20532614,0.00000000,0.20141473,0.25231320,0.34409136,0.17038491,0.66658491,0.00000000,0.00000000,-0.35576683,0.00000000,0.00000000,0.00000000,0,18:47:24.0,0,0
255,0.00000000,0.00000000,0.00000000,0.13470857,0.53815836,-0.08261564,-0.52075398,-1.51638901,0.03708143,-0.47007582,0.00000000,0.13208412,0.01901662,-2.36790395,0.06670113,-0.22865002,0.00000000,0.00000000,-0.28882676,0.00000000,0.00000000,0.00000000,0,18:47:24.0,0,0
256,0.00000000,0.00000000,0.00000000,0.15674248,0.67283058,-0.13279352,-0.36801216,-0.14620425,0.01156629,-0.44861165,0.00000000,0.10681812,-0.59447640,-2.36790395,0.06173114,-0.89980054,0.00000000,0.00000000,-0.33007652,0.00000000,0.00000000,0.00000000,0,18:47:24.0,0,0
257,0.00000000,0.00000000,0.00000000,0.22553988,0.72098315,-0.02771336,-0.46043631,0.89663893,0.03011073,-0.21528828,0.00000000,0.26599941,-0.88704252,3.25261045,0.14472564,-0.29964831,0.00000000,0.00000000,-0.40756243,0.00000000,0.00000000,0.00000000,0,18:47:24.0,0,0
258,0.00000000,0.00000000,0.00000000,0.18118227,0.79028219,-0.05775434,-0.35701466,0.65647268,-0.00832843,0.23590410,0.00000000,0.24373826,-0.54088813,-1.23711920,0.09981242,0.48563099,0.00000000,0.00000000,-0.34342229,0.00000000,0.00000000,0.00000000,0,18:47:24.0,0,0
259,0.00000000,0.00000000,0.00000000,0.14298175,0.87058353,-0.13817127,-0.40571165,0.44368434,0.02049848,0.05054003,0.00000000,0.16550221,0.37951666,0.00000000,0.03576806,0.07378279,0.00000000,0.00000000,-0.33416998,0.00000000,0.00000000,0.00000000,0,18:47:25.0,0,0
260,0.00000000,0.00000000,0.00000000,0.11504464,0.83429432,-0.13868582,-0.47437721,0.65647268,0.00823358,0.01002210,0.00000000,0.20509389,0.40688634,0.00000000,0.17172006,0.57216918,0.00000000,0.00000000,-0.33923733,0.00000000,0.00000000,0.00000000,0,18:47:25.0,0,0
261,0.00000000,0.00000000,0.00000000,0.04083642,0.70176542,-0.12123422,-0.57248592,0.65647268,-0.01819923,0.26620451,0.00000000,0.29903343,-0.26599476,-2.36790395,0.19490981,0.57216918,0.00000000,0.00000000,-0.29825079,0.00000000,0.00000000,0.00000000,0,18:47:25.0,0,0
262,0.00000000,0.00000000,0.00000000,0.00161368,0.56269544,-0.15499538,-0.49548826,-2.00238800,-0.01385924,-0.03249499,0.00000000,0.25756693,-0.31887585,-2.36790395,0.13548596,0.07378279,0.00000000,0.00000000,-0.33831096,0.00000000,0.00000000,0.00000000,0,18:47:25.0,0,0
263,0.00000000,0.00000000,0.00000000,0.01734403,0.51519090,-0.17881578,-0.68290007,-1.38727224,0.00433526,-0.35241538,0.00000000,0.14601403,-0.02914679,-1.23711920,0.04284240,-0.58044970,0.00000000,0.00000000,-0.37391040,0.00000000,0.00000000,0.00000000,0,18:47:25.0,0,0
264,0.00000000,0.00000000,0.00000000,-0.02058133,0.57572931,-0.13672680,-0.60828596,0.24162953,0.00164288,-0.18344261,0.00000000,0.23264532,-0.76395649,-4.01426363,0.11291848,-0.37401852,0.00000000,0.00000000,-0.40448213,0.00000000,0.00000000,0.00000000,0,18:47:26.0,0,0
265,0.00000000,0.00000000,0.00000000,0.09171125,0.67878526,-0.11315307,-0.41888779,1.13567030,-0.00551342,-0.03249499,0.00000000,0.29322949,-0.92240417,-3.24878716,0.13714503,-0.00272961,0.00000000,0.00000000,-0.42641360,0.00000000,0.00000000,0.00000000,0,18:47:26.0,0,0
266,0.00000000,0.00000000,0.00000000,0.03862955,0.76579732,-0.09344909,-0.35779706,1.13567030,0.02839842,0.22759247,0.00000000,0.24747348,-0.62055159,0.34409136,0.06843776,-0.64552796,0.00000000,0.00000000,-0.39939958,0.00000000,0.00000000,0.00000000,0,18:47:26.0,0,0
267,0.00000000,0.00000000,0.00000000,0.05513360,0.76579732,-0.11557895,-0.47529647,0.89663893,0.04503366,0.17934807,0.00000000,0.16105317,0.56838846,0.00000000,0.01908158,-0.22865002,0.00000000,0.00000000,-0.36587849,0.00000000,0.00000000,0.00000000,0,18:47:26.0,0,0
268,0.00000000,0.00000000,0.00000000,0.04939172,0.61662024,-0.07642156,-0.26639286,-0.48885497,-0.00643284,0.43134573,0.00000000,0.32170492,0.34208655,0.00000000,0.17456686,1.47058654,0.00000000,0.00000000,-0.37491626,0.00000000,0.00000000,0.00000000,0,18:47:26.0,0,0
269,0.00000000,0.00000000,0.00000000,-0.06300926,0.67775965,-0.02944836,-0.51758677,-0.96319342,0.03563096,0.34197804,0.00000000,0.31522477,-0.31887585,-3.24878716,0.17500019,1.25050688,0.00000000,0.00000000,-0.31179792,0.00000000,0.00000000,0.00000000,0,18:47:27.0,0,0
270,0.00000000,0.00000000,0.00000000,-0.03502828,0.55071718,-0.07149526,-0.48489770,-1.10647082,-0.01692306,-0.24025922,0.00000000,0.23474854,0.32348138,0.00000000,0.10248186,-0.64552796,0.00000000,0.00000000,-0.32004428,0.00000000,0.00000000,0.00000000,0,18:47:27.0,0,0
271,0.00000000,0.00000000,0.00000000,-0.06384790,0.48183492,-0.09600994,-0.42551631,0.65647268,-0.00380401,-0.32307857,0.00000000,0.27631003,-0.86811984,-2.36790395,0.15858650,-0.44250852,0.00000000,0.00000000,-0.27355698,0.00000000,0.00000000,0.00000000,0,18:47:27.0,0,0
272,0.00000000,0.00000000,0.00000000,0.06032412,0.63132089,-0.04329312,-0.45432708,-0.81460118,-0.01122563,0.07931614,0.00000000,0.36588636,-0.34301353,-5.14504814,0.13350576,-0.50984728,0.00000000,0.00000000,-0.32688040,0.00000000,0.00000000,0.00000000,0,18:47:27.0,0,0
273,0.00000000,0.00000000,0.00000000,0.05313726,0.87058353,-0.03858811,-0.53465295,-0.32119155,-0.02376743,0.15534139,0.00000000,0.32356399,-0.94569647,0.34409136,0.09997822,-0.50984728,0.00000000,0.00000000,-0.35685071,0.00000000,0.00000000,0.00000000,0,18:47:27.0,0,0
274,0.00000000,0.00000000,0.00000000,0.12304956,0.96978557,-0.13885590,-0.42755932,2.63094020,-0.00216611,0.12090658,0.00000000,0.24019012,-0.27500558,0.00000000,0.05485134,-0.00272961,0.00000000,0.00000000,-0.30345559,0.00000000,0.00000000,0.00000000,0,18:47:28.0,0,0
275,0.00000000,0.00000000,0.00000000,0.09866133,0.73412466,-0.12452117,-0.52910084,0.44368434,-0.01812456,0.46647760,0.00000000,0.38424775,0.67763454,0.00000000,0.18801594,0.31796753,0.00000000,0.00000000,-0.30757892,0.00000000,0.00000000,0.00000000,0,18:47:28.0,0,0
276,0.00000000,0.00000000,0.00000000,0.06758421,0.68030906,-0.08606133,-0.53150392,-1.10647082,-0.00708938,0.36222473,0.00000000,0.39235967,1.51821899,0.00000000,0.20505171,0.84984422,0.00000000,0.00000000,-0.23174115,0.00000000,0.00000000,0.00000000,0,18:47:28.0,0,0
277,0.00000000,0.00000000,0.00000000,-0.02784141,0.71083909,-0.14616920,-0.45261180,-1.10647082,-0.00507201,0.15354958,0.00000000,0.31194055,1.03723264,0.00000000,0.15747508,-0.08276336,0.00000000,0.00000000,-0.23174115,0.00000000,0.00000000,0.00000000,0,18:47:28.0,0,0
278,0.00000000,0.00000000,0.00000000,-0.04891625,0.59334755,-0.16751760,-0.42487776,-0.32119155,0.04039834,-0.17099321,0.00000000,0.19942537,0.23362723,-1.23711920,0.11106999,0.40092215,0.00000000,0.00000000,-0.32487559,0.00000000,0.00000000,0.00000000,0,18:47:28.0,0,0
279,0.00000000,0.00000000,0.00000000,0.12706932,0.86951995,-0.04346031,-0.37159505,0.89663893,0.01277008,0.19685800,0.00000000,0.36289293,0.48916116,0.34409136,0.23129283,1.25050688,0.00000000,0.00000000,-0.36806595,0.00000000,0.00000000,0.00000000,0,18:47:29.0,0,0
280,0.00000000,0.00000000,0.00000000,0.15872669,1.02534866,-0.09454617,-0.24578139,-1.38727224,-0.01940519,0.43072522,0.00000000,0.34809104,1.44761658,0.00000000,0.19761945,0.40092215,0.00000000,0.00000000,-0.07702096,0.00000000,0.00000000,0.00000000,0,18:47:29.0,0,0
281,0.00000000,0.00000000,0.00000000,0.03164733,0.63132089,-0.24799252,-0.59701699,-0.32119155,0.02250059,-0.08539495,0.00000000,0.26933768,0.90804434,0.00000000,0.12920858,0.23133540,0.00000000,0.00000000,-0.13746808,0.00000000,0.00000000,0.00000000,0,18:47:29.0,0,0
282,0.00000000,0.00000000,0.00000000,0.14237277,0.58815712,-0.26382253,-0.63284105,-0.81460118,-0.01440217,-0.29083383,0.00000000,0.25579825,-0.31526208,3.25261045,0.13597523,0.57216918,0.00000000,0.00000000,-0.28053474,0.00000000,0.00000000,0.00000000,0,18:47:29.0,0,0
283,0.00000000,0.00000000,0.00000000,0.08231159,0.63035983,-0.29829299,-0.58352566,-0.96319342,-0.01678713,-0.04265216,0.00000000,0.37614289,-0.31286705,-3.24878716,0.17967384,0.57216918,0.00000000,0.00000000,-0.40041277,0.00000000,0.00000000,0.00000000,0,18:47:29.0,0,0
284,0.00000000,0.00000000,0.00000000,0.24110019,0.64308906,-0.24006441,-0.52247488,-0.14620425,-0.02427346,-0.16308218,0.00000000,0.27315271,-0.05016154,3.25261045,0.09607570,-0.95993030,0.00000000,0.00000000,-0.45469433,0.00000000,0.00000000,0.00000000,0,18:47:30.0,0,0
285,0.00000000,0.00000000,0.00000000,0.26454595,0.56155324,-0.28229162,-0.71964949,0.65647268,0.00222236,-0.13000096,0.00000000,0.12622342,-0.37487566,3.25261045,0.11405222,0.75716680,0.00000000,0.00000000,-0.51659882,0.00000000,0.00000000,0.00000000,0,18:47:30.0,0,0
286,0.00000000,0.00000000,0.00000000,0.27169070,0.64931369,-0.28340614,-0.57943708,-0.14620425,0.00258891,0.45422500,0.00000000,0.21310584,-0.09933220,-1.23711920,0.16987534,0.75716680,0.00000000,0.00000000,-0.36656436,0.00000000,0.00000000,0.00000000,0,18:47:30.0,0,0
287,0.00000000,0.00000000,0.00000000,0.22553988,0.76061034,-0.33091447,-0.63103300,-0.14620425,-0.01003549,-0.12888527,0.00000000,0.21161225,0.70689934,0.00000000,0.20515326,0.66658491,0.00000000,0.00000000,-0.35069722,0.00000000,0.00000000,0.00000000,0,18:47:30.0,0,0
288,0.00000000,0.00000000,0.00000000,0.26454595,0.67283058,-0.30929169,-0.67216301,-0.81460118,0.01743422,-0.20532614,0.00000000,0.14163791,0.57166409,0.00000000,0.14059043,0.40092215,0.00000000,0.00000000,-0.39114845,0.00000000,0.00000000,0.00000000,0,18:47:30.0,0,0
289,0.00000000,0.00000000,0.00000000,0.22531477,0.66707999,-0.36779946,-0.70070124,-1.25385594,0.03630356,-0.43793595,0.00000000,0.02927163,-0.57986146,-3.24878716,0.11505568,0.57216918,0.00000000,0.00000000,-0.46626765,0.00000000,0.00000000,0.00000000,0,18:47:31.0,0,0
290,0.00000000,0.00000000,0.00000000,0.26418665,0.83429432,-0.27958626,-0.51581669,-0.96319342,0.02385369,0.00025606,0.00000000,0.22115016,0.30755156,3.25261045,0.20345162,0.40092215,0.00000000,0.00000000,-0.40853596,0.00000000,0.00000000,0.00000000,0,18:47:31.0,0,0
291,0.00000000,0.00000000,0.00000000,0.30444545,0.91186142,-0.30330712,-0.58250386,1.38987207,0.01893107,-0.16063213,0.00000000,0.22443533,-0.19326615,0.00000000,0.18057562,0.15178484,0.00000000,0.00000000,-0.47170275,0.00000000,0.00000000,0.00000000,0,18:47:31.0,0,0
292,0.00000000,0.00000000,0.00000000,0.37457138,0.94057894,-0.27239177,-0.49995703,-0.32119155,0.00488804,-0.05818760,0.00000000,0.12291227,1.77283907,0.00000000,0.10875648,0.94471610,0.00000000,0.00000000,-0.51802933,0.00000000,0.00000000,0.00000000,0,18:47:31.0,0,0
293,0.00000000,0.00000000,0.00000000,0.24037544,1.09740806,-0.28973612,-0.74245119,-0.48885497,0.03852121,-0.23779106,0.00000000,0.07861297,0.43558633,0.00000000,0.17547703,0.23133540,0.00000000,0.00000000,-0.46942368,0.00000000,0.00000000,0.00000000,0,18:47:31.0,0,0
294,0.00000000,0.00000000,0.00000000,0.18118227,0.65135336,-0.27449167,-0.69059062,-0.64978313,-0.01598778,-0.00931345,0.00000000,0.20459297,2.03558874,0.00000000,0.21082689,0.57216918,0.00000000,0.00000000,-0.35155144,0.00000000,0.00000000,0.00000000,0,18:47:32.0,0,0
295,0.00000000,0.00000000,0.00000000,0.15744086,0.53102320,-0.30803996,-0.77132303,-0.96319342,0.00569991,-0.04847220,0.00000000,0.13467729,0.55707669,-3.24878716,0.16873734,0.57216918,0.00000000,0.00000000,-0.48311695,0.00000000,0.00000000,0.00000000,0,18:47:32.0,0,0
296,0.00000000,0.00000000,0.00000000,0.18757389,0.69918728,-0.29813188,-0.77322251,-1.38727224,0.02417408,-0.17714143,0.00000000,0.03886565,0.06767321,-1.23711920,0.10365632,0.23133540,0.00000000,0.00000000,-0.46377480,0.00000000,0.00000000,0.00000000,0,18:47:32.0,0,0
297,0.00000000,0.00000000,0.00000000,0.13472453,0.63663632,-0.30028957,-0.83297324,1.66130137,-0.00119987,-0.20401236,0.00000000,0.12346756,-0.21494484,-1.23711920,0.14059043,-0.29964831,0.00000000,0.00000000,-0.41937810,0.00000000,0.00000000,0.00000000,0,18:47:32.0,0,0
298,0.00000000,0.00000000,0.00000000,0.21079469,0.83287859,-0.25786254,-0.64134324,0.65647268,-0.00039364,-0.00975300,0.00000000,0.16009979,0.18072093,0.00000000,0.15371075,0.66658491,0.00000000,0.00000000,-0.48842776,0.00000000,0.00000000,0.00000000,0,18:47:32.0,0,0
299,0.00000000,0.00000000,0.00000000,0.17335328,0.77726531,-0.28296760,-0.75351733,-1.25385594,0.00730426,0.26784348,0.00000000,0.10187876,0.44254726,0.00000000,0.09243645,0.15178484,0.00000000,0.00000000,-0.41665834,0.00000000,0.00000000,0.00000000,0,18:47:33.0,0,0
300,0.00000000,0.00000000,0.00000000,0.26386172,0.80111367,-0.20347250,-0.77912867,-1.25385594,0.03615441,-0.25870952,0.00000000,-0.00721946,1.70668125,0.00000000,0.10502093,0.23133540,0.00000000,0.00000000,-0.50344872,0.00000000,0.00000000,0.00000000,0,18:47:33.0,0,0
301,0.00000000,0.00000000,0.00000000,0.06039601,0.47987846,-0.22402562,-0.76191425,-1.25385594,0.01840916,-0.09409702,0.00000000,0.14554884,-0.48876488,0.34409136,0.17416175,0.31796753,0.00000000,0.00000000,-0.30968726,0.00000000,0.00000000,0.00000000,0,18:47:33.0,0,0
302,0.00000000,0.00000000,0.00000000,0.10586351,0.78614038,-0.19879432,-0.60925388,-0.96319342,0.02840105,-0.39665487,0.00000000,0.15576570,-0.08328462,-1.23711920,0.11238045,0.31796753,0.00000000,0.00000000,-0.21911126,0.00000000,0.00000000,0.00000000,0,18:47:33.0,0,0
303,0.00000000,0.00000000,0.00000000,0.14190891,0.90493029,-0.19567342,-0.70225203,0.04927714,0.04579972,-0.36000234,0.00000000,0.06275854,0.32348138,0.00000000,0.00299862,-0.70956647,0.00000000,0.00000000,-0.32899898,0.00000000,0.00000000,0.00000000,0,18:47:33.0,0,0
304,0.00000000,0.00000000,0.00000000,0.20750254,0.74260736,-0.20684107,-0.56969166,0.65647268,-0.00942268,-0.10548301,0.00000000,0.10985981,-0.05841470,0.00000000,0.04999557,0.75716680,0.00000000,0.00000000,-0.18642187,0.00000000,0.00000000,0.00000000,0,18:47:34.0,0,0
305,0.00000000,0.00000000,0.00000000,0.00985592,0.70817417,-0.20396994,-0.79726887,-1.10647082,0.01698856,0.38207501,0.00000000,0.19461928,0.37951666,0.00000000,0.08379523,0.57216918,0.00000000,0.00000000,-0.34361345,0.00000000,0.00000000,0.00000000,0,18:47:34.0,0,0
306,0.00000000,0.00000000,0.00000000,0.09789500,0.75599372,-0.18698528,-0.74743426,-0.48885497,-0.01303835,-0.19459422,0.00000000,0.12914848,0.44254726,0.00000000,0.07539354,0.84984422,0.00000000,0.00000000,-0.21769454,0.00000000,0.00000000,0.00000000,0,18:47:34.0,0,0
307,0.00000000,0.00000000,0.00000000,-0.05680775,0.64931369,-0.29465669,-0.87750411,-1.51638901,0.02331677,-0.23773888,0.00000000,-0.01018581,-0.25648987,0.00000000,-0.05445132,-0.15637089,0.00000000,0.00000000,-0.38295314,0.00000000,0.00000000,0.00000000,0,18:47:34.0,0,0
308,0.00000000,0.00000000,0.00000000,0.19560459,0.75845808,-0.19017056,-0.77096504,-1.10647082,-0.00449227,-0.31874648,0.00000000,0.08807093,0.91649771,-1.23711920,0.02933899,0.31796753,0.00000000,0.00000000,-0.50494719,0.00000000,0.00000000,0.00000000,0,18:47:34.0,0,0
309,0.00000000,0.00000000,0.00000000,0.12746195,0.86024481,-0.17223543,-0.86007559,-1.25385594,-0.00938278,0.06377518,0.00000000,0.14118187,0.00562382,0.00000000,-0.00224306,-0.70956647,0.00000000,0.00000000,-0.44656077,0.00000000,0.00000000,0.00000000,0,18:47:35.0,0,0
310,0.00000000,0.00000000,0.00000000,0.11627087,0.77697867,-0.27382913,-0.72727883,0.65647268,0.00821427,-0.06644484,0.00000000,0.09643249,1.70668125,3.25261045,-0.06558186,0.57216918,0.00000000,0.00000000,-0.17671899,0.00000000,0.00000000,0.00000000,0,18:47:35.0,0,0
311,0.00000000,0.00000000,0.00000000,-0.14196584,0.66772580,-0.40330517,-0.86549103,-1.25385594,0.02944451,0.14694907,0.00000000,-0.01696589,1.77283907,0.00000000,-0.10902563,0.31796753,0.00000000,0.00000000,-0.16001619,0.00000000,0.00000000,0.00000000,0,18:47:35.0,0,0
312,0.00000000,0.00000000,0.00000000,-0.02713501,0.90493029,-0.24140878,-0.73686016,-0.48885497,0.02678031,-0.14171882,0.00000000,0.08948846,1.06813598,0.00000000,0.04652847,0.48563099,0.00000000,0.00000000,-0.37598771,0.00000000,0.00000000,0.00000000,0,18:47:35.0,0,0
313,0.00000000,0.00000000,0.00000000,-0.09197819,0.68110800,-0.26599991,-0.79119265,-0.96319342,0.03157316,-0.14992613,0.00000000,0.07102790,0.12598196,0.00000000,-0.02466501,0.07378279,0.00000000,0.00000000,-0.28058040,0.00000000,0.00000000,0.00000000,0,18:47:35.0,0,0
314,0.00000000,0.00000000,0.00000000,-0.04891625,0.59905440,-0.27748132,-0.68323576,-1.10647082,0.05396821,-0.26733166,0.00000000,0.02016239,-0.68407387,-1.23711920,-0.12747468,-0.44250852,0.00000000,0.00000000,-0.12344714,0.00000000,0.00000000,0.00000000,0,18:47:36.0,0,0
315,0.00000000,0.00000000,0.00000000,-0.21195434,0.62262833,-0.31258172,-0.84413642,-0.48885497,0.07394643,-0.16796696,0.00000000,-0.02511529,-0.23715448,0.00000000,-0.10902563,-0.50984728,0.00000000,0.00000000,-0.30994543,0.00000000,0.00000000,0.00000000,0,18:47:36.0,0,0
316,0.00000000,0.00000000,0.00000000,-0.01336637,0.73302633,-0.21695338,-0.59803462,2.28828931,0.00324359,0.24721073,0.00000000,0.08386998,0.05103493,0.00000000,-0.04225665,0.48563099,0.00000000,0.00000000,-0.29825079,0.00000000,0.00000000,0.00000000,0,18:47:36.0,0,0
317,0.00000000,0.00000000,0.00000000,-0.05567442,0.85052532,-0.22693525,-0.89244479,-1.25385594,0.03218763,0.16505203,0.00000000,0.04788019,0.44254726,0.00000000,-0.06268975,0.48563099,0.00000000,0.00000000,-0.28685400,0.00000000,0.00000000,0.00000000,0,18:47:36.0,0,0
318,0.00000000,0.00000000,0.00000000,-0.13499454,0.74345541,-0.32556635,-0.92692637,-1.51638901,0.02052731,-0.35233811,0.00000000,-0.03857426,0.19218349,0.00000000,-0.15952593,-0.64552796,0.00000000,0.00000000,-0.02950351,0.00000000,0.00000000,0.00000000,0,18:47:36.0,0,0
319,0.00000000,0.00000000,0.00000000,-0.23132806,0.62097555,-0.37074450,-0.88527447,-1.10647082,0.00531484,-0.17099321,0.00000000,0.06958443,-0.48657328,0.34409136,-0.07014953,-0.50984728,0.00000000,0.00000000,-0.24109468,0.00000000,0.00000000,0.00000000,0,18:47:37.0,0,0
320,0.00000000,0.00000000,0.00000000,-0.04261525,0.78731120,-0.31265604,-0.78139794,-0.96319342,0.00683610,0.06346703,0.00000000,0.09037605,-0.37193346,0.34409136,-0.09426847,-0.64552796,0.00000000,0.00000000,-0.27044094,0.00000000,0.00000000,0.00000000,0,18:47:37.0,0,0
321,0.00000000,0.00000000,0.00000000,-0.25410160,0.82527506,-0.36498833,-0.93211651,0.04927714,0.02260919,0.02497084,0.00000000,0.01863097,-0.19553876,0.00000000,-0.15419215,-0.44250852,0.00000000,0.00000000,-0.10653688,0.00000000,0.00000000,0.00000000,0,18:47:37.0,0,0
322,0.00000000,0.00000000,0.00000000,-0.17673734,1.01086426,-0.44118857,-0.79737318,1.38987207,0.04086463,-0.02503566,0.00000000,-0.06995700,-0.29693079,0.00000000,-0.15064469,-0.15637089,0.00000000,0.00000000,-0.22625117,0.00000000,0.00000000,0.00000000,0,18:47:37.0,0,0
323,0.00000000,0.00000000,0.00000000,-0.26074371,0.86725146,-0.39333615,-0.79399067,-1.38727224,0.00297672,0.15976086,0.00000000,0.07897595,-0.09933220,3.25261045,-0.06005436,0.31796753,0.00000000,0.00000000,-0.14720881,0.00000000,0.00000000,0.00000000,0,18:47:37.0,0,0
324,0.00000000,0.00000000,0.00000000,-0.25423333,0.76197124,-0.38044679,-0.78739649,-1.51638901,0.03886515,-0.23084918,0.00000000,0.07220511,-0.30527806,0.34409136,-0.08369763,-0.89980054,0.00000000,0.00000000,-0.01301226,0.00000000,0.00000000,0.00000000,0,18:47:38.0,0,0
325,0.00000000,0.00000000,0.00000000,-0.26100156,0.62046200,-0.39805785,-0.84142685,-0.48885497,0.05685323,-0.19897740,0.00000000,-0.01913009,-0.59447640,-2.36790395,-0.17948806,-0.44250852,0.00000000,0.00000000,-0.15902975,0.00000000,0.00000000,0.00000000,0,18:47:38.0,0,0
326,0.00000000,0.00000000,0.00000000,-0.20581138,0.90014422,-0.44550097,-0.66337633,-0.14620425,0.09939933,-0.17183918,0.00000000,-0.06785250,-1.14355350,-3.24878716,-0.17212984,-0.29964831,0.00000000,0.00000000,-0.08599854,0.00000000,0.00000000,0.00000000,0,18:47:38.0,0,0
327,0.00000000,0.00000000,0.00000000,-0.30914131,0.90335929,-0.36178523,-0.74283028,0.04927714,0.06963968,0.37758267,0.00000000,0.10794975,-0.08787584,0.00000000,-0.10315369,-0.22865002,0.00000000,0.00000000,-0.14711341,0.00000000,0.00000000,0.00000000,0,18:47:38.0,0,0
328,0.00000000,0.00000000,0.00000000,-0.25884789,1.09604979,-0.36831200,-0.66336238,1.13567030,0.00437773,-0.03174569,0.00000000,0.06659387,0.06920874,0.00000000,-0.08494223,0.23133540,0.00000000,0.00000000,-0.05760571,0.00000000,0.00000000,0.00000000,0,18:47:38.0,0,0
329,0.00000000,0.00000000,0.00000000,-0.39719266,0.69061679,-0.43413314,-1.00500226,-1.10647082,0.03928109,-0.02271673,0.00000000,-0.02599482,-0.31887585,0.34409136,-0.16471829,-0.44250852,0.00000000,0.00000000,-0.15366372,0.00000000,0.00000000,0.00000000,0,18:47:39.0,0,0
330,0.00000000,0.00000000,0.00000000,-0.30908808,0.81576848,-0.43115240,-0.95206010,-0.14620425,0.00216090,-0.41256627,0.00000000,0.02068917,-1.17432308,-4.01426363,-0.10437645,-0.58044970,0.00000000,0.00000000,-0.15252885,0.00000000,0.00000000,0.00000000,0,18:47:39.0,0,0
331,0.00000000,0.00000000,0.00000000,-0.21125323,0.82894272,-0.41101789,-0.93560070,-0.14620425,0.00309926,0.01516867,0.00000000,0.09308890,-0.91333759,-2.36790395,-0.12257514,-0.70956647,0.00000000,0.00000000,-0.20233157,0.00000000,0.00000000,0.00000000,0,18:47:39.0,0,0
332,0.00000000,0.00000000,0.00000000,-0.23199862,1.10745645,-0.48012531,-0.79283440,1.66130137,0.01859886,0.04695427,0.00000000,0.06098144,-1.02606893,-4.01426363,-0.15862054,-0.08276336,0.00000000,0.00000000,-0.04814490,0.00000000,0.00000000,0.00000000,0,18:47:39.0,0,0
333,0.00000000,0.00000000,0.00000000,-0.25987524,0.99610823,-0.50251603,-1.00010288,0.24162953,0.02434747,-0.08115999,0.00000000,-0.02723032,-0.03743529,0.00000000,-0.16610116,-0.29964831,0.00000000,0.00000000,-0.05688023,0.00000000,0.00000000,0.00000000,0,18:47:39.0,0,0
334,0.00000000,0.00000000,0.00000000,-0.34203547,0.96472079,-0.50476956,-0.84969586,-0.32119155,0.01528943,-0.02503566,0.00000000,0.10867013,-0.52701211,-2.36790395,-0.04170632,0.31796753,0.00000000,0.00000000,-0.03626778,0.00000000,0.00000000,0.00000000,0,18:47:40.0,0,0
335,0.00000000,0.00000000,0.00000000,-0.24601410,0.87236923,-0.46528465,-0.82710266,-1.77072966,-0.00441516,-0.37085003,0.00000000,0.09880751,-0.42600060,-3.24878716,-0.09361226,-0.29964831,0.00000000,0.00000000,-0.16756010,0.00000000,0.00000000,0.00000000,0,18:47:40.0,0,0
336,0.00000000,0.00000000,0.00000000,-0.26779187,0.92241520,-0.47393671,-0.83356071,0.04927714,0.04969803,-0.32965600,0.00000000,0.01815760,-1.35681474,-4.01426363,-0.14551236,-0.50984728,0.00000000,0.00000000,-0.14831230,0.00000000,0.00000000,0.00000000,0,18:47:40.0,0,0
337,0.00000000,0.00000000,0.00000000,-0.12563999,0.83534062,-0.45335144,-0.89995778,0.65647268,0.07011094,-0.10201886,0.00000000,-0.04371557,-1.02606893,-3.24878716,-0.14561813,0.31796753,0.00000000,0.00000000,-0.27558190,0.00000000,0.00000000,0.00000000,0,18:47:40.0,0,0
338,0.00000000,0.00000000,0.00000000,-0.32494155,0.86913383,-0.48814493,-0.69813508,-0.81460118,0.07010960,-0.02105370,0.00000000,0.11662573,0.41404334,0.00000000,-0.05653590,0.07378279,0.00000000,0.00000000,0.06642433,0.00000000,0.00000000,0.00000000,0,18:47:40.0,0,0
339,0.00000000,0.00000000,0.00000000,-0.28897232,0.99891591,-0.42554438,-0.84767473,-0.96319342,0.05092833,-0.11277536,0.00000000,0.10352294,0.57166409,0.00000000,-0.06198409,-0.08276336,0.00000000,0.00000000,-0.21254371,0.00000000,0.00000000,0.00000000,0,18:47:41.0,0,0
340,0.00000000,0.00000000,0.00000000,-0.17745100,1.11306894,-0.39243624,-0.84715819,-1.25385594,0.01450817,-0.58649313,0.00000000,-0.00511029,-0.47682488,-2.36790395,-0.11439946,0.48563099,0.00000000,0.00000000,-0.19500926,0.00000000,0.00000000,0.00000000,0,18:47:41.0,0,0
341,0.00000000,0.00000000,0.00000000,-0.35673085,0.75437552,-0.46443185,-1.09727919,-1.10647082,0.02826607,-0.24533939,0.00000000,0.01324689,0.96732187,-1.23711920,-0.14233103,-0.37401852,0.00000000,0.00000000,-0.00869525,0.00000000,0.00000000,0.00000000,0,18:47:41.0,0,0
342,0.00000000,0.00000000,0.00000000,-0.34900677,0.79034942,-0.46293235,-0.97712696,0.89663893,-0.00710981,-0.25586671,0.00000000,0.09984876,-0.72315335,-1.23711920,-0.08615149,0.15178484,0.00000000,0.00000000,-0.12427706,0.00000000,0.00000000,0.00000000,0,18:47:41.0,0,0
343,0.00000000,0.00000000,0.00000000,-0.33576784,0.90493029,-0.46979877,-1.02450705,-0.81460118,0.00322797,0.12090658,0.00000000,0.05975571,2.10292792,0.00000000,-0.12652953,0.23133540,0.00000000,0.00000000,-0.13460179,0.00000000,0.00000000,0.00000000,0,18:47:41.0,0,0
344,0.00000000,0.00000000,0.00000000,-0.36381209,1.00995517,-0.55730116,-0.93751186,-0.32119155,0.02077973,-0.34259322,0.00000000,-0.03419074,1.00889540,0.00000000,-0.13192554,0.40092215,0.00000000,0.00000000,-0.12817858,0.00000000,0.00000000,0.00000000,0,18:47:42.0,0,0
345,0.00000000,0.00000000,0.00000000,-0.38987011,0.75810897,-0.49014580,-1.10250854,-2.11338043,-0.00046781,-0.07599407,0.00000000,0.05872102,-0.15809152,0.00000000,-0.07861796,-0.08276336,0.00000000,0.00000000,-0.13862018,0.00000000,0.00000000,0.00000000,0,18:47:42.0,0,0
346,0.00000000,0.00000000,0.00000000,-0.35611144,0.83287859,-0.47814563,-0.90353864,-1.38727224,0.00270693,-0.38686496,0.00000000,0.08312768,-0.52701211,-3.24878716,-0.12498134,-0.64552796,0.00000000,0.00000000,-0.19066331,0.00000000,0.00000000,0.00000000,0,18:47:42.0,0,0
347,0.00000000,0.00000000,0.00000000,-0.37678620,1.01861703,-0.49115461,-0.78537667,0.04927714,0.00607058,-0.02560377,0.00000000,0.03867472,-0.29693079,0.00000000,-0.16012365,-0.44250852,0.00000000,0.00000000,-0.17504460,0.00000000,0.00000000,0.00000000,0,18:47:42.0,0,0
348,0.00000000,0.00000000,0.00000000,-0.29771870,0.73632538,-0.53597033,-0.95538890,-0.81460118,0.06912985,-0.05015999,0.00000000,-0.04464968,0.13751572,0.00000000,-0.20926690,0.40092215,0.00000000,0.00000000,-0.02647942,0.00000000,0.00000000,0.00000000,0,18:47:42.0,0,0
349,0.00000000,0.00000000,0.00000000,-0.32231051,0.80291140,-0.45887753,-0.92881948,-0.96319342,0.03998856,0.30128735,0.00000000,0.09887747,1.46402597,0.34409136,-0.06292620,0.31796753,0.00000000,0.00000000,-0.08299761,0.00000000,0.00000000,0.00000000,0,18:47:43.0,0,0
350,0.00000000,0.00000000,0.00000000,-0.40970758,0.78359532,-0.47799414,-0.69402069,-0.81460118,0.05648063,-0.44604546,0.00000000,0.07172310,-0.48876488,0.00000000,-0.07796818,-0.29964831,0.00000000,0.00000000,-0.09251341,0.00000000,0.00000000,0.00000000,0,18:47:43.0,0,0
351,0.00000000,0.00000000,0.00000000,-0.30231911,0.88207877,-0.41906440,-0.87293482,0.04927714,0.05495162,-0.08488107,0.00000000,0.02640184,-0.62747276,-3.24878716,-0.20552082,-0.89980054,0.00000000,0.00000000,-0.14818554,0.00000000,0.00000000,0.00000000,0,18:47:43.0,0,0
352,0.00000000,0.00000000,0.00000000,-0.23374571,0.87026894,-0.44557199,-0.89354348,0.65647268,0.04102404,-0.11167091,0.00000000,-0.09316128,-1.07015133,0.34409136,-0.23883024,-0.70956647,0.00000000,0.00000000,-0.16541485,0.00000000,0.00000000,0.00000000,0,18:47:43.0,0,0
353,0.00000000,0.00000000,0.00000000,-0.28088179,0.91580498,-0.40597001,-0.99992639,0.44368434,0.03067565,0.27294654,0.00000000,0.05388357,0.11769032,0.00000000,-0.09361226,-0.08276336,0.00000000,0.00000000,-0.14609617,0.00000000,0.00000000,0.00000000,0,18:47:43.0,0,0
354,0.00000000,0.00000000,0.00000000,-0.33499533,0.63035983,-0.48313254,-1.04295099,-0.81460118,0.01008818,-0.03812501,0.00000000,0.03206053,0.71620941,-4.61941767,-0.04912221,1.14820576,0.00000000,0.00000000,-0.00890199,0.00000000,0.00000000,0.00000000,0,18:47:44.0,0,0
355,0.00000000,0.00000000,0.00000000,-0.39646861,0.72181439,-0.49684060,-1.05269003,-0.96319342,0.02230540,-0.43957731,0.00000000,-0.04664837,-0.91333759,-1.23711920,-0.16621158,-0.50984728,0.00000000,0.00000000,0.03749962,0.00000000,0.00000000,0.00000000,0,18:47:44.0,0,0
356,0.00000000,0.00000000,0.00000000,-0.33667982,0.68260461,-0.56495982,-0.97504592,0.44368434,0.03368619,-0.56684440,0.00000000,-0.11207422,-1.01150453,-2.36790395,-0.17261223,-0.50984728,0.00000000,0.00000000,-0.00435193,0.00000000,0.00000000,0.00000000,0,18:47:44.0,0,0
357,0.00000000,0.00000000,0.00000000,-0.27434832,1.08011127,-0.44862664,-0.89732713,1.38987207,0.01768264,0.02578819,0.00000000,0.05173282,-0.81983793,-2.36790395,-0.09357668,0.07378279,0.00000000,0.00000000,-0.05356034,0.00000000,0.00000000,0.00000000,0,18:47:44.0,0,0
358,0.00000000,0.00000000,0.00000000,-0.36773735,0.73412466,-0.52185929,-0.93259597,-0.81460118,0.03431650,-0.11305686,0.00000000,0.00332192,0.83608758,0.00000000,-0.08970973,0.48563099,0.00000000,0.00000000,0.09901530,0.00000000,0.00000000,0.00000000,0,18:47:44.0,0,0
359,0.00000000,0.00000000,0.00000000,-0.33667982,0.71529430,-0.52614015,-0.90706074,-0.64978313,0.03243081,-0.13492224,0.00000000,-0.07831017,-0.77518642,-3.24878716,-0.13933921,0.40092215,0.00000000,0.00000000,-0.09143974,0.00000000,0.00000000,0.00000000,0,18:47:45.0,0,0
360,0.00000000,0.00000000,0.00000000,-0.40970758,0.64308906,-0.50363934,-0.93173063,-1.38727224,0.05737714,-0.57900524,0.00000000,-0.02172251,0.86631012,-4.61941767,-0.07407963,0.31796753,0.00000000,0.00000000,0.02327605,0.00000000,0.00000000,0.00000000,0,18:47:45.0,0,0
361,0.00000000,0.00000000,0.00000000,-0.44372660,0.60408342,-0.50400084,-0.92100215,0.24162953,0.05468463,-0.30277532,0.00000000,0.01574344,-0.21494484,3.25261045,-0.10758084,-0.70956647,0.00000000,0.00000000,-0.00557874,0.00000000,0.00000000,0.00000000,0,18:47:45.0,0,0
362,0.00000000,0.00000000,0.00000000,-0.39042443,0.71004617,-0.54165876,-0.76809013,0.24162953,0.08157417,0.01508582,0.00000000,-0.03035004,-0.05041268,3.25261045,-0.14314356,0.48563099,0.00000000,0.00000000,-0.02433363,0.00000000,0.00000000,0.00000000,0,18:47:45.0,0,0
363,0.00000000,0.00000000,0.00000000,-0.34959483,0.94655645,-0.50427151,-1.00412846,-1.25385594,0.08705800,-0.25211188,0.00000000,-0.13240962,0.66538870,0.00000000,-0.16610116,0.23133540,0.00000000,0.00000000,-0.11737221,0.00000000,0.00000000,0.00000000,0,18:47:45.0,0,0
364,0.00000000,0.00000000,0.00000000,-0.37639725,0.64559579,-0.50349188,-1.03958511,-1.88823271,0.01216806,-0.23166209,0.00000000,0.02717635,0.60790491,0.00000000,-0.05394620,-0.08276336,0.00000000,0.00000000,-0.02540730,0.00000000,0.00000000,0.00000000,0,18:47:46.0,0,0
365,0.00000000,0.00000000,0.00000000,-0.30914131,0.77697867,-0.48665085,-1.10832596,-1.10647082,0.01995247,-0.07278217,0.00000000,0.04426672,-0.92338973,-5.60964966,-0.08362577,0.15178484,0.00000000,0.00000000,-0.06507794,0.00000000,0.00000000,0.00000000,0,18:47:46.0,0,0
366,0.00000000,0.00000000,0.00000000,-0.40352952,0.73269689,-0.57942504,-1.13609457,-0.64978313,0.03302494,-0.19000086,0.00000000,-0.04220942,-0.47854054,0.00000000,-0.15273568,-0.64552796,0.00000000,0.00000000,0.05440376,0.00000000,0.00000000,0.00000000,0,18:47:46.0,0,0
367,0.00000000,0.00000000,0.00000000,-0.28792197,1.09154058,-0.58060336,-1.09953189,1.38987207,0.05614044,-0.18599713,0.00000000,-0.11677410,-0.44479728,0.00000000,-0.12764576,0.07378279,0.00000000,0.00000000,-0.15234543,0.00000000,0.00000000,0.00000000,0,18:47:46.0,0,0
368,0.00000000,0.00000000,0.00000000,-0.46986485,0.56670332,-0.62750816,-1.04207397,-1.77072966,0.03279939,0.20254228,0.00000000,0.05095333,0.19218349,3.25261045,-0.04443921,0.31796753,0.00000000,0.00000000,0.08257139,0.00000000,0.00000000,0.00000000,0,18:47:46.0,0,0
369,0.00000000,0.00000000,0.00000000,-0.38201493,0.75526261,-0.56127799,-1.10102749,-1.38727224,0.03184525,-0.28391623,0.00000000,-0.01909851,-0.62747276,-2.36790395,-0.05338684,-0.37401852,0.00000000,0.00000000,-0.11462101,0.00000000,0.00000000,0.00000000,0,18:47:47.0,0,0
370,0.00000000,0.00000000,0.00000000,-0.34273696,0.65850478,-0.57513762,-1.04787850,-0.32119155,0.07144650,-0.13052103,0.00000000,-0.08483234,-0.78883851,-4.01426363,-0.19375184,-0.89980054,0.00000000,0.00000000,-0.14831230,0.00000000,0.00000000,0.00000000,0,18:47:47.0,0,0
371,0.00000000,0.00000000,0.00000000,-0.25399783,0.98013103,-0.60290492,-0.90306509,1.66130137,0.05943857,-0.14405915,0.00000000,-0.12711161,-0.76445508,-2.36790395,-0.11308592,-0.08276336,0.00000000,0.00000000,-0.15154064,0.00000000,0.00000000,0.00000000,0,18:47:47.0,0,0
372,0.00000000,0.00000000,0.00000000,-0.30562657,0.68030906,-0.57606214,-0.90346658,0.44368434,0.08232190,0.06392491,0.00000000,0.02305961,-0.19326615,3.25261045,-0.03472637,0.40092215,0.00000000,0.00000000,0.01259985,0.00000000,0.00000000,0.00000000,0,18:47:47.0,0,0
373,0.00000000,0.00000000,0.00000000,-0.33576784,0.55404180,-0.59359133,-1.09502339,-1.77072966,0.08247179,-0.19097249,0.00000000,-0.00487282,-0.13347185,-3.24878716,-0.01897612,0.48563099,0.00000000,0.00000000,-0.06507794,0.00000000,0.00000000,0.00000000,0,18:47:47.0,0,0
374,0.00000000,0.00000000,0.00000000,-0.35559407,0.64559579,-0.59287626,-0.92073977,0.24162953,0.09388964,-0.48612589,0.00000000,-0.13199875,-1.22325659,-4.61941767,-0.16690122,-0.44250852,0.00000000,0.00000000,-0.09255566,0.00000000,0.00000000,0.00000000,0,18:47:48.0,0,0
375,0.00000000,0.00000000,0.00000000,-0.21946263,0.63562149,-0.55318958,-1.05061364,0.04927714,0.07358152,-0.38579798,0.00000000,-0.06884024,-0.98057413,3.25261045,-0.05283870,0.23133540,0.00000000,0.00000000,-0.18201676,0.00000000,0.00000000,0.00000000,0,18:47:48.0,0,0
376,0.00000000,0.00000000,0.00000000,-0.22462910,0.77476090,-0.52436775,-1.10968542,-1.25385594,0.03531538,0.26025647,0.00000000,0.00622107,0.25231320,0.00000000,-0.08236705,0.15178484,0.00000000,0.00000000,0.02589937,0.00000000,0.00000000,0.00000000,0,18:47:48.0,0,0
377,0.00000000,0.00000000,0.00000000,-0.47710687,0.65942919,-0.61528456,-1.25623810,-0.81460118,0.05025987,-0.24306288,0.00000000,-0.04847950,0.72762823,0.00000000,-0.05237761,0.31796753,0.00000000,0.00000000,0.10793318,0.00000000,0.00000000,0.00000000,0,18:47:48.0,0,0
378,0.00000000,0.00000000,0.00000000,-0.45670068,0.51519090,-0.69626510,-1.31910157,-1.38727224,0.05339644,-0.45087290,0.00000000,-0.12405381,-0.84168780,-4.01426363,-0.13059528,0.07378279,0.00000000,0.00000000,0.05325060,0.00000000,0.00000000,0.00000000,0,18:47:48.0,0,0
379,0.00000000,0.00000000,0.00000000,-0.32256091,0.52826488,-0.58274174,-1.22776055,-0.81460118,0.03840611,-0.19750550,0.00000000,0.02603979,-0.48378587,-2.36790395,-0.04912221,-0.50984728,0.00000000,0.00000000,-0.10989904,0.00000000,0.00000000,0.00000000,0,18:47:49.0,0,0
380,0.00000000,0.00000000,0.00000000,-0.27434832,0.97243035,-0.58640283,-0.94142890,1.97264814,0.03402603,0.04824110,0.00000000,0.04726349,-0.35706067,0.00000000,-0.06976719,0.31796753,0.00000000,0.00000000,0.01148528,0.00000000,0.00000000,0.00000000,0,18:47:49.0,0,0
381,0.00000000,0.00000000,0.00000000,-0.28220412,0.75270391,-0.55713117,-1.07748532,-1.51638901,0.04777654,0.11261615,0.00000000,-0.04205443,0.37951666,0.00000000,-0.09575797,0.40092215,0.00000000,0.00000000,-0.16435260,0.00000000,0.00000000,0.00000000,0,18:47:49.0,0,0
382,0.00000000,0.00000000,0.00000000,-0.35673085,0.79017103,-0.60694921,-1.08942056,-1.25385594,0.07852645,-0.28479826,0.00000000,-0.10159028,0.16868472,-1.23711920,-0.12111631,-0.70956647,0.00000000,0.00000000,0.13112879,0.00000000,0.00000000,0.00000000,0,18:47:49.0,0,0
383,0.00000000,0.00000000,0.00000000,-0.41516167,0.77949053,-0.54519725,-0.86248112,-0.81460118,0.02116382,-0.02579900,0.00000000,0.08465835,-0.58070225,-2.36790395,-0.02830428,-0.44250852,0.00000000,0.00000000,-0.01721267,0.00000000,0.00000000,0.00000000,0,18:47:49.0,0,0
384,0.00000000,0.00000000,0.00000000,-0.25987524,0.78121305,-0.51376170,-0.78017277,0.65647268,0.08700597,0.00715983,0.00000000,0.07214494,-1.31472254,-4.01426363,-0.05654701,-0.15637089,0.00000000,0.00000000,0.19272014,0.00000000,0.00000000,0.00000000,0,18:47:50.0,0,0
385,0.00000000,0.00000000,0.00000000,-0.32923076,0.87026894,-0.52081096,-0.95889342,0.04927714,0.10294010,0.23137021,0.00000000,-0.00957951,-0.16972733,0.00000000,-0.11308592,-0.29964831,0.00000000,0.00000000,-0.14381558,0.00000000,0.00000000,0.00000000,0,18:47:50.0,0,0
386,0.00000000,0.00000000,0.00000000,-0.34595555,0.51350969,-0.56608796,-0.90476531,-0.81460118,0.08511104,-0.19846058,0.00000000,-0.02789968,0.52545881,-2.36790395,-0.03945702,0.40092215,0.00000000,0.00000000,0.20004749,0.00000000,0.00000000,0.00000000,0,18:47:50.0,0,0
387,0.00000000,0.00000000,0.00000000,-0.48807791,0.48557854,-0.52667069,-0.97351182,-1.38727224,0.04551827,-0.34078538,0.00000000,0.10718874,-0.71011657,-4.01426363,-0.01198941,-0.64552796,0.00000000,0.00000000,0.08597569,0.00000000,0.00000000,0.00000000,0,18:47:50.0,0,0
388,0.00000000,0.00000000,0.00000000,-0.19877124,0.64673662,-0.42819095,-0.95235240,0.89663893,0.00893810,-0.41473755,0.00000000,0.05903306,-0.53602445,0.34409136,-0.02793752,-0.29964831,0.00000000,0.00000000,-0.03837799,0.00000000,0.00000000,0.00000000,0,18:47:50.0,0,0
389,0.00000000,0.00000000,0.00000000,-0.25399783,0.56269544,-0.47282338,-1.15157259,-0.96319342,0.06055357,0.06158140,0.00000000,-0.05549471,0.19218349,-1.23711920,-0.13130042,-0.22865002,0.00000000,0.00000000,-0.04044174,0.00000000,0.00000000,0.00000000,0,18:47:51.0,0,0
390,0.00000000,0.00000000,0.00000000,-0.33576784,0.54767889,-0.52328742,-1.13181388,-0.96319342,0.03737691,-0.19459422,0.00000000,0.00683448,1.64563560,0.00000000,0.01629483,0.94471610,0.00000000,0.00000000,0.03401946,0.00000000,0.00000000,0.00000000,0,18:47:51.0,0,0
391,0.00000000,0.00000000,0.00000000,-0.32923076,0.43882170,-0.44740385,-1.11582792,-1.51638901,0.03029192,-0.13782954,0.00000000,0.06410255,-0.18915272,-2.36790395,0.01304854,0.48563099,0.00000000,0.00000000,-0.04153388,0.00000000,0.00000000,0.00000000,0,18:47:51.0,0,0
392,0.00000000,0.00000000,0.00000000,-0.37678620,0.40470973,-0.51194948,-0.99156731,-1.51638901,0.04042006,-0.15782771,0.00000000,0.02610019,0.64585346,0.00000000,-0.07611703,-0.64552796,0.00000000,0.00000000,0.12187355,0.00000000,0.00000000,0.00000000,0,18:47:51.0,0,0
393,0.00000000,0.00000000,0.00000000,-0.43066284,0.61141646,-0.53708375,-0.93419135,1.38987207,0.05402637,-0.08834523,0.00000000,-0.05457178,-0.36801887,0.00000000,-0.13961360,-0.29964831,0.00000000,0.00000000,0.09542301,0.00000000,0.00000000,0.00000000,0,18:47:51.0,0,0
394,0.00000000,0.00000000,0.00000000,-0.37678620,0.69789207,-0.47180817,-0.95249134,-1.51638901,0.05962794,0.13835196,0.00000000,0.10332082,0.94665599,3.25261045,0.00891955,0.15178484,0.00000000,0.00000000,0.17200062,0.00000000,0.00000000,0.00000000,0,18:47:52.0,0,0
395,0.00000000,0.00000000,0.00000000,-0.33547348,0.66163278,-0.47337410,-0.83981490,-1.51638901,0.01566098,-0.16901368,0.00000000,0.13245700,0.71786094,-1.23711920,0.01540696,-0.29964831,0.00000000,0.00000000,-0.01437882,0.00000000,0.00000000,0.00000000,0,18:47:52.0,0,0
396,0.00000000,0.00000000,0.00000000,-0.27434832,0.58878934,-0.50280750,-0.80337816,-0.96319342,0.09029390,-0.12108320,0.00000000,0.05398338,-0.53397310,-3.24878716,-0.12773517,-1.01917076,0.00000000,0.00000000,-0.04814490,0.00000000,0.00000000,0.00000000,0,18:47:52.0,0,0
397,0.00000000,0.00000000,0.00000000,-0.17745100,1.01594555,-0.46841615,-0.86784035,1.38987207,0.11776149,-0.12196136,0.00000000,-0.04547953,-1.26025367,-2.36790395,-0.14233103,-0.58044970,0.00000000,0.00000000,-0.04150888,0.00000000,0.00000000,0.00000000,0,18:47:52.0,0,0
398,0.00000000,0.00000000,0.00000000,-0.35523114,0.74543178,-0.50112313,-0.77288735,-0.14620425,0.06290151,0.16505203,0.00000000,0.10867287,-0.13711953,0.00000000,0.04003195,0.31796753,0.00000000,0.00000000,0.14871639,0.00000000,0.00000000,0.00000000,0,18:47:52.0,0,0
399,0.00000000,0.00000000,0.00000000,-0.27456009,0.47969696,-0.47157863,-0.91956210,-1.51638901,0.06258513,-0.27682620,0.00000000,0.08459385,0.81346130,0.34409136,0.02775398,0.23133540,0.00000000,0.00000000,-0.03354224,0.00000000,0.00000000,0.00000000,0,18:47:53.0,0,0
400,0.00000000,0.00000000,0.00000000,-0.35522088,0.53102320,-0.51026696,-1.00470626,0.04927714,0.03775087,-0.35737720,0.00000000,0.00533175,-1.25729656,-4.61941767,-0.07796818,-0.95993030,0.00000000,0.00000000,0.12254103,0.00000000,0.00000000,0.00000000,0,18:47:53.0,0,0
401,0.00000000,0.00000000,0.00000000,-0.19817039,0.67283058,-0.52595294,-1.11076474,0.44368434,0.06899166,-0.30000246,0.00000000,-0.09640823,-0.43235970,0.34409136,-0.08615149,-0.00272961,0.00000000,0.00000000,-0.13639598,0.00000000,0.00000000,0.00000000,0,18:47:53.0,0,0
402,0.00000000,0.00000000,0.00000000,-0.26100156,0.94342077,-0.50898427,-1.02445710,-1.38727224,0.02212712,0.24048066,0.00000000,0.13509868,1.25546908,0.00000000,0.03017334,0.31796753,0.00000000,0.00000000,-0.11957055,0.00000000,0.00000000,0.00000000,0,18:47:53.0,0,0
403,0.00000000,0.00000000,0.00000000,-0.26074371,0.56923372,-0.48531693,-1.10766542,-1.88823271,0.04183677,-0.25503805,0.00000000,0.07470713,0.25231320,0.00000000,0.01160996,-0.37401852,0.00000000,0.00000000,-0.18770793,0.00000000,0.00000000,0.00000000,0,18:47:53.0,0,0
404,0.00000000,0.00000000,0.00000000,-0.34919447,0.25445950,-0.63713884,-1.10473323,-1.51638901,0.06005542,-0.29760778,0.00000000,0.00583164,-0.63101590,-5.14504814,-0.10827899,-0.29964831,0.00000000,0.00000000,0.07099985,0.00000000,0.00000000,0.00000000,0,18:47:54.0,0,0
405,0.00000000,0.00000000,0.00000000,-0.19718684,0.50809431,-0.52413225,-0.96595436,-0.48885497,0.06436923,-0.28753939,0.00000000,-0.05806858,-0.29693079,0.00000000,-0.06292620,-0.64552796,0.00000000,0.00000000,-0.16225809,0.00000000,0.00000000,0.00000000,0,18:47:54.0,0,0
406,0.00000000,0.00000000,0.00000000,-0.26488754,0.78974855,-0.53192085,-0.93886554,0.24162953,0.07018487,0.01672906,0.00000000,0.07843733,-0.00991607,0.00000000,0.03017334,0.94471610,0.00000000,0.00000000,0.02517140,0.00000000,0.00000000,0.00000000,0,18:47:54.0,0,0
407,0.00000000,0.00000000,0.00000000,-0.24045032,0.78359532,-0.50335342,-0.82699519,-1.51638901,0.04903544,0.16503692,0.00000000,0.05510489,0.01321954,-1.23711920,0.00009046,-0.00272961,0.00000000,0.00000000,-0.25953719,0.00000000,0.00000000,0.00000000,0,18:47:54.0,0,0
408,0.00000000,0.00000000,0.00000000,-0.34344804,0.51649135,-0.57514489,-0.86129946,0.24162953,0.10853343,-0.50795740,0.00000000,-0.05331974,-1.41625464,-5.60964966,-0.11439946,-0.58044970,0.00000000,0.00000000,0.12840252,0.00000000,0.00000000,0.00000000,0,18:47:54.0,0,0
409,0.00000000,0.00000000,0.00000000,-0.29567695,0.71083909,-0.52317780,-0.92990738,0.65647268,0.10295020,0.03307921,0.00000000,0.09749676,-1.36025858,-3.24878716,-0.03064999,-0.58044970,0.00000000,0.00000000,0.14171608,0.00000000,0.00000000,0.00000000,0,18:47:55.0,0,0
410,0.00000000,0.00000000,0.00000000,-0.32740834,0.66163278,-0.58375776,-0.88728750,-0.81460118,0.07194503,-0.11167091,0.00000000,0.12028828,0.97420192,0.00000000,0.04661924,0.31796753,0.00000000,0.00000000,0.10221136,0.00000000,0.00000000,0.00000000,0,18:47:55.0,0,0
411,0.00000000,0.00000000,0.00000000,-0.19118428,0.71490949,-0.53038931,-0.99258721,-0.81460118,0.07148407,-0.09759673,0.00000000,0.04639802,-0.31887585,-3.24878716,-0.02459155,0.07378279,0.00000000,0.00000000,-0.11743782,0.00000000,0.00000000,0.00000000,0,18:47:55.0,0,0
412,0.00000000,0.00000000,0.00000000,-0.37573195,0.46924478,-0.59805018,-1.16418731,-1.25385594,0.05256000,-0.47070849,0.00000000,-0.04749095,-0.62878227,-3.24878716,-0.06503797,-0.44250852,0.00000000,0.00000000,0.12040348,0.00000000,0.00000000,0.00000000,0,18:47:55.0,0,0
413,0.00000000,0.00000000,0.00000000,-0.21278271,0.80765492,-0.51584172,-1.03609776,2.28828931,0.02694825,-0.20611839,0.00000000,0.14165291,-0.83116198,-1.23711920,0.04003195,-0.50984728,0.00000000,0.00000000,-0.03837799,0.00000000,0.00000000,0.00000000,0,18:47:55.0,0,0
414,0.00000000,0.00000000,0.00000000,-0.26779187,0.81857216,-0.58032155,-1.07066381,-0.81460118,0.04050161,0.15574796,0.00000000,0.11208609,0.70960534,0.00000000,0.03261827,0.23133540,0.00000000,0.00000000,-0.17319182,0.00000000,0.00000000,0.00000000,0,18:47:56.0,0,0
415,0.00000000,0.00000000,0.00000000,-0.28788224,0.85052532,-0.54231197,-1.11317253,-1.38727224,0.06312522,-0.19026543,0.00000000,0.00746217,0.58572376,0.00000000,-0.02006799,-0.15637089,0.00000000,0.00000000,-0.00836406,0.00000000,0.00000000,0.00000000,0,18:47:56.0,0,0
416,0.00000000,0.00000000,0.00000000,-0.54791641,0.50809431,-0.66590494,-1.03337324,-1.25385594,0.05704013,-0.35059813,0.00000000,0.04053584,-0.53397310,-2.36790395,0.01020177,-0.58044970,0.00000000,0.00000000,0.15304129,0.00000000,0.00000000,0.00000000,0,18:47:56.0,0,0
417,0.00000000,0.00000000,0.00000000,-0.12001766,1.04410338,-0.45749807,-0.79203290,0.24162953,0.02243260,0.10756409,0.00000000,0.15273243,-0.95551157,3.25261045,0.05435587,-0.44250852,0.00000000,0.00000000,-0.28037566,0.00000000,0.00000000,0.00000000,0,18:47:56.0,0,0
418,0.00000000,0.00000000,0.00000000,-0.32740834,0.96102273,-0.51628309,-0.92009115,0.04927714,0.06934099,0.00100683,0.00000000,0.09632241,-0.10669661,0.00000000,0.04661924,-0.08276336,0.00000000,0.00000000,0.03554332,0.00000000,0.00000000,0.00000000,0,18:47:56.0,0,0
419,0.00000000,0.00000000,0.00000000,-0.17041086,0.91598856,-0.49040750,-0.82045048,-1.51638901,0.04606988,-0.23084918,0.00000000,0.01338768,0.39912748,-2.36790395,0.01947949,0.23133540,0.00000000,0.00000000,-0.25263730,0.00000000,0.00000000,0.00000000,0,18:47:57.0,0,0
420,0.00000000,0.00000000,0.00000000,-0.39033389,0.64308906,-0.55089581,-0.79993802,0.24162953,0.08001988,-0.27484101,0.00000000,0.07877722,-0.95726401,-3.24878716,0.04056950,-0.44250852,0.00000000,0.00000000,0.07887337,0.00000000,0.00000000,0.00000000,0,18:47:57.0,0,0
421,0.00000000,0.00000000,0.00000000,-0.19118428,0.88515258,-0.44103339,-0.92022991,0.44368434,0.07202449,-0.08757192,0.00000000,0.10951208,-0.62055159,0.00000000,0.08697565,0.57216918,0.00000000,0.00000000,-0.19066331,0.00000000,0.00000000,0.00000000,0,18:47:57.0,0,0
422,0.00000000,0.00000000,0.00000000,-0.34203547,0.79462266,-0.55035746,-0.92831719,-0.32119155,0.06382185,-0.32208496,0.00000000,0.05193516,0.61636460,0.00000000,0.06712028,0.48563099,0.00000000,0.00000000,0.00890388,0.00000000,0.00000000,0.00000000,0,18:47:57.0,0,0
423,0.00000000,0.00000000,0.00000000,-0.38331658,0.35881698,-0.56590033,-1.09334612,-2.00238800,0.06990308,-0.30002347,0.00000000,-0.03168812,0.37951666,0.00000000,-0.01490360,-0.37401852,0.00000000,0.00000000,0.04677978,0.00000000,0.00000000,0.00000000,0,18:47:57.0,0,0
424,0.00000000,0.00000000,0.00000000,-0.38824302,0.62071383,-0.50472087,-1.12168121,-1.25385594,0.02261555,-0.25128227,0.00000000,0.11107822,0.55707669,-3.24878716,0.05932586,-0.29964831,0.00000000,0.00000000,-0.10977861,0.00000000,0.00000000,0.00000000,0,18:47:58.0,0,0
425,0.00000000,0.00000000,0.00000000,-0.29567695,0.89013028,-0.45760912,-1.07350147,0.44368434,0.04604554,0.12285191,0.00000000,0.09525397,-0.38466763,0.00000000,0.03030561,-0.29964831,0.00000000,0.00000000,-0.11925703,0.00000000,0.00000000,0.00000000,0,18:47:58.0,0,0
426,0.00000000,0.00000000,0.00000000,-0.40353057,0.77362168,-0.57773322,-1.09049618,-0.81460118,0.05364213,-0.01760386,0.00000000,0.01169492,0.42903149,0.00000000,0.05024495,1.25050688,0.00000000,0.00000000,0.05662793,0.00000000,0.00000000,0.00000000,0,18:47:58.0,0,0
427,0.00000000,0.00000000,0.00000000,-0.34959483,0.86797106,-0.54061258,-1.15570998,-1.51638901,0.07131539,-0.25535542,0.00000000,-0.05022606,0.71786094,0.34409136,-0.01106432,-0.58044970,0.00000000,0.00000000,-0.07207166,0.00000000,0.00000000,0.00000000,0,18:47:58.0,0,0
428,0.00000000,0.00000000,0.00000000,-0.42290324,0.67795360,-0.54740149,-0.95947456,0.65647268,0.03960378,-0.15128493,0.00000000,0.10576610,-0.99857759,-4.01426363,0.10138704,-0.37401852,0.00000000,0.00000000,-0.01771255,0.00000000,0.00000000,0.00000000,0,18:47:58.0,0,0
429,0.00000000,0.00000000,0.00000000,-0.26800931,1.07454884,-0.48425916,-0.81174719,1.66130137,0.03753942,0.11243802,0.00000000,0.09074572,-0.83116198,-2.36790395,0.04681407,-0.00272961,0.00000000,0.00000000,0.02380487,0.00000000,0.00000000,0.00000000,0,18:47:59.0,0,0
430,0.00000000,0.00000000,0.00000000,-0.39719266,0.58234996,-0.54761070,-1.03499639,-1.10647082,0.09784347,-0.07939449,0.00000000,-0.01243884,1.17163563,0.00000000,0.04607309,0.57216918,0.00000000,0.00000000,0.05530470,0.00000000,0.00000000,0.00000000,0,18:47:59.0,0,0
431,0.00000000,0.00000000,0.00000000,-0.31551370,0.60570991,-0.52954280,-0.93813783,-1.64147401,0.06220082,-0.66533816,0.00000000,-0.11401668,-0.47682488,-4.01426363,0.00476529,0.07378279,0.00000000,0.00000000,0.07607049,0.00000000,0.00000000,0.00000000,0,18:47:59.0,0,0
432,0.00000000,0.00000000,0.00000000,-0.52193975,0.35434988,-0.59455383,-0.88796961,-0.48885497,0.08184122,-0.12196136,0.00000000,0.08415490,-0.32583684,-2.36790395,0.04777462,-0.50984728,0.00000000,0.00000000,0.10110013,0.00000000,0.00000000,0.00000000,0,18:47:59.0,0,0
433,0.00000000,0.00000000,0.00000000,-0.20399316,0.82031977,-0.43486634,-0.97463775,0.24162953,0.08161261,0.07351598,0.00000000,0.06879678,0.02990341,0.00000000,0.07167706,0.40092215,0.00000000,0.00000000,-0.16527204,0.00000000,0.00000000,0.00000000,0,18:47:59.0,0,0
434,0.00000000,0.00000000,0.00000000,-0.47605270,0.47085363,-0.60536021,-1.05414212,-0.81460118,0.08123587,0.19260222,0.00000000,-0.01673282,0.71786094,0.34409136,-0.01220679,0.23133540,0.00000000,0.00000000,-0.02285413,0.00000000,0.00000000,0.00000000,0,18:48:00.0,0,0
435,0.00000000,0.00000000,0.00000000,-0.44363695,0.37883776,-0.60182476,-1.10934281,-1.64147401,0.08446488,-0.46213168,0.00000000,-0.13295928,-1.22635698,-4.01426363,-0.05243692,-0.58044970,0.00000000,0.00000000,0.04677978,0.00000000,0.00000000,0.00000000,0,18:48:00.0,0,0
436,0.00000000,0.00000000,0.00000000,-0.51579046,0.55231971,-0.63156533,-1.15395665,0.89663893,0.06587563,-0.07587519,0.00000000,-0.01719624,-1.41044569,-2.36790395,-0.01100130,-0.77259713,0.00000000,0.00000000,0.05083496,0.00000000,0.00000000,0.00000000,0,18:48:00.0,0,0
437,0.00000000,0.00000000,0.00000000,-0.31551370,0.82070112,-0.53418446,-1.13589382,-0.14620425,0.05494996,-0.08935514,0.00000000,0.00405838,0.37421966,0.00000000,0.05041624,0.23133540,0.00000000,0.00000000,-0.11849342,0.00000000,0.00000000,0.00000000,0,18:48:00.0,0,0
438,0.00000000,0.00000000,0.00000000,-0.63212103,0.30953223,-0.72063315,-1.24697220,-1.51638901,0.06569891,-0.26917100,0.00000000,-0.04948496,0.29609108,-3.24878716,0.02229522,0.48563099,0.00000000,0.00000000,0.25170708,0.00000000,0.00000000,0.00000000,0,18:48:00.0,0,0
439,0.00000000,0.00000000,0.00000000,-0.32734424,0.35954243,-0.58611739,-1.21114969,-1.25385594,0.08636166,-0.60685718,0.00000000,-0.14781111,1.01879883,-4.01426363,-0.11156229,-1.08141017,0.00000000,0.00000000,-0.18319607,0.00000000,0.00000000,0.00000000,0,18:48:01.0,0,0
440,0.00000000,0.00000000,0.00000000,-0.54744953,0.27669245,-0.68274218,-1.13307691,0.89663893,0.09247294,-0.11018503,0.00000000,-0.06975894,-0.53602445,3.25261045,-0.03679654,0.07378279,0.00000000,0.00000000,0.10675723,0.00000000,0.00000000,0.00000000,0,18:48:01.0,0,0
441,0.00000000,0.00000000,0.00000000,-0.45674750,0.57888621,-0.61273491,-1.04056430,-1.38727224,0.06192094,0.22277310,0.00000000,-0.02739190,1.64563560,0.00000000,0.01259762,0.75716680,0.00000000,0.00000000,-0.05681819,0.00000000,0.00000000,0.00000000,0,18:48:01.0,0,0
442,0.00000000,0.00000000,0.00000000,-0.49641675,0.25445950,-0.64300990,-1.21264124,-2.11338043,0.12167436,-0.37843999,0.00000000,-0.10741707,0.01321954,0.34409136,-0.01720433,-0.00272961,0.00000000,0.00000000,-0.07727220,0.00000000,0.00000000,0.00000000,0,18:48:01.0,0,0
443,0.00000000,0.00000000,0.00000000,-0.44369382,0.34538108,-0.65155953,-1.04743075,-0.32119155,0.08454201,-0.29001960,0.00000000,-0.16984384,-0.86625767,-3.24878716,-0.17629030,-0.95993030,0.00000000,0.00000000,-0.02303213,0.00000000,0.00000000,0.00000000,0,18:48:01.0,0,0
