-4.631791669554646655e-03
-4.664765884656764915e-03
-4.757516182432005095e-03
-2.792061783000656695e-03
2.745176239543286028e-03
6.049542732514847157e-03
5.441560525930057117e-03
3.142612063151222455e-04
-4.900328120121532315e-03
-5.156861574068574358e-03
-1.053418553736177980e-03
5.572734149625632825e-04
1.062540287554665465e-03
3.527252493407236761e-03
5.368647113896531792e-03
3.391391699288103228e-03
-1.786888717906443425e-03
-3.445579791447968190e-03
-3.255341504152431311e-03
-2.884344950758870995e-03
-2.471624295940714165e-03
-1.237630996036143301e-03
3.783183547402197214e-04
1.326380089280702239e-03
1.774845720814153096e-03
5.244120247758163496e-03
6.550672639550165870e-03
8.091259762304449550e-04
-4.817962346789879217e-03
-5.767156967370639167e-03
-2.666395596660711947e-03
-4.179157493206962434e-04
1.720931579092036673e-03
2.203429610419006379e-03
-1.585987481575082837e-03
-4.024319345384574399e-03
-2.531532035328523493e-04
4.513217092291826882e-03
6.279534005301469143e-03
5.017231174631329831e-03
2.988129701819088480e-03
6.277996210872199140e-04
-3.908319409642060233e-03
-8.332497568723028214e-03
-1.110497621165296503e-02
-9.297329976320612907e-03
-4.087950976037459973e-03
5.336494787749064550e-03
1.231383245867603664e-02
1.215966249870010021e-02
7.349413345389401060e-03
3.809042556620525745e-05
-3.515096568507788694e-03
-3.472968910165566934e-03
-2.906624259731981161e-03
-2.144608077425478893e-03
-1.819723086508759011e-03
-2.709470380480596095e-04
-2.695947039563649419e-03
-4.822986477883237783e-03
-2.524390171134888866e-03
2.840990506094800885e-03
4.272228940068658644e-03
1.940275849648997629e-03
2.421813500716961907e-03
1.912213380630819679e-03
1.330589539432593723e-03
2.200148713278072751e-03
2.224649640350735529e-03
7.840701067520993404e-04
-3.198604449899121287e-03
-6.982028820335670419e-03
-8.582104019604325229e-03
-5.703346957742467561e-03
7.502392969507653935e-04
5.146222762399825339e-03
7.495612754617960588e-03
6.734852003901429900e-03
2.706296971588092928e-03
1.240163782819298551e-04
-1.801786910617934456e-03
-2.191116928888362826e-03
-1.237663707313306841e-03
-2.494093386638137917e-03
-3.408230472725245607e-03
-1.728970765499141318e-03
5.283914082976201229e-04
1.813513609712127678e-03
3.177714565375211377e-03
2.933527870090515272e-03
-9.038272301258609177e-04
-2.834310633879798518e-03
-9.622874390916461647e-05
3.366628098096545625e-03
7.195867094152168155e-04
-2.962374859728861710e-03
-5.954459975814273623e-03
-5.611365507675886675e-03
4.094005963252052294e-04
6.362189762474195626e-03
6.038945826119647940e-03
3.141840896260367482e-03
-1.231345663083195565e-03
-2.179684328652806233e-03
3.035084849296797670e-04
1.789565834375648774e-03
2.827474431786511887e-04
-3.624982351485796315e-03
-2.631835018443007008e-03
4.911383438450920604e-04
1.446495761014100160e-03
-1.926548093336094645e-03
-2.937891957613869044e-03
-1.458041695714773099e-03
3.253088409777290559e-03
8.578400388395645421e-03
5.491638691617091797e-03
-5.267963823662649009e-03
-8.311977386225992068e-03
-4.882128435792063362e-03
1.493948154796618816e-03
5.155808925685716887e-03
5.176730287798589694e-03
2.305329630462174943e-05
-5.426714813977450563e-03
-1.560071884827701457e-03
5.370552672552228110e-03
3.319030776598687425e-03
-3.734078649702020532e-03
-5.699645114333096521e-03
-3.927870215326937677e-03
-2.228413194803719702e-04
2.850780428358070176e-03
5.627947933745968030e-03
5.237820279254103151e-03
2.011053822196253414e-03
-1.131194855279563614e-03
-3.560044706646744214e-03
-6.328209864139429722e-03
-7.592287835607901096e-03
-4.597041718423662202e-03
3.118759271789030545e-03
1.188925788872638618e-02
1.086793270354262722e-02
2.473648614035435078e-03
-4.627407827070550116e-03
-3.911338733963373032e-03
-1.521162523281407953e-03
-2.071820124401476792e-03
-1.779821879705140338e-03
-2.345866802548476297e-03
-3.171355407616599596e-03
-3.036855622469378322e-03
-5.612758130933296133e-04
3.964592649541004606e-03
5.675896414770856269e-03
5.354271357750024773e-03
3.322310949253868845e-03
1.426415073374047611e-03
-9.300537028246024657e-04
-5.564777022705040890e-03
-7.733033104044774800e-03
-4.671734909575639069e-03
-2.618764533045997520e-03
1.190715321004392081e-03
5.246294165321586586e-03
6.200405134155049028e-03
3.290383218658618145e-03
-4.427712671596258087e-04
-7.488460516044518917e-04
5.069444199246972996e-05
-1.136502904431174873e-03
-8.304458084506684116e-05
2.250166441818322437e-03
2.922810090029673898e-03
1.902553769696348511e-03
-2.813478680535314632e-03
-6.039954124800898071e-03
-6.540175791729308484e-03
-4.279436982376092977e-03
-2.410985190178198748e-03
-1.787545641874120021e-03
2.846807507360681489e-03
6.522183285889045050e-03
7.005410796820578379e-03
2.962820212378649513e-03
2.653768327046793652e-03
1.498913200538675231e-03
1.155108428080270193e-03
-9.387521461072742828e-05
-1.991310252903658561e-03
-2.453753967611054573e-03
-4.278580733725791639e-03
-3.236660936588114500e-03
-2.564320004458391263e-03
-4.569144977365527729e-03
-3.916433877728543039e-03
2.297703297337753709e-03
5.692489532745492048e-03
6.434493264869611817e-03
3.925613369920770770e-03
9.198465927211679251e-04
-1.971483779184866805e-03
-1.396980313721041256e-03
1.911136617125140994e-04
3.373179165957277672e-04
-8.205880719861218409e-04
-1.617105446030952165e-03
-1.450678350889728031e-03
-7.818720611983966898e-04
-5.219031317347942907e-04
-3.538496993729663793e-04
2.029831201543568029e-03
1.160540806836343449e-03
-2.932998977381342555e-03
-3.658737675984053469e-03
-6.811075385844782542e-04
2.975534195861985649e-03
3.060589796702825952e-03
1.877092647547044975e-03
1.566554948678307952e-03
2.125143859156223072e-03
7.943340848835318997e-04
1.501271317829524783e-04
-1.354592472533461310e-03
-3.741206707133025704e-03
-3.671437723229095586e-03
-2.990111560426657929e-03
-2.467944350442543601e-03
1.860545492058834557e-03
5.573525878680996200e-03
3.947550779051708751e-03
1.416542585320331501e-03
-1.551866207198288744e-03
-1.285314475971596412e-03
-1.282947956402671896e-03
-9.240952106211875860e-04
-9.618113636336751704e-04
-2.150363144460678850e-03
-2.805077314367536347e-03
-9.402595258625151380e-04
2.066766168180302413e-03
4.373007478731637601e-03
4.736683645991484476e-03
2.364465585323343669e-03
-9.510775988861241113e-04
-6.762369932140489641e-04
1.159828615240099652e-03
6.999330912192190494e-04
4.569155403997657603e-05
-2.808770862241712855e-03
-4.360197411892979477e-03
-3.833864856154258795e-03
-3.793838827233697239e-03
-2.973494690512144562e-03
-4.367020283622962025e-03
-5.870957575614278029e-04
7.970037824152459080e-03
1.159167577338236256e-02
8.332761214114822387e-03
1.723658897481072840e-03
-2.892506812008692908e-03
-2.782737659949112256e-03
-1.634688840185780350e-03
-4.516084881924491840e-03
-5.662477800051999438e-03
-1.900534668660647849e-03
1.556813581929941074e-03
3.624363627035605967e-03
6.312979097915737397e-04
-2.845502252083328791e-03
-2.527452127948924803e-03
3.885785470729521875e-03
4.812755958940759422e-03
1.186248455822973974e-03
-2.398256780419329940e-03
-1.345877674890254456e-03
-2.049680568177820669e-03
-3.733800063116790666e-03
-1.506506415816903600e-03
2.651903162703608124e-03
3.244395928932578606e-03
7.162707542905316985e-04
-2.240359675078670680e-04
1.918493619683299531e-03
4.663930256276026601e-03
4.306585484403590083e-03
-2.402846303012123354e-03
-4.825143613626327321e-03
-1.316157611076635130e-03
1.431291700071735522e-05
-5.724618662996304452e-03
-6.165609884136083636e-03
-2.048750941580569380e-03
2.694118641509243416e-03
5.970805120149341901e-03
4.472202703797951984e-03
3.813642523261260610e-04
-1.072025192717923105e-03
-6.173856121540559870e-04
-3.674678461762096240e-04
1.063753717867589555e-03
3.678653761660397991e-03
2.740434581124189060e-03
-8.562221788522165274e-05
-2.527461722706523476e-03
-3.381385434050573468e-03
-2.814107797785138452e-03
-1.139672182922973637e-03
-8.018317818692922115e-04
-7.283175581868609090e-04
5.805255551556892338e-06
4.974155891477154970e-04
4.538047274542454223e-04
-7.260939036923743251e-04
-1.513451213380020977e-03
2.815904023196709027e-03
4.310554797720249527e-03
3.247513486808538841e-03
3.555644949688456947e-03
2.595055826406572706e-03
1.154059605464419097e-05
-1.952790131573760388e-03
-2.878745155915720701e-03
-5.538081780902929380e-03
-9.481028724489496892e-03
-5.999330896560061202e-03
2.051997497088219990e-04
3.071550515193094497e-03
6.160413244590769513e-03
6.626235258785849805e-03
4.061438983140824507e-03
7.969882933309738703e-04
-3.892573250069935979e-04
-6.985737503950610518e-04
-5.805695689001398509e-04
-2.325514301578953096e-03
-2.127531808793936986e-03
-1.526353214121812987e-03
-8.101263277436211306e-05
5.414272293154129501e-05
-9.866184487014781866e-04
-4.745586079508300106e-04
2.183690257174410090e-03
2.089481135730558974e-03
1.059578006815221820e-03
2.744008872008199193e-03
1.945907102599329832e-03
-1.644356541780310748e-03
-3.905761196519114131e-03
-4.373077059604181353e-03
-3.948242022291556866e-03
-4.291452622190374162e-03
-1.720404838412332212e-03
3.935829442895544955e-03
6.128300604170627310e-03
5.470031990866968535e-03
4.698394674376075650e-03
3.639596492471873328e-03
3.636017102496243332e-03
-7.870103462283894254e-05
-2.809651419221619907e-03
-6.720983821834112734e-03
-7.249649965347144606e-03
-6.986794240111306870e-03
-5.910739007189716628e-03
-1.388711365969731455e-03
4.799474808265862848e-03
6.149462655564607444e-03
3.173847526481127831e-03
2.173946100229686481e-03
7.377098222290140624e-04
1.773573374215056588e-03
3.285202605687048780e-03
1.271289332689264258e-03
1.045502346426944822e-04
2.313476883968905093e-03
1.722670603117263093e-03
-1.738319765200502676e-03
-4.315746758370571715e-03
-1.026667453125863696e-04
-4.116236090013539704e-04
-8.899125658438254358e-03
-1.134146586532967099e-02
-5.697017879569115859e-03
4.754503681231721408e-03
1.033558455371124882e-02
3.963788270433825714e-03
-2.225995334190325730e-03
6.794984321882883635e-04
7.684491128283843508e-03
6.747227901701227312e-03
5.330093487146914978e-03
1.868734306345243810e-03
-2.930555629798523715e-03
-7.608903634428641760e-03
-8.420503123880164129e-03
-4.512812507134368947e-03
-2.093915196023093007e-04
1.816143123947572518e-04
-7.651173847164770454e-04
-9.176325192972937909e-04
-1.183780441253731415e-03
3.487260875176435501e-03
6.857907251218448713e-03
3.452227641350744201e-03
-3.055248763223836119e-03
-3.503953569457473986e-03
-3.296813654956674535e-05
2.769242545692716159e-03
4.579942776388155196e-03
3.240879106285654652e-03
1.017596905758079602e-03
-2.110516413083816500e-03
-5.699538567355160769e-03
-6.090815427896267321e-03
-4.495724876558825078e-03
-2.875161007412307523e-03
9.420136658210465259e-04
5.931861842528302411e-03
6.040452117410236889e-03
3.454968418353297419e-03
1.581161167642415773e-03
-1.215340873139519103e-03
-3.981296654426013867e-03
-3.329479390294551224e-03
-3.357731899010503278e-03
-2.832579900241091308e-03
2.368087683382737608e-03
4.147425728880349029e-03
2.635297524330701673e-03
1.915472485033959055e-03
7.186061791842751623e-04
2.800445115191069721e-03
2.602143003080161898e-03
-1.164744994702005768e-03
-3.224125307336087130e-03
-2.258571030445587473e-03
-4.261540041251414904e-03
-3.918213314002777156e-03
-1.677426818917950307e-04
5.922290576444570222e-04
1.288293721371251829e-03
1.045363801308801755e-03
-8.739962073668077380e-05
-1.904286709632190076e-03
-2.064190915401268277e-03
2.226491556808365621e-03
6.733399138837531904e-03
6.447879979674247218e-03
3.368175131503685273e-03
-1.586733803820554716e-03
-3.996881892204828118e-03
-4.177453748469027450e-03
-3.970633436806430758e-03
-2.164764119712237530e-03
6.248792240672665366e-04
-3.320966575351457298e-04
-1.490201917506576220e-04
-1.871600749736838324e-03
1.515539239418685336e-04
1.497679234832845901e-03
2.162860997443053889e-03
2.745087280501643835e-03
1.543878239460660983e-03
2.037294757995954022e-03
3.881033947372514517e-03
3.369518889402484119e-03
6.121350234567627703e-04
-3.970924270390654987e-03
-5.523420070271493725e-03
-6.345307143021958543e-03
-7.345186727019025787e-03
-4.378014019222060092e-03
1.071321144147956237e-03
5.850615264027509907e-03
8.643829472876311468e-03
5.997494340497951798e-03
9.715411106503725187e-05
-4.441074939133853733e-03
-2.251438130687276242e-03
1.946695540049308898e-03
1.130921225602708616e-03
-1.377392076375171827e-04
4.013022805433177171e-04
-7.991791509033283666e-04
-4.241676949165542818e-03
-4.634839739122248621e-03
5.640569375104996334e-04
6.879003933999468766e-03
8.310868627577988610e-03
4.054101205784850157e-03
-1.194676684444274679e-03
-5.167436310167851550e-03
-6.190099468414936301e-03
-6.994744310672583801e-03
-7.700007675907574733e-03
-2.608625888447708898e-03
4.071710838345407937e-03
6.614576431074793532e-03
5.702493483888043668e-03
7.047188916271367176e-03
4.447340541606582646e-03
-9.883030565894274262e-04
-4.809070430263742528e-03
-5.477670815557682607e-03
-2.232201697810082784e-03
1.856541973953343666e-04
7.737467955851127783e-05
-1.210950806790867538e-03
-5.041445018065875784e-05
5.046700888714080943e-03
5.188354654391531470e-03
1.245881495504941880e-03
-4.383802169249956943e-03
-6.555290002302096956e-03
-3.476121153368485431e-03
-6.215954128480606568e-05
1.828862272971426822e-03
4.465685921683188592e-03
6.461537315303842767e-03
3.689832758135765632e-03
-3.390985159824318283e-03
-5.464000316539716420e-03
-2.510818503436357003e-03
-4.542419003132013543e-04
-2.766586362600457604e-03
-2.384455309461217237e-03
-1.548352950891287820e-03
-3.627788047430602911e-04
3.961985986945640997e-03
5.661147261080905213e-03
1.703048389581429158e-03
-8.890538490370935611e-04
1.687237860234662868e-03
5.131974832905950891e-03
4.217675615295993566e-03
4.234672405435185513e-04
-6.451454491624414485e-03
-8.668714686937906838e-03
-2.752363569891367896e-03
2.916712294832777240e-04
-1.371362841948588641e-03
-2.083677575773405875e-03
3.167257098051570480e-04
3.882350468006439716e-03
4.383156948978035941e-03
2.626565353031342850e-03
4.863873618513197584e-04
-3.208978043012815015e-04
-4.494439783268706218e-03
-4.839973966970960786e-03
1.249671898743500136e-03
5.232674520647764144e-03
4.050154502743545833e-03
1.957801924897000032e-03
1.513666374482222187e-04
-1.552543758707667417e-03
-1.814394593349710934e-03
-3.872251223557291334e-03
-5.010656755191960667e-03
-2.204673678201017790e-03
2.387620828560801153e-03
3.408500847995773065e-03
2.980878456870121335e-03
1.399465035133293104e-03
2.165497137325474077e-03
3.441662152061529013e-03
-1.032026778978165950e-03
-7.136609197469561891e-03
-7.850565621065083363e-03
-3.931197036637478631e-03
8.144395338256734708e-04
5.173290494999613007e-03
7.472258175841765479e-03
6.949702376563119538e-03
4.823016981119856647e-03
6.276350005899925498e-04
-5.033742618436844174e-03
-7.283254619214003280e-03
-6.119658714860923970e-03
-3.669274187769310230e-03
-2.354147761658649789e-03
9.051646834266581162e-04
4.768643422395414146e-03
3.625671047089841156e-03
-5.070180566195516339e-04
1.706137014147180754e-03
3.723918332705298314e-03
5.557924633833860074e-03
3.702466339970756151e-03
-6.236209706376848877e-04
-6.661983043699254078e-03
-8.923625487437752621e-03
-6.341819560736976225e-03
-2.881639488587515573e-03
-1.437557546216306891e-03
5.013809665959325160e-03
7.775059168900729303e-03
3.938976934690196184e-03
1.268378638654037768e-03
2.630832244895333228e-03
1.726847825229721467e-03
-1.038457408640983039e-03
-2.518633077527839773e-03
-2.161549972253958354e-03
-2.614572208945054304e-03
3.510712038990561681e-04
1.364800922510261538e-03
-1.971636680011714228e-04
-2.499023676779111008e-03
-3.839190724182581661e-03
-3.261899400872746418e-03
-1.021506705018769914e-04
3.874101825782193514e-03
4.007400134066946285e-03
1.132062074529927020e-03
8.084796705283667402e-04
-5.664510446526651796e-04
-1.419267976146190886e-03
-1.716122856963920662e-03
5.452583630831696121e-04
1.705492937520587931e-03
6.834203347330545467e-04
1.723713803350890132e-03
2.954778541185477860e-03
1.274498696304574323e-03
-2.763217696419028886e-03
-3.723504101729102015e-03
-2.577725828842708771e-03
1.235056410801586759e-03
3.250112237033014190e-03
8.460001416001562604e-04
-4.976539780679734275e-04
-1.542605603044047919e-03
-3.646405308779003800e-03
-3.270554045996327142e-03
-1.290970897824844209e-03
1.423183149833411694e-03
-1.335969070764085999e-03
-4.793590676047405907e-03
2.529959172535887080e-03
1.195894080056050628e-02
1.098593222489009993e-02
2.496910742656661183e-03
-3.772090677385868829e-03
-7.405380383705998867e-03
-5.552879561197556456e-03
2.093571650595422550e-04
8.328373828011196960e-04
-1.735875849775422560e-03
-2.639332228610200091e-03
-3.637300570424194419e-04
-9.563050766614892358e-05
1.993650070611678853e-03
1.808964930926172882e-03
4.515511779217857170e-04
7.069675092132535633e-04
1.244257844172443235e-03
7.334996244223934356e-04
-2.308914641858871193e-03
-3.266170871324331360e-03
-4.087792752782046582e-03
-7.794247285822612781e-04
4.845976530534074241e-03
8.676107467462191095e-03
4.908925146527856435e-03
-2.045047781258563842e-03
-5.953330967233696515e-03
-4.099367539511332773e-03
-7.889428059817175064e-04
2.418405835539117268e-03
1.829076176117416233e-03
3.148519588416112507e-04
-3.150943252016769774e-04
-1.449589995611029209e-03
-2.792452926562672896e-03
-3.278595760423076537e-03
-3.364274242688666903e-03
-4.516669786233872778e-04
3.784190758059801773e-03
5.528947004004225105e-03
6.456334539926886391e-03
5.945530497256830416e-03
2.302914378772497831e-03
-3.267936562011470713e-03
-6.662424440808677878e-03
-8.195128171680868615e-03
-7.713796308344192387e-03
2.850222819584589777e-04
6.361370904560614652e-03
3.372134636218212817e-03
-8.675081432802217961e-04
-6.777305792843970125e-04
1.531327710348541135e-03
9.021223541541257239e-04
9.610100550516164665e-04
2.172669607231373593e-03
8.715692374439637860e-04
7.067348408643010262e-04
-7.843108567334652892e-04
-1.949705747333624816e-03
-1.903129840048038007e-03
-8.258971446628432522e-04
9.515400046284654308e-04
3.715221606900467270e-03
2.876865447735141215e-03
2.673317187761102380e-04
-3.033577409275197475e-03
-7.001697362177028254e-03
-7.938934761927335382e-03
-3.510944228651341568e-03
3.739378834900471040e-03
6.844367323056124025e-03
5.849847367174735094e-03
6.381223423508101088e-04
-3.786196526890739725e-04
8.184757682466337753e-04
2.535688703351495887e-03
2.757808826398732479e-03
-8.590673438793001234e-05
-2.692456529906779236e-03
-1.762982542910316924e-03
-1.779746774171167296e-03
-3.404983301780015355e-03
-4.087828961281804105e-03
-2.639905290163758588e-03
1.833412616333824231e-03
4.591798528991629380e-03
4.108652865519900506e-03
3.290128385220377535e-03
9.287206478531383896e-04
-2.499496605884240271e-03
-4.683110900285870903e-03
-4.985762818732530910e-03
-3.531886988347021118e-03
7.750765412233026966e-04
3.231321066673206125e-03
3.858899976164927807e-03
6.946250780100317844e-03
9.145885526757735820e-03
3.137694292405247051e-03
-4.057713352309655526e-03
-9.538331747807170941e-03
-9.939329300204030257e-03
-7.686562110362998336e-03
-2.451185408257289342e-03
2.287091111057207044e-03
6.407602217113187761e-03
6.887479526118601113e-03
4.510441239892193366e-03
2.642134746798717893e-03
1.429637680069875943e-03
-9.780118684163175737e-04
-4.003187045794986791e-03
-2.805797356929542845e-03
-1.554982870705419549e-03
-1.504180005873928278e-04
-3.225278053219952576e-04
1.542052342701496440e-03
2.653742622497431373e-03
1.299060650108614613e-03
1.420244809192210828e-03
1.047291215440240787e-04
-4.936874979672671929e-03
-5.757400808906894783e-03
-4.010403583423708708e-03
-2.560098363151524278e-03
1.607648322226543503e-04
6.331664196370889036e-03
9.889522833691653456e-03
5.985224562114426980e-03
5.942159081102041558e-04
-4.437719386260459073e-03
-5.747702697336874375e-03
-4.404668498089645522e-03
1.964782656322647855e-04
2.860167198643527673e-03
1.747123709135336555e-03
-7.087949646971624350e-04
-1.309057179031745347e-03
-1.277532245893318570e-03
1.674870993737783646e-03
3.890440296728103244e-03
4.462784600359680394e-03
1.880450471040979749e-03
-4.599437739983973893e-03
-7.474587785192531204e-03
-1.068271111779423022e-02
-1.007325156420017971e-02
-1.499354872850470772e-03
1.017323603848919837e-02
1.807875614106213211e-02
1.471959356339756601e-02
2.340048263592062628e-03
-6.766935610726165784e-03
-7.649583442700654511e-03
-4.367891005836324961e-03
-9.817761937123427839e-04
3.798724212286329425e-03
5.482973436892220678e-03
8.258784549900546890e-04
-6.673636848220776754e-03
-9.821443473045971331e-03
-8.562054255366888592e-03
-7.693549261956872908e-03
-3.905137247334624934e-03
1.699844522631319566e-03
8.473946690502236548e-03
1.270311307650465703e-02
1.217322398749079784e-02
1.028259712617313887e-02
5.053197283523543776e-03
-3.389862645570015844e-03
-8.080986548559730698e-03
-5.732643269949581726e-03
-4.048535764106536532e-03
-4.928640779549876665e-03
-5.834359606248214723e-03
-3.292926315586518996e-03
-1.745771289061958092e-03
4.880558250133482621e-04
2.052424199040386778e-03
5.317768321141764717e-04
1.141901781492817144e-03
4.516484908861652034e-03
8.990830360122577594e-03
7.699740755593558264e-03
3.683453613849325698e-03
-1.096188298656561397e-03
-4.835440554842375914e-03
-4.509338130224660804e-03
-5.478750368791010864e-03
-8.668355317143805125e-03
-9.038469382412964506e-03
-6.266793345097366151e-03
2.114649269616384903e-03
1.308469538328377486e-02
1.751659755823381515e-02
8.107426735595198511e-03
-2.772088566628612329e-03
-7.339234069617043069e-03
-3.770427947941587012e-03
-1.690825859078932741e-03
-1.876298762875647837e-03
-3.269258013624906905e-03
-2.061078629573168380e-03
-1.914858084378660494e-03
-1.301404387305321857e-03
7.004714721321383258e-04
2.875408568231186800e-03
5.225651891831406895e-03
4.391180781010251867e-03
2.040905640134674411e-03
-7.728136202618052578e-04
-7.133382826886710756e-04
-2.441848226611190685e-04
-1.674827066331570054e-03
-2.122064212487004883e-03
-2.815243352803678892e-03
-4.059273120171211051e-03
-4.166281189209619304e-03
6.957579799048824697e-04
2.920235760596366463e-03
4.668382487184533601e-03
3.370046768128608702e-03
1.181297614851984853e-03
2.523472216489123197e-04
-4.774578564178742594e-04
-9.118432162953500294e-05
2.018229012972230351e-03
-2.587782414848495676e-04
-3.877071962153916165e-03
-3.806417118543339948e-03
-2.642975584036210118e-03
1.751095341581837290e-03
3.887988147929673059e-03
8.769337202238133020e-04
-5.578503940327210909e-04
-8.630766387169460339e-04
-1.808569458727640560e-04
4.293193994575044011e-04
-1.010690100672416436e-03
-1.142840631078864081e-03
2.838539991646436153e-05
-1.021452132845437997e-04
5.832131391878085918e-04
1.752919171816818070e-03
2.152447350080834154e-03
1.894270895712230930e-03
9.340914815039239299e-04
7.523296515160591332e-04
2.380019917065101249e-04
-1.407971262722295573e-03
-3.600575912547160189e-03
-1.468019193378482376e-03
4.178517321185306298e-04
-1.733938289693872595e-03
-8.631227034247403521e-04
1.103357001716842936e-03
-1.716793215832381576e-03
-7.111688205567344087e-03
-7.680473666250621674e-03
1.988260135599985608e-03
1.294998889821906592e-02
1.196908149415971782e-02
5.471164976266241174e-03
1.994527165766704028e-03
-3.371616000930672662e-03
-6.704299655606437564e-03
-2.564297443636696493e-03
1.362706311018867331e-03
-1.231324067073223498e-03
-5.810997506046175487e-03
-7.522684295542038727e-03
-4.702964663506883566e-03
9.674836601901970999e-04
5.833832758106226833e-03
4.872817856002563744e-03
3.742259385835435166e-03
5.349118165030754615e-03
1.759559466365333887e-03
-3.371653996795703333e-03
-4.108384943088589508e-03
2.919974283380273768e-04
3.092525127390467147e-03
1.218646193321573905e-03
-2.144630322820979384e-03
-4.489844920086402463e-04
6.556165896161932505e-04
-4.470596625400422713e-03
-8.181851745232908771e-03
-6.180213807851742472e-03
2.329007599168874797e-03
9.597855549144388571e-03
9.249488015698808727e-03
2.988092990487474076e-03
-1.997759231614394757e-03
-4.022451116175758054e-03
-2.477783819744004776e-03
-2.103916835780290841e-03
-6.276687839584873824e-04
2.084539780899483368e-03
4.486935195342624944e-03
4.577775296709015937e-03
2.343668987588751803e-03
-3.289168368517149822e-03
-6.670221761652415232e-03
-7.324764145195573548e-03
-4.765734217023960204e-03
-1.852642598158983547e-03
1.613003991807545820e-03
2.625802484932043736e-03
3.362162993871959694e-03
3.697087160232305231e-03
3.945548102323866504e-03
3.943777807487766629e-03
2.133074643318008234e-03
7.498011364208858991e-04
1.709997871483824768e-03
2.071487048469263924e-04
-2.615344342194745979e-03
-3.165681985558058392e-03
-3.788648971842202562e-03
-6.198551181881503842e-03
-5.524814785806591091e-03
-2.518287237985666459e-03
3.770944644246969606e-03
6.376124592180800431e-03
3.072619954257530591e-03
-3.171066531225219792e-03
-4.505245518385705625e-03
3.505706950486134712e-04
3.508211367579034713e-03
4.233501382736531461e-03
4.366043043885999876e-03
4.046271662626904457e-03
2.022473037564393762e-03
-8.356322672143402797e-04
-2.599185916455156505e-03
-3.782898244906069633e-03
-3.523446022635807681e-03
-3.111936815420074685e-05
-1.724109961496242578e-03
-4.947991208208172599e-03
-2.520094598560030600e-03
-2.105702424256496619e-04
1.259568885774836697e-03
3.314522926559953196e-03
3.719959632596618864e-03
3.138968036628292206e-03
1.312736059191663401e-03
-5.015761462072248177e-04
-4.568555196969586660e-03
-3.248000273882440617e-03
3.609792215184464120e-03
4.849878763797309429e-03
2.918665662521081373e-04
1.189923505517457170e-03
2.159703634545388686e-03
-1.422904112710721841e-03
-4.109960534430849577e-03
-5.331437775639538343e-03
-4.662183097159790929e-03
3.158859729781291793e-04
3.638030196243123311e-03
4.383520902666503301e-03
1.333491528542439649e-03
-7.747101582685114295e-04
-4.043815712097391119e-04
-2.888655413640525650e-04
-2.609184723234030025e-04
-1.526636270746804423e-04
-1.013968229760891214e-04
2.128417232991143863e-04
8.039240322127915936e-04
1.074162596289711651e-03
-1.253998706647094447e-03
-2.356125516463049557e-03
-6.982388040419695114e-04
-1.004252389261209820e-03
2.070750220256700573e-03
4.409164613436915119e-03
1.281117194395199176e-03
-6.005323546265273378e-04
-1.694928618513132914e-03
-3.070678056568792915e-03
-6.062267742347690353e-04
8.205150830856294819e-04
2.896804839977363058e-03
7.527612511915031564e-04
-2.541079009853621081e-04
-1.934478067550232227e-03
-3.960418637771843421e-03
-3.867141084947101157e-03
-5.650463174596285013e-04
7.742312677626757549e-04
1.836758027622841481e-03
3.075652542193869996e-03
4.166122481700946893e-03
4.461851996495185164e-03
1.469506975581954828e-03
-3.808410468282734124e-03
-5.038508574667040218e-03
2.429764910155768950e-03
7.532193679981521138e-03
5.011281473772022724e-03
4.583223381390149915e-04
-7.380557168172542128e-03
-1.164576923572512197e-02
-1.002625887574753322e-02
-4.912384617252728639e-03
5.675999842614672629e-04
6.965709305951903185e-03
9.197405478049728786e-03
6.297627205494110529e-03
4.964322067315678384e-04
-1.109586677040377400e-03
-6.001825648443447937e-04
7.389078358531125999e-05
1.074061219091075429e-03
1.013127480304366109e-03
-1.210929280784797234e-03
-1.833405499536039894e-03
3.050313906783701755e-04
2.237645729296979490e-03
3.864930045726832838e-04
-2.565911926216071868e-03
-2.859778300104729148e-03
1.599474759158702082e-03
2.851996687920550257e-03
-7.876623179356512846e-04
-2.441129199492311774e-03
-3.451735996599381191e-03
-4.842078695661689372e-03
-4.266457454282149633e-03
-3.035736931589229186e-03
1.657610009679445513e-03
8.034527300534440725e-03
1.140099874198025748e-02
6.279196844979285236e-03
-6.249642372759913779e-04
-2.780829714740254682e-03
-2.069348101095451389e-03
-1.453386344066527527e-03
-1.156407258075135402e-03
-2.470238381591127221e-03
-1.339850126945292454e-03
-2.596059098750234072e-04
1.344094311918466855e-03
4.017654425198784879e-04
-2.473740175429285128e-03
-2.529950872960594430e-03
-1.710735238382949785e-03
-5.150731932322897243e-03
-4.243632236710305657e-03
3.102925763826297652e-04
5.973681279569195701e-03
8.365147037104702851e-03
5.831459032871592375e-03
3.259268906059963663e-03
3.225160071440761212e-03
2.642083457911093523e-03
-1.130959246086166593e-03
-2.041055512143209304e-03
-2.880074573128444271e-03
-6.731318569899619707e-03
-8.265336125317225210e-03
-4.722379143498379485e-03
-3.083637556408364445e-03
-2.679446611150438674e-03
2.266435417661079733e-04
5.410096884495473046e-03
6.997153894619026308e-03
6.272787200513703885e-03
2.517618372635985983e-03
7.846350472470700783e-04
-3.101101476743937067e-04
-3.470289166921422096e-04
3.968517754814846442e-03
3.095248272018487259e-03
-2.296103263261563884e-03
-6.197564707790309893e-03
-5.800779842597513294e-03
-2.710477640619107006e-03
2.706973916921968145e-03
3.240183504474256418e-03
-6.696087162724992424e-04
-1.386321175887343139e-03
-3.001639232016099865e-03
-5.011413326732320171e-03
-3.235981607795741875e-03
8.659223075026128719e-04
5.683529566523989711e-03
5.174771528775542334e-03
3.051046791662382750e-03
4.533280252853185213e-03
3.074820955214589095e-03
-1.175006441756776699e-03
-3.199427472372844312e-03
-1.044720954057882026e-03
-3.902517257684123050e-03
-6.317537941125724033e-03
-2.526496912197834666e-03
3.627172334254437618e-03
9.529661312509428092e-03
8.458193218759377935e-03
-3.465099226680015167e-04
-7.406374135838431072e-03
-1.116322300134898506e-02
-1.080787457562494037e-02
-5.214915486165429617e-03
3.084709053390672241e-03
7.133513336143083167e-03
5.915429180028529237e-03
7.858056584495161020e-03
1.129634959036441080e-02
8.743251548066051371e-03
-1.385522890706230540e-04
-1.051529743150560366e-02
-1.145957569130227893e-02
-7.457716854947795369e-03
-2.839380064379253953e-03
-2.230976303129614691e-03
1.042938208957998238e-03
5.886033202075982400e-03
8.158982541235067568e-03
3.576781603236541679e-03
-3.909100220280954489e-04
-1.457819826498760012e-03
-3.741894973099638144e-03
-3.727040776862723930e-03
-2.012360127904052731e-03
-5.660310133535153849e-04
9.357475710380985454e-04
1.597724721144465777e-03
2.660890080662988398e-03
3.838979712301124510e-03
2.402152698158547314e-03
-1.091767307629101715e-04
-2.461305058628375161e-03
-2.352855958648902932e-03
-2.364626632696197831e-03
-3.550271161390077760e-03
-1.774345885215742376e-03
5.373735518848956998e-04
1.415116883218272724e-03
1.479101609609571617e-03
1.648505463381430645e-03
2.834607199739571509e-03
3.193453165588932500e-03
8.728765128187157378e-04
-1.408179389539434851e-03
1.336024167670229643e-04
3.025245168172060670e-03
3.724073106120451455e-04
-5.709190603109896497e-03
-7.295148935658140807e-03
-3.620670556191015865e-03
-1.242955244964421362e-05
2.485666451128596809e-03
2.684238375665945649e-03
1.228030529957669726e-03
1.049449778696108938e-03
2.481953131947617179e-03
3.714874264961717017e-03
1.859719611622844947e-03
-7.943697209572349489e-04
-5.630333534004291693e-03
-5.342508557074627899e-03
-7.199576909188219569e-04
3.627310957489962660e-03
3.236892021780493969e-03
2.645486433994407097e-03
1.810405776170849555e-03
9.947953203981402346e-04
-6.027239588365658051e-04
-4.539713891388186262e-03
-6.413097695679063383e-03
-2.112988767678767883e-03
4.244007961887386743e-03
5.350404852642147435e-03
1.846104156331742577e-03
-1.497491850864850465e-03
-2.187729931547780990e-03
-1.538537012758411492e-03
-2.231534610262090722e-03
-4.504601477354193938e-03
-3.409332235853252888e-03
1.571272053252490818e-03
5.602433026758415341e-03
7.953669668061109921e-03
6.044724331595615133e-03
-4.358644347340645021e-04
-4.189399751678517074e-03
-2.969173284042442643e-03
-1.560165309897648851e-03
-1.777933265326649582e-04
3.487502755155705292e-04
-6.561896118748981356e-04
-2.013144683929693664e-04
-4.751664730064581767e-04
1.685074376241275061e-03
1.978129805727240047e-03
-5.264781011808102951e-04
-4.303639705108868591e-03
-4.610382096650430389e-03
-6.592881365937366001e-04
1.479376570675614531e-03
-1.208084509094846035e-03
1.413489242377099069e-05
3.196270443942183983e-03
2.565302983132356548e-03
1.034112079968111352e-03
1.807656730800410571e-03
5.179038748308358378e-03
7.158640437416005295e-03
4.361268130286853964e-03
-4.767346297339374039e-03
-1.063624560145634210e-02
-1.157682530764758515e-02
-6.056724252498784343e-03
-9.181528742684594811e-04
4.794856096582744524e-03
8.235659367837551426e-03
4.732934219640289736e-03
-1.839608773410577724e-03
-4.867563183698755958e-03
-3.698617520033889178e-03
3.203605165276337098e-04
5.365925924451987739e-03
7.762915249405443786e-03
5.951762064384993195e-03
1.101119644219078052e-03
-1.361727643928565927e-03
-3.036016539179784476e-03
-2.621958021076547813e-03
-3.695432484721145831e-03
-4.783534667926098854e-03
-4.853342474895300240e-03
-2.699518257002569976e-03
9.190249050850360542e-04
2.971281045757529372e-03
1.201595529458039657e-03
3.805820878710823411e-04
2.839411902045987837e-03
6.328946004367626277e-03
4.474025560884760042e-03
-1.937013196318601149e-03
-3.884700111094619660e-03
-2.733401275879875688e-03
-1.379726031157958981e-03
4.794456841284034515e-04
2.076166439729231275e-03
8.099103596591481153e-04
-1.495171243110992709e-03
-1.793749508225685142e-03
-2.685300062153452363e-03
-3.411389814061031173e-03
2.965006141483032820e-04
4.009266771460915160e-03
7.722145044654311202e-03
6.699384032882136318e-03
9.355385119914475835e-04
-4.079802747145863835e-03
-6.667540356969972257e-03
-6.057753838748634705e-03
-4.219647770965864048e-03
-9.792765410194968420e-04
-7.357831450552419598e-04
-8.686514878384783960e-04
1.238402243259437109e-03
4.988193730458342391e-03
8.244577355003054192e-03
8.703634063747715463e-03
5.419996737864694533e-03
-4.269711746823852579e-04
-3.391270413032056088e-03
-4.892014391188461916e-03
-5.118939893793246314e-03
-8.214313860675543852e-03
-1.036745124719597004e-02
-7.748883227317106791e-03
1.808192008773400975e-03
1.025716818149917040e-02
1.046950179924745726e-02
6.450603445211384318e-03
2.042257900696062018e-03
3.085790253454056935e-04
2.546240764848218806e-05
-2.792183646905792987e-03
-3.290664039970872534e-03
-2.574441933468655901e-03
-2.361199883748607738e-03
5.154389065029052995e-04
4.038677271303821488e-03
2.537352003362165678e-03
-6.469679689005689623e-04
-3.534304016793294451e-03
-5.352821769924402673e-03
-2.113952703112889197e-03
1.331791061461374756e-03
2.126020368197478749e-03
1.230106994706439520e-03
-5.459524567879197113e-04
1.267342641601412918e-03
1.978223420335629892e-03
2.226835982555744591e-03
-1.036542621222903790e-04
-1.037684329649801685e-03
7.954588112447238219e-04
-2.623101500345510545e-04
-1.179583629521948999e-03
-7.618602225599495825e-04
-1.069116381580660299e-04
3.348611856422581325e-03
2.861625766774569205e-03
-2.201233389705002620e-04
-5.764029678513159227e-03
-6.459066397282504056e-03
-3.684724014531729017e-03
-1.408564534400196574e-03
2.203834759166334398e-03
4.104694694836209280e-03
6.889559443219849671e-03
8.724294176689038893e-03
3.496989037215675247e-03
-1.328136814224323541e-03
-5.917765423074989282e-03
-8.758092588471301509e-03
-4.210038261280201616e-03
-8.174540396071578417e-04
1.581821893443528543e-03
5.635819206376963507e-04
-1.255559625750747067e-03
-4.936432528412026087e-04
4.246789005150490223e-03
6.577396648883127896e-03
3.918577771066243318e-03
-1.280797466371674537e-03
-3.679334468419232038e-03
-3.586748127688989003e-03
-8.585200514509322596e-04
5.283514649322468195e-04
4.115401884592221390e-04
4.609635343453611419e-04
-7.032267889985000442e-04
-1.101523198202081352e-03
2.739661190100093455e-05
7.005939407218588150e-04
9.206716617605255771e-04
9.967552263206380051e-04
-7.449117506037258862e-04
-1.095070410776630664e-03
-6.594721153104321325e-04
8.708619961987065436e-04
-1.636198571046392359e-04
-2.524541043300594493e-04
1.976757564092836671e-03
3.164361451427265010e-03
-3.560191606650723456e-04
-2.791333169965199475e-03
-2.468785712051403767e-03
-2.293065544924036397e-03
2.003157040995587335e-03
2.938181395300582411e-03
-8.664155141928583676e-04
-4.228678824251683871e-03
-2.120867454159229993e-03
3.005648787053336653e-03
4.882024349964020869e-03
3.340134115361382151e-03
8.037664974527691103e-04
1.222091801991015718e-03
1.527078498289554873e-03
-2.870625289788458333e-03
-9.229063100780046658e-03
-1.083019864775846414e-02
-2.777905483972113471e-03
9.150759918253913508e-03
1.247050706131479225e-02
6.143087696737766640e-03
-1.408493584151110107e-03
-3.897767877997128459e-03
-2.362946124191760058e-03
-4.251131239891497299e-03
-6.633644383572131695e-03
-2.310311167221373255e-03
2.336004018849916018e-03
3.968921536553331533e-03
3.058627944723682490e-03
1.743151194405558133e-03
4.284604100303328160e-03
4.404237876263180154e-03
-1.746263666318841317e-03
-6.274320312809972267e-03
-3.886293448988994721e-03
9.445428699204655616e-04
1.763370123721900561e-03
-9.772822381713222356e-05
-1.926280143172162326e-03
1.287658676550689722e-03
1.898860716134224231e-03
2.066985539931890292e-04
-7.329898470357398051e-04
-4.416490816247299264e-03
-1.667521797359626176e-03
6.380369058377749892e-05
-1.481702474636187880e-03
1.340374645619648425e-04
3.868822421377449052e-03
6.690550619922293156e-03
5.864187268367318691e-03
-5.910372407541410016e-04
-6.576641049376499674e-03
-5.084742050734530894e-03
-2.691687054645186712e-03
-1.855755167018295192e-03
9.155749590938041041e-04
8.353054864055705839e-03
8.236211528087511446e-03
5.554857918205189683e-04
-6.147967161051231220e-03
-7.902756312866590638e-03
-6.373698780119160801e-03
-1.636752131075314934e-04
5.114824628978659540e-03
4.009310373631960744e-03
2.058181917611636488e-03
8.339784611821800947e-04
-1.449311062298390407e-03
-2.309661924848320936e-03
-2.781629320937440124e-03
-3.756815865808243830e-03
-1.256207554280906833e-03
4.717328508171820395e-03
4.531418242982540937e-03
2.421889658893370840e-03
3.676126329374478259e-03
3.039009276260853671e-03
5.865797617273873794e-04
-4.040844435728149558e-04
-1.687532085131987665e-03
-1.955540266120395654e-03
-3.239327148219630758e-03
-6.327092106456569560e-03
-7.099492801200239615e-03
-5.837996634279270410e-03
-1.277449936226354634e-03
6.641231220480879258e-03
7.150197895777568070e-03
3.670764809807723020e-03
6.832949174527982832e-04
6.696299953028212078e-04
2.736315628907296047e-03
4.292133484241711025e-03
3.338496252162234928e-03
1.067272193773856521e-03
-1.490569208538595862e-03
-5.899809868887509468e-03
-7.159162126450270558e-03
-5.292424338093315930e-03
-1.835282374474586902e-03
1.844558546214433974e-03
2.562900437987508141e-03
6.569962014521047496e-04
-1.825848498041018493e-05
2.412161448117412007e-03
2.040719679622682650e-03
8.899375753059790041e-04
-5.512787905632898430e-04
3.321134315671877852e-04
6.504371858182888362e-04
-2.040404579813726114e-03
-2.567194160091887303e-03
1.332771039881546805e-03
3.672411751212281174e-03
7.453297999006283517e-04
1.504321690994155428e-03
1.777195345225986113e-03
-1.386304917529535517e-03
-1.318304383348559887e-03
-2.175935913173522411e-03
-2.764071839730575762e-03
-3.552527870827243851e-03
-1.945403510005159695e-03
8.846837825084378072e-05
5.907704016691869625e-04
8.147113930773717313e-04
3.695409533893314301e-03
6.979893464696500932e-03
4.139809984698353609e-03
-1.897432023609089188e-03
-5.463231395130417785e-03
-5.471979846766500746e-03
-3.284581146644403610e-03
1.258844903841932136e-03
1.293633030418460264e-03
3.249197952623624841e-04
2.308880780110805515e-03
6.922539671481330731e-03
4.376794333387017469e-03
1.378662209197021530e-04
-2.006621336034022755e-03
-3.605711181351512525e-03
-3.148715746891965657e-03
-4.606829722203333380e-03
-3.698326593630110390e-03
-5.532794667881197129e-04
1.200149679928329532e-03
6.883626549783937671e-04
1.008447737696919382e-03
-5.425280233315708540e-04
-1.128460994110323812e-04
4.307314233134611030e-03
8.152705109077743040e-03
4.249064912736781434e-03
-4.014793411813229358e-04
-1.555060182376456421e-03
-3.520422388437106313e-03
-5.421446331553456469e-03
-4.855006037175165108e-03
-3.380959341365955256e-03
-2.644053594913135623e-04
2.794127665478288777e-03
1.352241216085369770e-03
1.193613275430063141e-03
4.730500223770429599e-04
1.311414859475647666e-03
5.369677146102780699e-03
3.930943430688241258e-03
1.705692380333856395e-03
-1.476067837382174196e-03
-5.320725220745683992e-03
-3.726829698986673742e-03
-1.261495618217266506e-03
-4.937082175175853613e-04
-1.536229610618190192e-03
-2.046943973380732640e-03
7.845866904383988222e-04
-7.534241854884220820e-04
-3.385234707706848839e-03
7.381612299754950098e-04
7.859290652479635972e-03
8.407909596202450125e-03
4.392812302282826653e-03
-2.348818183738548161e-03
-9.082859685115818663e-03
-7.293642176674435852e-03
-1.754952286535639127e-03
6.257261287804570180e-03
5.539768628246902887e-03
1.362575218959716878e-03
5.186363815144764229e-04
9.518805558436891105e-04
7.644373647072782389e-04
-7.105371233872405465e-04
-2.294157986986523120e-03
-6.146407121394748853e-03
-8.303839254546051263e-03
-4.783252988379696653e-03
3.380610766249859175e-03
9.520583191626725769e-03
6.519822218308119616e-03
-2.236222047443310352e-04
-4.398293367756963071e-03
-3.971133780911949643e-03
1.861485524900109018e-03
5.347713266113499758e-03
3.607069160103314361e-03
3.871118304528386345e-06
-2.565481209840253345e-03
-1.517960735766017612e-03
-1.905765200580774883e-03
-3.901795771150143310e-03
-4.018476536578154297e-03
-1.418969120446449920e-04
5.569698753747998575e-03
8.517361568473835048e-03
4.561149687016288062e-03
-4.790852710372202859e-03
-8.718877616547210732e-03
-2.958881926976091817e-03
2.722063243901058898e-03
3.447411550723784336e-03
1.466630013817458208e-04
-2.123711946497415081e-03
-1.505531129347577411e-03
2.643373938293869328e-03
3.491417738439623816e-03
1.591515232145837816e-04
-5.181915484118912105e-03
-5.175297110710691192e-03
-1.777892254815079077e-03
1.824333390876846980e-03
3.959956134476338638e-03
2.485789581264327436e-03
1.193796396827125636e-03
1.570959276034574349e-03
2.648034631142889318e-03
4.664832513650137881e-03
4.497465943335865121e-03
-1.283638195456820574e-03
-5.573005188890175002e-03
-6.439832715800243232e-03
-6.359431674721339155e-03
-5.953674663968539817e-03
-3.227388399972087440e-03
1.394042982527484136e-03
5.060057434388877916e-03
7.066400042338671222e-03
4.118305613000885351e-03
2.226327418351820801e-03
-8.460467071820369257e-04
-1.852749820059255634e-03
-2.595557592995342139e-03
-2.905796073049637072e-03
-3.395293839387788490e-05
8.223836920570484852e-04
1.473328604220222778e-03
4.787647761655446088e-03
5.387628981728121748e-03
2.012374682052295218e-03
-2.630304869656006905e-03
-6.131502121435187039e-03
-3.935293571846236460e-03
-2.763100293868795288e-03
-4.285206061400722785e-03
-3.137671391898102808e-03
-2.001242028585159115e-04
3.656027061909596001e-03
6.494206020032080792e-03
4.849562885404092027e-03
3.947800637330687798e-03
4.595511894675209826e-04
-4.073519453658519876e-03
-4.764858609619110688e-03
-4.521301576062420995e-03
-1.682369995738007638e-03
3.419704585836690330e-03
6.325219862806718413e-03
6.993898525413370926e-03
4.314535410354165997e-03
7.604214107217530517e-05
-5.148024631726843756e-03
-9.095998196389405710e-03
-1.010374592860899604e-02
-6.493226230306795715e-03
-1.762026262794170409e-03
2.736757790147298971e-03
6.720537472792288344e-03
8.682062476465664605e-03
9.698738485183979949e-03
7.020775210735699656e-03
4.796578175020635264e-04
-6.440999285399857596e-03
-6.447831385411655070e-03
-2.317003838352247203e-03
8.939770937279926076e-04
5.817107729644086650e-04
-3.246915579986392204e-03
-5.989499539208028613e-03
-3.636756689305849048e-03
-2.083313195866551542e-03
-4.287931556845572589e-05
1.942494897581600963e-03
3.326191027786192661e-03
2.787108987215378402e-03
7.226726954042961108e-03
1.116634978752167537e-02
8.038049631991910429e-03
-2.336164079801401113e-03
-1.373958000639203224e-02
-1.431769899816548973e-02
-6.256235119621502555e-03
2.005287149899317046e-03
5.236441821371001261e-03
5.231348943297523674e-03
5.925680356412334551e-03
6.835134795915309008e-03
1.072080819230566192e-03
-7.716241141178238790e-03
-1.038185978449580535e-02
-6.313232856567919243e-03
3.431193305916992609e-03
7.882054902754251011e-03
4.925300866486755254e-03
3.842636700979095918e-04
-1.595570979509209567e-03
-3.431126704471799960e-03
-2.201257738544626363e-03
4.338295482087227168e-04
5.202030227015243691e-04
2.013617950824921662e-04
2.404015209087125991e-04
1.392624890315965558e-03
1.048473600641714387e-03
8.634951183658235840e-04
2.182081959823349484e-03
6.990844304384996122e-04
-7.199042861331212632e-04
-4.274831371140815767e-04
-1.270965065420227001e-04
-1.970486741564094878e-03
-2.603970964152356633e-03
2.255797952921728428e-03
1.190452628044967424e-03
-3.929022679852081645e-03
-6.489270608612699408e-03
-4.140758657278871546e-03
8.921687300897790385e-04
5.009739133687938356e-03
3.993430123410527527e-03
1.850305266727059715e-03
3.942150101478582649e-03
2.334618169554354174e-03
6.689646243762227898e-04
1.194325839622930414e-03
4.009116783774955596e-03
2.184156610852049530e-03
-4.039801098993361234e-03
-7.245161013325333854e-03
-8.548079207384935707e-03
-6.302912298742548852e-03
-1.136157399594148621e-03
8.479179829513953069e-04
2.864696896627704284e-03
6.610433110814572556e-03
4.017132897294840507e-03
3.187845171307088655e-03
3.979456939943891956e-03
2.121333948725933304e-03
-2.544267977604841493e-03
-4.228959513087728571e-03
-2.791811368558905996e-03
-5.317364310444250806e-04
-1.574296684730539832e-03
6.425068887931984808e-04
1.758500206054593336e-04
-2.348511985470316636e-03
-3.399432796004919939e-03
-2.798423001779182673e-03
9.246763785424394542e-05
6.978180050835246229e-03
9.184061310885982196e-03
5.201947085031236560e-03
8.426623317253872751e-04
-2.969604907156858566e-03
-6.685343047688233412e-03
-4.955458503834837825e-03
-3.719254016298927015e-03
-6.471174378334789389e-03
-5.259661725281498598e-03
4.050749114233640966e-03
8.042050267777173939e-03
5.492750215506424574e-03
6.153477226707278896e-03
3.126798385482952494e-03
-7.343946822662744851e-04
-1.979016697205165237e-03
1.616321682929301642e-03
1.440746503834596133e-03
-8.868100770476562613e-04
-5.718095585458854435e-03
-8.503803253541645027e-03
-6.199062837253162608e-03
-1.840544032197474669e-03
2.012520119729820523e-03
1.289901419723857648e-03
1.237630493175319573e-03
4.508984207562572767e-03
5.664543952298717495e-03
3.678921008925983577e-03
1.326883982785506243e-03
3.045888477551286777e-03
1.204146721549458759e-03
-4.975683110978512680e-03
-6.818567655724199102e-03
-2.214537826118063209e-03
-1.413111912797173665e-03
-2.606161784460262008e-03
5.022428928315849327e-03
1.200119392686097193e-02
2.915172803717994664e-03
-1.170264924843459654e-02
-1.276613802851022869e-02
-1.017877832154125053e-03
6.936463676175878661e-03
4.260116064126621971e-03
2.121499824079596443e-03
1.614621052069227947e-03
6.226828142923152704e-04
-1.606243129097756610e-03
-1.255926914235599209e-03
-1.386342019622572490e-03
-3.366293615231874363e-04
1.104141452448482649e-03
1.834560978069823753e-03
1.205712399657660541e-03
2.533175732825790859e-03
2.266349006272944805e-03
-1.005365370798872978e-03
-1.971284990784302922e-03
-2.329034519464371050e-03
-3.915622736106374319e-03
-4.586467416865322964e-03
-5.082469806321104552e-03
4.280029983148815262e-04
6.187163142198087371e-03
4.455859856180911273e-03
4.620129200413342768e-04
-5.739783988927536253e-04
1.979615621927269340e-03
2.485274030060837490e-03
-4.358332157212243575e-04
-2.224549029680895039e-03
-1.098823049147540048e-05
2.658456923491643847e-03
3.301979934997699949e-03
1.575120712826929810e-03
-8.768910497893191288e-04
-2.092823965953223824e-03
-4.216466071521292672e-03
-5.406875593758270204e-03
-7.162073527990279673e-03
-5.165710337254984796e-03
-1.040758578310665115e-03
4.052736531157940907e-03
8.342033128703067735e-03
7.755925381509375625e-03
6.142347132360651343e-03
3.668430953121194684e-03
2.160812171491969299e-03
-2.521205626313772433e-03
-6.442871300734311774e-03
-6.896068377072817404e-03
-1.935821308536488355e-03
1.079512725088997444e-03
-2.148989536136856286e-03
-2.330878196276634472e-03
-5.429244328091016765e-04
1.840002651787129347e-03
3.142296290375668974e-03
2.910398970923157649e-03
-3.790470561020066985e-04
-1.997544869037910179e-03
-5.796374889172494936e-04
1.876043566968648444e-03
1.379882098446211930e-03
1.917583362384930651e-04
1.177011270370862143e-03
3.231497867005647673e-03
3.573995546650812240e-03
8.022112057682016795e-04
-2.508698127656851847e-03
-5.600255967826517009e-03
-6.780939609566631263e-03
-4.492962265271653252e-03
-1.890919687961544089e-03
-2.420229055969956404e-03
7.057992079364872658e-04
4.509901619600903758e-03
6.466807990037948088e-03
5.717213941257502999e-03
2.147223889917212591e-03
1.421091743728509094e-03
3.079309799323034537e-03
8.461404335688392508e-04
-3.175474751764312872e-03
-7.501255164968242267e-03
-5.003910935089518272e-03
1.833019924179508497e-03
3.360322953596655855e-03
-1.212878414221491225e-03
-5.954514824186980110e-03
-4.771334293430257861e-03
9.600759934751900392e-04
7.578823219846674009e-03
7.916258302877956024e-03
2.890284908909406415e-03
-3.271365684409124029e-04
-3.721689634418683199e-03
-5.771351492907384265e-03
-5.870518042886556202e-03
-9.722899404327562875e-04
7.240264985731109312e-03
5.945458027910226033e-03
1.395423868100264652e-03
-1.377685024041238639e-03
-1.307453630562031279e-03
-2.512840960970204578e-03
-3.616115507281887544e-03
-2.167552343032092856e-03
6.238595028599286559e-04
-2.635525765985486518e-04
-6.963026594135196534e-04
-6.634517102629191318e-04
9.088026610388168962e-04
2.492879832440808487e-03
3.925887290685119504e-03
6.257196539583036697e-03
4.731274002280693586e-03
2.829431039668357881e-03
3.731308093650092042e-04
-5.249366125114269740e-03
-9.311740470017799629e-03
-1.042670525499969809e-02
-9.781739318173108752e-03
-7.326511957341569695e-03
1.578486892439771427e-03
1.287864120764631130e-02
1.534190052771550704e-02
9.929130337125472924e-03
2.769312387879912119e-03
-1.098815282796694864e-03
-3.829032137287908481e-03
-6.371357839138904432e-03
-5.872629276169966106e-03
-5.589033377300036895e-03
-2.826679178083778537e-03
3.432810838427969528e-03
8.262465829901049011e-03
5.827184621145061610e-03
1.439659470550723203e-03
-2.781471943735862665e-03
-7.910395987234834433e-03
-6.464269668990132306e-03
-2.392854393891327355e-03
3.633962706508959972e-04
2.752467418849672155e-03
2.671503963024406732e-03
3.023851935853990799e-04
1.006382635847097090e-03
4.487078190645758108e-03
5.246474415453221407e-03
3.724274702895180936e-03
1.875302220047899305e-03
-1.403801980591529944e-03
-3.707689856531499496e-03
-6.745692414212413682e-03
-4.129369647234232277e-03
-1.815338618246892157e-03
-5.557655609781911484e-04
-1.391866066995805238e-03
-7.734930700540269127e-04
1.807434547656090957e-03
2.591148956032519792e-03
2.852431427567310007e-03
3.504940876277290972e-04
4.635113852474890758e-04
1.384399093577964304e-03
3.751172820232633650e-04
-5.879107451320711442e-04
2.593319231762932376e-03
2.102766962983270652e-03
2.933227213618029138e-03
1.986342677036784590e-03
-3.224839236523086450e-03
-9.382941750427579997e-03
-6.446640367536491702e-03
2.362878081684006894e-03
2.851337124840309326e-03
-3.141927115738526923e-03
-3.850457526197417941e-03
7.477566154414361232e-04
5.639538467402553656e-03
6.875577289173647605e-03
2.482346094305031524e-03
-3.684384902592828352e-04
-9.242267726535429231e-04
-1.493494115672934063e-03
-1.950046598251080820e-03
2.254044973289156487e-03
5.443922993656420510e-03
1.949393729019930147e-03
-6.719594916686047123e-03
-9.886157370631224947e-03
-6.930671763350743954e-03
1.101646351933656658e-03
6.921285287323165371e-03
4.162699313494854815e-03
-2.602569048583375060e-04
7.188975168371004865e-04
3.634457383442824593e-03
2.878077537969685445e-03
-1.063307842166925053e-03
-3.897270587032688940e-03
-4.392719674264510335e-03
-2.548987991460889471e-03
-5.379270568739828333e-05
1.547490798164351776e-03
3.598133979208885305e-03
2.243040512790467605e-03
2.315214643449917814e-03
2.689415904592594962e-03
1.778624252946567254e-03
-1.240904158358276067e-03
-1.999574500132834075e-03
-3.288969107685727616e-03
-3.002864334713385101e-03
-8.477270156141006666e-04
4.383411006290359978e-04
-1.842510638437466904e-04
-2.058529379556312076e-03
-5.276067028016579244e-03
-6.562375469688987856e-03
-5.040854869935726748e-04
8.999861047012180232e-03
1.086762270026179512e-02
9.106851242293602725e-03
5.263996870008713462e-03
-3.407014934698977381e-03
-8.988870999214703533e-03
-1.029191001351175035e-02
-6.593531115869580989e-03
9.925107096607180442e-04
7.230317997185954464e-03
7.799458794535878495e-03
5.400395954075907362e-03
-1.840043158555089171e-03
-8.159057521412514669e-03
-7.326737311744951735e-03
3.083938823633403711e-03
8.728874405790143856e-03
3.212971353973276267e-03
-3.364864386383128580e-03
-6.690240819739179390e-03
-6.861632557772520333e-03
-3.052712679075943007e-03
1.905683304596465268e-03
3.961436402611760374e-03
2.870431527753614358e-03
1.885521702536719149e-03
1.648231345882205691e-03
4.763331290232326008e-03
6.184846071066083494e-03
3.440704853392373419e-03
-3.363983075963867652e-03
-1.016891392459088120e-02
-9.411052666464702482e-03
-3.447433572105041474e-03
2.772954596173625875e-03
7.205051862399097090e-03
8.573429757184926336e-03
5.916321088968113685e-03
-9.544520913475772368e-04
-5.652532485258861782e-03
-4.674872072489535263e-03
-4.724131847777451008e-03
-8.212611372910294527e-03
-6.397716642517758956e-03
2.761102806728332661e-03
9.408432181630680541e-03
7.350075878180965631e-03
2.286347975023965851e-03
-2.474541930920161510e-04
1.301178653966561516e-03
1.601897126915360512e-03
-1.181443697528211309e-03
-9.630463888109308881e-04
-1.889324906603203486e-03
-6.343116873169377719e-04
1.550391558125279205e-03
-9.210559149965796941e-05
-2.528983005816625666e-03
-2.869748578535785341e-03
-8.063349102066397905e-04
-1.512367713105077296e-03
-3.132514825996796006e-03
-9.052454134096446763e-04
3.067639910937796158e-03
2.563146642772632516e-03
1.118197180134149812e-03
1.192171720604845008e-03
4.011781374647197668e-03
4.992412629049269163e-03
7.578072425889524968e-04
-2.923180352809833481e-03
-4.713540976329221033e-03
-1.905815967093682419e-03
8.842941732477242051e-04
-3.900247313740362896e-05
-1.345654303855028325e-03
-3.359552589939540819e-03
-3.496983779010004890e-03
1.291187310424193359e-03
4.599678188551408267e-03
4.604762869779554894e-03
-3.629178604944226054e-04
-1.901925224108519559e-03
-1.988031272233854296e-03
1.215768047501966436e-03
2.372690554366821761e-03
1.179342950028134610e-03
-2.277979590884710644e-04
-2.154470757935446953e-03
-3.075349760059567592e-03
-1.769577261504045890e-03
5.434095617274194764e-04
5.091188684614317023e-04
1.182768884360826164e-03
2.568696502964762807e-03
3.146376961394238298e-03
-2.815328167754271600e-04
3.819713458371486788e-04
4.235709489573819680e-03
9.244038128380016248e-04
-5.861165997293074290e-03
-8.759300584959139532e-03
-6.045795656039362233e-03
-1.788963269442950341e-03
-8.186714714403966857e-04
1.338388194118787268e-03
5.787052046936726202e-03
6.595059995251928951e-03
6.046835137235045780e-03
5.485673686781621962e-03
7.366079371864159460e-04
-1.563109231048622969e-03
-1.963176500640994009e-03
-5.628643771312450122e-04
-2.800588962316076340e-03
-4.033988785183898439e-03
-1.586924387051945589e-03
-8.473509960699736505e-04
-1.225862035007901397e-03
-2.716105233302891237e-03
-4.828336547138855836e-03
-2.320999620879254932e-03
9.077306801481342495e-04
4.172129815370781425e-03
4.802955871494365633e-03
3.785653250089868020e-03
1.786853867379997827e-03
1.286383780232250220e-03
3.065827366068819056e-03
2.089045096851452083e-03
-1.814251186139980397e-03
-4.402297697524348505e-03
-3.577701263193313035e-03
-1.823791331120286525e-03
-5.542027558271067980e-04
2.179861749463416192e-03
2.842597659865900295e-03
1.265957386047287733e-03
-8.746906206792558376e-04
-1.433046950854177182e-03
-3.437694565401684058e-03
-6.395724015446420385e-03
-1.717462772644919727e-03
3.628833571108179990e-03
4.354950981052953078e-03
3.104027566792154098e-03
6.804611561083443935e-04
4.713592407417409660e-04
1.119894125811794761e-03
3.363661288984115414e-05
-1.427508876049321919e-03
-2.222884976190042921e-03
-7.139797367453674069e-04
-4.607130921089979108e-04
4.621161364608977491e-04
1.990747645050976785e-03
4.669558675115037527e-03
3.856276512777517991e-03
-5.066157548138849664e-05
-4.659705951926637439e-03
-6.650435169403174328e-03
-5.585296258259235189e-03
-1.771914002070270038e-03
1.905525142082614264e-03
4.104144674785854471e-03
3.951062776041365694e-03
1.649979358946861586e-03
-1.492963588214952641e-04
-1.389663995809163610e-03
-2.473472318859967940e-03
-1.976280239957355599e-03
7.568797950269931475e-04
3.931076800842031940e-03
1.468897014525394600e-03
-2.647216733375544733e-03
-7.838330157218813179e-04
3.848228624775039408e-03
3.909127068454189453e-03
4.442443445970454489e-04
-4.742649168327128968e-03
-4.814146281036532637e-03
-2.087274099466700141e-03
5.569654748583577044e-05
2.356511080402199591e-03
2.662465870847213496e-03
3.515857303509123052e-04
-4.630754197808932809e-04
8.267878999833318341e-04
1.629953849192207829e-03
5.808089381705368488e-04
-1.718106722038072892e-04
-2.441639126692785825e-03
-3.765918965563878895e-03
-5.493964046447005582e-03
-3.939350525423227813e-03
3.666034532689392469e-03
9.402774897869762075e-03
4.883886293531944020e-03
-1.200119865485124466e-03
-2.613626362435859506e-03
-7.634803755515063173e-04
3.382251762273610950e-04
7.909552001416197270e-04
2.368122061658653726e-03
4.096481409899347878e-03
1.955819984834692229e-03
-3.181536421593510969e-03
-5.851415487591538761e-03
-9.269605882612269934e-03
-7.019811965808270098e-03
-6.020529122167119461e-04
5.294510877014066072e-03
6.296377041310089601e-03
5.969697211375832140e-03
5.439307028739288723e-03
2.622032017299177984e-03
-2.587465790177565905e-03
-7.096636861908130721e-03
-4.614704902506446167e-03
1.835827118718239611e-03
3.887028297113137749e-03
-1.187921696515725723e-03
-4.523945928194536559e-03
-9.232683817518092927e-04
3.056838484351813521e-03
3.294089231105197958e-03
1.915406732960043060e-03
1.252047096103353792e-04
-1.489012668353961212e-03
-2.803179619162187927e-03
-2.171866253091255580e-03
5.211964138752650348e-04
2.185840959009409303e-03
3.393090163443729986e-03
1.967729556677148915e-03
-2.127433513416934156e-03
-3.585632248515645184e-03
1.582523956637695180e-04
5.366129482431640074e-04
-2.313706591658240639e-03
-3.518541525220578864e-03
-3.332835467135038688e-04
2.210508184939849376e-03
8.393927992798989532e-03
9.226899289037955240e-03
6.058327455522494361e-04
-1.119297880070029179e-02
-1.393806704549455794e-02
-6.990668929731861173e-03
1.135167339218993033e-03
5.434550359219311212e-03
9.596233565402805324e-03
1.394513950135216687e-02
1.055816219442188945e-02
-1.027618002627721336e-04
-1.010287824370534673e-02
-1.242225621299192055e-02
-9.953879587234393603e-03
-8.023856611293475258e-03
-2.003552044846104122e-04
8.510690504598098990e-03
1.005349271824847353e-02
1.709402504566446841e-03
-2.769248631443568202e-03
-1.697043193064136802e-03
2.018895716070221065e-03
4.235051845955258194e-03
3.387096477237449676e-03
6.450033380826659252e-04
-6.932884761085180824e-04
-1.147671285552770730e-03
-2.151028278962878980e-03
-3.144539562241475180e-03
-3.098856226298370327e-03
-1.273706186840290952e-03
-8.783953051482076141e-04
-1.747823980504656979e-03
-9.548085499113923794e-04
1.082995518667769115e-03
1.666803392813796586e-03
2.678288399242020109e-03
1.266955653816162833e-03
1.137490775143734471e-03
2.018025871855190587e-03
2.099570260189408469e-03
-2.862659975114661796e-04
-4.108032704489268747e-04
-2.711052368676122436e-03
-3.545607279911040625e-03
-2.789560743082760211e-03
-2.307058193655607894e-03
1.526789892955886935e-03
7.451079889319577390e-03
7.184249254213652923e-03
-2.306971870261434910e-04
-3.998380865050841018e-03
-4.303248430662220264e-03
-2.082609905039305240e-03
1.129139186858194206e-03
2.745127259810740614e-03
2.789447348218879966e-03
-6.802836916731159773e-04
-5.165279018188802945e-03
-8.610883818643619639e-03
-7.427109422827752293e-03
-2.140333779196392644e-03
4.888108287934522095e-03
8.996124727454070380e-03
1.053766809694637978e-02
7.553059154531342571e-03
1.870026245789321948e-03
-3.184214870525576852e-03
-4.610062463224338068e-03
-2.323382066406715768e-03
-2.163979564964282128e-04
-1.115035685106805820e-03
-4.483654016282438183e-03
-5.199313665569346710e-03
-3.009024010457620347e-03
-2.070761786502843711e-03
2.778827344391293034e-03
6.948992607244118894e-03
5.705361376452132427e-03
1.949536855389695251e-03
-9.541779453037285870e-04
-8.579465473679119027e-04
-1.407948260548501189e-03
-3.041206000831835760e-03
-2.222206831066302155e-03
1.219826172925407107e-05
7.987612755024655047e-04
-2.722404748203540673e-03
-1.813020452094244893e-03
2.346223569868798563e-03
4.451685908223807289e-03
2.856716146779484863e-03
9.435343154112086489e-04
-5.067275235210444428e-04
-7.197476086257023186e-04
-1.477969717472072298e-04
-1.231456819587031619e-03
-3.820824501829274758e-03
-2.275577338358595898e-03
-1.944316669760742496e-03
-2.442035606228273696e-04
2.504229573041354562e-03
3.686165599492950435e-03
3.732079321717566775e-03
2.760507135911867849e-03
-2.167856299412925566e-03
-3.468162011857251620e-03
-2.560204766910139946e-03
1.273392318320674000e-03
4.023783287597646613e-03
2.757303977449589161e-03
8.064520881363451557e-04
-3.213654685362477524e-03
-4.721835664806957496e-03
-4.936983381907357124e-04
-1.784185033239829707e-03
-3.811626423775106836e-03
-2.545745809104527167e-03
5.572542600865708524e-04
4.347055010938752351e-03
4.158045309477305732e-03
-1.483074133415051166e-03
-3.385860566440455823e-03
1.362638291976319208e-03
6.343918218841570339e-03
6.031273474204421579e-03
2.048093492144809676e-03
1.493992705360484624e-03
4.720681939188044835e-04
-2.475087246726402276e-03
-3.457324948718401483e-03
-3.604477420171561201e-03
-3.566252202308603687e-03
-5.338725832776097108e-03
-6.464429616687411041e-03
-4.459052877037559572e-03
3.641622597133957039e-03
7.083949490793035528e-03
4.581300792060889922e-03
9.484798684768432943e-04
-5.354443509820792750e-04
2.171906663625977445e-03
6.667802286054983971e-03
2.135273011067434328e-03
-3.801075264130956369e-03
-4.909223464195217740e-03
4.496028016109762833e-04
2.459003095283773463e-03
1.061966911178751716e-03
-2.884431747107011473e-03
-1.195912726468355888e-03
-2.771289401489727879e-03
-2.614321692198455418e-03
-1.426103267611373183e-04
2.796518044504112642e-03
5.521656129324209331e-04
-1.571207416919834243e-04
3.275420344576711155e-03
1.875676610024359480e-04
-2.683672620549970578e-03
-1.803370376891236639e-03
-6.553094612832623166e-04
-1.309113193101763570e-04
2.481453097620868746e-04
1.717876283715340409e-03
3.676776598275966184e-03
3.837926293882462387e-03
5.182491517963009296e-04
-1.866951434714618410e-03
-3.025294497905872768e-03
-2.817639283663631034e-03
-6.454922318861883168e-04
-6.372893721372054673e-04
-9.662756505749768663e-04
-1.021919377668385753e-03
4.207401834457275350e-04
3.827017567258601035e-03
6.155131288713730324e-03
2.839181126100700277e-03
-5.192121698757283001e-03
-9.074107203299406482e-03
-3.297786111361754920e-03
4.981711855493527359e-03
5.404424397425234769e-03
-1.405347050749255425e-03
-2.772569220684227304e-03
8.501045747943147563e-04
1.527066634565804734e-03
1.539417713411826314e-03
8.727980602822870164e-04
4.224055586112136470e-04
1.065053768011721774e-05
5.251983049594862070e-04
4.115759903453093021e-04
-2.035822733891630258e-03
-3.788972034430157336e-03
-2.577945717287590324e-03
-1.773034724455425275e-03
1.059245136401034456e-03
5.763083059157693075e-03
5.167293409195076147e-03
-7.249433514165035640e-04
-3.821125068293963669e-03
-3.656175041976168424e-03
-9.837572087291301514e-04
2.376269924043087137e-03
2.316979633911839514e-03
2.667535576848189833e-03
2.070476041745570022e-03
-1.593266929016689398e-03
-6.016394566251904302e-03
-5.838800288235207296e-03
-1.498483040502522883e-03
2.903186703147395218e-03
4.177098473310780075e-03
4.316812373859242775e-03
3.935763836297221686e-03
1.351218075617542994e-03
-4.363313779661037728e-03
-3.458172647781738215e-03
9.962569115324298834e-04
1.504446647748948875e-03
1.254374593531524217e-03
-6.813872309906165948e-04
-2.935374861838927190e-03
-4.285730861410956202e-03
-1.672549514510979999e-03
2.019150397960633569e-03
1.924794682456922642e-03
5.055454527999034059e-04
-6.942877110555176635e-04
-1.344636967036766872e-04
1.735207784511678172e-03
2.778347969885635368e-03
1.765152456651492528e-03
-1.016080073484541141e-04
-1.010116011004660050e-04
-4.007329245647443155e-04
-2.103595008138936778e-03
-1.124922710927441253e-03
6.712566152265678904e-04
2.048481214607347680e-04
-1.044998118187793047e-04
-2.254226911866593751e-03
-2.129536513413662294e-03
7.310910032228012684e-04
3.593163195578930134e-03
1.440720258286039409e-03
-1.275688511184730044e-03
-2.694910467268112671e-03
-3.424345176281643659e-04
-7.451644664432880566e-04
-1.580506408340635795e-03
1.455278174541720874e-03
4.574558214569843934e-03
2.763536317139257594e-03
1.576935008011882348e-04
7.342467298832688720e-04
1.751964776105920584e-03
-2.585130345676331463e-03
-4.951783284133232099e-03
-3.821156258575047690e-03
-8.704437641796972103e-04
-1.897126552113098576e-03
-3.393068530752336564e-03
-2.395647358825836749e-05
4.991840513346355868e-03
8.425799451909335783e-03
8.716620616424222007e-03
4.140069045039236791e-03
-1.622083989555021753e-05
-2.281313163029301521e-03
-5.757582716828493069e-03
-9.569523808642666635e-03
-9.926935316438725496e-03
-5.615520471239138570e-03
2.918344837404966783e-03
9.597363358627280031e-03
5.149901556538299084e-03
-9.229086552172386000e-04
-4.940155213905539876e-04
1.283471192923602011e-03
3.368454032699289349e-03
4.710653506116878851e-03
2.572352381811084023e-03
-3.655323661269914513e-03
-5.735977844927852252e-03
-6.421437466532052031e-03
-2.206681129017631481e-03
4.770182777967329861e-03
6.881486510117688568e-03
1.996598100782893785e-03
-4.534614515024472034e-03
-6.290979069116624245e-03
-2.494818760649089497e-03
7.658074599071204927e-04
1.826445945246503791e-03
1.765241374025463238e-03
1.196128541623841558e-03
1.945422160492479152e-03
3.083670076683471799e-03
2.146793789081068420e-03
3.377675186164753006e-03
3.080856981934407355e-03
-2.286211882087236819e-03
-6.800879517853198816e-03
-8.499043040173117833e-03
-6.320701522501290248e-03
-7.195367646784969588e-04
5.420238724950850184e-03
5.560123019120013013e-03
2.778419513230673092e-03
-7.625501441431933349e-04
-2.752084176814480285e-03
-4.288560634270158385e-04
2.398078703671256348e-03
3.435527437734903298e-03
3.432272568493710974e-03
1.755466958437582135e-03
-2.080912429732699378e-03
-4.445375945576637497e-03
-4.146465955117531292e-03
1.232858608911046889e-03
3.588780682420313149e-03
-2.578916275722474474e-03
-3.839043495839918486e-03
-1.245852966704341994e-03
2.019523234283727032e-03
2.478231515573684016e-03
-2.918614884541634313e-04
-9.123671069962463638e-04
-2.616069292336407198e-04
-2.892114368993162514e-04
2.542944433059626027e-03
4.594271146873082738e-03
9.954096937710384986e-04
-3.670838229062928400e-03
-3.303632493991349485e-03
-4.884177149762837809e-05
-4.833174431889165901e-04
-1.575809679962280989e-03
4.638778385757462951e-04
2.861668828747574844e-03
5.283149120206669276e-03
5.257627487867144213e-03
2.300242835768914664e-03
-5.289773775211832445e-03
-1.035581108448881647e-02
-1.015740235186246218e-02
-5.912431938623756954e-03
1.931180254777420304e-03
1.064016699910558771e-02
1.137694346166576338e-02
5.065002697402525358e-03
9.797389817873351499e-05
1.326386434502110814e-04
-2.883837213957286759e-05
-1.617998423490515708e-03
-4.337445916741294524e-03
-6.509836874916016120e-03
-7.059258807193468863e-03
-5.205781386268282587e-03
-6.200170420874351503e-04
2.758215554213871035e-03
5.107023351272981654e-03
7.360176436932819310e-03
7.388153515314476588e-03
4.268415645003231611e-03
1.337609613535404359e-03
-9.769807134164336902e-04
-1.642729011964809025e-03
-2.524830990935009439e-03
-5.633309703917515829e-03
-6.708964517642298370e-03
-5.748559716195077510e-03
-2.578984431785493522e-03
-6.353885970375409563e-05
1.997261973490978542e-03
3.960602171433457407e-03
4.809012440553331325e-03
6.722055018664766998e-03
4.543239899576987685e-03
-3.181600559524395570e-05
-1.354937443037170820e-03
-3.404262280089167484e-03
-3.607265089246460606e-03
-2.450656260517673681e-03
-8.834147616269432714e-04
-3.144049757906322226e-04
-3.219360355073341493e-04
-1.857202138079105079e-03
8.031519856935718442e-05
4.846304430730363766e-03
4.320806810252541229e-03
1.372027893087512419e-03
8.549905259220690491e-04
3.056681932547054663e-04
-9.013589798867675373e-04
-3.381661933048390935e-03
-5.450507676859142787e-03
-5.563845279757334908e-03
-4.608318766492099962e-03
-4.110063722613721202e-04
3.863948469934196019e-03
6.119060401453144116e-03
7.302494676626461109e-03
5.758987467744801358e-03
3.332096944735049842e-03
1.703162512767307599e-03
-1.115092354321288708e-03
-5.586157764530513131e-03
-8.814070998537931398e-03
-9.117428226044227077e-03
-1.060537751893289062e-02
-2.121343218645220779e-03
1.071034726023878739e-02
1.463516310078805290e-02
9.973511682034077661e-03
2.377811351521680761e-03
-3.271956990272276416e-03
-5.003128156053466939e-03
-4.968089402025224928e-03
-1.811314033976868260e-03
-2.262822999598112020e-03
-3.588385994743251237e-03
-3.354303009032059708e-03
-3.434315699938346282e-04
2.238921101156798703e-03
7.138934221723358849e-03
8.861779848078987429e-03
6.030329891854604996e-03
1.226698145259964902e-05
-6.756752497816600860e-03
-8.787219384707516470e-03
-6.078816791481082837e-03
-5.645735044318615434e-03
-5.038510180242717837e-03
1.759463015290449364e-04
1.137444565181731405e-02
1.390286405197601292e-02
4.080606130875149770e-03
-3.476621416079187215e-03
-3.779221001343628043e-03
6.577411791743544337e-05
2.505858034134207310e-03
2.263402745441064640e-03
1.274424847320026338e-03
-1.866073673283068397e-03
-8.388960758487008437e-03
-8.666013910726574204e-03
-4.486525988625964835e-03
-1.124569837625747585e-03
1.048456933210584890e-03
2.741779082715730710e-03
4.210517337362704171e-03
3.720640700682162783e-03
3.644118325429827193e-03
2.517700533923711553e-03
-3.837824946494434140e-04
-7.767285849972307456e-04
3.307787017446740200e-03
6.186509789332042195e-03
2.005819856813986345e-03
-5.943995229559287038e-03
-8.883779750953970517e-03
-4.440566630344965418e-03
3.062792692740206289e-04
1.203695265961780391e-04
-1.981217438681653897e-03
6.944001051904110343e-04
4.781545884255370207e-03
4.330407220441841523e-03
-1.871589574370695428e-03
-6.182853756681152071e-03
-4.164951778620745206e-03
6.844282374668250127e-04
6.694649033305070940e-03
9.290092920049126957e-03
4.193842204289190308e-03
-2.195490176715825161e-03
-3.177364364857957011e-03
-2.732206046030192289e-03
-2.089933160322375149e-03
-3.388830532312150316e-03
-4.943247432155135034e-03
-2.158602692154524150e-03
-8.076670412093317139e-04
2.955870669058302015e-03
5.656628218229981311e-03
3.512799274410779733e-03
-5.481490172701080320e-04
5.634603303652974175e-05
-9.168236562813272296e-04
5.041892366231595906e-04
2.332709333893341879e-03
2.118338435977374853e-03
-9.145932610077230334e-04
-3.880856151789009983e-03
-1.605142865519190113e-03
-1.115918594135174033e-03
-2.570756869691876237e-03
-2.918289633027023721e-03
-7.818803047424324488e-04
3.538696582548862910e-03
5.776325541191727406e-03
4.866139680469405877e-03
-7.180963190818044801e-04
-4.114616980612177156e-03
-3.196223545079163435e-03
-1.943150213100455726e-03
2.386306835001168129e-04
1.651445199702007401e-03
2.273679502767926488e-03
2.387125266839249839e-03
1.662438672055639895e-03
1.144209011864775419e-03
-2.087831011184117496e-03
-4.083173565054797928e-03
-3.174185589328437120e-03
-1.348417895717316916e-03
4.817215363256120188e-04
-7.261693332979294365e-04
6.877797268951103089e-04
4.740656019717351226e-03
5.347307210259096520e-03
1.458035549984704801e-03
-3.399715966737850131e-03
-5.393764124694945018e-03
-2.828217031662239294e-03
1.720618176543599331e-03
3.693089709684366055e-03
-7.074801998877909125e-04
-3.376301137277433733e-03
1.044029798068195868e-03
5.092431939969123932e-03
3.900640321680049708e-03
-1.449653533558537162e-03
-6.062580451647184634e-03
-3.974195733844375703e-03
8.613747448146108487e-04
2.963896412201971059e-03
1.582156031363075909e-03
-1.291113092300158818e-03
-2.294214133382670509e-03
-1.275926695134423040e-03
6.863236212899675743e-04
2.810653827658627594e-03
1.405016392152676251e-03
-2.961950767863594410e-03
-4.850549648651878744e-03
2.236275946866304355e-03
8.612649873876851089e-03
8.097132244590311487e-03
6.105044083034104341e-03
3.023207162656840231e-03
-2.577700689677550790e-03
-9.052178410457181398e-03
-1.411450639921312672e-02
-1.773409406716620895e-02
-1.206513600028057305e-02
4.052300357295157002e-03
1.714829943175121343e-02
1.726917235086512792e-02
5.442165024905838352e-03
-1.909729248507317356e-03
-1.051045273783795132e-03
2.114255466006346573e-03
-2.322409481736109212e-05
-3.653943842220964619e-03
-5.142665736369001622e-03
-4.075891271130976067e-03
-3.581171694325350867e-04
2.740851103413273048e-03
4.388470827968485657e-03
4.972923826564460727e-03
1.987530525887267700e-03
-2.945771515082946587e-03
-5.140216990282941989e-03
-2.791439396101806462e-03
-7.896977884583513546e-04
-1.258678306163644621e-03
-3.251536695680190721e-03
-3.517010975509824063e-03
-7.767730391029196036e-04
1.674420285730623872e-03
4.201718720998690558e-03
5.788264671314217319e-03
4.945322952366612915e-03
2.607890276701874382e-03
6.074901885481953125e-04
-7.683364773727430035e-04
-1.552598816383265763e-03
-4.841523397425122680e-03
-5.803872505960283937e-03
-4.646798425487513873e-03
1.322158812557416244e-03
8.542445075484043568e-03
5.829309694834175840e-03
2.299378927792825131e-03
-3.144745763950951550e-03
-4.874899617816959296e-03
-2.589689234810519606e-03
-1.007968663454560966e-03
-2.391897239165996936e-03
-1.512833992407812715e-03
1.376007161179470216e-03
9.935011311944564900e-04
-7.669087689763740695e-04
-1.098116288637305789e-03
2.342801155272273162e-03
6.090179806957691025e-03
5.902521776034643647e-03
1.033829445392455988e-03
-3.934839330914232519e-03
-3.671109974591916809e-03
-7.860232792074905214e-04
-2.321476975237009039e-03
-2.810194940728855725e-03
4.676837249725108309e-04
1.687798735246101318e-03
1.741319959756663536e-03
2.132032878027686432e-03
5.517553934257142263e-04
-2.690907270529534732e-04
-1.411085014250245372e-03
-1.661891777875236856e-03
-2.398933170603373671e-03
3.973620766238841799e-05
1.640254877293475936e-04
4.205380081663719072e-04
2.035993742454209054e-03
1.811640690473189470e-03
8.198241328031231293e-04
-1.089649224887733045e-03
-5.592357027131508469e-04
1.647473003635266994e-03
2.630271605268642929e-03
7.103677044073205020e-04
-2.279679580865051538e-03
-4.352013599835320365e-03
-3.515772506920993370e-03
-1.439814069259390521e-03
-1.775948137088501208e-03
-1.464128317925775637e-03
8.718640002426847509e-04
3.089944646666965920e-03
5.935651342904848735e-03
5.258806347746098828e-03
4.373831933987722131e-03
3.839460959375898871e-03
2.379702427545869834e-03
5.532029880404168778e-04
-5.799916153824562909e-03
-1.074932138259793862e-02
-9.102294887544689142e-03
-6.471667937913841602e-03
-2.339517097302621414e-03
6.301199474135622640e-04
1.465936347377820668e-03
3.778333218921607010e-03
9.339956761347155412e-03
1.090424181213032855e-02
2.726393680050647004e-03
-3.419395451166682125e-03
-4.791472846977832233e-03
-2.491045812296352902e-03
1.746128046229567486e-03
5.250159043060765793e-03
3.355649353479076349e-03
-2.503655504660444973e-03
-4.939672230668831245e-03
-2.504398955245957549e-03
-2.277554181146881993e-03
-2.009176821035426382e-03
-7.983321756278305426e-04
-1.229228522418699624e-03
-2.049140860772160223e-03
-1.561877084092140350e-04
-3.706648971145194314e-04
8.851228003035969526e-04
3.209618704651385872e-04
1.199694880920067425e-03
6.007300701597768737e-03
9.277307794046068742e-03
4.150392169508840268e-03
-2.671183908959528456e-03
-6.789588032264445502e-03
-4.123003407499425781e-03
-8.183182818143723558e-04
1.402749492317149297e-03
1.891498938507537014e-03
-7.549842467760423028e-04
-1.977241989619688955e-03
-1.322761645389961731e-03
-3.208812142252070922e-03
-6.242673267501198942e-03
-5.818468156877770574e-03
1.301173817675077039e-03
1.163993190001474769e-02
1.485095661647986218e-02
9.583194392433184647e-03
-2.872283984182600418e-05
-6.651562926623312555e-03
-9.973582690996770153e-03
-1.120786898259565172e-02
-1.064872903408097329e-02
-6.451153459477711356e-03
3.382701322577564163e-03
1.230107959705581053e-02
1.099528610841659163e-02
6.315800345303284984e-03
4.790338682950674200e-03
2.553752651693519306e-03
-3.356607484172492630e-03
-6.754795099755309118e-03
-4.505555095241145329e-03
2.568059803038753256e-03
4.351116310614343632e-03
-4.214642084258821489e-03
-1.107334969604149323e-02
-1.101109169755218678e-02
-5.963964509997016390e-03
2.910559685297158059e-03
1.064771409705629786e-02
9.992034766515502445e-03
6.800131702818206468e-03
3.707369923331761599e-03
1.803064541994082916e-03
-2.849431230790267465e-04
-1.199222250244541890e-03
-3.866583193834669929e-03
-5.573558683790787172e-03
-3.148046508598743246e-03
3.323172132462166341e-04
1.952886780837497557e-03
-2.866757052240818601e-03
-5.418699834712831752e-03
-2.171039457301953291e-03
3.550943827486814728e-03
4.307563532805655862e-03
3.188831347248100544e-03
1.603209714664293861e-03
-1.336312159891649056e-03
-1.948404331527627768e-03
8.038257389404515076e-05
2.305243597199469786e-03
2.269822632449571345e-03
1.169229349312468419e-03
-1.794108695181882967e-03
-4.372931283638663812e-03
-2.035746057278750489e-03
-1.392297645659882135e-03
-2.025452973206131907e-04
3.622420633449320668e-03
6.071185265708232970e-03
5.884091557902023338e-03
-7.849079259939022689e-04
-3.580787286897828617e-03
-4.495001863320535057e-03
-7.182342524970864936e-03
-5.974079919216623152e-03
-2.206297656639073269e-03
1.269819278931493944e-03
3.745040904383976389e-03
5.272978061009537046e-03
5.443816772608083172e-03
5.058457749547122864e-03
4.752826982729729116e-03
1.030388597824194365e-03
-4.885974257792777969e-03
-8.271535078793168169e-03
-6.541907567180342206e-03
-1.080982431857279834e-03
2.150797303560555030e-03
2.688138951296227628e-03
1.593614558471442193e-03
2.372755940843733913e-03
1.970954898660359257e-03
9.967511891148957658e-04
3.652078809896442887e-04
-3.799337674983372867e-04
-2.912986985667469740e-03
-4.022418428300152983e-03
-2.630159134329222628e-03
-1.929013308814090874e-03
-2.518342075074001072e-03
3.396353800049812816e-04
3.746723404273926382e-03
7.236821432762599246e-03
8.807091263479798274e-03
4.460475459671875420e-03
-3.094380506456301683e-03
-4.133621132487790353e-03
-1.291301236312042975e-03
-2.839766622060852994e-03
-3.916399658489489594e-03
-2.542054289923607012e-03
-4.197631404664461073e-03
-6.108986665776258186e-03
-2.591455408135729960e-03
1.668960696153341285e-03
2.899746092378197894e-03
7.542181115190700960e-03
6.762691523797756399e-03
4.830003200882701346e-03
4.618253331711773615e-03
5.931010395836136886e-03
1.539805241824755960e-03
-3.581394512279296571e-03
-6.589677319474788152e-03
-1.057827676984852451e-02
-8.241803239967855285e-03
-3.233738456505130029e-03
-5.523911013686631961e-04
4.752937790846283039e-04
6.944247984669443818e-04
1.876646442421519168e-03
2.743256853126606592e-03
3.838473814469427897e-03
4.927038742650281453e-03
3.614572493584269301e-03
2.515526974887223165e-03
2.996352658449970199e-03
2.431037395376667645e-03
-2.284859112789721335e-03
-5.725373940314063340e-03
-7.049883822302159368e-03
-4.656043109098385174e-03
1.634498465367685810e-04
2.309090907340307242e-03
2.184617216386691794e-03
2.047656254743084232e-04
7.626532719306368261e-04
7.853454998578444706e-04
2.092978076548429166e-03
2.090409920084410240e-03
1.243617416126135532e-03
-4.092333163689594946e-03
-6.720241403453244833e-03
-4.013153770157387723e-03
2.846944031355844260e-03
8.256560293448424875e-03
5.850337219897759448e-03
-1.583002432107797047e-03
-4.543811215125602258e-03
-4.217776756295479705e-03
-1.490593725776585875e-03
-1.526661684762035823e-03
1.183288233862347678e-03
3.594840800021687106e-03
5.400419613420467252e-03
2.772888506736241338e-03
-2.631098077739399237e-03
-4.127203072816755525e-03
-2.360603817815740222e-03
9.529471760395041499e-04
4.098186781708472448e-03
3.684788235933036168e-03
-3.144122549133831785e-04
-2.424549216412858355e-03
-3.263228631464539908e-03
-4.198644736617887854e-03
-2.771939397913735555e-03
-1.548881862432605581e-03
-1.561776603930871421e-03
-3.534677474938322135e-03
9.614326628305230188e-04
9.514371660769949807e-03
1.268116193847977115e-02
9.397009299867488050e-03
2.615585814239426883e-04
-9.406701813389962974e-03
-1.215999852915921123e-02
-6.350863593151043034e-03
-2.477504608547720193e-04
2.768704602185213890e-03
1.460091415480045500e-03
5.445287057997854393e-04
7.772409892352639136e-04
2.306035401027293087e-03
4.212300153267263016e-03
3.137027747477678843e-03
-4.630480205887405401e-04
-3.077689991129206690e-03
-2.567120590516930919e-03
-1.212748660614104907e-03
-2.664884203848290421e-03
-4.161053656053526235e-03
-2.172992799426549156e-03
1.792947389392243740e-03
5.618324410702522399e-03
5.959839694573114931e-03
2.977898565801286122e-03
1.404298265725566989e-03
-2.274181412684785769e-03
-1.808244492779934780e-03
-4.092947982099490265e-04
-6.756921046346665806e-04
-3.217018220567757509e-03
-4.821562651503619873e-03
-4.407118281754468514e-03
-2.757458052443750689e-04
1.643775669105165468e-03
3.661455822726404890e-03
3.809994796265046228e-03
3.165602752066828517e-03
2.793976407151778103e-03
2.376268953190978361e-03
2.099594694411352567e-04
-2.669020067669044226e-03
-5.534874495210161463e-03
-4.916707810850210088e-03
6.744762729785666426e-04
4.797453482481671937e-03
4.679373208439240386e-03
9.119334598641840300e-04
-3.005467181628173820e-03
-6.616224618750566819e-03
-7.624003540813817197e-03
-1.588822054403785881e-03
4.642956023710397527e-03
9.720401205255217378e-03
7.256640200533948787e-03
3.227321862109802826e-04
-2.672853896468889347e-03
-1.258711964244161327e-03
-1.220467941322349098e-03
-4.680758687990004517e-03
-5.520176696342031682e-03
-1.583745200502574297e-03
2.114213681811131628e-03
3.459373647005909314e-03
3.082696461375226005e-03
-2.194408026198395409e-04
2.784673407834714447e-04
1.529538827388910414e-03
-4.360418804936945242e-04
-8.979954293944852027e-04
-2.467166287668730220e-03
-8.939662939385505276e-04
1.199849127926014411e-03
1.188977005142179567e-03
1.082708018755478604e-04
2.044333079695241900e-03
5.440376308047396858e-03
4.930065524348540250e-03
-8.774625836918265032e-04
-8.326612698759536940e-03
-1.145988990820105517e-02
-8.731405676660870807e-03
-4.148095675797235961e-04
4.983709016246347379e-03
4.299625957536195794e-03
3.670549533748083872e-03
4.339320959602521385e-03
4.175409464154348355e-03
4.386849486511100460e-03
6.927275704897487701e-03
5.344613011383879744e-03
-3.310653225115729650e-03
-9.780058203144793849e-03
-9.526364773460180291e-03
-9.593334451868266999e-03
-5.866080495566019723e-03
3.349356581381873147e-03
6.947565559884651826e-03
2.533731388435658642e-03
1.300171439826978362e-03
3.453156678857588827e-03
1.869088836806797119e-03
-3.109272550066668594e-03
-1.692558752594103613e-03
2.312547480457281899e-03
3.099624891740435009e-03
1.713790351679993912e-03
2.850092585610447538e-03
3.871401036989969690e-03
1.544024726092402256e-04
-2.849846635595787870e-03
-5.326424511117726877e-03
-5.004300688277953449e-03
-6.003201963504670689e-03
-6.473287178346713577e-03
-2.259353570280924883e-03
2.871094489580557334e-03
6.376578180932009760e-03
5.103292658997126557e-03
5.349097457963928638e-03
4.089971495343590335e-03
8.789211992011919557e-04
-1.707976053528610573e-04
3.083641355536960796e-04
2.988839378974814174e-04
-2.223765181341691172e-03
-6.692071742146801436e-03
-5.516905064285856052e-03
-2.242124674638924006e-03
-8.616572856151379252e-04
2.573011956159287645e-03
6.371452615634836184e-03
3.507752033738775494e-03
-5.284527955170472031e-04
-2.534365729185384178e-03
-9.845122973971532319e-04
3.067771991338686765e-04
4.250490784139445430e-04
2.877445990304881244e-04
5.049019047305054617e-05
1.756293380937097484e-04
-3.983084381986122112e-04
7.793794709154361691e-04
5.168857852292933937e-04
-1.016897717707810830e-03
-5.971845026688575543e-04
4.274334771196684930e-04
2.546316266053989244e-04
-1.388661122515198309e-03
-1.111174544599924114e-03
-7.090565349180208031e-04
-1.064532138468438950e-03
-4.700516336869632302e-04
7.911767116817410884e-04
1.370777547999932485e-04
-9.072617281030531363e-04
1.152123893708801965e-03
4.452761930473751392e-03
2.386272689807387038e-03
1.300279026670272432e-03
2.038630851355535591e-03
5.566579128491345053e-04
-6.286260866262298116e-04
2.440592512842557754e-04
-5.431271013465032577e-04
-8.894974243208657143e-04
-5.230740600252897082e-03
-8.056855135216712746e-03
-5.814155716701500769e-03
-7.231744849756373793e-04
1.961751956716835388e-03
1.268136198887678682e-03
-5.727759604039154434e-04
-2.725123611816877844e-04
3.453507224260204348e-03
9.878669908841552008e-03
1.168333695835156900e-02
7.619367894143313363e-03
2.514133050965971453e-03
-2.487153912624487460e-03
-7.774407493646974532e-03
-8.852035428431690584e-03
-6.856337972625616006e-03
-7.478746560605639693e-03
-7.990953542423148356e-03
-3.195218403983082333e-03
3.585858728664811142e-03
7.826936067318128118e-03
5.927757470697044354e-03
4.512405332429319897e-03
4.094991965143328187e-03
5.788306498655412108e-03
3.366658748533545280e-03
-2.390878064912466388e-03
-5.834678909866719554e-03
-5.138899668298179541e-03
-5.807690523945123300e-03
-5.261287394750166491e-03
-1.379733128718765422e-03
1.698574209220250503e-03
3.951633106729168440e-03
6.420580213954686817e-03
7.851853969723363025e-03
6.376106099348958188e-03
-1.844432125708904511e-04
-6.835416873018309962e-03
-5.678013965419297440e-03
-2.078645152882111109e-03
-2.458283278853340068e-03
-6.813862488019279892e-03
-5.056574879639172578e-03
3.454298992108280255e-03
7.007883443099909536e-03
1.983148246775875024e-03
6.254771172705146307e-04
3.271023227499338885e-03
3.836578176510411966e-03
4.131436625545409060e-05
-2.015542600652522887e-03
-1.433514006802320741e-03
1.001297407132927799e-03
6.833098701429594218e-04
-1.043302596149703462e-03
-1.916490994980050251e-03
-3.025701686454471823e-03
-1.943062488546363695e-03
2.242630515323057894e-03
8.391569946010139346e-04
-1.408879862562300266e-03
5.561143130029627636e-04
1.726916220199259866e-03
-1.984407011890789666e-03
-2.610039945912478749e-03
-1.491277355648102168e-03
1.705325701322149383e-03
6.696985369606698463e-03
7.395217076544186724e-03
1.213197801923750121e-03
-6.203417244155275991e-03
-5.705282855103062031e-03
-3.100770169059401549e-03
-5.388415871745225183e-04
-3.230857144804338832e-04
-1.816525645534504852e-04
4.758693829652218925e-04
2.998853232545285654e-03
2.780972707622453299e-03
2.840364700575798065e-03
1.460796598520278143e-03
2.806809607478850596e-04
3.286123408923266728e-04
-2.619795912326984533e-04
-3.044831161614574601e-03
-3.916976241940988909e-03
-2.729383125759670195e-03
-1.149635801384872504e-03
-6.837751720224449184e-05
-6.693520220734538615e-04
1.976135815912841587e-03
2.120583735073032060e-03
1.206426775859797170e-04
-1.229215981624150536e-03
-1.888453231085267681e-03
1.987797825015044043e-03
5.687095383757620817e-03
4.026089609996253219e-03
1.879797928796744701e-03
-3.120342646736823725e-04
-2.574192567214760724e-03
-2.950421947246527257e-03
-3.907942967765890181e-03
-3.483861690244394616e-03
-1.996756664807067608e-03
-3.674070888358763054e-04
1.857530329038786863e-04
1.654402995378241332e-03
2.371501309350740588e-03
3.875309126590107713e-03
2.820282105346615890e-03
2.114909092611986976e-03
1.766397726212314521e-03
-5.080849650106402000e-04
-5.465261035100027823e-03
-6.230757310448234790e-03
-1.878543304522242805e-03
1.195615821428994401e-03
1.022046850830522335e-03
-5.556342780930542810e-04
-1.850966852400255961e-03
-1.185476479041293590e-03
2.497766382208496411e-03
4.138491757592427378e-03
4.307260941410817612e-03
4.475756027292276083e-03
3.204668841529780248e-03
5.734227827982650919e-04
-1.355659336576056249e-03
-8.187396626123833333e-04
-3.819752960674217303e-03
-7.949528505673150031e-03
-7.416566195896846792e-03
-4.489189005907595793e-03
1.489700231136021399e-03
5.096010569273674851e-03
4.584006375982341459e-03
6.583279021544013142e-04
-3.291684766392730978e-04
1.858804974640302580e-04
2.282269931190554751e-03
2.360666317681521260e-03
3.122460437679271811e-04
1.195865411030577578e-03
2.268476383783152566e-03
3.112578856401149608e-04
-1.958549896341871786e-03
-3.207906550872051486e-03
-7.371083628287516260e-04
2.164704448656528258e-04
5.200352594372033462e-04
-1.244193205469904971e-03
-2.673643048837850717e-03
-2.427416732325862227e-03
-9.894954344032975795e-04
9.297859463418113135e-05
1.564711330771560195e-03
2.187577448624815259e-03
2.400712395343501584e-03
3.403651995394219032e-03
3.036180771568584933e-03
9.672729694668652164e-04
-1.760553824278071351e-03
-3.033447529809159098e-03
-1.951723578248749490e-03
-6.578152370433701379e-04
-1.434699174954431151e-03
-7.535940196682164999e-04
1.113183591329132806e-03
8.541217239605594733e-04
-2.848277010152466295e-03
-5.811209742090970611e-03
-1.560055132483993039e-03
4.018393438404454544e-03
4.877926703679724175e-03
3.200592144134920946e-03
2.374014843640156677e-03
1.038357632861283079e-03
-1.726067176965472624e-03
-1.819882665863775889e-03
2.553784616190281007e-03
3.721328998737607682e-03
-1.418969068249382017e-03
-6.509629916847928591e-03
-3.816873913012914545e-03
-4.014021120792607249e-04
8.049557917891225420e-04
2.375643269511870214e-04
1.851783619066371591e-03
4.577497487809032567e-03
3.344523469741077053e-04
-2.928260302832317620e-03
-4.274493748157216604e-03
-3.831957871491232029e-03
1.020217386306764701e-03
3.746994259203638173e-03
3.303135416690286454e-03
2.452340661449085076e-03
-1.638379161854897013e-05
1.391772205678126761e-03
-6.534737902080560087e-04
-2.197430081238062067e-03
-1.426459286814459699e-03
-9.548990852814816851e-04
-1.261981327944970352e-03
1.140745341268186320e-03
1.656155112286732730e-03
-6.483105678129229060e-04
-1.361533757853289946e-03
-3.412900683832915494e-04
2.558538951509679599e-03
-2.937963292314955044e-04
-3.514559715303217698e-04
4.082396434619524144e-04
3.176489370671418911e-04
-9.130506266243605760e-04
-6.700941796812285396e-04
3.074561563467031132e-04
2.159662544190202739e-04
1.536728166621134921e-04
-6.106642205567902994e-04
-6.718708551252894562e-04
-3.047095778963989873e-04
-2.533881469000531534e-03
-1.386816337906275794e-03
3.150615831146174294e-03
3.301131859035834337e-03
1.042195881846159130e-03
1.816789054572690425e-05
-1.325920223776907774e-03
-2.418975655292178884e-03
-2.566542640372877337e-04
4.040110200786702771e-03
5.838888744379754428e-03
2.950775439333472045e-03
-1.465802159065255749e-03
-3.172694672490681839e-03
-3.714047082357666528e-03
-5.072486017458326633e-03
-6.005740380146672684e-03
-5.557396045733286119e-03
-3.060793116932186610e-03
1.244366074681102236e-03
6.204187806622743322e-03
1.203117610716058182e-02
7.937311625171656476e-03
-1.001797677876929791e-04
-5.515647035580768624e-03
-5.274645793019343450e-03
3.485522843170193400e-03
7.590866951161432535e-03
2.664490039127652768e-04
-5.277294886329211496e-03
-7.424110809624579442e-03
-3.939282903326107171e-03
-3.575276591796616547e-04
7.010327273994838328e-04
3.652042342177151506e-03
5.908853974594780248e-03
5.663693353391304093e-03
-2.080972509446570810e-03
-1.147618601686672783e-02
-1.132226315064436412e-02
-2.925333713623440735e-03
6.458872031467325324e-03
1.094325539511237233e-02
6.918884258159336068e-03
2.205360135514790754e-03
-2.110146559247124982e-03
-4.044335754450922339e-03
-2.395138999271268811e-03
8.194301369028301162e-04
1.890680783304838361e-03
4.588066609373125547e-04
1.278297202760383152e-04
3.129873937913852083e-03
2.548065225906359556e-03
-2.267501666714205871e-03
-6.764029656333306675e-03
-7.439572103523313384e-03
-3.215621358308974175e-03
4.415357294492460762e-04
1.588012743890009244e-03
3.322967096195113528e-03
3.101372401262853917e-03
2.493599386939613586e-03
1.839589200196629654e-03
-3.654138885017224787e-04
3.652537244408481821e-06
1.714745393911329928e-03
1.384084647003271541e-03
3.990318022037830107e-05
-3.834018601160263731e-04
-2.450653136294568633e-04
-1.429985357779604924e-03
-3.246032489529803236e-04
-1.922950184718292174e-05
-1.606575748348684080e-03
-1.890037230853684920e-03
3.617998205719056681e-04
-9.761291208699488610e-06
-1.737554289121514585e-03
-3.082408997675031587e-03
-3.210798471302701677e-03
-2.810771903216875960e-03
2.147526921250910719e-05
5.502422749162424673e-03
6.661874975309307195e-03
6.733235094598305492e-03
4.807736625826449645e-03
-4.550102570968904712e-05
-2.520545551863313631e-03
-2.513818497355538827e-03
-2.218774305445623835e-03
-2.762576614218453970e-03
-4.658135066087704633e-03
-2.306576220344171146e-03
-6.267550822182470747e-04
-1.779477915949042102e-03
-1.332625834429167135e-04
1.558778675184009860e-03
1.768555266987837001e-03
1.715236378491062901e-03
6.318003595789591260e-04
2.324058494658639944e-03
6.777460409950082469e-03
5.427661926285218957e-03
9.994302421246930614e-04
-3.933563374463239226e-03
-7.859631589330184215e-03
-7.120261335512989911e-03
-3.536182437871883844e-03
-1.334126597498926190e-04
2.823466343558166027e-03
4.319427328545828379e-03
2.432818467300918667e-03
1.045045681732423640e-03
-8.448572832283340883e-04
-3.325986661920927318e-03
-2.680238666886674073e-03
5.269521333400675224e-04
3.732171603954323024e-03
1.608339588641296593e-03
-3.256083902798006819e-03
-2.189015816723898465e-03
2.933605727352436247e-03
5.793247342992343361e-03
6.618677012653749470e-03
3.188640631019786734e-03
1.062326108594245080e-03
-1.060742326620439397e-03
-4.007767929309017513e-03
-4.767820467950893183e-03
-5.793843636433666962e-03
-1.026982193631924278e-02
-1.326217394801143187e-02
-9.202487126240806517e-03
-4.424249615560126199e-04
1.417757361823205123e-02
2.756551028484566235e-02
1.841518007506554033e-02
-7.363234447085704147e-04
-1.097687136613613446e-02
-1.036265419671355929e-02
-5.519522941267134344e-03
1.640548634179683513e-03
7.825046068210618141e-03
4.555208439478973872e-03
-6.108981771948372719e-03
-9.272519833637693498e-03
-3.139416108474519639e-03
1.448786745152582083e-03
8.505593581250481434e-04
-2.903018554439916986e-03
-2.112162994287636059e-03
2.588611011907898923e-04
1.560807622925426946e-03
1.587638242075205090e-03
1.958059797975255159e-03
2.903718692497538490e-03
1.889738247194718002e-03
1.239711303651487313e-03
9.617221607403523762e-04
-1.251865598311621176e-03
-2.569591286967388847e-04
9.819407984545814715e-04
1.925484742987789658e-03
2.177077178295860633e-03
2.253147926914333965e-03
8.443982959566826655e-04
-5.987970849236679037e-04
-4.725870648001828482e-03
-8.667696624747705733e-03
-8.153646186048146144e-03
-5.751695290880444976e-03
-1.106582271820673227e-03
2.644651412085796509e-03
7.256033934645699651e-03
7.003346811130453306e-03
5.154674636855422279e-03
4.197870719427137902e-03
2.479572807209419732e-03
1.528507595988864726e-03
-1.419327394673445576e-03
-3.955955197039678559e-03
-4.141520913699136414e-03
-3.092197536539101430e-03
-9.169424230716071160e-05
-5.211622838516526135e-04
-1.360017141331566065e-03
2.710476321754412901e-04
-2.135985115736666582e-04
-1.284823380070773723e-03
2.746421602002636084e-04
8.230265798528616124e-04
9.958140655035477122e-04
2.040989174116419631e-03
2.154579084149189135e-03
1.209085292085330032e-03
-1.055311084996329805e-05
-1.028072861622729428e-03
-1.980935660606371763e-03
-1.636260841116668995e-03
-1.369306073325256116e-04
1.151350409683717492e-03
5.557416510018461844e-04
3.687128131584357579e-04
4.392155797599824421e-04
-1.490785069807341390e-04
-2.467762434491992379e-03
-2.708784652065326752e-03
-2.408522645801477145e-03
7.066540481305521974e-04
5.242779195365177523e-03
4.917174156339035318e-03
1.071039476425717212e-03
1.908005689212363557e-03
1.592244519974364385e-03
8.846346512080425421e-05
-3.547978354155285202e-03
-5.826769827271533267e-03
-6.601895508777573009e-03
-4.035118878015408507e-03
9.781248943854493026e-04
3.280124154554555065e-03
3.670167432110607066e-03
2.948876667317969560e-03
3.877538659690349908e-04
-1.391783983456646584e-03
2.663483050882075806e-03
2.489771090716024534e-03
6.718132905861575670e-05
1.486772992544555362e-03
2.915355001702290769e-03
5.974026814759890669e-05
-4.199580192158573408e-03
-4.229313469091852337e-03
-3.389211600100236477e-03
-2.280712338613198088e-03
-4.250037497642044672e-04
9.890474648052336414e-04
1.701424638309646559e-04
6.115780239579035236e-05
1.162959151783388243e-03
1.834958877207074155e-03
1.495270772070892177e-03
6.173710794499585701e-04
1.185701830060893226e-03
2.269844096073626947e-03
2.008838757227006128e-03
-1.623797531881128291e-03
-1.661518023333048450e-03
1.227342085690261066e-03
7.278748020000302878e-04
-4.681942358678909842e-04
4.918898704323799477e-04
-1.461405605489244719e-03
-4.516075828065926195e-03
-3.791896667427979532e-03
-2.021917333926134385e-03
-8.571276996156269954e-04
1.977880695971658508e-04
-3.538751556461701154e-05
1.231562035067275103e-03
4.033738555930697564e-03
4.275028498542238035e-03
5.321539535679887731e-03
5.183048429516267167e-03
1.244327517386450890e-03
-4.848871326828851566e-03
-6.422239528582380716e-03
-7.331648926190818989e-03
-3.342507843342390050e-03
2.768020118922536691e-03
6.859620529797895092e-03
6.635117988665591507e-03
5.914374987315061324e-03
-1.691421351739857536e-03
-1.034852779113120368e-02
-1.100345948780382874e-02
-6.185850912519597761e-03
-5.434934649008743221e-03
6.339957543503326777e-04
1.026179289522983519e-02
1.328380851548297166e-02
9.891317495797491768e-03
3.913502468767939522e-03
-2.218590587704611424e-03
-2.739039495311512262e-03
-3.190069409952321026e-03
-5.919385895683479740e-03
-5.343016102112404381e-03
-3.350721251193347020e-03
-2.740449552192679005e-03
-1.722892232734833749e-03
2.264253620599993629e-03
6.604446998317772127e-03
7.010289071126270082e-03
3.320440334213179290e-03
-5.011675899667350324e-04
-2.316285470903282906e-03
-5.321421359807815277e-03
-5.993039445946046935e-03
-3.395742149968014774e-03
-4.043532019248098630e-04
2.854903763794991011e-03
3.813241715350846033e-03
2.491436562301380889e-03
3.328183410461036870e-03
3.581832984707187389e-03
9.596004968652140261e-04
-2.566539003390997612e-03
-3.656732320366188217e-03
-2.177994326113582690e-03
-5.908991880905715283e-04
2.029889854250619256e-05
1.017771557607239025e-03
-1.972532206720585513e-04
-5.707637006289604034e-04
1.279942661097016599e-03
-1.221075091772939848e-04
-1.855611901674342678e-03
-5.368258958045876239e-04
-4.083746822306772556e-04
-1.134201612658136725e-03
1.893077074493432644e-03
2.138611734532959528e-03
2.675319024678243177e-03
-6.022960741016844186e-04
-3.872886397343987003e-03
-1.797346137509923383e-03
4.268243647170500907e-04
2.782567658194266998e-03
5.856601092378269438e-03
5.195232588167857449e-03
-1.826961218868478672e-03
-7.001747820834578265e-03
-7.611431047640252086e-03
-2.612061352469035452e-03
-8.722293669025217924e-04
-1.162866873340336331e-04
4.376764131864423896e-03
8.937716113673783991e-03
6.846197799607654441e-03
-1.599213959395258487e-03
-6.791808257607399694e-03
-3.853646909434384205e-03
-4.161121440313143849e-04
-2.885886934195499871e-03
-1.033157075204905930e-03
2.253412824449690585e-03
3.325374835591357690e-03
2.808700504449306891e-03
5.672375280140074666e-04
-2.009342110724527536e-03
-1.853516541269974085e-03
-1.849683491659621405e-03
-2.289596327064237751e-03
-4.150419204254070064e-04
3.478163701785633340e-03
4.971740955865642381e-03
3.154467103953863087e-03
1.080741845914065438e-03
-1.399537854972474071e-03
-1.688092027136367567e-03
-4.201959231526973711e-03
-4.960818399539565146e-03
-2.725750000657075831e-03
-1.289358762847448835e-03
-9.336187232580352678e-04
-1.122416610298564339e-04
2.561248226064725009e-03
6.173102146126370308e-03
6.438135120167501162e-03
3.938197572593431922e-03
1.834366393546167477e-03
-8.435819150882854604e-04
-2.478032836275190394e-03
-1.145901567554498358e-03
-1.630977054407071764e-03
-4.126411251834839408e-03
-4.687997975409716710e-03
-3.319011371059047821e-03
-2.902323869953716759e-03
-2.641978347357919459e-03
-2.035649185509852323e-03
2.017667796416313438e-03
2.850426348075223680e-03
7.212665063669100422e-03
1.054712274720425412e-02
5.531133938478321674e-03
1.608128143291791528e-03
3.018574467748549092e-03
-9.592539120772654651e-04
-8.230208487454569038e-03
-9.367106141254648646e-03
-7.897856186566231187e-03
-5.652496669850409425e-03
-1.537573830635204029e-05
1.882047936517812926e-03
1.772003079980963552e-03
2.919464142540464328e-03
4.926815603644489616e-03
2.964065471980742786e-03
3.327388622079495688e-03
4.514864342538205642e-03
2.108269625039147898e-03
-2.070394316901806153e-03
-2.702369593339476548e-03
-3.022282564316419382e-03
-3.064179432018775563e-03
-5.727036306045073417e-04
4.554286053918251212e-04
-9.184930813941670578e-04
-1.048432513920878693e-03
-1.317133889338876259e-03
-2.644713065430708519e-03
-3.050106110146594014e-03
-2.690141129863734843e-03
1.477001818296435742e-03
7.448302650967512928e-03
9.699168408288348642e-03
6.812209775635780923e-03
-4.663137125132451065e-05
5.060848694436420429e-04
2.917737488552024031e-03
-6.434752673639893613e-04
-6.241926963330750311e-03
-1.312100444110915823e-02
-1.500119490175849321e-02
-8.624510915704191455e-03
7.484362090991810053e-04
9.859107418551168317e-03
1.148957669997154908e-02
7.573838308963175628e-03
4.304950335194308170e-03
2.972356990703867250e-03
1.788872965972068772e-03
-1.058307515145582526e-03
-5.116758441121228851e-03
-5.986389048949891829e-03
-2.791293871425381753e-03
2.995022158844532108e-04
3.079523436334827020e-03
3.968535239396485739e-03
1.389608030069766631e-03
-5.818035600145001450e-04
-2.896221353951443714e-03
-4.814294345403656410e-03
-6.957755342820310697e-03
-2.765177996001164096e-03
5.484091103284820766e-03
5.445820041493168798e-03
3.650184443550628981e-05
-4.725505177323150889e-05
3.831848594939131925e-03
3.743167676024378773e-03
2.938853820235918200e-04
7.988679339797314250e-04
-2.485844723172994652e-04
-4.847190428195510652e-03
-5.686642877054691458e-03
-2.930094999914817887e-03
5.172920175258782435e-04
2.291788391107591686e-04
7.858153158410456293e-04
4.633823813050540544e-03
5.676222374257912720e-03
2.089003124908822302e-03
-2.153038905000340206e-03
-2.158430955681068814e-03
1.001174937170133076e-04
-3.755431157803409276e-03
-4.704144409774800410e-03
-1.045625589367376197e-03
-3.849317391277824480e-04
-2.392327744868690247e-03
1.956908657079364268e-03
9.780370775746526080e-03
8.575231220296948217e-03
-2.841211274755800313e-04
-4.749842825585385425e-03
-3.461061048669013349e-03
-3.452464078238644003e-03
-2.604115238944476347e-03
-9.309799995393009016e-04
3.336686939762766903e-04
2.642691000997450350e-04
2.820018883121181309e-03
9.747320080199918611e-04
-2.434793875865056735e-04
1.140676150978980593e-03
1.607669575232942381e-03
-1.600967264785531623e-03
-2.700546557086935893e-03
-9.431910938004912622e-04
4.507849559292381909e-04
2.685831912209720156e-03
3.609986571080673994e-03
1.835843165067490255e-03
-1.426951551163431822e-03
-3.285553132376310519e-03
-1.451117983730389280e-03
7.269892099365383564e-04
-1.923677729410082186e-03
-4.192163945783739139e-03
-1.929806157392613755e-03
-1.399699983292918622e-04
1.972257893794182159e-03
1.383447565091979175e-03
3.760755602385067349e-03
5.911962104461455751e-03
5.397577958826121555e-03
2.362659970871398060e-03
-3.054820838508507611e-03
-7.210983725440813993e-03
-6.919548670546379898e-03
-4.789239701520640012e-03
-3.718145753675932384e-04
3.734722032882674663e-03
4.784223245564435748e-03
1.711550352122199721e-03
-1.393413812307768660e-04
-1.376931951705225553e-03
-2.154887991460009439e-03
-1.104850581367261509e-03
1.611474532669892245e-03
5.370759822585780864e-03
7.258149682889169022e-03
3.290067285066982858e-03
-3.037870506497740691e-03
-6.698314655888608533e-03
-7.842876622736161610e-03
-7.527696331641247837e-03
-2.983187937275341966e-03
2.312966928731732211e-03
5.650743774079316009e-03
4.472161715403319589e-03
2.800047218853805921e-05
2.723986483692481322e-04
4.601014893268502194e-03
7.664614669553693888e-03
3.337350232443533817e-03
-3.225802676324645863e-03
-5.655305347747963465e-03
-3.380801793132151654e-03
-4.525191862220252249e-03
-3.317590269238862577e-03
-1.758399115382943117e-03
9.098614025877683337e-04
2.403198280534036592e-03
3.344891275099797986e-03
2.685086127174853270e-03
1.665267902326885742e-03
-1.372198366162597893e-03
-4.272169476039856112e-03
-2.136329571769948841e-03
4.686772999478007809e-04
4.616721247848116008e-03
4.204582506304815892e-03
7.534808865211841018e-04
-1.777528987348786288e-03
1.114929804851508022e-04
3.208069839190887378e-03
6.420520202463711468e-04
-3.310647427682793156e-03
-7.111632295631505063e-03
-7.839564910990557550e-03
-5.768998422079755703e-03
2.187783022063673807e-03
7.827621353960294986e-03
7.520156194482515224e-03
4.491494921832851761e-03
1.496156991234150104e-03
-2.846964401250875413e-03
-2.152662439558603123e-03
1.863267669111718771e-03
6.078553466928751734e-04
-1.090881215997556355e-03
-3.908889501217757863e-04
-1.772165692125487590e-03
-7.056706344472137710e-04
2.331366448078467436e-05
-2.217375920725766028e-04
-2.673634932508527247e-03
-2.599855252428593961e-03
-9.001054833622612432e-04
7.744662271924299297e-04
4.761019041137064148e-04
7.684090061643372781e-05
2.060639166413914293e-03
6.773662818487248202e-03
6.165891118063929893e-03
1.168206732412774881e-04
-6.921594685143698383e-03
-8.518359681084575544e-03
-4.655098378760836805e-03
1.173314348591101685e-03
4.704823061469253637e-03
4.876458459694728645e-03
1.992258815894772973e-03
9.271096042048417203e-04
-3.170214304861885928e-04
-5.390961512454166661e-04
-9.829149496724239130e-04
-1.672835922374870180e-03
-1.716800363512660174e-03
-8.303825108620240762e-04
5.119282204470326260e-04
-4.484512287939729095e-04
9.602518486765643734e-05
7.694206584829348886e-04
1.572921705193516990e-03
2.052922238899151756e-03
7.937571820363674489e-05
-2.662041013853177259e-03
-3.570222383452178062e-03
-3.097297611946171845e-03
-2.156356025409043690e-03
2.149029430640300980e-03
3.858068190612567051e-03
6.614506180541459418e-03
5.966184066107294362e-03
-4.102531516621469969e-04
-3.551090822203980483e-03
-2.274664805089592241e-03
1.859176901733813631e-03
2.723216482899883367e-03
-6.069250617948501823e-04
-5.833074959796293382e-03
-1.063733536004228195e-02
-7.647574067257559630e-03
-3.056804848940105918e-03
1.528460763868185867e-03
5.570459538549916295e-03
8.675769751831059057e-03
9.366620488400097255e-03
6.143344459345421310e-03
7.602649773519274952e-05
2.989859429279070717e-04
3.263496283595478109e-03
9.847407940409159260e-04
-5.674427876516580788e-03
-8.062892764474192606e-03
-8.196957806030058177e-03
-6.700934994935326371e-03
-3.873598854940236026e-03
-6.055937958654917554e-04
2.531097434445083155e-03
4.818260740882860695e-03
5.993864033127686147e-03
7.312824797500724200e-03
8.031941993789403975e-03
1.744843445486551122e-03
-3.629090893255455894e-03
-3.847669403111460620e-03
-3.224533927366437461e-03
-4.553432428676180109e-03
-2.999911125086035350e-03
9.327498330820361595e-04
2.779818773329177043e-03
1.899054134186394915e-03
5.562914127865694561e-04
-1.872420827704052940e-03
-3.102527079951120700e-03
-8.406806684843413490e-04
1.415880536424795645e-03
2.007294856449281031e-03
3.245677231352534983e-03
1.190151915363726193e-03
-2.757811028428067829e-03
-2.313225755347689261e-03
1.331906837072260570e-03
1.033634580878098948e-03
-1.046062551500124161e-03
-2.290375866107570522e-03
-8.494786278560369913e-04
6.961803108254159891e-04
1.438213482479118975e-03
9.185790913046122967e-04
-1.081176695256587047e-04
-2.850452172564056749e-04
1.279376943740585066e-03
3.334432420685916245e-03
1.268631405523999462e-03
2.352497008738383061e-04
-1.028979437810136955e-04
-1.297171921533740550e-03
-1.989588054947181821e-03
-1.266775767605243840e-03
-1.862484428219978762e-03
-1.612327958673047618e-03
-2.915637297045888757e-03
-3.278218493176861606e-03
-2.336289001783187387e-03
-4.894324370555372004e-04
7.872029087037383166e-04
4.429076743500010363e-03
7.858052833961995734e-03
8.318970326245891597e-03
4.709478597681290325e-03
-2.265417449345664015e-03
-5.510743405164257418e-03
-8.420946989611444340e-04
1.884135743896478161e-03
1.057630593458551774e-03
-2.780870534315121184e-03
-3.270296506547154276e-03
-4.703638632495534683e-03
-7.071969043560422628e-03
-7.285980691863100725e-03
-2.384508709472446097e-03
3.591839942952643801e-03
6.152651396622094843e-03
4.467397096768120114e-03
3.339461443086127416e-03
2.822409245901683680e-03
5.234079783763556648e-03
5.389354382360034973e-03
2.503871424812530166e-03
-4.112795360906944774e-04
-1.272238137778337538e-03
-1.965130981106975872e-03
-4.369599428794252761e-03
-7.604166990452132513e-03
-8.783471003214972719e-03
-7.898627125582129843e-03
-5.071903799954213983e-03
3.710963637286147313e-03
1.301302485935824059e-02
1.007367500343068871e-02
-4.804339440950835226e-04
-2.440399189642107353e-03
1.768273324766820101e-03
5.122095308600482094e-03
3.477182344177174710e-03
-1.681286294765487344e-03
-7.201888292296771896e-03
-6.735729195356231387e-03
1.029262775223293517e-03
5.659374328595290736e-03
2.221550093210964642e-03
-4.135938619725559526e-03
-4.437561040627858305e-03
-2.664240609280242589e-03
-3.422167136777239105e-04
2.234839726726016353e-03
3.409491372091229093e-03
2.141333522178754268e-03
-1.648360094890543367e-04
-1.492643538903941532e-03
-1.047269698690640261e-03
1.048196439561722244e-03
4.667301460720645230e-03
1.134876207537317350e-03
-1.901028748705901883e-03
-2.288676972200650184e-03
-1.235702152312420686e-03
-3.308531540843162328e-03
-1.326012844803887763e-03
1.209811178826361144e-03
-2.740783946047768878e-04
7.843025232071421755e-04
2.549739424352613897e-03
2.876486143987625355e-03
2.970653732045062338e-03
2.661224087973114698e-03
2.496534906998174388e-04
-2.451827736858994567e-03
-3.931779892563720680e-03
-6.486327192818000346e-03
-4.468132832851487955e-03
3.201748521006848262e-03
6.929226352244641576e-03
2.513804351399193519e-05
-7.107238136062915372e-03
-4.218184433014616173e-03
2.763041721919652898e-03
6.373155208109874958e-03
6.462111001812591293e-03
5.308682501444009910e-03
4.488657406415308589e-04
-4.183472278485628366e-03
-5.882947558319076217e-03
-5.000065120074310455e-03
-5.489903980235692364e-05
1.126818292922218950e-03
-8.841621503943369268e-04
4.391573120034557558e-04
3.847780036793145651e-03
3.674140428574116084e-03
2.039726254050145890e-03
6.161638845731910383e-04
-2.730717771294420386e-03
-5.242518857014275349e-03
-8.118096778552750040e-03
-3.849510799872626898e-03
3.024100153070777026e-03
7.662900303184209776e-03
7.669712649897234523e-03
4.765711279513108571e-03
-1.467371375757477083e-03
-3.059076734090953372e-03
-3.486021568512034496e-03
-1.649112954911968396e-03
-1.790924092000104094e-03
-3.272199981935848545e-03
-2.861582944741295712e-03
-2.519550571822683997e-03
-1.008873364060768702e-03
6.102223021510608768e-03
8.431842056973490318e-03
4.891566331187320593e-03
4.144263376507754254e-03
1.412854974642244361e-03
-4.273234282578263626e-03
-7.021089569024471094e-03
-5.360338300042913340e-03
-2.391019497409184024e-03
-1.346157958080963530e-04
-2.279266085595005754e-03
-1.973147575751926786e-03
3.677851608110036929e-03
5.825488997464644929e-03
3.560173905501254950e-03
1.467184362981106827e-03
3.173046979459818485e-04
-1.102634016121084842e-03
-2.022178282545209361e-03
-2.433103507376236339e-03
-1.410186427513334968e-03
-1.230626932920430216e-03
-2.033524569908120791e-03
-4.471639402937393429e-04
3.390991127382047068e-03
4.917729809076833332e-03
2.162356899952081000e-03
-2.862528742915058065e-04
-2.819213528783585596e-04
-7.142349396232967104e-04
-5.234983766070496446e-03
-4.219208070830777341e-03
8.210290252349721277e-04
4.865580890772189943e-03
3.047191803342320926e-03
-4.009514747727610344e-03
-6.680323547795149683e-03
-1.754693520464382624e-03
5.273576692252844762e-03
6.918668900659953082e-03
3.925327317492474308e-03
1.301970156011663608e-03
-1.137918469095615566e-03
-3.279461173471033119e-03
3.330579328144562049e-04
2.495151618886571037e-03
-6.321282196465096695e-04
-4.178461573595568246e-03
-6.464331123833868750e-03
-8.390714304175836066e-03
-6.117033884771623173e-03
3.288854549510268361e-03
1.040083883436883870e-02
9.297518078867262822e-03
3.507794204743826336e-03
8.194759454367753736e-04
1.834287062664365867e-03
-9.460684110214798680e-04
-3.737634800675509062e-03
-1.845286735003552180e-03
1.187372417848131002e-03
-1.228888969744637485e-03
-4.686604828726001482e-03
-4.459862932636699841e-03
-9.962288995779425629e-04
5.404720431997412679e-04
3.387596253013546409e-04
2.562747450484922571e-03
2.683168108675595531e-03
9.007787907984610848e-04
-1.464472022388542329e-04
7.986692698957575508e-04
-6.624019931996166961e-04
-3.947580367102699597e-04
2.062297914163421005e-03
1.817078616002055537e-03
-5.396084148111893186e-04
-1.221385355047830941e-03
1.948976559063592291e-04
3.142336153182617546e-04
-7.493898796311814154e-04
-4.383169308846467192e-04
-1.574873818114164864e-04
-8.475161349449921193e-04
-2.525776154041881657e-03
-1.539497959262483813e-03
-1.793663266772497621e-04
6.433251299170725810e-04
1.089501369194641536e-03
5.589231851101732988e-04
2.818559704393344863e-04
2.859296464172931748e-03
1.580377982932082079e-03
5.632593212914227022e-04
-1.113952655032661226e-03
-1.783055692056659996e-03
-2.982841762487436002e-03
-1.065236626188015507e-03
3.193310987600514374e-03
5.661686647919725660e-03
1.755190711026702148e-03
-1.202708892542697552e-03
-3.050364600732807536e-04
-8.739926959135534308e-04
-5.320769364499353810e-03
-6.736886689268081069e-03
-3.697002374282402394e-03
-1.635956144931238060e-03
-1.410246891088742273e-03
2.526211655782812163e-03
8.076881710750624319e-03
7.022166845161002639e-03
3.630724204405539907e-03
9.248652132425746152e-04
-2.335777751951676362e-04
9.973308932358579404e-04
1.173978955942083739e-03
1.273262774856534886e-03
-4.695991298542211406e-04
-3.668835182538409800e-03
-6.542656628629676951e-03
-2.549923151114530991e-03
-1.138554784050400514e-03
-6.688304618971096550e-03
-7.985765035502521633e-03
-1.272222492925936550e-03
3.185035833081483695e-03
4.594234532875310275e-04
2.701822132215165456e-03
9.527088975594783307e-03
1.426134705329653446e-02
1.232945020039387211e-02
2.170376866204816544e-03
-7.433952517419318076e-03
-9.862464678826199718e-03
-7.663355958933630585e-03
-4.455950276961052371e-03
-2.632081775927746625e-03
-1.364788488163720410e-03
-1.126214803339877044e-04
3.824704039825392501e-03
6.609961387133042772e-03
3.819323301566702068e-03
1.428003924195930894e-03
-1.891052993107213056e-03
-6.223913498495779566e-03
-8.434613003897238961e-03
-4.305396031172700234e-03
3.186861305543623422e-04
2.339955809044926439e-03
6.282818661087805935e-03
4.754457025993719457e-03
4.104860659610598018e-04
-1.374385929988424914e-03
2.302915906211193322e-03
4.549462906526777033e-03
3.022019700674721723e-03
5.422611373557064979e-04
-8.426813331150118840e-05
-6.373453437285543990e-04
-1.674587264777819846e-03
-2.522533909411857865e-03
-2.337014206004041188e-03
-4.980239532321524554e-03
-8.336667312529617499e-03
-7.364963391478148921e-03
-3.104165650516934900e-03
4.491608434167405385e-03
9.678476937186229756e-03
9.306412712911072208e-03
5.558152022655186118e-03
2.739461011402519446e-03
2.088705103648249000e-03
-2.189942069741805924e-03
-6.444140237073839837e-03
-4.435498048021360717e-03
7.634055611833389342e-04
1.503747819836140105e-03
-2.228884676750666777e-03
-3.880159297828105706e-03
-1.617350474525271545e-03
6.023729606680055387e-04
1.117727387067503700e-03
1.476537849255493175e-03
3.533738870577830989e-03
5.983381927960398916e-04
-3.038050943632902325e-03
-2.937256551355041552e-03
1.430562807641806700e-04
1.773990897148222494e-03
1.941993372338709925e-03
2.150031984566023926e-03
4.198442856529585251e-03
6.983505134728679696e-03
2.839595669669214926e-03
-4.297573133810409646e-03
-7.277683073036750327e-03
-7.022380739106675977e-03
-7.639285292410969569e-03
-4.061796183895672457e-03
-8.197947053658152274e-04
2.908864471856530565e-03
5.509351053413493252e-03
6.736770852928715067e-03
2.520850291837935155e-03
-8.629041368246216236e-05
1.217028201183139365e-03
3.217819692725499160e-03
2.224904787466248663e-03
-1.045110939097385495e-03
-1.463020690272167973e-03
-4.674770798661453779e-04
-1.328554786940915446e-03
-1.512521317567456450e-03
-3.205608464478015059e-03
-8.428003775274160725e-03
-8.046313744075926991e-03
-5.427715013207154611e-04
1.027087310659823872e-02
1.189266784805231326e-02
4.489044290615864033e-03
-3.285690439756559257e-04
-2.393044966675069839e-03
-2.910377984715455894e-03
-2.322110057239191745e-03
-2.287354094808413847e-03
-1.103872358563566742e-03
-1.162277798674510234e-04
9.851604169208713689e-05
-4.085247596200916077e-03
-5.305752379787006048e-03
1.966007753299020035e-03
9.674083619314126012e-03
1.158642445718663372e-02
2.225273609614536203e-03
-5.890464140492445572e-03
-6.200270834087142149e-03
-5.119104194024526669e-03
-4.335368646441305034e-03
-3.098681147269308992e-03
2.085323226791035208e-03
6.315261726863398428e-03
4.532650132084868264e-03
2.507519624316635002e-03
2.190210260454605092e-03
9.498515141955240874e-04
-2.167037677013326172e-03
-4.907505106637944509e-03
-2.877023154941017302e-03
8.730064648816181281e-05
-7.572210992782442418e-04
-1.597705905707326891e-03
6.260152986958991261e-04
1.506154273225911513e-03
1.512209627072281235e-04
-5.112700913354707374e-04
1.990165506096893463e-03
1.428809908137190299e-03
8.830334258186475684e-04
2.224795608674570875e-04
-1.604216393306155978e-03
-2.297617738821816722e-03
-1.853556723757268654e-03
-5.795734399147063360e-04
9.052410708306900429e-04
4.569947781194365691e-03
8.106455807915925391e-03
5.999637912625114741e-03
-1.314509289740213322e-03
-9.581656920774931155e-03
-1.209919507487011020e-02
-8.411675408761998610e-03
-1.258959761131316860e-03
5.405305595882604550e-03
7.477961866532101265e-03
6.652730770327849180e-03
4.312668917378292659e-03
1.222422562600883767e-03
-1.862054129126355147e-03
-9.878806033663746662e-04
1.079315608625840226e-03
-5.632608015062395227e-04
-1.812643468730948003e-03
-3.289278337164279215e-03
-2.399530484194660040e-03
-1.421175896611962843e-03
-6.368205440483560263e-04
1.387274123144672112e-04
-1.496291530766693904e-03
-4.126111025025557162e-03
-9.966079543862957357e-04
4.110179713778995374e-03
3.737445092729131061e-03
4.144638542420533804e-03
7.757678449285671657e-03
5.387143685530474020e-03
-2.864472559981467732e-03
-5.308971525335456562e-03
-2.774811238987457285e-03
1.623399127786843369e-03
3.554221175967493818e-04
-5.091271028684746930e-03
-7.411995808655427558e-03
-6.300584043719060189e-03
-1.431110891807532964e-03
4.945054643983736939e-03
7.994490967385543129e-03
5.484178205353920643e-03
8.279356029854798189e-04
-1.342995539827792750e-03
-8.287999220859005450e-04
4.258480200832787284e-04
9.314032811448371606e-06
-2.973668196604319688e-03
-5.307993767492721719e-03
-1.346551559418834258e-03
3.256960040468488086e-03
5.128543406398652742e-03
5.463289898492157057e-03
2.397265849670544412e-03
-3.802351697188538927e-03
-5.699018779992860370e-03
-3.942494239037518458e-03
-2.469528418871345943e-04
4.594830037189829609e-03
3.236048377797238421e-03
-3.422439866917105587e-03
-4.553551874456412962e-03
-3.089476012145260346e-04
2.299902680380611162e-03
1.759960735360983127e-03
3.765457763035447158e-04
3.203648111224689961e-03
1.105355921719304753e-03
-2.542237314304712174e-03
-2.990634386718456130e-03
-1.291129042108221875e-03
-1.548850296545735503e-03
8.257258561089630446e-04
3.857123153395497321e-03
2.055879436806044066e-03
1.510846194057758891e-04
-6.423522040567412363e-04
5.813996668158731562e-04
4.530290852021189897e-04
-1.803977082301351943e-03
-1.625238368992976785e-03
-1.006024196937843965e-03
