-5.185008156891660058e-02
-5.135967047257958967e-02
-5.086516824284953442e-02
-5.036728307996755916e-02
-4.986668490252295360e-02
-4.936400042679236350e-02
-4.885980870941755011e-02
-4.835463715531945067e-02
-4.784895806834262022e-02
-4.734318578539071370e-02
-4.683767454271706154e-02
-4.633271694046819933e-02
-4.582854311145050791e-02
-4.532532073700395320e-02
-4.482315569565953339e-02
-4.432209347630806234e-02
-4.382212133783074115e-02
-4.332317103385244922e-02
-4.282512231356908755e-02
-4.232780691276166046e-02
-4.183101320777762866e-02
-4.133449120825156281e-02
-4.083795802264431063e-02
-4.034110361267082695e-02
-3.984359681211052662e-02
-3.934509145559163257e-02
-3.884523253839598095e-02
-3.834366240114725488e-02
-3.784002676194168913e-02
-3.733398056346363958e-02
-3.682519357258644960e-02
-3.631335555436647489e-02
-3.579818102128295293e-02
-3.527941350492463934e-02
-3.475682931536103887e-02
-3.423024072136979928e-02
-3.369949847464767667e-02
-3.316449369809410658e-02
-3.262515914875857570e-02
-3.208146981519625907e-02
-3.153344293980614443e-02
-3.098113738708207013e-02
-3.042465238982645231e-02
-2.986412584775189130e-02
-2.929973208834322704e-02
-2.873167918777036131e-02
-2.816020593127805186e-02
-2.758557851161787949e-02
-2.700808695450288358e-02
-2.642804141717009989e-02
-2.584576842195305049e-02
-2.526160702829456997e-02
-2.467590516643058951e-02
-2.408901606897885864e-02
-2.350129484238793268e-02
-2.291309538494233633e-02
-2.232476759638352473e-02
-2.173665496213896334e-02
-2.114909244325266502e-02
-2.056240486468522907e-02
-1.997690570975658650e-02
-1.939289630002534112e-02
-1.881066544085726808e-02
-1.823048948386499224e-02
-1.765263279199220589e-02
-1.707734848533348088e-02
-1.650487958500245975e-02
-1.593546035131475358e-02
-1.536931785228361387e-02
-1.480667367228014758e-02
-1.424774575121793077e-02
-1.369275012626794408e-02
-1.314190273913488395e-02
-1.259542108384437316e-02
-1.205352565723709531e-02
-1.151644119889265634e-02
-1.098439762583696203e-02
-1.045763057435311789e-02
-9.936381638319936177e-03
-9.420898151422508679e-03
-8.911432501076914717e-03
-8.408241007337415723e-03
-7.911582399144339445e-03
-7.421715721061487164e-03
-6.938897919330217282e-03
-6.463381000059113118e-03
-5.995408733178728480e-03
-5.535213180001799689e-03
-5.083010936886759798e-03
-4.638999115576260789e-03
-4.203351314341528637e-03
-3.776213517071109506e-03
-3.357700039053370267e-03
-2.947889646196625701e-03
-2.546821884393405625e-03
-2.154493754575798493e-03
-1.770856758458560186e-03
-1.395814457067603162e-03
-1.029220582366989012e-03
-6.708778419507594988e-04
-3.205373992375521136e-04
2.210099430998959730e-05
3.573879861284164181e-04
6.857228131783495726e-04
1.007550729044139580e-03
1.323359575222674478e-03
1.633675538606379780e-03
1.939058133399111867e-03
2.240094509531245087e-03
2.537393039926120336e-03
2.831576327295175916e-03
3.123273651142711559e-03
3.413113120368109748e-03
3.701713419783116826e-03
3.989675340876120552e-03
4.277573246079555830e-03
4.565946636668454482e-03
4.855291862326754568e-03
5.146054114237458635e-03
5.438619883809849530e-03
5.733309953678632394e-03
6.030373080605954533e-03
6.329980462767806522e-03
6.632221089495220039e-03
6.937098032412405274e-03
7.244525882662211473e-03
7.554329232983683813e-03
7.866242319173339520e-03
8.179909948334968678e-03
8.494889552129156890e-03
8.810654425693726158e-03
9.126598292990504777e-03
9.442040840705854393e-03
9.756234414282506651e-03
1.006837177200628659e-02
1.037759465956613995e-02
1.068300324450554423e-02
1.098366624970320386e-02
1.127863161683645768e-02
1.156693758003561091e-02
1.184762405322085585e-02
1.211974408191814935e-02
1.238237526836830082e-02
1.263463098597041555e-02
1.287567125417363872e-02
1.310471311272525495e-02
1.332104025807178890e-02
1.352401195012824589e-02
1.371307100609653502e-02
1.388775071739101717e-02
1.404768063900441177e-02
1.419259114393714959e-02
1.432231673553917110e-02
1.443679801872744736e-02
1.453608227804245590e-02
1.462032267261189657e-02
1.468977617662240061e-02
1.474480009795765649e-02
1.478584737279125053e-02
1.481346066197885940e-02
1.482826529700907899e-02
1.483096129958737762e-02
1.482231445415866343e-02
1.480314666783653921e-02
1.477432562870085141e-02
1.473675413105447751e-02
1.469135902169167382e-02
1.463908003853056812e-02
1.458085865455817365e-02
1.451762711166737670e-02
1.445029778112947270e-02
1.437975307586016917e-02
1.430683598673109479e-02
1.423234132295105384e-02
1.415700793704606150e-02
1.408151184875561582e-02
1.400646051811282183e-02
1.393238822793457787e-02
1.385975279087003388e-02
1.378893339377414325e-02
1.372022970521425030e-02
1.365386230530518143e-02
1.358997420899427447e-02
1.352863371761059419e-02
1.346983827002528125e-02
1.341351944778894009e-02
1.335954883741663143e-02
1.330774474980175003e-02
1.325787961134630710e-02
1.320968796156060839e-02
1.316287483578525846e-02
1.311712445413963819e-02
1.307210901373345897e-02
1.302749752595997595e-02
1.298296439527247756e-02
1.293819769538858029e-02
1.289290696845140846e-02
1.284683043014256051e-02
1.279974141710936951e-02
1.275145404723575758e-02
1.270182793548049055e-02
1.265077190234958557e-02
1.259824659707677562e-02
1.254426597646250696e-02
1.248889767776839577e-02
1.243226220571313524e-02
1.237453106203574398e-02
1.231592369801295592e-02
1.225670343138275317e-02
1.219717237645393144e-02
1.213766548670314367e-02
1.207854381574706946e-02
1.202018706633971833e-02
1.196298558034037361e-02
1.190733192305391645e-02
1.185361223456261534e-02
1.180219740686108340e-02
1.175343430818970997e-02
1.170763715372286941e-02
1.166507924027667363e-02
1.162598516420101750e-02
1.159052359449923471e-02
1.155880087006065822e-02
1.153085544067756346e-02
1.150665328412777723e-02
1.148608436897601524e-02
1.146896028328395212e-02
1.145501304485324091e-02
1.144389513288910504e-02
1.143518088022259412e-02
1.142836895651035828e-02
1.142288624926804733e-02
1.141809285932560147e-02
1.141328828197681576e-02
1.140771864858710315e-02
1.140058498356210336e-02
1.139105225069596446e-02
1.137825921463096225e-02
1.136132888147923202e-02
1.133937945097081811e-02
1.131153548924232304e-02
1.127693931841254778e-02
1.123476245936681078e-02
1.118421681398426744e-02
1.112456553607479165e-02
1.105513339512017787e-02
1.097531648596009393e-02
1.088459122772239551e-02
1.078252232227018895e-02
1.066876975264075683e-02
1.054309457242845298e-02
1.040536352749013571e-02
1.025555227924231094e-02
1.009374726597090689e-02
9.920146260650795564e-03
9.735057378025250077e-03
9.538896768999346673e-03
9.332184852270686629e-03
9.115541244231806228e-03
8.889678374804149338e-03
8.655393922326663769e-03
8.413562201647337147e-03
8.165124469098443416e-03
7.911078414551197396e-03
7.652466961077139876e-03
7.390366484121164807e-03
7.125874647942375024e-03
6.860097975396000844e-03
6.594139362696282460e-03
6.329085701741033257e-03
6.065995746938590213e-03
5.805888401286899911e-03
5.549731661606359563e-03
5.298432187274036177e-03
5.052825814919508114e-03
4.813669015365558239e-03
4.581631511390752733e-03
4.357290058400030246e-03
4.141123516532790524e-03
3.933509221424848906e-03
3.734720791809353728e-03
3.544927270233525027e-03
3.364193684834042037e-03
3.192482942070658421e-03
3.029659137876821590e-03
2.875492105770603973e-03
2.729663122899745296e-03
2.591771784459284949e-03
2.461343845614012357e-03
2.337839945161770006e-03
2.220665093060127885e-03
2.109178740568299574e-03
2.002705337743958258e-03
1.900545168039921833e-03
1.801985303462409586e-03
1.706310557374371211e-03
1.612814269805345774e-03
1.520808745163979578e-03
1.429635224329796990e-03
1.338673205659325583e-03
1.247349038034148557e-03
1.155143621430659504e-03
1.061599138505539162e-03
9.663247592052123282e-04
8.690011610043858184e-04
7.693839096558789453e-04
6.673055396063838629e-04
5.626764682860558925e-04
4.554845903736633454e-04
3.457936927501252230e-04
2.337406733656659285e-04
1.195316307069132957e-04
3.436849388202300979e-06
-1.142151187710107436e-04
-2.330442753452150666e-04
-3.526267714782527359e-04
-4.725030963843723656e-04
-5.921868063672951731e-04
-7.111736137570259450e-04
-8.289506462292968100e-04
-9.450057655405051833e-04
-1.058836843557408886e-03
-1.169960735186915740e-03
-1.277921978118261304e-03
-1.382300879393402867e-03
-1.482721026502304904e-03
-1.578856001417664173e-03
-1.670435254086303709e-03
-1.757249023534271761e-03
-1.839152185322507488e-03
-1.916067066184673658e-03
-1.987985117066703826e-03
-2.054967398255480235e-03
-2.117143847801394776e-03
-2.174711555025866157e-03
-2.227931741222198905e-03
-2.277125749883116175e-03
-2.322670022007939077e-03
-2.364990055749270625e-03
-2.404553616569582528e-03
-2.441863159352506731e-03
-2.477447637166782252e-03
-2.511853855211638575e-03
-2.545637421111887882e-03
-2.579353543547267032e-03
-2.613547711018943294e-03
-2.648746489951196367e-03
-2.685448556254727611e-03
-2.724116073628797888e-03
-2.765166575703589293e-03
-2.808965569621402637e-03
-2.855819765099738665e-03
-2.905971315207934221e-03
-2.959592939206582337e-03
-3.016784117339126048e-03
-3.077568394046581966e-03
-3.141891842231878812e-03
-3.209622766778093793e-03
-3.280552561356306004e-03
-3.354397802310092342e-03
-3.430803525203151867e-03
-3.509347605061882442e-03
-3.589546247840915642e-03
-3.670860459653181151e-03
-3.752703442726751989e-03
-3.834448768721583200e-03
-3.915439259941595751e-03
-3.994996399141239815e-03
-4.072430199088421243e-03
-4.147049265689357542e-03
-4.218170996450139668e-03
-4.285131781014066103e-03
-4.347296943341003896e-03
-4.404070401743737616e-03
-4.454903777686543276e-03
-4.499304894873205028e-03
-4.536845506851652950e-03
-4.567168129884329776e-03
-4.589991897072805659e-03
-4.605117317837215465e-03
-4.612429832765762953e-03
-4.611902176380977721e-03
-4.603595451835210128e-03
-4.587658947774583308e-03
-4.564328587897520904e-03
-4.533924129921896098e-03
-4.496845160109851774e-03
-4.453565823678114037e-03
-4.404628468250138158e-03
-4.350636288406929154e-03
-4.292244994728860660e-03
-4.230153691346082330e-03
-4.165095104276657356e-03
-4.097825234829834649e-03
-4.029112709727752754e-03
-3.959727836158727886e-03
-3.890431649370853714e-03
-3.821965040338087555e-03
-3.755038225792174059e-03
-3.690320568681517647e-03
-3.628431009249818030e-03
-3.569929230983097564e-03
