-6.981743870531698266e-03
-6.667983076081046567e-03
-6.372425165224832218e-03
-6.095081804283169168e-03
-5.835797772273624597e-03
-5.594250905658124280e-03
-5.369953951508279512e-03
-5.162258492003830336e-03
-4.970360827139480228e-03
-4.793309806556165543e-03
-4.630016524309661478e-03
-4.479265673166410271e-03
-4.339728605830356530e-03
-4.209977874111422297e-03
-4.088503114536697243e-03
-3.973728075275741525e-03
-3.864028568022136092e-03
-3.757751156495129502e-03
-3.653232353261882167e-03
-3.548818029607491830e-03
-3.442882886283771607e-03
-3.333849686273874808e-03
-3.220208012603037549e-03
-3.100532306636268488e-03
-2.973498892148913105e-03
-2.837901913753487250e-03
-2.692667836645755864e-03
-2.536868374986862157e-03
-2.369731625676605499e-03
-2.190651390664404962e-03
-1.999194349007509235e-03
-1.795105084359683916e-03
-1.578308966469096214e-03
-1.348912789001011081e-03
-1.107203083100604269e-03
-8.536421624974533696e-04
-5.888620278192588332e-04
-3.136561367242073073e-04
-2.896913516269033231e-05
2.641153237707779709e-04
5.643884082427231327e-04
8.705314766479258989e-04
1.181132740888825869e-03
1.494705093089479953e-03
1.809704719643227258e-03
2.124550318020384555e-03
2.437642638133281307e-03
2.747384081843339682e-03
3.052198090695037742e-03
3.350548106395275904e-03
3.640955670913117569e-03
3.922017661565643278e-03
4.192422322650195959e-03
4.450963773968698647e-03
4.696555004339662137e-03
4.928239052792163927e-03
5.145198229831989510e-03
5.346761335153757400e-03
5.532408762628983345e-03
5.701775426270364565e-03
5.854651555371212339e-03
5.990981266879679204e-03
6.110859093059970056e-03
6.214524464890799384e-03
6.302354258643050149e-03
6.374853621984958967e-03
6.432645128824694691e-03
6.476456609546984294e-03
6.507107699553495682e-03
6.525495497925032015e-03
6.532579458457191644e-03
6.529365854829045739e-03
6.516891981646314065e-03
6.496210410848060092e-03
6.468373552316395228e-03
6.434418785813783744e-03
6.395354377293620621e-03
6.352146379552879064e-03
6.305706763291162378e-03
6.256882963632437802e-03
6.206448925449019327e-03
6.155097894523607963e-03
6.103436921029663405e-03
6.051983230500855744e-03
6.001162503939454392e-03
5.951309024721461102e-03
5.902667668210659878e-03
5.855397653023517238e-03
5.809577992304266331e-03
5.765214519822245420e-03
5.722248305547583853e-03
5.680565363404670338e-03
5.640007324407485083e-03
5.600382979540995294e-03
5.561480311967363990e-03
5.523078976826959439e-03
5.484962773051038458e-03
5.446932031855108644e-03
5.408815558613793220e-03
5.370481880861669929e-03
5.331849650477524759e-03
5.292896936118519566e-03
5.253669188486712223e-03
5.214285666634381304e-03
5.174944367947163955e-03
5.135925163888713750e-03
5.097590998564297156e-03
5.060387303450454392e-03
5.024839393336574811e-03
4.991548006971997797e-03
4.961182963353390728e-03
4.934475001450498374e-03
4.912205975462794090e-03
4.895197521233391087e-03
4.884298336582498443e-03
4.880370286695116626e-03
4.884273620428059362e-03
4.896851407234308583e-03
4.918913619342464918e-03
4.951221042864930796e-03
4.994469259920851847e-03
5.049273005301130150e-03
5.116151173172565035e-03
5.195512840552930431e-03
5.287644407391375173e-03
5.392698138781622068e-03
5.510682477173897871e-03
5.641454149283032724e-03
5.784712273409791349e-03
5.939994680376900309e-03
6.106676413521952909e-03
6.283970718105262587e-03
6.470932305174564858e-03
6.666463010596412712e-03
6.869319764392949577e-03
7.078124904059034973e-03
7.291378582982553994e-03
7.507473147212959455e-03
7.724709324561026234e-03
7.941314082319666373e-03
8.155459752268301790e-03
8.365284355038339614e-03
8.568912653057581680e-03
8.764477734279763413e-03
8.950142870591015418e-03
9.124123231743056645e-03
9.284707205565055979e-03
9.430276948914330382e-03
9.559327952637421480e-03
9.670487318574885402e-03
9.762530477773022700e-03
9.834396038707258342e-03
9.885198605916103304e-03
9.914239408684999075e-03
9.921014581408213809e-03
9.905220900665296854e-03
9.866758981539679174e-03
9.805733789912068551e-03
9.722452583565714332e-03
9.617420281939407373e-03
9.491332301157914472e-03
9.345064952230360683e-03
9.179663632564609432e-03
8.996328915523026798e-03
8.796400774476652307e-03
8.581341181732777407e-03
8.352715346052830628e-03
8.112171820800715208e-03
7.861421831314529748e-03
7.602218126596125940e-03
7.336333631615485178e-03
7.065540208305458314e-03
6.791587852932632480e-03
6.516184597444562958e-03
6.240977411887364476e-03
5.967534375307871619e-03
5.697328344775248049e-03
5.431722328874063338e-03
5.171956774450077107e-03
4.919138852444221964e-03
4.674233982128448740e-03
4.438059539339444040e-03
4.211280916282793968e-03
3.994409898925860812e-03
3.787805302113235028e-03
3.591675835264764374e-03
3.406085070344716699e-03
3.230958481810586140e-03
3.066092292522212045e-03
2.911163933832853525e-03
2.765744045128613188e-03
2.629309654393038268e-03
2.501258334827770671e-03
2.380923134929591439e-03
2.267587900162448648e-03
2.160502853071422438e-03
2.058900054926320663e-03
1.962008610713163095e-03
1.869069250118162405e-03
1.779348117093758992e-03
1.692149567805901035e-03
1.606827748938321207e-03
1.522796788236541014e-03
1.439539461827914766e-03
1.356614169212897944e-03
1.273660269343469429e-03
1.190401619603879057e-03
1.106648278812806183e-03
1.022296489248493727e-03
9.373268864701277082e-04
8.518010758238421173e-04
7.658565988684343153e-04
6.797004943132036381e-04
5.936016111803017054e-04
5.078817553157404657e-04
4.229059364196671809e-04
3.390718972654600989e-04
2.567991616844745575e-04
1.765178086299938880e-04
9.865717762612980228e-05
2.363473368061634632e-05
-4.815469892947090601e-05
-1.163491188235561176e-04
-1.806287311589419909e-04
-2.407243978578192212e-04
-2.964249696293608455e-04
-3.475833899309516725e-04
-3.941214141559050356e-04
-4.360329401709961113e-04
-4.733858076528753463e-04
-5.063220664128235049e-04
-5.350567530050117596e-04
-5.598751709013570195e-04
-5.811287292208868914e-04
-5.992294074275229853e-04
-6.146430226910216997e-04
-6.278813259988370301e-04
-6.394931474277339590e-04
-6.500547928760571888e-04
-6.601597793672760173e-04
-6.704081751156867582e-04
-6.813957031637444661e-04
-6.937028529651925431e-04
-7.078841428067159840e-04
-7.244578337219773805e-04
-7.438961985509500623e-04
-7.666165589360441701e-04
-7.929733027297127023e-04
-8.232509635740185155e-04
-8.576584982677294515e-04
-8.963249162736107965e-04
-9.392963490794682940e-04
-9.865346495260603893e-04
-1.037917431449212691e-03
-1.093239716960946748e-03
-1.152216979896796478e-03
-1.214489733962867933e-03
-1.279629482077155114e-03
-1.347145913913257251e-03
-1.416495314478496883e-03
-1.487089982404300520e-03
-1.558308471821447582e-03
-1.629506540749821189e-03
-1.700028575437117790e-03
-1.769219258409240013e-03
-1.836435423830694476e-03
-1.901057659671918053e-03
-1.962501646380697840e-03
-2.020228940665781594e-03
-2.073756993962334698e-03
-2.122668283108284509e-03
-2.166618390814350429e-03
-2.205342810655025205e-03
-2.238662387313554696e-03
-2.266487275583254756e-03
-2.288819418074709063e-03
-2.305753352826533844e-03
-2.317475447188173041e-03
-2.324261476944033521e-03
-2.326472597756546520e-03
-2.324549779126344144e-03
-2.319006823883778233e-03
-2.310421978746497913e-03
-2.299428375408945312e-03
-2.286703384049989466e-03
-2.272957087669908588e-03
-2.258920018545839976e-03
-2.245330451535564389e-03
-2.232921415892518465e-03
-2.222407641929035563e-03
-2.214472596073725850e-03
-2.209755959235306516e-03
-2.208841703355826289e-03
-2.212246930778296629e-03
-2.220411724757790934e-03
-2.233690166388936898e-03
-2.252342710396525952e-03
-2.276530070064042809e-03
-2.306308606827954175e-03
-2.341627502013083218e-03
-2.382327574774071709e-03
-2.428142044254203054e-03
-2.478698968739059989e-03
-2.533525500432433353e-03
-2.592053818075034342e-03
-2.653628826536130227e-03
-2.717517252675841644e-03
-2.782918279438779952e-03
-2.848975345068689453e-03
-2.914789049770036278e-03
-2.979430947277409650e-03
-3.041958010582259449e-03
-3.101427504741870612e-03
-3.156912130079211724e-03
-3.207515121073643925e-03
-3.252385054370002422e-03
-3.290730202904314401e-03
-3.321832153215532532e-03
-3.345058453954366431e-03
-3.359874139183414033e-03
-3.365851896555934093e-03
-3.362680731949452273e-03
-3.350172959938043770e-03
-3.328269412605255970e-03
-3.297042771942587571e-03
-3.256698941266884893e-03
-3.207576486411906590e-03
-3.150143986904258616e-03
-3.084995492833191022e-03
-3.012844039791265967e-03
-2.934513363872864704e-03
-2.850927760101344341e-03
-2.763100470508525908e-03
-2.672120585765260133e-03
-2.579138734497180441e-03
-2.485351712995940293e-03
-2.391986298328698576e-03
-2.300282439456898236e-03
-2.211476098181219211e-03
-2.126782041998338205e-03
-2.047376706321302718e-03
-1.974381534516645234e-03
-1.908846859708836956e-03
-1.851736717895338105e-03
-1.803914730392630486e-03
-1.766131295219129736e-03
-1.739012283266777939e-03
-1.723049386531178310e-03
-1.718592215001422605e-03
-1.725842349828293504e-03
-1.744849398611070072e-03
-1.775509098764099531e-03
-1.817563491169322349e-03
-1.870603214211168965e-03
-1.934071834122909296e-03
-2.007272168724131504e-03
-2.089374571499367540e-03
-2.179426930162031532e-03
-2.276366370132224502e-03
-2.379032432267833615e-03
-2.486181602987907503e-03
-2.596502898947224049e-03
-2.708634362543560839e-03
-2.821180179442359364e-03
-2.932728224352944106e-03
-3.041867837869500525e-03
-3.147207494629663573e-03
-3.247392169461402363e-03
-3.341120157554298975e-03
-3.427159152799478734e-03
-3.504361328362226406e-03
-3.571677235366505030e-03
-3.628168427645342940e-03
-3.673018460973607926e-03
-3.705542318884570262e-03
-3.725194046395183516e-03
-3.731572535880889416e-03
-3.724425367498038469e-03
-3.703650796904838730e-03
-3.669297752081826253e-03
-3.621563893533393929e-03
-3.560791797558335563e-03
-3.487463355989527027e-03
-3.402192467024589637e-03
-3.305716175273796555e-03
-3.198884300147956765e-03
-3.082647839299720426e-03
-2.958046279752170413e-03
-2.826193945086298131e-03
-2.688265666475203597e-03
-2.545481928400968562e-03
-2.399093740421639077e-03
-2.250367338336317809e-03
-2.100569057171597798e-03
-1.950950516570662020e-03
-1.802734308178613335e-03
-1.657100402179724529e-03
-1.515173344396318188e-03
-1.378010547935439251e-03
-1.246591682763260010e-03
-1.121809426310966650e-03
-1.004461476022960962e-03
-8.952440406986553927e-04
-7.947468708758960660e-04
-7.034498163472305710e-04
-6.217208895199660169e-04
-5.498158991631132628e-04
-4.878795443768878422e-04
-4.359479414322197299e-04
-3.939525270988049636e-04
-3.617252376493775771e-04
-3.390048543215368085e-04
-3.254443561838967587e-04
-3.206191823638082053e-04
-3.240362310255875890e-04
-3.351434724021663618e-04
-3.533400451620133452e-04
-3.779866113488266201e-04
-4.084158518933626273e-04
-4.439428819986720271e-04
-4.838755458841085709e-04
-5.275243383985835956e-04
-5.742118643293825158e-04
-6.232817109221360993e-04
-6.741066322651950065e-04
-7.260959069872284380e-04
-7.787018250328644250e-04
-8.314251748450628013e-04
-8.838197587397829055e-04
-9.354958354791681084e-04
-9.861224996967120435e-04
-1.035429009249596135e-03
-1.083205041939913410e-03
-1.129299908446302616e-03
-1.173620848484142973e-03
-1.216130348831201717e-03
-1.256842646599399442e-03
-1.295819455536487358e-03
-1.333165015844500496e-03
-1.369020597738745525e-03
-1.403558523821734532e-03
-1.436975847471041968e-03
-1.469487750845820204e-03
-1.501320902880529237e-03
-1.532706714379552474e-03
-1.563874720495346147e-03
-1.595046179510432481e-03
-1.626427976819176712e-03
-1.658206911787936128e-03
-1.690544480776934744e-03
-1.723572213181386644e-03
-1.757387592715097934e-03
-1.792050710067120446e-03
-1.827581531253211558e-03
-1.863957969278884873e-03
-1.901114719727637053e-03
-1.938942816821869180e-03
-1.977289985459173595e-03
-2.015961707073568240e-03
-2.054722998084459844e-03
-2.093300876569591847e-03
-2.131387410328058202e-03
-2.168643348855324882e-03
-2.204702260340472928e-03
-2.239175064032783349e-03
-2.271654945857549523e-03
-2.301722562786654921e-03
-2.328951431515442413e-03
-2.352913418427229376e-03
-2.373184271891821528e-03
-2.389349133955972430e-03
-2.401007916981556800e-03
-2.407780449371586372e-03
-2.409311403330143073e-03
-2.405274882728421389e-03
-2.395378607803174634e-03
-2.379367682849809536e-03
-2.357027875067663984e-03
-2.328188353440284551e-03
-2.292723917477498038e-03
-2.250556657934913926e-03
-2.201656994973064194e-03
-2.146044195757148068e-03
-2.083786270253570189e-03
-2.014999309094423624e-03
-1.939846313667814657e-03
-1.858535406587669483e-03
-1.771317626447545431e-03
-1.678484278894901583e-03
-1.580363806006967325e-03
-1.477318321736558653e-03
-1.369739847684490119e-03
-1.258046301109453854e-03
-1.142677225848475267e-03
-1.024089309311163000e-03
-9.027519328847663201e-04
-7.791425667961654781e-04
-6.537422741729717775e-04
-5.270312349701764161e-04
-3.994843612007985181e-04
-2.715671150267943610e-04
-1.437315288040292075e-04
-1.641245823744567062e-05
1.099758238531104370e-04
2.350426604278916046e-04
3.584237854603686420e-04
4.797837067250294201e-04
5.988175888836338827e-04
7.152527676145643484e-04
8.288498320142739838e-04
9.394032058215686688e-04
1.046741347832864195e-03
1.150726505694047754e-03
1.251254005281244881e-03
1.348251144957912390e-03
1.441675671597841260e-03
1.531513935943460076e-03
1.617778631012293470e-03
1.700506264324409648e-03
1.779754307219523187e-03
1.855598136340845701e-03
1.928127771081864991e-03
1.997444379545261668e-03
2.063656816943995609e-03
2.126877971724451446e-03
2.187221160416775393e-03
2.244796503046876147e-03
2.299707422081530978e-03
2.352047280847900830e-03
2.401896152667009395e-03
2.449317879384646599e-03
2.494357368179132145e-03
2.537038153672733533e-03
2.577360433748758159e-03
2.615299432385292683e-03
2.650804220438525167e-03
2.683796960414534805e-03
2.714172624790216030e-03
2.741799201173466399e-03
2.766518441605106144e-03
2.788147081660114369e-03
2.806478636612541600e-03
2.821285641791682064e-03
2.832322379473724543e-03
2.839328119186683864e-03
2.842030795546103984e-03
2.840151045020741869e-03
2.833406612132223067e-03
2.821517127423065537e-03
2.804209066387003315e-03
2.781220986118303380e-03
2.752308827000408444e-03
2.717251314166359549e-03
2.675855382825588925e-03
2.627961443526329651e-03
2.573448516398404821e-03
2.512239152928493098e-03
2.444304011252074801e-03
2.369666071899098093e-03
2.288404326742618164e-03
2.200657028702501274e-03
2.106624231170392374e-03
2.006569713697615911e-03
1.900822201228905863e-03
1.789775793778409932e-03
1.673889606588605970e-03
1.553686574531944458e-03
1.429751451447944938e-03
1.302727882076197075e-03
1.173314674819170983e-03
1.042261267001307621e-03
9.103623391144372240e-04
7.784516864748667426e-04
6.473954005741484408e-04
5.180843497845215870e-04
3.914260962219356954e-04
2.683363372665894804e-04
1.497299501123003341e-04
3.651168345498617175e-05
-7.043327803116027725e-05
-1.702489058584977374e-04
-2.621178385712661079e-04
-3.452707543137476464e-04
-4.189955151615400771e-04
-4.826458273348477367e-04
-5.356494607197412414e-04
-5.775158214267550822e-04
-6.078427671222021720e-04
-6.263226101780058983e-04
-6.327471533766993806e-04
-6.270117209963026097e-04
-6.091180679142899328e-04
-5.791761841310701315e-04
-5.374048520436181756e-04
-4.841310202744851651e-04
-4.197879003209916120e-04
-3.449118134039813144e-04
-2.601378307140365877e-04
-1.661942031813683381e-04
-6.389563455426201105e-05
4.586448085569261876e-05
1.621228338256343023e-04
2.838559356551401841e-04
4.099905738712286913e-04
5.394149969531153270e-04
6.709906200977945080e-04
8.035641258950528389e-04
9.359798095318127642e-04
1.067092085616433601e-03
1.195777956122224660e-03
1.320949237982966097e-03
1.441564488151337491e-03
1.556640356045575812e-03
1.665262322021229596e-03
1.766594700463859462e-03
1.859889673359315125e-03
1.944495332746806315e-03
2.019862573262034503e-03
2.085550826574667903e-03
2.141232462691289220e-03
2.186695820981835250e-03
2.221846891886238452e-03
2.246709581114490241e-03
2.261424539678172970e-03
2.266246620233333849e-03
2.261540968771240997e-03
2.247777806182713316e-03
2.225525963704305926e-03
2.195445274168343706e-03
2.158277876192559591e-03
2.114838645186804984e-03
2.066004734080084237e-03
2.012704396972731305e-03
1.955905357880914977e-03
1.896602796485332603e-03
1.835807048972426005e-03
1.774531212664192227e-03
1.713778875117511228e-03
1.654532085064670376e-03
1.597739671246621151e-03
1.544306098990315141e-03
1.495081040225443086e-03
1.450849667101378627e-03
1.412323925774684394e-03
1.380134742148110636e-03
1.354825393330812188e-03
1.336846011027590557e-03
1.326549316418646927e-03
1.324187643822306555e-03
1.329911233937355408e-03
1.343767814193497613e-03
1.365703552521425326e-03
1.395565155542587577e-03
1.433103250301525407e-03
1.477976918617529686e-03
1.529759301984032075e-03
1.587944195498852120e-03
1.651953610739545584e-03
1.721146082961404677e-03
1.794825689990121789e-03
1.872251616101178011e-03
1.952648161935963958e-03
2.035215087022608678e-03
2.119138081562972967e-03
2.203599297314666038e-03
2.287787814548203087e-03
2.370909844943422558e-03
2.452198648915865104e-03
2.530923965817815941e-03
2.606400894829327426e-03
2.677998122975190371e-03
2.745145352802940992e-03
2.807339960748778986e-03
2.864152729917718732e-03
2.915232616773015713e-03
2.960310539578537084e-03
2.999202113727934913e-03
3.031809331200256349e-03
3.058121193707419479e-03
3.078213311651947521e-03
3.092246410794314681e-03
3.100463883972430328e-03
3.103188351456894617e-03
3.100817277701404043e-03
3.093817749874642857e-03
3.082720403658245015e-03
3.068112694522166783e-03
3.050631416477056664e-03
3.030954773350413856e-03
3.009793898721698814e-03
2.987884019891312234e-03
2.965975345008902125e-03
2.944823731215157059e-03
2.925181281507712328e-03
2.907786919036758466e-03
2.893357162865465085e-03
2.882577027516034472e-03
2.876091269321824715e-03
2.874495985717271610e-03
2.878330707903845910e-03
2.888071106666801127e-03
2.904122299405402247e-03
2.926812888781838481e-03
2.956389810566940196e-03
2.993014025736458108e-03
3.036757099317906501e-03
3.087598748144016348e-03
3.145425397125252692e-03
3.210029737863166494e-03
3.281111339560419463e-03
3.358278333925314614e-03
3.441050146348558457e-03
3.528861287452146177e-03
3.621066182119780669e-03
3.716945021928300900e-03
3.815710552996879560e-03
3.916515822379119417e-03
4.018462761589724000e-03
4.120611593059574258e-03
4.221990903118473352e-03
4.321608333535201414e-03
4.418461826997063108e-03
4.511551211895095150e-03
4.599890169324921847e-03
4.682518246719107914e-03
4.758512955904633558e-03
4.827001767276528806e-03
4.887173823716072646e-03
4.938291189376514505e-03
4.979699653994854557e-03
5.010838757288867129e-03
5.031251039702450134e-03
5.040590218353884627e-03
5.038628345420275573e-03
5.025261663772466296e-03
5.000515161220411668e-03
4.964545639138783460e-03
4.917643227903783706e-03
4.860231317853675251e-03
4.792864861071811922e-03
4.716226917938087966e-03
4.631123559699005035e-03
4.538476971621808673e-03
4.439317016128072751e-03
4.334771159101418088e-03
4.226052816667829823e-03
4.114448330948277180e-03
4.001302614275301615e-03
3.888003705619921986e-03
3.775966300412536385e-03
3.666614527081520254e-03
3.561364066766492965e-03
3.461604019022360579e-03
3.368678595737955445e-03
3.283868929179417553e-03
3.208375223662049240e-03
3.143299590040456171e-03
3.089629683510793090e-03
3.048223510051315064e-03
3.019795610661838835e-03
3.004904717345566710e-03
3.003943252148097345e-03
3.017128823267612933e-03
3.044497858933077616e-03
3.085901507804362197e-03
3.141003921952087875e-03
3.209283021651571435e-03
3.290033723002711886e-03
3.382373735488466721e-03
3.485251853794367645e-03
3.597458613743088895e-03
3.717639267982925360e-03
3.844308963652707384e-03
3.975869829379747103e-03
4.110629937254986488e-03
4.246823708595202744e-03
4.382633647170039275e-03
4.516213022818513396e-03
4.645709168240215632e-03
4.769287134348561448e-03
4.885153350870994303e-03
4.991578822396143360e-03
5.086921707561931245e-03
5.169648754357943077e-03
5.238355390776418263e-03
5.291784099569527000e-03
5.328840781578896707e-03
5.348608863771377696e-03
5.350360886731150498e-03
5.333567379283520385e-03
5.297902943734147420e-03
5.243249286284089490e-03
5.169695248699739815e-03
5.077533796997639286e-03
4.967255887734392354e-03
4.839541474399008079e-03
4.695247622910367867e-03
4.535393986525275076e-03
4.361145806605331438e-03
4.173794732065561584e-03
3.974737709271849474e-03
3.765454323366120449e-03
3.547482887016724200e-03
3.322395711589864412e-03
3.091773907265929835e-03
2.857182177308221268e-03
2.620143885613818516e-03
2.382116862632851096e-03
2.144470431448323999e-03
1.908463869520202151e-03
1.675226695655810663e-03
1.445741106497798814e-03
1.220826906638978679e-03
1.001129101754156875e-03
7.871082839516588573e-04
5.790340647163939999e-04
3.769815637455131902e-04
1.808310444100349524e-04
-9.729371609779019804e-06
-1.951979475636051711e-04
-3.762507183615280970e-04
-5.537301178300906273e-04
-7.286311016802052547e-04
-9.020850008293622478e-04
-1.075341482657622260e-03
-1.249748896972224755e-03
-1.426733390041085275e-03
-1.607777118076463225e-03
-1.794396012483924670e-03
-1.988117445337449826e-03
-2.190458242001783792e-03
-2.402903319936260714e-03
-2.626885419431093400e-03
-2.863766159752955884e-03
-3.114818775567064664e-03
-3.381212802887653690e-03
-3.664000899823080786e-03
-3.964108026822101005e-03
-4.282323009357430835e-03
-4.619292573096425020e-03
-4.975517971988817172e-03
-5.351354006701906398e-03
-5.747010409000000847e-03
-6.162555453049098353e-03
-6.597921658611115812e-03
-7.052913153576863096e-03
-7.527214581717727761e-03
-8.020401220361463371e-03
-8.531949906138031406e-03
-9.061250546068802883e-03
-9.607617800545909664e-03
-1.017030250067101071e-02
-1.074850257014785780e-02
-1.134137304410718673e-02
-1.194803498286655351e-02
-1.256758287232557190e-02
-1.319909048832863634e-02
-1.384161480163760734e-02
-1.449419797559582321e-02
-1.515586734777010607e-02
-1.582563339117610407e-02
-1.650248560199829226e-02
-1.718538654423611839e-02
-1.787326421286105499e-02
-1.856500294566665321e-02
-1.925943314905484427e-02
-1.995532004452049354e-02
-2.065135212231973549e-02
-2.134612943918392375e-02
-2.203815228578349245e-02
-2.272581064747112439e-02
-2.340737500538992225e-02
-2.408098881571149250e-02
-2.474466311182187128e-02
-2.539627373863241611e-02
-2.603356150829554128e-02
-2.665413552587308013e-02
-2.725548007293428568e-02
-2.783496513875741152e-02
-2.838986077224291138e-02
-2.891735533293969193e-02
-2.941457742003185036e-02
-2.987862149379564777e-02
-3.030657695414239183e-02
-3.069556024416498705e-02
-3.104274965692264271e-02
-3.134542234540627775e-02
-3.160099304134590670e-02
-3.180705368804034178e-02
-3.196141346320127696e-02
-3.206213835530841161e-02
-3.210758960043515187e-02
-3.209646019569221270e-02
-3.202780866209585520e-02
-3.190108933892104454e-02
-3.171617845536722768e-02
-3.147339536610764543e-02
-3.117351814694129322e-02
-3.081779316595839938e-02
-3.040793814375162413e-02
-2.994613828053451290e-02
-2.943503530094566945e-02
-2.887770914103380063e-02
-2.827765250636753505e-02
-2.763873831355951813e-02
-2.696518037305463411e-02
-2.626148759366774346e-02
-2.553241241309709211e-02
-2.478289409625939951e-02
-2.401799768830951282e-02
-2.324284954856859625e-02
-2.246257040038878577e-02
-2.168220704065431173e-02
-2.090666387112136843e-02
-2.014063532944160642e-02
-1.938854042550288911e-02
-1.865446071986029408e-02
-1.794208266508809033e-02
-1.725464556512103231e-02
-1.659489622480920384e-02
-1.596505111685390249e-02
-1.536676689747156800e-02
-1.480112005784276277e-02
-1.426859617575258928e-02
-1.376908915549026301e-02
-1.330191066133631569e-02
-1.286580973858820337e-02
-1.245900242856017547e-02
-1.207921109034332946e-02
-1.172371278296870795e-02
-1.138939591978345087e-02
-1.107282443318082649e-02
-1.077030832169613254e-02
-1.047797923858673902e-02
-1.019186990117292024e-02
-9.907995845123425405e-03
-9.622437954709765415e-03
-9.331424298480049326e-03
-9.031409610142458050e-03
-8.719150917626804567e-03
-8.391777639629196400e-03
-8.046854908500294945e-03
-7.682438587163917081e-03
-7.297120907666231060e-03
-6.890065538554407572e-03
-6.461031324399008416e-03
-6.010383938165367659e-03
-5.539095018998385286e-03
-5.048728597324231467e-03
-4.541414938613953615e-03
-4.019811914981312809e-03
-3.487054554586004572e-03
-2.946693510241412718e-03
-2.402623534855255569e-03
-1.859003137045229246e-03
-1.320166860664877045e-03
-7.905318436632651413e-04
-2.745004124759809470e-04
2.236393801350459770e-04
6.998133193591135658e-04
1.150258687383404676e-03
1.571617908348262255e-03
1.961026293544112023e-03
2.316191909691059023e-03
2.635465697152078283e-03
2.917900275568850905e-03
3.163295887703514858e-03
3.372232312019256967e-03
3.546085650863435666e-03
3.687029338508617925e-03
3.798018856471295588e-03
3.882760129157377359e-03
3.945661753748126895e-03
3.991771727441583394e-03
4.026699333199885121e-03
4.056523561539075035e-03
4.087689356638261710e-03
4.126893542895827653e-03
4.180962471468238455e-03
4.256723558890901024e-03
4.360873154778167199e-03
4.499843205577359721e-03
4.679669328289953398e-03
4.905863038027718018e-03
5.183290716079278458e-03
5.516061927656985137e-03
5.907429481123954544e-03
6.359703599930373145e-03
6.874182251321436267e-03
7.451099378628814156e-03
8.089592614229325004e-03
8.787691589529854005e-03
9.542327597831357089e-03
1.034936495438639782e-02
1.120365411301672484e-02
1.209910597971946937e-02
1.302878652990510297e-02
1.398503045254842307e-02
1.495957200626399017e-02
1.594369105144574639e-02
1.692837176731209689e-02
1.790447129408991034e-02
1.886289515830458924e-02
1.979477633530922140e-02
2.069165457298392796e-02
2.154565241596608297e-02
2.234964437816367930e-02
2.309741585979663975e-02
2.378380834381876863e-02
2.440484778559995349e-02
2.495785323103406547e-02
2.544152301147771869e-02
2.585599628357910032e-02
2.620288807985601126e-02
2.648529644972984903e-02
2.670778092931240869e-02
2.687631187009691461e-02
2.699819106805520855e-02
2.708194433660746428e-02
2.713718740137259847e-02
2.717446706149513613e-02
2.720508003723317442e-02
2.724087246206326890e-02
2.729402342667726356e-02
2.737681623592667576e-02
2.750140163124214013e-02
2.767955723721026925e-02
2.792244788267728497e-02
2.824039132730322282e-02
2.864263416375689014e-02
2.913714240019984678e-02
2.973041124518156428e-02
3.042729812251849381e-02
3.123088285397790723e-02
3.214235826293415643e-02
3.316095425592142237e-02
3.428389760448189577e-02
3.550640913865557580e-02
3.682173937697245242e-02
3.822124295706078034e-02
3.969449137222277879e-02
4.122942288294433044e-02
4.281252775565389662e-02
4.442906614723797498e-02
4.606331533278799212e-02
4.769884236139345507e-02
4.931879759086082310e-02
5.090622406769207409e-02
5.244437737048288778e-02
5.391705003143526520e-02
5.530889454036241187e-02
5.660573882639902132e-02
5.779488808170689385e-02
5.886540689399540754e-02
5.980837589607353871e-02
6.061711749364338819e-02
6.128738568802067493e-02
6.181751557831333815e-02
6.220852881415639413e-02
6.246419188480152596e-02
6.259102522196946516e-02
6.259826167940206465e-02
6.249775408795097548e-02
6.230383255862687042e-02
6.203311290555953844e-02
6.170425893313906396e-02
6.133770195654202756e-02
6.095532198773356142e-02
6.058009580726256282e-02
6.023571785332951928e-02
5.994620055023369698e-02
5.973546138441266501e-02
5.962690424520053489e-02
5.964300296321945610e-02
5.980489511977944705e-02
6.013199424547081146e-02
6.064162824697223730e-02
6.134871174484538697e-02
6.226545939742048758e-02
6.340114679576001888e-02
6.476192474184515324e-02
6.635069178649642685e-02
6.816702898629707630e-02
7.020719964919835965e-02
7.246421572382180654e-02
7.492797124497690975e-02
7.758544198377062551e-02
8.042094885766706835e-02
8.341648202242260557e-02
8.655208053413455949e-02
8.980626162355694053e-02
9.315649254438260196e-02
9.657969670814080254e-02
1.000527850974622657e-01
1.035532029084894751e-01
1.070594809990251250e-01
1.105517812035100300e-01
1.140124242040071734e-01
1.174263887915674015e-01
1.207817712895373763e-01
1.240701943257908335e-01
1.272871548776284278e-01
1.304323020742340911e-01
1.335096362323051900e-01
1.365276218955976673e-01
1.394992087400059311e-01
1.424417558405683959e-01
1.453768562447441404e-01
1.483300607373291002e-01
1.513305011604562378e-01
1.544104156208616074e-01
1.576045798490809113e-01
1.609496504709901354e-01
1.644834280557329609e-01
1.682440494799768982e-01
1.722691204891476091e-01
1.765948009705755328e-01
1.812548566991292187e-01
1.862796925017913552e-01
1.916953824569837539e-01
1.975227135454319938e-01
2.037762594249949988e-01
2.104635012352631118e-01
2.175840121712208086e-01
2.251287219175802379e-01
2.330792766198147570e-01
2.414075088690542936e-01
2.500750309779757319e-01
2.590329633483177130e-01
2.682218078956136731e-01
2.775714746914878517e-01
2.870014677946945980e-01
2.964212338456358453e-01
3.057306749224693587e-01
3.148208242439918814e-01
3.235746812516977489e-01
3.318681997002440598e-01
3.395714202223302780e-01
3.465497361183603742e-01
3.526652790946123717e-01
3.577784094109653923e-01
3.617492929104462740e-01
3.644395457983127251e-01
3.657139265136950534e-01
3.654420528545703206e-01
3.635001216336706809e-01
3.597726075999672091e-01
3.541539181596288777e-01
3.465499805599007166e-01
3.368797385566255631e-01
3.250765366502625375e-01
3.110893708342610253e-01
2.948839866877184246e-01
2.764438069915255425e-01
2.557706733881301431e-01
2.328853889575947800e-01
2.078280510431041728e-01
1.806581663693962170e-01
1.514545434810947444e-01
1.203149604250803445e-01
8.735560878508308313e-02
5.271031803762728229e-02
1.652956745122954527e-02
-2.102070445648930933e-02
-5.976048001552293487e-02
-9.949721639426387099e-02
-1.400275555324052013e-01
-1.811391697168516779e-01
-2.226127206064246467e-01
-2.642239078893652837e-01
-3.057455824344458284e-01
-3.469498979313145326e-01
-3.876104742236088363e-01
-4.275045455834134978e-01
-4.664150672983157220e-01
-5.041327543972423664e-01
-5.404580273882162444e-01
-5.752028411742063918e-01
-6.081923747933647428e-01
-6.392665618213875245e-01
-6.682814433268591259e-01
-6.951103277250956225e-01
-7.196447446784701718e-01
-7.417951829976973110e-01
-7.614916054655365141e-01
-7.786837367184895609e-01
-7.933411231704901034e-01
-8.054529673006703971e-01
-8.150277415624876953e-01
-8.220925901576104922e-01
-8.266925296553797597e-01
-8.288894620991732465e-01
-8.287610166666590228e-01
-8.263992379683625655e-01
-8.219091410458784219e-01
-8.154071545706720325e-01
-8.070194749994257233e-01
-7.968803552404427615e-01
-7.851303519424593924e-01
-7.719145556170693423e-01
-7.573808275861672046e-01
-7.416780671921958668e-01
-7.249545317948858925e-01
-7.073562308834313583e-01
-6.890254139389905275e-01
-6.700991701673068013e-01
-6.507081560231711137e-01
-6.309754641276210663e-01
-6.110156450748897017e-01
-5.909338908238264132e-01
-5.708253859548213516e-01
-5.507748301938538704e-01
-5.308561332682485423e-01
-5.111322802866691273e-01
-4.916553634388896032e-01
-4.724667735053766915e-01
-4.535975420653708401e-01
-4.350688236824469812e-01
-4.168925051626720668e-01
-3.990719276291743722e-01
-3.816027055247174227e-01
-3.644736258864369471e-01
-3.476676103148601538e-01
-3.311627216636917059e-01
-3.149331972214657327e-01
-2.989504904453165746e-01
-2.831843035811119624e-01
-2.676035941535092610e-01
-2.521775394228871203e-01
-2.368764440339515553e-01
-2.216725774205233201e-01
-2.065409291795336222e-01
-1.914598723318003404e-01
-1.764117261761816713e-01
-1.613832126636880193e-01
-1.463658019139606470e-01
-1.313559446339254144e-01
-1.163551912194628335e-01
-1.013701993106366772e-01
-8.641263341741783899e-02
-7.149896198996809338e-02
-5.665015895970133830e-02
-4.189131825318595514e-02
-2.725119094220528754e-02
-1.276165605989709913e-02
1.542863313437055611e-03
1.562602624712531446e-02
2.945022973319792042e-02
4.297728104957210943e-02
5.616907378716534671e-02
6.898825488544027551e-02
8.139887062451189870e-02
9.336697998649745589e-02
1.048612250580436556e-01
1.158533486066969792e-01
1.263186508232662930e-01
1.362363779684024334e-01
1.455900374164462441e-01
1.543676347844868679e-01
1.625618305975433942e-01
1.701700152563143942e-01
1.771943027196584697e-01
1.836414446098323106e-01
1.895226679152674509e-01
1.948534408638487037e-01
1.996531725994614148e-01
2.039448533558892440e-01
2.077546429028563901e-01
2.111114154921505393e-01
2.140462704101167568e-01
2.165920175625719313e-01
2.187826476312434709e-01
2.206527966072784341e-01
2.222372141569202153e-01
2.235702451726514772e-01
2.246853333471181269e-01
2.256145549263070260e-01
2.263881902263319423e-01
2.270343394486137589e-01
2.275785885428845134e-01
2.280437297111367889e-01
2.284495401394185110e-01
2.288126213493484051e-01
2.291463003896590245e-01
2.294605930627977297e-01
2.297622281078907092e-01
2.300547302840494912e-01
2.303385591271371879e-01
2.306112995383749198e-01
2.308678990334942227e-01
2.311009462108757906e-01
2.313009841917251230e-01
2.314568522096350500e-01
2.315560483397496871e-01
2.315851060773574110e-01
2.315299773674982242e-01
2.313764147051295961e-01
2.311103453208315228e-01
2.307182306433272490e-01
2.301874046411994668e-01
2.295063852132898374e-01
2.286651534896051718e-01
2.276553965776550725e-01
2.264707101548055213e-01
2.251067579816294628e-01
2.235613864686694929e-01
2.218346930970644670e-01
2.199290485585630450e-01
2.178490733837666615e-01
2.156015703987705368e-01
2.131954154676041768e-01
2.106414094054110675e-01
2.079520947730787994e-01
2.051415419251889083e-01
2.022251088414077913e-01
1.992191799655739504e-01
1.961408894871684294e-01
1.930078344864766260e-01
1.898377836448480738e-01
1.866483871459920785e-01
1.834568930417587174e-01
1.802798754095474298e-01
1.771329790847269714e-01
1.740306855394551377e-01
1.709861035815399555e-01
1.680107885425866643e-01
1.651145925673845882e-01
1.623055482445578956e-01
1.595897869512327427e-01
1.569714928882862404e-01
1.544528926906948707e-01
1.520342802211117617e-01
1.497140753544426994e-01
1.474889148937246763e-01
1.453537732373318958e-01
1.433021100395928948e-01
1.413260414903521611e-01
1.394165315620466972e-01
1.375635993469775109e-01
1.357565382546833122e-01
1.339841427839815746e-01
1.322349385847398640e-01
1.304974114749776204e-01
1.287602313225151562e-01
1.270124666799783975e-01
1.252437865524266281e-01
1.234446459186752804e-01
1.216064519132144389e-01
1.197217081572191505e-01
1.177841350328330816e-01
1.157887643917912823e-01
1.137320074681563986e-01
1.116116955889142476e-01
1.094270933528895956e-01
1.071788849677932226e-01
1.048691345403826580e-01
1.025012217639037354e-01
1.000797547809725990e-01
9.761046246680192551e-02
9.510006859533766399e-02
9.255615070409997647e-02
8.998698675567479155e-02
8.740139264619556370e-02
8.480855382714996837e-02
8.221785435583690849e-02
7.963870661111095706e-02
7.708038484898993570e-02
7.455186550467064743e-02
7.206167714615381581e-02
6.961776253584929519e-02
6.722735507376653707e-02
6.489687157282258978e-02
6.263182288749445659e-02
6.043674352528488614e-02
5.831514126538605430e-02
5.626946688338052560e-02
5.430110428429974628e-02
5.241038040856289132e-02
5.059659434629928954e-02
4.885806460514733468e-02
4.719219302421348572e-02
4.559554373296399038e-02
4.406393532343568648e-02
4.259254399088375359e-02
4.117601551373530067e-02
3.980858364655349285e-02
3.848419255249643095e-02
3.719662084611581598e-02
3.593960483471955736e-02
3.470695864987163870e-02
3.349268917611483015e-02
3.229110361848798461e-02
3.109690794193658778e-02
2.990529460135787215e-02
2.871201813329968613e-02
2.751345765971287272e-02
2.630666531675368222e-02
2.508940020728676196e-02
2.386014757438298037e-02
2.261812334216081743e-02
2.136326433091189150e-02
2.009620474052137631e-02
1.881823969754215647e-02
1.753127704849461940e-02
1.623777854213616714e-02
1.494069193013581286e-02
1.364337544878948399e-02
1.234951650785486195e-02
1.106304622710729477e-02
9.788051510451971360e-03
8.528686489628692358e-03
7.289085148161520214e-03
6.073276625073327148e-03
4.885104828505643787e-03
3.728153719982810026e-03
2.605679647921018121e-03
1.520551761761678887e-03
4.752014501670841847e-04
-5.284184958659345847e-04
-1.488864499473374885e-03
-2.405222264368088881e-03
-3.277116154611390587e-03
-4.104708100070759286e-03
-4.888686310669962572e-03
-5.630244361653650997e-03
-6.331051168356487471e-03
-6.993212789278153638e-03
-7.619226984025833684e-03
-8.211931667465111398e-03
-8.774448313002669586e-03
-9.310121602736178004e-03
-9.822456426727150386e-03
-1.031505378322239604e-02
-1.079154656547472689e-02
-1.125553652980166956e-02
-1.171053364312396768e-02
-1.215989884023527257e-02
-1.260679114214839115e-02
-1.305411999142530241e-02
-1.350450364648460994e-02
-1.396023408913188782e-02
-1.442324889391292594e-02
-1.489511048635329404e-02
-1.537699285827723653e-02
-1.586967569583077123e-02
-1.637354576909145348e-02
-1.688860545081511191e-02
-1.741448781975836815e-02
-1.795047787519014199e-02
-1.849553924017662346e-02
-1.904834556359384298e-02
-1.960731602034414961e-02
-2.017065401627321855e-02
-2.073638813353938237e-02
-2.130241461791755955e-02
-2.186654038946648018e-02
-2.242652588188756915e-02
-2.298012674323789140e-02
-2.352513380761435749e-02
-2.405941049629938683e-02
-2.458092710108215201e-02
-2.508779136203133017e-02
-2.557827503091432766e-02
-2.605083597956972530e-02
-2.650413559537441108e-02
-2.693705130718073229e-02
-2.734868433656168635e-02
-2.773836271735502859e-02
-2.810563953358772432e-02
-2.845028685492550363e-02
-2.877228560986944475e-02
-2.907181182219362864e-02
-2.934921956151336983e-02
-2.960502120971061912e-02
-2.983986557382447072e-02
-3.005451432120135116e-02
-3.024981733194989642e-02
-3.042668763716174091e-02
-3.058607634737211048e-02
-3.072894818436062991e-02
-3.085625805471442495e-02
-3.096892912828523234e-02
-3.106783291003890196e-02
-3.115377149612089808e-02
-3.122746231717969667e-02
-3.128952566682215164e-02
-3.134047511024997540e-02
-3.138071083835567571e-02
-3.141051588752506729e-02
-3.143005533936395202e-02
-3.143937821382812581e-02
-3.143842199712953978e-02
-3.142701949549077389e-02
-3.140490776451294180e-02
-3.137173885079436869e-02
-3.132709197832504039e-02
-3.127048682744670155e-02
-3.120139749984743652e-02
-3.111926688934068055e-02
-3.102352106633479364e-02
-3.091358330124423584e-02
-3.078888744624740798e-02
-3.064889037589616644e-02
-3.049308328383004002e-02
-3.032100148538823675e-02
-3.013223266806276668e-02
-2.992642339666891360e-02
-2.970328385687858938e-02
-2.946259076870278923e-02
-2.920418841798329973e-02
-2.892798800998460512e-02
-2.863396531091002770e-02
-2.832215676797666601e-02
-2.799265430002543728e-02
-2.764559891316441601e-02
-2.728117340841831537e-02
-2.689959444062641272e-02
-2.650110408069586421e-02
-2.608596129515993248e-02
-2.565443348120221428e-02
-2.520678831571623174e-02
-2.474328619450383987e-02
-2.426417350187865668e-02
-2.376967682988278402e-02
-2.325999831019636907e-02
-2.273531224168737208e-02
-2.219576310417108178e-02
-2.164146495065620568e-02
-2.107250226694465725e-02
-2.048893225135358515e-02
-1.989078838969918911e-02
-1.927808542403239983e-02
-1.865082535712802789e-02
-1.800900444630699690e-02
-1.735262101264409620e-02
-1.668168389421731401e-02
-1.599622120732820466e-02
-1.529628929618747496e-02
-1.458198153721994295e-02
-1.385343682934791175e-02
-1.311084747796424123e-02
-1.235446632589608240e-02
-1.158461278904467963e-02
-1.080167773161777242e-02
-1.000612693103461806e-02
-9.198503071475846310e-03
-8.379426101024130616e-03
-7.549591925646035977e-03
-6.709769336572049721e-03
-5.860795249005996618e-03
-5.003568195772568200e-03
-4.139040281313720662e-03
-3.268207599439090782e-03
-2.392099378229586935e-03
-1.511765839869212138e-03
-6.282651348970590480e-04
2.573504484620661422e-04
1.144048754861829668e-03
2.030832299142857397e-03
2.916752733908126866e-03
3.800925016605991025e-03
4.682540959428702944e-03
5.560882000380974396e-03
6.435330786182443322e-03
7.305381427172725692e-03
8.170648183151418484e-03
9.030872361342891924e-03
9.885927345748382264e-03
1.073582151713586494e-02
1.158069902005968640e-02
1.242083829429160673e-02
1.325664845161480566e-02
1.408866343411853406e-02
1.491753397616252426e-02
1.574401748536015389e-02
1.656896604530479211e-02
1.739331255898265982e-02
1.821805544162482041e-02
1.904424194439066631e-02
1.987295031465695708e-02
2.070527117605660064e-02
2.154228831063896218e-02
2.238505919191900728e-02
2.323459563213053219e-02
2.409184471323401466e-02
2.495767034945968119e-02
2.583283578130795774e-02
2.671798724705659947e-02
2.761363909709931702e-02
2.852016057946671346e-02
2.943776451103597563e-02
3.036649799766951915e-02
3.130623529595040477e-02
3.225667305248069300e-02
3.321732790057155965e-02
3.418753644192717989e-02
3.516645764244717004e-02
3.615307761796951458e-02
3.714621670952152760e-02
3.814453877566190837e-02
3.914656256180949062e-02
4.015067492865592724e-02
4.115514580020401131e-02
4.215814465147279394e-02
4.315775825334887406e-02
4.415200937122207986e-02
4.513887619018525088e-02
4.611631228413679701e-02
4.708226669194082170e-02
4.803470402958186225e-02
4.897162421571878838e-02
4.989108155446177195e-02
5.079120299080899792e-02
5.167020527635915461e-02
5.252641078703127603e-02
5.335826191927037221e-02
5.416433368606164700e-02
5.494334463348340969e-02
5.569416575051318319e-02
5.641582734879662525e-02
5.710752386633673183e-02
5.776861652848370998e-02
5.839863393659065760e-02
5.899727047321163403e-02
5.956438267074625620e-02
6.009998364124354703e-02
6.060423560506510154e-02
6.107744070912224377e-02
6.152003014550721377e-02
6.193255193188415553e-02
6.231565734708727905e-02
6.267008635987889043e-02
6.299665205612417496e-02
6.329622448483682162e-02
6.356971400506565562e-02
6.381805441379895250e-02
6.404218598263976270e-02
6.424303867043121286e-02
6.442151572361817791e-02
6.457847778853763321e-02
6.471472777786790864e-02
6.483099665946256973e-02
6.492793033138459513e-02
6.500607764317983817e-02
6.506587974878895453e-02
6.510766095103449891e-02
6.513162098907206154e-02
6.513782896508339693e-02
6.512621893237374726e-02
6.509658707908701214e-02
6.504859061181826607e-02
6.498174836310288693e-02
6.489544301877955834e-02
6.478892495259261364e-02
6.466131765935027864e-02
6.451162461508892776e-02
6.433873756370342423e-02
6.414144612671275614e-02
6.391844854236317097e-02
6.366836346312186590e-02
6.338974279531336964e-02
6.308108521348948505e-02
6.274085038983270857e-02
6.236747369487688486e-02
6.195938122347595389e-02
6.151500513896699524e-02
6.103279893235696169e-02
6.051125265500967992e-02
5.994890790788450635e-02
5.934437235952975259e-02
5.869633378386684974e-02
5.800357348110073141e-02
5.726497881827839753e-02
5.647955490281127144e-02
5.564643527459073313e-02
5.476489151816493067e-02
5.383434163751720652e-02
5.285435722073338755e-02
5.182466925798440149e-02
5.074517271606193008e-02
4.961592968152643557e-02
4.843717113934389168e-02
4.720929735677760475e-02
4.593287687742052955e-02
4.460864422518830835e-02
4.323749632811964977e-02
4.182048765854800426e-02
4.035882421774175666e-02
3.885385658145142085e-02
3.730707172612690581e-02
3.572008409339599844e-02
3.409462585484194369e-02
3.243253652581002539e-02
3.073575203855054283e-02
2.900629336456274354e-02
2.724625491747039926e-02
2.545779277421857806e-02
2.364311286185256933e-02
2.180445925378392616e-02
1.994410270517963865e-02
1.806432957376830420e-02
1.616743120989936472e-02
1.425569391569169592e-02
1.233138951560643071e-02
1.039676669866417512e-02
8.454043199302872444e-03
6.505398886697065508e-03
4.552969726641469678e-03
2.598842708967712307e-03
6.450517524183320677e-04
-1.306425381280394140e-03
-3.253669270784066009e-03
-5.194820108381997120e-03
-7.128078008144921734e-03
-9.051702486117484819e-03
-1.096401129824520725e-02
-1.286337849218201212e-02
-1.474823189059973859e-02
-1.661705002031198947e-02
-1.846835875361663507e-02
-2.030072761758346112e-02
-2.211276593322170428e-02
-2.390311888137629931e-02
-2.567046362142925281e-02
-2.741350561565953498e-02
-2.913097516382680621e-02
-3.082162434639983475e-02
-3.248422444700582723e-02
-3.411756387170003513e-02
-3.572044670172493108e-02
-3.729169191708811559e-02
-3.883013330005889024e-02
-4.033462015945089157e-02
-4.180401870591202163e-02
-4.323721427890683117e-02
-4.463311426184178587e-02
-4.599065171687818226e-02
-4.730878966885471854e-02
-4.858652604153779198e-02
-4.982289905981242273e-02
-5.101699313657790530e-02
-5.216794510817728686e-02
-5.327495066977789434e-02
-5.433727092042987816e-02
-5.535423899562557509e-02
-5.632526652629995384e-02
-5.724984991124033862e-02
-5.812757618816452587e-02
-5.895812842980750063e-02
-5.974129058348429805e-02
-6.047695161685506110e-02
-6.116510885068126430e-02
-6.180587037455494148e-02
-6.239945662220736794e-02
-6.294620086215639565e-02
-6.344654864254398174e-02
-6.390105614835087100e-02
-6.431038749351561390e-02
-6.467531096029940918e-02
-6.499669412396888446e-02
-6.527549798391292513e-02
-6.551277011579599574e-02
-6.570963698941434394e-02
-6.586729543029284928e-02
-6.598700340430374567e-02
-6.607007020816048348e-02
-6.611784623011751627e-02
-6.613171235442479035e-02
-6.611306918130392674e-02
-6.606332622785834885e-02
-6.598389117841248208e-02
-6.587615940501223566e-02
-6.574150378599312450e-02
-6.558126511554655813e-02
-6.539674318189606095e-02
-6.518918849444069186e-02
-6.495979494603004722e-02
-6.470969336965537444e-02
-6.443994612877196326e-02
-6.415154289224125894e-02
-6.384539742064837542e-02
-6.352234558289182598e-02
-6.318314446555872710e-02
-6.282847272360048141e-02
-6.245893204359015405e-02
-6.207504968207200324e-02
-6.167728202444032470e-02
-6.126601910144419821e-02
-6.084158993126868170e-02
-6.040426863241751820e-02
-5.995428113214901905e-02
-5.949181239873243404e-02
-5.901701406409654710e-02
-5.853001228856424820e-02
-5.803091568884844592e-02
-5.751982325487799141e-02
-5.699683210268332439e-02
-5.646204489238957486e-02
-5.591557685165582381e-02
-5.535756223671840087e-02
-5.478816016773900566e-02
-5.420755974254050369e-02
-5.361598431316842023e-02
-5.301369491312181437e-02
-5.240099274810295499e-02
-5.177822078920884391e-02
-5.114576438601974723e-02
-5.050405090839030914e-02
-4.985354854968491317e-02
-4.919476416213564712e-02
-4.852824032507303126e-02
-4.785455156001450217e-02
-4.717429997231606387e-02
-4.648811025050975099e-02
-4.579662420993416833e-02
-4.510049498123462619e-02
-4.440038086860787631e-02
-4.369693918202487148e-02
-4.299081995836706582e-02
-4.228265981808403823e-02
-4.157307602827022691e-02
-4.086266093635870789e-02
-4.015197680010774983e-02
-3.944155119872967685e-02
-3.873187304836681749e-02
-3.802338928067813817e-02
-3.731650226067841775e-02
-3.661156800883569318e-02
-3.590889527199438852e-02
-3.520874545126131266e-02
-3.451133331075655064e-02
-3.381682852893164865e-02
-3.312535807384248826e-02
-3.243700923441265177e-02
-3.175183342237204026e-02
-3.106985052566332145e-02
-3.039105381281216253e-02
-2.971541526550200429e-02
-2.904289124802093836e-02
-2.837342842585267866e-02
-2.770696977469351563e-02
-2.704346058305196615e-02
-2.638285433743496611e-02
-2.572511843598492692e-02
-2.507023959136489219e-02
-2.441822876712909651e-02
-2.376912562064553702e-02
-2.312300233798436633e-02
-2.247996682790974476e-02
-2.184016520343504825e-02
-2.120378352033413377e-02
-2.057104865384317208e-02
-1.994222839542191331e-02
-1.931763068941953418e-02
-1.869760222562040844e-02
-1.808252604287131568e-02
-1.747281854981510771e-02
-1.686892576041119224e-02
-1.627131902608630262e-02
-1.568049012050842447e-02
-1.509694590050060167e-02
-1.452120259907138666e-02
-1.395377991671404444e-02
-1.339519491656847999e-02
-1.284595581791320162e-02
-1.230655586540182860e-02
-1.177746739723527572e-02
-1.125913609794894528e-02
-1.075197570294565523e-02
-1.025636305197617955e-02
-9.772633688927558418e-03
-9.301078090021975067e-03
-8.841938509794025278e-03
-8.395406566188935368e-03
-7.961621568684988312e-03
-7.540669540804156509e-03
-7.132583065208690509e-03
-6.737341878379448160e-03
-6.354874259906635216e-03
-5.985059063449938051e-03
-5.627728484410705369e-03
-5.282671425334272211e-03
-4.949637402851832409e-03
-4.628340938246852491e-03
-4.318466323820166833e-03
-4.019672707123635863e-03
-3.731599416579175175e-03
-3.453871419609264286e-03
-3.186104732296813399e-03
-2.927911861096425122e-03
-2.678906973932006653e-03
-2.438710831045990020e-03
-2.206955421128005759e-03
-1.983288115430997377e-03
-1.767375419744580739e-03
-1.558906158398048894e-03
-1.357594025806458044e-03
-1.163179477027770662e-03
-9.754310233722343973e-04
-7.941458623723402117e-04
-6.191498338611397959e-04
-4.502967038792095701e-04
-2.874668105847654896e-04
-1.305651053866978164e-04
2.048129415297286971e-05
1.657260836996538619e-04
3.052071322415522291e-04
4.389502519413186819e-04
5.669732425946193274e-04
6.892900608285863718e-04
8.059151288612151397e-04
9.168676223783650200e-04
1.022175670932863904e-03
1.121880447626157507e-03
1.216039903655921064e-03
1.304732275596777675e-03
1.388059147504631203e-03
1.466147996461509987e-03
1.539154267233065797e-03
1.607262838318069620e-03
1.670688826789272496e-03
1.729677859571442230e-03
1.784505632106786433e-03
1.835476825225708679e-03
1.882923316731693279e-03
1.927201851367353050e-03
1.968691066061933979e-03
2.007787997538181424e-03
2.044904080517542019e-03
2.080460718669792201e-03
2.114884517831863361e-03
2.148602257034534172e-03
2.182035652321298244e-03
2.215595984127255273e-03
2.249678745567042313e-03
2.284658364386308194e-03
2.320883111233119217e-03
2.358670256129231750e-03
2.398301611413298281e-03
2.440019447265083779e-03
2.484022952091877786e-03
2.530465209504067711e-03
2.579450877267310937e-03
2.631034522199947323e-03
2.685219671074864055e-03
2.741958609566953840e-03
2.801152930691166824e-03
2.862654824604663265e-03
2.926269164420805969e-03
2.991756282934854294e-03
3.058835505476557946e-03
3.127189289935921029e-03
3.196468004259695513e-03
3.266295148114426762e-03
3.336273148797857992e-03
3.405989472893392739e-03
3.475023010929123753e-03
3.542950717211428707e-03
3.609354321032882951e-03
3.673827029047380555e-03
3.735980179424915320e-03
3.795449676604679187e-03
3.851902129095400966e-03
3.905040596207917485e-03
3.954609895758025469e-03
4.000401349134714846e-03
4.042256890248434147e-03
4.080072478282878272e-03
4.113800823240706429e-03
4.143453289927661806e-03
4.169100984546415117e-03
4.190874991208693064e-03
4.208965741486346557e-03
4.223621585138607158e-03
4.235146551349253108e-03
4.243897203193841040e-03
4.250278802340352706e-03
4.254740677755649257e-03
4.257771002196720708e-03
4.259890964950442151e-03
4.261648392991567065e-03
4.263610968770011403e-03
4.266359071332105971e-03
4.270478355280554403e-03
4.276552221034618864e-03
4.285154170310290396e-03
4.296840226661566807e-03
4.312141475823922168e-03
4.331556886872823739e-03
4.355546447973433592e-03
4.384524736346539185e-03
4.418854942709588181e-03
4.458843488577389144e-03
4.504735345646428309e-03
4.556709980580640924e-03
4.614878141783823606e-03
4.679279378067419982e-03
4.749880395179358582e-03
4.826574289862889042e-03
4.909180678703575079e-03
4.997446587238033380e-03
5.091048218850600764e-03
5.189593527723867367e-03
5.292625586994514214e-03
5.399626680948184376e-03
5.510023096427466016e-03
5.623190520586466429e-03
5.738460044195719048e-03
5.855124567491441605e-03
5.972445636499861335e-03
6.089660601975070697e-03
6.205990062442303702e-03
6.320645361601249547e-03
6.432836226745172921e-03
6.541778278393602271e-03
6.646700499757729301e-03
6.746852477513003328e-03
6.841511355748799116e-03
6.929988427479626123e-03
7.011635287809779050e-03
7.085849518215107945e-03
7.152079775777180765e-03
7.209830295014978997e-03
7.258664756582139561e-03
7.298209501548386102e-03
7.328156040102557292e-03
7.348262858711201474e-03
7.358356481635762447e-03
7.358331798428543839e-03
7.348151745132415653e-03
7.327846249022622674e-03
7.297510581783442710e-03
7.257302947776375808e-03
7.207441673715996380e-03
7.148201796250134264e-03
7.079911134096163357e-03
7.002945954004388511e-03
6.917726302387812616e-03
6.824711002889637113e-03
6.724392426653727148e-03
6.617291138405419042e-03
6.503950377906910288e-03
6.384930538626844981e-03
6.260803662330736812e-03
6.132148077674076832e-03
5.999543127344018553e-03
5.863564084916939728e-03
5.724777365813196912e-03
5.583736043688953231e-03
5.440975691025440666e-03
5.297010581071955743e-03
5.152330236874766434e-03
5.007396526601669284e-03
4.862641128890096524e-03
4.718463384594820398e-03
4.575228683864411908e-03
4.433267244166352351e-03
4.292873355999751381e-03
4.154305022186130167e-03
4.017784036992036109e-03
3.883496438378373269e-03
3.751593289151586037e-03
3.622191776601298326e-03
3.495376589250029104e-03
3.371201583317501391e-03
3.249691653592453894e-03
3.130844743252815445e-03
3.014634030714074490e-03
2.901010233867425733e-03
2.789903885267802468e-03
2.681227725164544301e-03
2.574879059611439019e-03
2.470742080512602825e-03
2.368690124037741568e-03
2.268587849102552019e-03
2.170293288731819058e-03
2.073659789067122672e-03
1.978537801394395119e-03
1.884776562554339599e-03
1.792225573887891357e-03
1.700735950330742796e-03
1.610161601367484383e-03
1.520360286629068034e-03
1.431194533455780417e-03
1.342532440803221195e-03
1.254248316159818286e-03
1.166223261657330220e-03
1.078345643259299427e-03
9.905115423785462812e-04
9.026251321781335627e-04
8.145990348239020608e-04
7.263546594732480559e-04
6.378225591054136794e-04
5.489427620166640329e-04
4.596651913677748686e-04
3.699500642731026485e-04
2.797683997741032074e-04
1.891025628902984115e-04
9.794684248746310775e-05
6.308033947781858001e-06
-8.579386774211714421e-05
-1.783249841648199745e-04
-2.712368603614256067e-04
-3.644657525901475511e-04
-4.579319141611176984e-04
-5.515389754878707819e-04
-6.451733520756823808e-04
-7.387037483500842171e-04
-8.319807608373053351e-04
-9.248366410792637372e-04
-1.017085227787930483e-03
-1.108522048262470215e-03
-1.198924670224916448e-03
-1.288053282401040427e-03
-1.375651506447738218e-03
-1.461447522880433445e-03
-1.545155467781987721e-03
-1.626477157253361245e-03
-1.705104077410909535e-03
-1.780719660483431237e-03
-1.853001900509768270e-03
-1.921626215608288881e-03
-1.986268595938475452e-03
-2.046608970496136253e-03
-2.102334779768579975e-03
-2.153144759385574886e-03
-2.198752799971670068e-03
-2.238891877633188143e-03
-2.273318120007672936e-03
-2.301814761526007735e-03
-2.324196037978426554e-03
-2.340311021678118369e-03
-2.350047163734857343e-03
-2.353333642122376525e-03
-2.350144407293491226e-03
-2.340500836676136925e-03
-2.324473922685414261e-03
-2.302186064891255032e-03
-2.273812276596430277e-03
-2.239580857193483425e-03
-2.199773458166743613e-03
-2.154724524368022750e-03
-2.104820056944664130e-03
-2.050495751390602351e-03
-1.992234447392710397e-03
-1.930562980396718269e-03
-1.866048320957855488e-03
-1.799293129948212984e-03
-1.730930719011452039e-03
-1.661619565449533580e-03
-1.592037287310762777e-03
-1.522874226502594257e-03
-1.454826701685681340e-03
-1.388590006673822612e-03
-1.324851203398810318e-03
-1.264281930986031668e-03
-1.207531146734887447e-03
-1.155218002359214126e-03
-1.107924956542183283e-03
-1.066191149717502255e-03
-1.030506222440908835e-03
-1.001304601350747796e-03
-9.789603998679242188e-04
-9.637829750137978310e-04
-9.560132035020882510e-04
-9.558206183231257938e-04
-9.633013230245096592e-04
-9.784768154147381602e-04
-1.001293807360065409e-03
-1.031624960337803069e-03
-1.069270528495959872e-03
-1.113960943921215056e-03
-1.165360335954753216e-03
-1.223070986340582707e-03
-1.286638501571809147e-03
-1.355557800919778705e-03
-1.429279800549439986e-03
-1.507218595431130889e-03
-1.588759219646706340e-03
-1.673265761172276853e-03
-1.760089699689239328e-03
-1.848578421523318664e-03
-1.938083736467723561e-03
-2.027970255271422956e-03
-2.117623569287077883e-03
-2.206458002181849870e-03
-2.293923899504670197e-03
-2.379514298490992014e-03
-2.462770865739040329e-03
-2.543289026792128205e-03
-2.620722196930329057e-03
-2.694785007791074098e-03
-2.765255540114251384e-03
-2.831976393139507865e-03
-2.894854738398938872e-03
-2.953861221004396975e-03
-3.009027725500220286e-03
-3.060444123372437104e-03
-3.108253957781779726e-03
-3.152649157494764615e-03
-3.193863882455934625e-03
-3.232167578121402946e-03
-3.267857334627830099e-03
-3.301249726080058081e-03
-3.332672265421464386e-03
-3.362454551330631286e-03
-3.390919349057930181e-03
-3.418373656643643697e-03
-3.445100054826597240e-03
-3.471348345140146032e-03
-3.497327809514643414e-03
-3.523200111534759930e-03
-3.549073007149930632e-03
-3.574995035585966981e-03
-3.600951270305143958e-03
-3.626860263772947474e-03
-3.652572281236359051e-03
-3.677868778363589664e-03
-3.702463338869505828e-03
-3.726004005423159092e-03
-3.748077013653727720e-03
-3.768211896985505880e-03
-3.785887911240152278e-03
-3.800541762049504391e-03
-3.811576437386501696e-03
-3.818371138484578931e-03
-3.820292113170539218e-03
-3.816704267993977894e-03
-3.806983375589080131e-03
-3.790528629662483218e-03
-3.766775495153998517e-03
-3.735208451821964235e-03
-3.695373614221412507e-03
-3.646890864523218059e-03
-3.589465371706841105e-03
-3.522898261787824059e-03
-3.447096181870914350e-03
-3.362079679625863422e-03
-3.267990126404454309e-03
-3.165095073738596974e-03
-3.053791781031316155e-03
-2.934609062907175912e-03
-2.808207123021262512e-03
-2.675375411971890865e-03
-2.537028454629070701e-03
-2.394199612977281847e-03
-2.248032917191058414e-03
-2.099772865760555444e-03
-1.950752400181505379e-03
-1.802379161263181198e-03
-1.656120122598797074e-03
-1.513484800832487400e-03
-1.376007244171022865e-03
-1.245227029564310427e-03
-1.122669519784859002e-03
-1.009825600035250438e-03
-9.081312308108450016e-04
-8.189470323172292872e-04
-7.435382614437911720e-04
-6.830553581630664913e-04
-6.385154146974294804e-04
-6.107849389723671567e-04
-6.005640186420704634e-04
-6.083721800087373358e-04
-6.345362268759761198e-04
-6.791802395862659054e-04
-7.422179515470470881e-04
-8.233475671879768049e-04
-9.220492289018462429e-04
-1.037585217683037551e-03
-1.169002838364807412e-03
-1.315140119815253654e-03
-1.474634308154415237e-03
-1.645932953389385575e-03
-1.827307627482647242e-03
-2.016870114749050574e-03
-2.212590894703723825e-03
-2.412319652698214495e-03
-2.613807665602733629e-03
-2.814731744918186167e-03
-3.012719573704053522e-03
-3.205375952548291003e-03
-3.390309771886200561e-03
-3.565161283019221191e-03
-3.727629371029216997e-03
-3.875498533940305388e-03
-4.006665167347513851e-03
-4.119162798351341630e-03
-4.211186025127212386e-03
-4.281112839009334342e-03
-4.327524932253741345e-03
-4.349225891385884342e-03
-4.345256898378442416e-03
-4.314909850434544419e-03
-4.257737667158338277e-03
-4.173561613914273695e-03
-4.062475653088340639e-03
-3.924847625253712058e-03
-3.761317351213075248e-03
-3.572791633043899493e-03
-3.360436201236783813e-03
-3.125664753216187124e-03
-2.870125182284939593e-03
-2.595683137432599694e-03
-2.304403136396827000e-03
-1.998527481158133244e-03
-1.680453249385050526e-03
-1.352707627863543576e-03
-1.017921871549745325e-03
-6.788041363545467685e-04
-3.381116286618694039e-04
1.377608814792528228e-06
3.368930744900987696e-04
6.656998442618571044e-04
9.851260844590977155e-04
1.292589605586982708e-03
1.585623404195753454e-03
1.861899574651935171e-03
2.119251616235359129e-03
2.355694709169774744e-03
2.569443932526306422e-03
2.758930128086322080e-03
2.922813315637771362e-03
3.059993526289804706e-03
3.169619017276072755e-03
3.251091797075129648e-03
3.304070437871257145e-03
3.328470223970118966e-03
3.324460736027876669e-03
3.292460858966196873e-03
3.233131318049419899e-03
3.147365010176385400e-03
3.036275131232362388e-03
2.901181405210587812e-03
2.743594528248469513e-03
2.565199088795026231e-03
2.367835175773263991e-03
2.153478848476898886e-03
1.924221793963451239e-03
1.682250367839824073e-03
1.429824205318535506e-03
1.169254714033452587e-03
9.028836182298610171e-04
6.330617627880723731e-04
3.621283483523558312e-04
9.239093340514811044e-05
-1.738938106983916340e-04
-4.345383012967840640e-04
-6.874411537955572426e-04
-9.306030545138579534e-04
-1.162141296143123477e-03
-1.380302845580491612e-03
-1.583475977829811900e-03
-1.770200387581757255e-03
-1.939175715887421622e-03
-2.089268521928500880e-03
-2.219517711636672611e-03
-2.329138442201154294e-03
-2.417524542765802243e-03
-2.484249398907820844e-03
-2.529065506430839150e-03
-2.551902652689509634e-03
-2.552864889743100118e-03
-2.532226198379920398e-03
-2.490425154786075120e-03
-2.428058495265654308e-03
-2.345873724163821412e-03
-2.244760891016697214e-03
-2.125743528674675902e-03
-1.989968918460087444e-03
-1.838697703665303357e-03
-1.673292940322258261e-03
-1.495208696859758523e-03
-1.305978217536127523e-03
-1.107201795188801239e-03
-9.005342757205335707e-04
-6.876724375467645114e-04
-4.703421583869298235e-04
-2.502855757740531572e-04
-2.924820051702185921e-05
1.910339878471577105e-04
4.088472687106669960e-04
6.225128112378780672e-04
8.303989566882341534e-04
1.030933307850465759e-03
1.222614409215640446e-03
1.404022980930502403e-03
1.573832665598419531e-03
1.730820203954277613e-03
1.873874907378555955e-03
2.002007402369650278e-03
2.114357553490652485e-03
2.210201514701227998e-03
2.288957787231839496e-03
2.350192291135410564e-03
2.393622245543053969e-03
2.419118921243971349e-03
2.426709199015789509e-03
2.416575788384446935e-03
2.389056138520731856e-03
2.344640000251660503e-03
2.283965654485086132e-03
2.207814727579205001e-03
2.117105642350360604e-03
2.012885742632591554e-03
1.896322072839284932e-03
1.768690943031764719e-03
1.631366311256440089e-03
1.485807018460721897e-03
1.333543099451653694e-03
1.176161151987593521e-03
1.015289051174904757e-03
8.525799165011976443e-04
6.896957852265946185e-04
5.282909489867311558e-04
3.699952018318497602e-04
2.163972033774790374e-04
6.902808726629941515e-05
-7.065439676036451718e-05
-2.012811279895624565e-04
-3.215860289646184714e-04
-4.304193858279802150e-04
-5.267599510928112948e-04
-6.097257568106924375e-04
-6.785833097998465475e-04
-7.327551727876087384e-04
-7.718257951911534475e-04
-7.955454883412423767e-04
-8.038324428723528153e-04
-7.967727654462026859e-04
-7.746185158737386132e-04
-7.377837792577797166e-04
-6.868387478412528446e-04
-6.225018618059871642e-04
-5.456302168032095730e-04
-4.572082174330293898e-04
-3.583346449472871740e-04
-2.502082991185962933e-04
-1.341124201638816120e-04
-1.139808178838061318e-05
1.165332803044577900e-04
2.482478993332416090e-04
3.822980831295083679e-04
5.172406926213726644e-04
6.516555716190201375e-04
7.841635412388946787e-04
9.134437154977379913e-04
1.038249994308663602e-03
1.157426429155240452e-03
1.269921280106462141e-03
1.374799563343679547e-03
1.471253893295922533e-03
1.558613507711366364e-03
1.636351274249712431e-03
1.704088603114537132e-03
1.761598359866546355e-03
1.808805461511458525e-03
1.845785364873056425e-03
1.872760297963186465e-03
1.890093473395965682e-03
1.898281241315860450e-03
1.897943327993230041e-03
1.889811343970724871e-03
1.874715728449817933e-03
1.853571271327849983e-03
1.827361489166572268e-03
1.797122036850521505e-03
1.763923476876183430e-03
1.728853594561199133e-03
1.692999571037770825e-03
1.657430280330443638e-03
1.623178972339724873e-03
1.591226587238406178e-03
1.562485956316272224e-03
1.537787180020597265e-03
1.517864396409824733e-03
1.503344048733549522e-03
1.494734899213212738e-03
1.492419974154081223e-03
1.496650534997038835e-03
1.507542086241342580e-03
1.525072621171959068e-03
1.549083034005822391e-03
1.579279718111069580e-03
1.615239276628909534e-03
1.656415318990030411e-03
1.702147221778740546e-03
1.751670682340965290e-03
1.804130014645151337e-03
1.858591775355664371e-03
1.914059755057063170e-03
1.969490931115541396e-03
2.023812202909818121e-03
2.075937599855104312e-03
2.124785709084571136e-03
2.169297170420758387e-03
2.208451754664280450e-03
2.241284902523401571e-03
2.266903373985622219e-03
2.284499867047375902e-03
2.293366288263601598e-03
2.292905510941702172e-03
2.282641398204427949e-03
2.262226970296378394e-03
2.231450529366431172e-03
2.190239756024228972e-03
2.138663571500774505e-03
2.076931888091334156e-03
2.005393069183442675e-03
1.924529330207123056e-03
1.834949987272915979e-03
1.737382774125604754e-03
1.632663327900182827e-03
1.521722982630799954e-03
1.405575096400428926e-03
1.285300169492120496e-03
1.162029814692833131e-03
1.036930043159308952e-03
9.111840166756736414e-04
7.859745589857169198e-04
6.624667249037935772e-04
5.417906873855349954e-04
4.250251722334458119e-04
3.131817690169798113e-04
2.071903286683525708e-04
1.078856607411864972e-04
1.599580704870203230e-05
-6.786797168121265673e-05
-1.432193563903434643e-04
-2.097031316826818159e-04
-2.670992019144572934e-04
-3.153245075841553898e-04
-3.544327588453291414e-04
-3.846119193300740163e-04
-4.061796272403488009e-04
-4.195765230105214026e-04
-4.253576175322320153e-04
-4.241818894635882150e-04
-4.168002133239935006e-04
-4.040418972972732161e-04
-3.867999539508289826e-04
-3.660154198236077066e-04
-3.426608964549744370e-04
-3.177236907597700828e-04
-2.921887864291675845e-04
-2.670218848181247378e-04
-2.431528002855860696e-04
-2.214595692907993382e-04
-2.027533519054421931e-04
-1.877645906397331808e-04
-1.771305123407817855e-04
-1.713841930648910439e-04
-1.709454070630695420e-04
-1.761133709285647589e-04
-1.870614717736591233e-04
-2.038341660533188413e-04
-2.263460289760570860e-04
-2.543829670695184775e-04
-2.876056030600859944e-04
-3.255547770363623715e-04
-3.676590276191393954e-04
-4.132439848387677072e-04
-4.615435274731611464e-04
-5.117124068408661136e-04
-5.628402829265903573e-04
-6.139668502711082649e-04
-6.640978377502635777e-04
-7.122215615531687352e-04
-7.573258272029748366e-04
-7.984148828056345870e-04
-8.345261095084817492e-04
-8.647461801693604464e-04
-8.882264410181980787e-04
-9.041972187466125422e-04
-9.119808949486985427e-04
-9.110034404932972930e-04
-9.008042195662012159e-04
-8.810439728118102474e-04
-8.515107835234973690e-04
-8.121239006855689776e-04
-7.629354478217764733e-04
-7.041299097112239469e-04
-6.360214221178933343e-04
-5.590489204251592988e-04
-4.737692112767671556e-04
-3.808481494188418115e-04
-2.810498945678139345e-04
-1.752246057105933373e-04
-6.429471099621629330e-05
5.075995509406159808e-05
1.689179979712398898e-04
2.891329655782338471e-04
4.103502051112424705e-04
5.315238411408109744e-04
6.516335445724108066e-04
7.697008431486899787e-04
8.848046070286764509e-04
9.960955039184497296e-04
1.102809240495073676e-03
1.204278242303451641e-03
1.299941580093705480e-03
1.389353091397578380e-03
1.472187389372833690e-03
1.548243800226060691e-03
1.617448051016350495e-03
1.679851696805141148e-03
1.735629398799834119e-03
1.785073941409562152e-03
1.828589168950583163e-03
1.866680963716576495e-03
1.899946367456134327e-03
1.929061153878418615e-03
1.954765918712979625e-03
1.977851066206310054e-03
1.999140828462961372e-03
2.019476803442569936e-03
2.039701057383551137e-03
2.060639334707130461e-03
2.083084516971694857e-03
2.107780710015202518e-03
2.135408210446967242e-03
2.166569708509322092e-03
2.201777940967513357e-03
2.241444995455755141e-03
2.285873477300482022e-03
2.335249770545391127e-03
2.389639539715773201e-03
2.448985448862103179e-03
2.513107295877940305e-03
2.581704507481061717e-03
2.654361032807367113e-03
2.730552467728681112e-03
2.809655382601950867e-03
2.890958684749543855e-03
2.973676782636078958e-03
3.056964357461409553e-03
3.139932473552558938e-03
3.221665812734802493e-03
3.301240601415440009e-03
3.377743025940262416e-03
3.450287713131333731e-03
3.518035994562843626e-03
3.580213570083229813e-03
3.636127264068450982e-03
3.685180551854497135e-03
3.726887503436344604e-03
3.760884941027465515e-03
3.786942536140899644e-03
3.804970572204417929e-03
3.815025255309697095e-03
3.817311407673020223e-03
3.812182451815511984e-03
3.800137676241984591e-03
3.781816697721302953e-03
3.757991256766925019e-03
3.729554455519183513e-03
3.697507517112099719e-03
3.662944246123945886e-03
3.627033492082456373e-03
3.590999852961919512e-03
3.556102927018435760e-03
3.523615439857711792e-03
3.494800634391666098e-03
3.470889253778538120e-03
3.453056606689584342e-03
3.442399985340796435e-03
3.439916868746052854e-03
3.446484303269769633e-03
3.462839854190605943e-03
3.489564468409444599e-03
3.527067519220986134e-03
3.575574327366850842e-03
3.635116427647583880e-03
3.705524800028627518e-03
3.786426171874428172e-03
3.877242493934286629e-03
3.977193684876075518e-03
4.085303616858002376e-03
4.200409256903864068e-03
4.321172890716984405e-03
4.446097266030984117e-03
4.573543433989517293e-03
4.701751002500312998e-03
4.828860546298338087e-03
4.952937840820220011e-03
5.071999471122346642e-03
5.184039524348609332e-03
5.287056865614513275e-03
5.379082727970227809e-03
5.458207947530047989e-03
5.522609598059176339e-03
5.570576546618172427e-03
5.600533538582759541e-03
5.611063393584113553e-03
5.600927097304767878e-03
5.569081287133047405e-03
5.514693032436151186e-03
5.437151546344660795e-03
5.336076737448448154e-03
5.211324435116103555e-03
5.062988251375971291e-03
4.891398036187629209e-03
4.697114927325371503e-03
4.480923133985590355e-03
4.243818593769542111e-03
3.986994651954242110e-03
3.711825003868381070e-03
3.419844222210185591e-03
3.112726135727313624e-03
2.792260337434086716e-03
2.460327319706499989e-03
2.118872518248814899e-03
1.769879700565648488e-03
1.415344103293034303e-03
1.057245621575557577e-03
6.975225380013669882e-04
3.380461321836925894e-04
-1.940352672751961648e-05
-3.731601729604233121e-04
-7.216921700408893700e-04
-1.063621298169840435e-03
-1.397739123537903921e-03
-1.723020964002450585e-03
-2.038637227842702432e-03
-2.343962038237691441e-03
-2.638579109022562950e-03
-2.922284898075488361e-03
-3.195089084225769503e-03
-3.457212380103653285e-03
-3.709081747737421383e-03
-3.951323377882131477e-03
-4.184753383500394025e-03
-4.410366486033377373e-03
-4.629322947516078569e-03
-4.842933973712990232e-03
-5.052645703776986914e-03
-5.260022203598770270e-03
-5.466727584465588992e-03
-5.674507472826274303e-03
-5.885170168191958089e-03
-6.100567574332549717e-03
-6.322576147616839649e-03
-6.553078008823662662e-03
-6.793942453170298025e-03
-7.047007934197466010e-03
-7.314064542811121034e-03
-7.596837132551577734e-03
-7.896969236131550288e-03
-8.216007670410686164e-03
-8.555387957689394168e-03
-8.916420441412890169e-03
-9.300277251143197407e-03
-9.707980018321500301e-03
-1.014038830478194118e-02
-1.059818880986921827e-02
-1.108188519035311487e-02
-1.159178858327308131e-02
-1.212800887826665820e-02
-1.269044668202197468e-02
-1.327878591887479004e-02
-1.389248737849064358e-02
-1.453078293516521340e-02
-1.519267079157594555e-02
-1.587691166360000530e-02
-1.658202621249805706e-02
-1.730629373735935450e-02
-1.804775227099919555e-02
-1.880420034357390205e-02
-1.957320052924696463e-02
-2.035208489866084311e-02
-2.113796261812525557e-02
-2.192772985181078160e-02
-2.271808213297666149e-02
-2.350552930004634264e-02
-2.428641301359619684e-02
-2.505692708160838639e-02
-2.581314049933332994e-02
-2.655102323780942838e-02
-2.726647469874817278e-02
-2.795535471594537760e-02
-2.861351692084242518e-02
-2.923684424980938987e-02
-2.982128629628206032e-02
-3.036289813076063077e-02
-3.085788016672419073e-02
-3.130261871375261684e-02
-3.169372665473405015e-02
-3.202808367960430225e-02
-3.230287547429207262e-02
-3.251563130975842347e-02
-3.266425942510572250e-02
-3.274707951307033460e-02
-3.276285177214407346e-02
-3.271080184149546821e-02
-3.259064114619546204e-02
-3.240258200397962141e-02
-3.214734714829367568e-02
-3.182617326595916368e-02
-3.144080806781008458e-02
-3.099350084171562797e-02
-3.048698628126069593e-02
-2.992446156861443274e-02
-2.930955680096812566e-02
-2.864629896240252632e-02
-2.793906966057373154e-02
-2.719255717050065094e-02
-2.641170337609314439e-02
-2.560164606112099242e-02
-2.476765750270806116e-02
-2.391508011455259486e-02
-2.304926005982918871e-02
-2.217547987409808005e-02
-2.129889113231040257e-02
-2.042444822893331458e-02
-1.955684431229959969e-02
-1.870045057554068843e-02
-1.785925986719317377e-02
-1.703683573714113303e-02
-1.623626782307807659e-02
-1.546013447032368489e-02
-1.471047337465646900e-02
-1.398876086124002660e-02
-1.329590035545787086e-02
-1.263222044236504173e-02
-1.199748266810241569e-02
-1.139089915194790859e-02
-1.081115986504350805e-02
-1.025646925131971053e-02
-9.724591727276729602e-03
-9.212905358107002785e-03
-8.718462916818593006e-03
-8.238059260501050252e-03
-7.768304035790650139e-03
-7.305698302535469993e-03
-6.846713785027575862e-03
-6.387873275617224865e-03
-5.925830756590040604e-03
-5.457449742557102246e-03
-4.979878095025115463e-03
-4.490618080564203786e-03
-3.987590052371871654e-03
-3.469188541345923169e-03
-2.934329276627474677e-03
-2.382486251847950546e-03
-1.813717839646821102e-03
-1.228681158492302096e-03
-6.286341880048062613e-04
-1.542525624327485470e-05
6.085301061464612254e-04
1.240284821687476008e-03
1.876408044424125168e-03
2.513044438314802290e-03
3.145983990749125735e-03
3.770741267319948926e-03
4.382642801894066735e-03
4.976921151031174148e-03
5.548813768575881419e-03
6.093665090707947075e-03
6.607029688122594002e-03
7.084774607724254013e-03
7.523178771917139740e-03
7.919027387656395189e-03
8.269699467153548630e-03
8.573246438646183257e-03
8.828460027457955828e-03
9.034927894539190874e-03
9.193075469180481130e-03
9.304192797465722989e-03
9.370445406097670932e-03
9.394868551031589077e-03
9.381344494717823793e-03
9.334562673733157179e-03
9.259963106242084102e-03
9.163663685339887982e-03
9.052372112772079371e-03
8.933283909978113890e-03
8.813968010858255417e-03
8.702241792745146753e-03
8.606037583308998734e-03
8.533262995994493269e-03
8.491657598210477359e-03
8.488648572767737432e-03
8.531208013735320367e-03
8.625714691480813184e-03
8.777823038080244389e-03
8.992341979855241266e-03
9.273126326851750117e-03
9.622982935396309431e-03
1.004359398865758458e-02
1.053545919740260517e-02
1.109785856526463409e-02
1.172883696925491187e-02
1.242521145197391687e-02
1.318260160564114526e-02
1.399548312226139499e-02
1.485726413328113289e-02
1.576038338684445511e-02
1.669642907921281214e-02
1.765627650965324522e-02
1.863024257578204529e-02
1.960825453336645027e-02
2.058003012280765903e-02
2.153526611903930008e-02
2.246383185682486461e-02
2.335596417099561686e-02
2.420246021404561312e-02
2.499486439467688698e-02
2.572564579527361270e-02
2.638836248399168208e-02
2.697780933361967198e-02
2.749014610485958632e-02
2.792300295983417280e-02
2.827556085782121503e-02
2.854860471815586984e-02
2.874454774777144769e-02
2.886742571294745666e-02
2.892286064167521112e-02
2.891799373953240007e-02
2.886138833474236748e-02
2.876290375140653013e-02
2.863354192550235724e-02
2.848526900537054138e-02
2.833081466662988948e-02
2.818345246612657257e-02
2.805676488189043360e-02
2.796439713906241978e-02
2.791980421852623129e-02
2.793599559133501387e-02
2.802528258369785946e-02
2.819903296292895073e-02
2.846743771413289339e-02
2.883929466491857996e-02
2.932181328465417736e-02
2.992044499498800955e-02
3.063874263198661588e-02
3.147825239854013663e-02
3.243844107534964855e-02
3.351666064292193464e-02
3.470815189962357661e-02
3.600608775819320873e-02
3.740165637527705089e-02
3.888418341512735188e-02
4.044129202060273154e-02
4.205909834750042042e-02
4.372243970597576579e-02
4.541513187455981093e-02
4.712025123608013649e-02
4.882043711471999170e-02
5.049820900058477058e-02
5.213629303784207691e-02
5.371795192618242232e-02
5.522731208113999118e-02
5.664968178194938753e-02
5.797185428485322062e-02
5.918238981975808971e-02
6.027187080328598456e-02
6.123312480113989043e-02
6.206141052847757161e-02
6.275456260895741212e-02
6.331309152750583258e-02
6.374023592067935839e-02
6.404196540417295136e-02
6.422693282150425398e-02
6.430637590601855080e-02
6.429396909429638263e-02
6.420562750684949416e-02
6.405926572738307456e-02
6.387451520500253555e-02
6.367240486426978263e-02
6.347501026403716551e-02
6.330507750971811620e-02
6.318562858716848807e-02
6.313955541815752248e-02
6.318921027615513608e-02
6.335600033839230982e-02
6.365999454480007758e-02
6.411955049175982468e-02
6.475096914616189359e-02
6.556818477679526858e-02
6.658249695334257645e-02
6.780235081823154930e-02
6.923317101598651380e-02
7.087725384587564847e-02
7.273372109621141501e-02
7.479853805171982062e-02
7.706459671654010413e-02
7.952186433173850932e-02
8.215759580200451828e-02
8.495660747999485285e-02
8.790160834430708892e-02
9.097358358766410857e-02
9.415222422551303150e-02
9.741639539418180116e-02
1.007446349389252427e-01
1.041156731120020246e-01
1.075089634684260748e-01
1.109052144422560671e-01
1.142869108006013129e-01
1.176388139126306048e-01
1.209484298879802411e-01
1.242064348077745878e-01
1.274070466304401128e-01
1.305483341011573206e-01
1.336324538565025755e-01
1.366658077041544572e-01
1.396591134611561702e-01
1.426273840964459583e-01
1.455898111457605004e-01
1.485695502090130793e-01
1.515934080884295543e-01
1.546914325658181322e-01
1.578964079754701100e-01
1.612432611831129681e-01
1.647683847275494273e-01
1.685088851414458799e-01
1.725017664956341179e-01
1.767830605441112757e-01
1.813869161165788946e-01
1.863446617764152602e-01
1.916838565346672962e-01
1.974273443862580024e-01
2.035923288493301508e-01
2.101894838323077608e-01
2.172221173865963306e-01
2.246854046085960399e-01
2.325657050885968635e-01
2.408399799784303186e-01
2.494753222779547419e-01
2.584286128423184947e-01
2.676463128804934533e-01
2.770644020782461747e-01
2.866084694407473599e-01
2.961939617631765276e-01
3.057265924198102613e-01
3.151029107284791242e-01
3.242110298807021618e-01
3.329315087300442899e-01
3.411383803985165719e-01
3.487003182479871954e-01
3.554819274875071211e-01
3.613451484825317972e-01
3.661507557271425073e-01
3.697599347835690553e-01
3.720359177781679683e-01
3.728456568564741946e-01
3.720615137408689321e-01
3.695629430746027455e-01
3.652381466748110816e-01
3.589856756897717438e-01
3.507159580791093800e-01
3.403527292760961109e-01
3.278343449354706451e-01
3.131149560013087862e-01
2.961655276244564705e-01
2.769746856668422463e-01
2.555493764769931619e-01
2.319153279153089442e-01
2.061173023559496054e-01
1.782191350397226148e-01
1.483035540577024580e-01
1.164717810749533455e-01
8.284291492947032376e-02
4.755310334615911461e-02
1.075451071843579361e-02
-2.738590705151613264e-02
-6.668780704278758076e-02
-1.069590271297187756e-01
-1.479972985440284050e-01
-1.895920828033479666e-01
-2.315265107421417556e-01
-2.735793998992540055e-01
-3.155273255228557838e-01
-3.571467195159366281e-01
-3.982159713211047558e-01
-4.385175046563974388e-01
-4.778398044916059018e-01
-5.159793692283480837e-01
-5.527425640335461576e-01
-5.879473527737297811e-01
-6.214248877407286820e-01
-6.530209383524726574e-01
-6.825971421246666004e-01
-7.100320639069075401e-01
-7.352220519902723517e-01
-7.580818824983144300e-01
-7.785451864450586568e-01
-7.965646567676509804e-01
-8.121120358624442925e-01
-8.251778868689132462e-01
-8.357711551548789863e-01
-8.439185288682828912e-01
-8.496636105269530503e-01
-8.530659136859877201e-01
-8.541997011136611695e-01
-8.531526827294393378e-01
-8.500245933888184169e-01
-8.449256718662832011e-01
-8.379750632232806362e-01
-8.292991678156632629e-01
-8.190299600882783304e-01
-8.073033005631593539e-01
-7.942572639907443666e-01
-7.800305058642071909e-01
-7.647606885354523154e-01
-7.485829868788088648e-01
-7.316286916823281361e-01
-7.140239274195893104e-01
-6.958884985999166384e-01
-6.773348770754107351e-01
-6.584673398436210467e-01
-6.393812648723382619e-01
-6.201625895134638133e-01
-6.008874337930820708e-01
-5.816218882353659803e-01
-5.624219632286807657e-01
-5.433336948921595466e-01
-5.243933998085086312e-01
-5.056280689215499891e-01
-4.870558893925776012e-01
-4.686868809694111349e-01
-4.505236324696619832e-01
-4.325621225519226121e-01
-4.147926081830801692e-01
-3.972005634935212304e-01
-3.797676516326790597e-01
-3.624727119711715906e-01
-3.452927453648186873e-01
-3.282038808568010779e-01
-3.111823078588338842e-01
-2.942051588553342700e-01
-2.772513291080211384e-01
-2.603022212076724351e-01
-2.433424039094623237e-01
-2.263601764066068001e-01
-2.093480313975089324e-01
-1.923030116523004873e-01
-1.752269572600300973e-01
-1.581266425024931421e-01
-1.410138031692964866e-01
-1.239050571787060073e-01
-1.068217230203082069e-01
-8.978954220879213632e-02
-7.283831355697086007e-02
-5.600144820609989638e-02
-3.931545578949605102e-02
-2.281937274830156057e-02
-6.554144837864415464e-03
9.438023783785304266e-03
2.511434236627724942e-02
4.043211321198710018e-02
5.534940680829383147e-02
6.982572019646898775e-02
8.382260689028631084e-02
9.730426760955579457e-02
1.102380918784706815e-01
1.225951417278476063e-01
1.343505699142284737e-01
1.454839665145226391e-01
1.559796290233686489e-01
1.658267525870153192e-01
1.750195386132006314e-01
1.835572212973230755e-01
1.914440131475950713e-01
1.986889721300300615e-01
2.053057940450328800e-01
2.113125354955408819e-01
2.167312733814964754e-01
2.215877082144162846e-01
2.259107191497397582e-01
2.297318794482232363e-01
2.330849415853179507e-01
2.360053013652142206e-01
2.385294507823414456e-01
2.406944292151598219e-01
2.425372823698915825e-01
2.440945380734664549e-01
2.454017074123719111e-01
2.464928191430613147e-01
2.473999944929418382e-01
2.481530686425193200e-01
2.487792640070278505e-01
2.493029197189661761e-01
2.497452802831769125e-01
2.501243453998286403e-01
2.504547818917064461e-01
2.507478973424867030e-01
2.510116742008098312e-01
2.512508617343109374e-01
2.514671225917305963e-01
2.516592297164854108e-01
2.518233084659959875e-01
2.519531181303310552e-01
2.520403666198973713e-01
2.520750515980469952e-01
2.520458209508102954e-01
2.519403453353655786e-01
2.517456957260897354e-01
2.514487186660798179e-01
2.510364024930533677e-01
2.504962277199677123e-01
2.498164957079381521e-01
2.489866300708156177e-01
2.479974458491928102e-01
2.468413823993901024e-01
2.455126965009671036e-01
2.440076132682230392e-01
2.423244331128063533e-01
2.404635938031249032e-01
2.384276878613812156e-01
2.362214359846085965e-01
2.338516182222839523e-01
2.313269652834262224e-01
2.286580130021192148e-01
2.258569237075936653e-01
2.229372787294396918e-01
2.199138467407605324e-01
2.168023327808535350e-01
2.136191134189878160e-01
2.103809631556133597e-01
2.071047776517552785e-01
2.038072990817987595e-01
2.005048488134597573e-01
1.972130721509380569e-01
1.939466998896139938e-01
1.907193306846306502e-01
1.875432380050291170e-01
1.844292046414427177e-01
1.813863873555939810e-01
1.784222135266048392e-01
1.755423110598946790e-01
1.727504721953790068e-01
1.700486509625245557e-01
1.674369938394536239e-01
1.649139021338761335e-01
1.624761243898946161e-01
1.601188762749993499e-01
1.578359852723285606e-01
1.556200568941697171e-01
1.534626587515525442e-01
1.513545188569007105e-01
1.492857340260215493e-01
1.472459844236926330e-01
1.452247500028165939e-01
1.432115249694917158e-01
1.411960262369532926e-01
1.391683922749239743e-01
1.371193688376698694e-01
1.350404785010274888e-01
1.329241712366428796e-01
1.307639538205509766e-01
1.285544960532946090e-01
1.262917125761864046e-01
1.239728192428841413e-01
1.215963637272914899e-01
1.191622303880003342e-01
1.166716200412664384e-01
1.141270055357032631e-01
1.115320646206804378e-01
1.088915920389683795e-01
1.062113928575425248e-01
1.034981595410133515e-01
1.007593354903821709e-01
9.800296790061950591e-02
9.523755294635595503e-02
9.247187645214080542e-02
8.971485296883378868e-02
8.697536634888802798e-02
8.426211478417444667e-02
8.158346304399338722e-02
7.894730442519941327e-02
7.636093468126263495e-02
7.383094011658132561e-02
7.136310136690490746e-02
6.896231433440731806e-02
6.663252916813409976e-02
6.437670803972675437e-02
6.219680196644814668e-02
6.009374657395961938e-02
5.806747633322067309e-02
5.611695654529669230e-02
5.424023194140075582e-02
5.243449058622051684e-02
5.069614141196816109e-02
4.902090363487940361e-02
4.740390600409704475e-02
4.583979377364072461e-02
4.432284121858161285e-02
4.284706745093403574e-02
4.140635332884810837e-02
3.999455712723246070e-02
3.860562709861102559e-02
3.723370871858917158e-02
3.587324495093376781e-02
3.451906779109697315e-02
3.316647977330502289e-02
3.181132409593215998e-02
3.045004255200819618e-02
2.907972055771162675e-02
2.769811883227540558e-02
2.630369154988544678e-02
2.489559115213050774e-02
2.347366013523883785e-02
2.203841030989811892e-02
2.059099048230935564e-02
1.913314353113021102e-02
1.766715387674072310e-02
1.619578684638035837e-02
1.472222132414669968e-02
1.324997704934575450e-02
1.178283821729533137e-02
1.032477500276903805e-02
8.879864380953995245e-03
7.452211884833092465e-03
6.045875707111266276e-03
4.664794451025446043e-03
3.312719828774101424e-03
1.993155255143866898e-03
7.093013782992516969e-04
-5.359906446110915788e-04
-1.740257756260352997e-03
-2.901454865972463368e-03
-4.017975817711173098e-03
-5.088665544540983514e-03
-6.112823405816807977e-03
-7.090198029010039843e-03
-8.020974182025469509e-03
-8.905752232803546692e-03
-9.745520856814312780e-03
-1.054162387660763714e-02
-1.129572217226682516e-02
-1.200975162085538700e-02
-1.268587789540149592e-02
-1.332644944149658645e-02
-1.393394945617049130e-02
-1.451094790546797464e-02
-1.506005443454767889e-02
-1.558387333425479901e-02
-1.608496111077440185e-02
-1.656578750090895516e-02
-1.702870049867875532e-02
-1.747589595714913596e-02
-1.790939214563585027e-02
-1.833100947357637484e-02
-1.874235560111714091e-02
-1.914481585706327704e-02
-1.953954891051186415e-02
-1.992748763602768952e-02
-2.030934466553347903e-02
-2.068562230858493611e-02
-2.105662639706965683e-02
-2.142248343001815561e-02
-2.178316053725629781e-02
-2.213848752980030615e-02
-2.248818044128662874e-02
-2.283186589311300696e-02
-2.316910556232521998e-02
-2.349942033456176027e-02
-2.382231337032967439e-02
-2.413729155956418487e-02
-2.444388494107636867e-02
-2.474166372524396265e-02
-2.503025236578488091e-02
-2.530934077147189987e-02
-2.557869219381210535e-02
-2.583814788038941296e-02
-2.608762835245662451e-02
-2.632713151757912901e-02
-2.655672771343929248e-02
-2.677655196219250189e-02
-2.698679371719376816e-02
-2.718768443579295743e-02
-2.737948342257370132e-02
-2.756246237582835393e-02
-2.773688905470677452e-02
-2.790301061837302879e-02
-2.806103712612260589e-02
-2.821112561120271700e-02
-2.835336520576865402e-02
-2.848776373289825525e-02
-2.861423624462353793e-02
-2.873259571426901859e-02
-2.884254619985231888e-02
-2.894367873897814650e-02
-2.903547006639702749e-02
-2.911728434119034009e-02
-2.918837788210534856e-02
-2.924790674124352896e-02
-2.929493709630291709e-02
-2.932845821621276466e-02
-2.934739790179112517e-02
-2.935063996457609042e-02
-2.933704338468579725e-02
-2.930546286864913613e-02
-2.925477027840563821e-02
-2.918387656929437302e-02
-2.909175377497011036e-02
-2.897745661060978362e-02
-2.884014313552720268e-02
-2.867909412616306830e-02
-2.849373079537380685e-02
-2.828363038412485056e-02
-2.804853936345413912e-02
-2.778838391587291554e-02
-2.750327748714120196e-02
-2.719352520834205506e-02
-2.685962519890519942e-02
-2.650226649046422828e-02
-2.612232365231576675e-02
-2.572084831790462378e-02
-2.529905757244585093e-02
-2.485831947407787096e-02
-2.440013600028450441e-02
-2.392612358028061922e-02
-2.343799163713334438e-02
-2.293751949265336598e-02
-2.242653207327859402e-02
-2.190687474844984703e-02
-2.138038780970899153e-02
-2.084888094043327658e-02
-2.031410821206732983e-02
-1.977774394372759301e-02
-1.924135983204417616e-02
-1.870640376833250865e-02
-1.817418061417797048e-02
-1.764583530281749885e-02
-1.712233844376812378e-02
-1.660447473478559796e-02
-1.609283420132298290e-02
-1.558780651805657773e-02
-1.508957833589781930e-02
-1.459813367735001387e-02
-1.411325728180515097e-02
-1.363454090061647257e-02
-1.316139225758307559e-02
-1.269304656095580561e-02
-1.222858028351300058e-02
-1.176692699950271891e-02
-1.130689491119003798e-02
-1.084718570656531371e-02
-1.038641460818598081e-02
-9.923130990447273300e-03
-9.455839442915177362e-03
-8.983020837177665280e-03
-8.503153052992169086e-03
-8.014731097450227340e-03
-7.516286258284403908e-03
-7.006404062359664238e-03
-6.483740808920666551e-03
-5.947038421156174148e-03
-5.395137531451011173e-03
-4.826988607075559032e-03
-4.241660989449309339e-03
-3.638349930125770598e-03
-3.016381442571682264e-03
-2.375215120583035709e-03
-1.714444905739475472e-03
-1.033798024667816886e-03
-3.331320685243143506e-04
3.875694804618154497e-04
1.128203227617335285e-03
1.888553069801335348e-03
2.668298412805673696e-03
3.467023287002443145e-03
4.284225976539493379e-03
5.119329055617890221e-03
5.971689567228553701e-03
6.840609068508100334e-03
7.725343459848717231e-03
8.625112342264108431e-03
9.539107798877809186e-03
1.046650239748565282e-02
1.140645627880709431e-02
1.235812334987486383e-02
1.332065643444743479e-02
1.429321126864660160e-02
1.527494955924035662e-02
1.626504091857939802e-02
1.726266378378557564e-02
1.826700534309563459e-02
1.927726062538854396e-02
2.029263082214535427e-02
2.131232096574349477e-02
2.233553707088489423e-02
2.336148291033702737e-02
2.438935658867110237e-02
2.541834696079455641e-02
2.644763017938386515e-02
2.747636635701930161e-02
2.850369666215881934e-02
2.952874079047372938e-02
3.055059508948441277e-02
3.156833132191452784e-02
3.258099616741358395e-02
3.358761150542478174e-02
3.458717558088793970e-02
3.557866507235166870e-02
3.656103797785441312e-02
3.753323739863753672e-02
3.849419612287703629e-02
3.944284195069673593e-02
4.037810371550704797e-02
4.129891790263896800e-02
4.220423582321366357e-02
4.309303108360066498e-02
4.396430734773435628e-02
4.481710625910021589e-02
4.565051529938685820e-02
4.646367555740665151e-02
4.725578921329544324e-02
4.802612660706885583e-02
4.877403277808495946e-02
4.949893338212384142e-02
5.020033983645740688e-02
5.087785367209908538e-02
5.153116989160486799e-02
5.216007938613919509e-02
5.276447024185204615e-02
5.334432800937725233e-02
5.389973486674101005e-02
5.443086765615638700e-02
5.493799483687178409e-02
5.542147239902107947e-02
5.588173866803942957e-02
5.631930820042811009e-02
5.673476471372387864e-02
5.712875326970975887e-02
5.750197167629578221e-02
5.785516123808483874e-02
5.818909701223769215e-02
5.850457753696042956e-02
5.880241434253145882e-02
5.908342121012868930e-02
5.934840337490584344e-02
5.959814671549971965e-02
5.983340705633190953e-02
6.005489973497526307e-02
6.026328949058288448e-02
6.045918081704671626e-02
6.064310887906084607e-02
6.081553088713748806e-02
6.097681825190156418e-02
6.112724946543252047e-02
6.126700380075925795e-02
6.139615583202809312e-02
6.151467083619491238e-02
6.162240118793305133e-02
6.171908363193300689e-02
6.180433756702372050e-02
6.187766430312840321e-02
6.193844727158098751e-02
6.198595329889137334e-02
6.201933478583741138e-02
6.203763285019262691e-02
6.203978150432778310e-02
6.202461266488288466e-02
6.199086211217724740e-02
6.193717624627917417e-02
6.186211974991491502e-02
6.176418400279667931e-02
6.164179622103450190e-02
6.149332928144206345e-02
6.131711222821831925e-02
6.111144131736745422e-02
6.087459160099604333e-02
6.060482892404371602e-02
6.030042233748683644e-02
5.995965675191070043e-02
5.958084586375166081e-02
5.916234516354120648e-02
5.870256500845366654e-02
5.819998364635484839e-02
5.765316006540766036e-02
5.706074661235607109e-02
5.642150120332468238e-02
5.573429911049944396e-02
5.499814420532404824e-02
5.421217945146496880e-02
5.337569666716991679e-02
5.248814543588299630e-02
5.154914094649192674e-02
5.055847082175489449e-02
4.951610079111202350e-02
4.842217910581791962e-02
4.727703966702308247e-02
4.608120376227149012e-02
4.483538037793612790e-02
4.354046508658262343e-02
4.219753742629959309e-02
4.080785685601170248e-02
3.937285718479938135e-02
3.789413959955626604e-02
3.637346426879236455e-02
3.481274063085242065e-02
3.321401637289273651e-02
3.157946529226888371e-02
2.991137409418643742e-02
2.821212817750971477e-02
2.648419670408513893e-02
2.473011696227331996e-02
2.295247820268686567e-02
2.115390521941225288e-02
1.933704171811956654e-02
1.750453379597157258e-02
1.565901356526481353e-02
1.380308313671829538e-02
1.193929926012853894e-02
1.007015867055544196e-02
8.198084303603936709e-03
6.325412618841980139e-03
4.454382172641114732e-03
2.587123478843919577e-03
7.256503496849742206e-04
-1.128147246810695063e-03
-2.972508673467527847e-03
-4.805806452271002907e-03
-6.626548374635097584e-03
-8.433377883681952847e-03
-1.022507281940003218e-02
-1.200054246415938400e-02
-1.375882302782043334e-02
-1.549907157412040021e-02
-1.722055860585224377e-02
-1.892265935613169150e-02
-2.060484392309263127e-02
-2.226666645816473625e-02
-2.390775359066883710e-02
-2.552779218910380607e-02
-2.712651674118091855e-02
-2.870369653723742198e-02
-3.025912280515876199e-02
-3.179259603417722291e-02
-3.330391372591461757e-02
-3.479285870933498948e-02
-3.625918822036078293e-02
-3.770262394833485270e-02
-3.912284306399589628e-02
-4.051947057558635823e-02
-4.189207299143025282e-02
-4.324015344184974075e-02
-4.456314826178003896e-02
-4.586042519867618295e-02
-4.713128321333124454e-02
-4.837495385860669100e-02
-4.959060418143056842e-02
-5.077734120211013780e-02
-5.193421780086462936e-02
-5.306023994947819261e-02
-5.415437522123280056e-02
-5.521556235307759075e-02
-5.624272176503893050e-02
-5.723476689975883630e-02
-5.819061606648089080e-02
-5.910920474819376241e-02
-5.998949816297913934e-02
-6.083050381120277961e-02
-6.163128381398063488e-02
-6.239096692395987298e-02
-6.310875997908728385e-02
-6.378395854542590060e-02
-6.441595677115238838e-02
-6.500425612881607917e-02
-6.554847302271411824e-02
-6.604834502936823837e-02
-6.650373578285460885e-02
-6.691463838466508995e-02
-6.728117727397592285e-02
-6.760360861980299618e-02
-6.788231909560214772e-02
-6.811782318488322774e-02
-6.831075899537819573e-02
-6.846188266968680769e-02
-6.857206147279421016e-02
-6.864226563413733384e-02
-6.867355912951834951e-02
-6.866708949130277684e-02
-6.862407688190307053e-02
-6.854580250075613390e-02
-6.843359648191887912e-02
-6.828882555420437428e-02
-6.811288059726505750e-02
-6.790716429663125331e-02
-6.767307898424390622e-02
-6.741201491038928406e-02
-6.712533914778030797e-02
-6.681438517201067351e-02
-6.648044328861893448e-02
-6.612475200061973535e-02
-6.574849055497979100e-02
-6.535277257439854603e-02
-6.493864089247826377e-02
-6.450706366303461670e-02
-6.405893175780776050e-02
-6.359505743319814053e-02
-6.311617426309712453e-02
-6.262293828273403362e-02
-6.211593033533175517e-02
-6.159565947305239292e-02
-6.106256738344489204e-02
-6.051703374529393553e-02
-5.995938227919534597e-02
-5.938988755262845226e-02
-5.880878228585926376e-02
-5.821626501763398770e-02
-5.761250807361027043e-02
-5.699766560173859936e-02
-5.637188160408601600e-02
-5.573529784586986335e-02
-5.508806140728633727e-02
-5.443033190824356909e-02
-5.376228812325104661e-02
-5.308413408125823435e-02
-5.239610441251765088e-02
-5.169846894809361493e-02
-5.099153649537491173e-02
-5.027565773084664846e-02
-4.955122725791008542e-02
-4.881868466209443591e-02
-4.807851474462250529e-02
-4.733124693029863023e-02
-4.657745372653485788e-02
-4.581774852084719712e-02
-4.505278255754599503e-02
-4.428324130061225133e-02
-4.350984020297833654e-02
-4.273332003121625700e-02
-4.195444169547390967e-02
-4.117398083240444290e-02
-4.039272217300301365e-02
-3.961145386438925942e-02
-3.883096167962964140e-02
-3.805202339231256170e-02
-3.727540327718467661e-02
-3.650184682998217772e-02
-3.573207585845522560e-02
-3.496678403823665765e-02
-3.420663274389194874e-02
-3.345224748454452696e-02
-3.270421487974577851e-02
-3.196308015905392069e-02
-3.122934527852912895e-02
-3.050346757795633842e-02
-2.978585898880084862e-02
-2.907688585630573141e-02
-2.837686924588516540e-02
-2.768608582442258492e-02
-2.700476912017720638e-02
-2.633311123010113886e-02
-2.567126491735834820e-02
-2.501934597362684767e-02
-2.437743591730435339e-02
-2.374558484864098054e-02
-2.312381441071108268e-02
-2.251212088147461904e-02
-2.191047829246665912e-02
-2.131884152843901981e-02
-2.073714933404862196e-02
-2.016532730290442749e-02
-1.960329055944436127e-02
-1.905094641351628287e-02
-1.850819671387467918e-02
-1.797494002475714947e-02
-1.745107357872140857e-02
-1.693649498042997664e-02
-1.643110360382653984e-02
-1.593480180567156956e-02
-1.544749583397803452e-02
-1.496909663245480325e-02
-1.449952034714090468e-02
-1.403868869924241973e-02
-1.358652913272840115e-02
-1.314297483024983761e-02
-1.270796466983968066e-02
-1.228144299837759072e-02
-1.186335938119106870e-02
-1.145366826103443904e-02
-1.105232856939256450e-02
-1.065930332659622420e-02
-1.027455923637217612e-02
-9.898066259820261295e-03
-9.529797116887523539e-03
-9.169726884512782034e-03
-8.817832510232331486e-03
-8.474092376829568327e-03
-8.138485800470052212e-03
-7.810992491329033990e-03
-7.491591986368561183e-03
-7.180262984322452295e-03
-6.876982677037912946e-03
-6.581725943776587338e-03
-6.294464390129125668e-03
-6.015165410697122413e-03
-5.743791066516856086e-03
-5.480296776542227175e-03
-5.224629922752786239e-03
-4.976728339527812690e-03
-4.736518699564233256e-03
-4.503914725035755746e-03
-4.278815393937221434e-03
-4.061102998316770858e-03
-3.850641277873095760e-03
-3.647273387454526717e-03
-3.450819979861481819e-03
-3.261077380573047715e-03
-3.077815841567654344e-03
-2.900777994950903566e-03
-2.729677496951729999e-03
-2.564197955757548456e-03
-2.403992194877286378e-03
-2.248681813778284112e-03
-2.097857207884427835e-03
-1.951078030764422447e-03
-1.807874199808317140e-03
-1.667747350800273184e-03
-1.530172935521015689e-03
-1.394602743291834543e-03
-1.260468093872722795e-03
-1.127183582660684158e-03
-9.941513453917126021e-04
-8.607659337234249567e-04
-7.264196091528822823e-04
-5.905080687230760631e-04
-4.524365918072736675e-04
-3.116265527579895143e-04
-1.675220951378801582e-04
-1.959706588782070079e-05
1.326381221382764075e-04
2.896295758113483242e-04
4.517731555533185299e-04
6.194079649485080205e-04
7.928102570824347882e-04
9.721877307095902823e-04
1.157674418902045893e-03
1.349326336016336367e-03
1.547117847499369491e-03
1.750938932345421414e-03
1.960593364841877254e-03
2.175797996189786625e-03
2.396183013116104203e-03
2.621293349282922697e-03
2.850591300262079065e-03
3.083460209408597340e-03
3.319209334351772445e-03
3.557079760439135589e-03
3.796251501916187050e-03
4.035851519148294687e-03
4.274962659241194826e-03
4.512633428079849615e-03
4.747888466968781807e-03
4.979739614318143617e-03
5.207197452400627591e-03
5.429283058351496404e-03
5.645039945707815143e-03
5.853545873373863610e-03
6.053924578188123705e-03
6.245357012735946838e-03
6.427092117665194997e-03
6.598456757559282605e-03
6.758864889851169157e-03
6.907825698734228713e-03
7.044950479344446424e-03
7.169958321629399042e-03
7.282680381047385194e-03
7.383062690039098909e-03
7.471167422019008193e-03
7.547172593267342799e-03
7.611370108507835644e-03
7.664162234763178053e-03
7.706056606275843088e-03
7.737659644762496895e-03
7.759668555348240432e-03
7.772861983513164839e-03
7.778089538300448670e-03
7.776260163531343098e-03
7.768329657411220113e-03
7.755287457616913578e-03
7.738142950278563241e-03
7.717911433272332984e-03
7.695599933815723548e-03
7.672193148330973267e-03
7.648639666778015225e-03
7.625838755028335227e-03
7.604627860271732410e-03
7.585771024482873895e-03
7.569948429272582713e-03
7.557747208725600248e-03
7.549653698804161157e-03
7.546047212411912015e-03
7.547195540251412649e-03
7.553252161992817480e-03
7.564255241249358795e-03
7.580128446914313062e-03
7.600683572678238603e-03
7.625624974219128230e-03
7.654555675997495347e-03
7.686985174096274201e-03
7.722338716006454246e-03
7.759967959892601595e-03
7.799162828869501789e-03
7.839164386703317833e-03
7.879178526556169029e-03
7.918390302393931920e-03
7.955978606683806326e-03
7.991130938908108314e-03
8.023058133374271275e-03
8.051008715488736089e-03
8.074282596050899943e-03
8.092244109134257360e-03
8.104333890897071416e-03
8.110079535053804287e-03
8.109104882348158738e-03
8.101137702362022283e-03
8.086015614790506914e-03
8.063690230210451490e-03
8.034229354878383994e-03
7.997817204303358032e-03
7.954752674768632292e-03
7.905445589555295735e-03
7.850411067415342253e-03
7.790262060885158948e-03
7.725700008845989321e-03
7.657504020046962227e-03
7.586518507922316613e-03
7.513639621790737730e-03
7.439800597629699086e-03
7.365956283644268555e-03
7.293067083085642832e-03
7.222082574919334690e-03
7.153925066313331776e-03
7.089473339215613713e-03
7.029546850226196970e-03
6.974890672268490091e-03
6.926161448220512912e-03
6.883914419728879783e-03
6.848592041383003495e-03
6.820514170535800502e-03
6.799870044929667151e-03
6.786712151190511799e-03
6.780952240914339506e-03
6.782359459424581669e-03
6.790560694287402048e-03
6.805043063060630705e-03
6.825158723502423343e-03
6.850131784359532808e-03
6.879067270634940667e-03
6.910962072481783257e-03
6.944717629287939023e-03
6.979154259585480281e-03
7.013026945450279159e-03
7.045042252487642397e-03
7.073876226774508669e-03
7.098192989167352758e-03
7.116663719208030439e-03
7.127985743812853200e-03
7.130901476769116627e-03
7.124216923337900118e-03
7.106819439328210426e-03
7.077694482500232302e-03
7.035941155668089080e-03
6.980786285759691193e-03
6.911596717994903001e-03
6.827889792435605162e-03
6.729341781955230396e-03
6.615794050642513982e-03
6.487257024270188036e-03
6.343911813914390567e-03
6.186109448914971568e-03
6.014367728959123596e-03
5.829365774895923884e-03
5.631936312514603318e-03
5.423055821893871947e-03
5.203832733438220129e-03
4.975493751525955285e-03
4.739368571819377318e-03
4.496873194393554395e-03
4.249492093159768641e-03
3.998759476898254561e-03
3.746239938027905083e-03
3.493508738243779679e-03
3.242132036764741425e-03
2.993647335146512427e-03
2.749544492768997515e-03
2.511247495711738022e-03
2.280097178984627059e-03
2.057335285424001254e-03
1.844089997395283263e-03
1.641363190396685464e-03
1.450019531290313050e-03
1.270777610029863924e-03
1.104203186038547413e-03
9.507045576373049540e-04
8.105302348139911206e-04
6.837688813534102466e-04
5.703514231109702796e-04
4.700553718659077887e-04
3.825111756458076154e-04
3.072105912382688277e-04
2.435168094634266981e-04
1.906763162421335563e-04
1.478321037884171546e-04
1.140381461445007791e-04
8.827488268541506449e-05
6.946543931005568601e-05
5.649233543724820273e-05
4.821446593625256221e-05
4.348404402994981727e-05
4.116327240694506970e-05
4.014052010742299623e-05
3.934571853422114650e-05
3.776475586889279230e-05
3.445275491882879889e-05
2.854592258481458683e-05
1.927190501634954643e-05
5.958486319866380690e-06
-1.195948281836032162e-05
-3.493500721662819777e-05
-6.330573610064718344e-05
-9.729266485744789421e-05
-1.370007564559903455e-04
-1.824213734060640925e-04
-2.334365547632680986e-04
-2.898249406323322197e-04
-3.512692553932570804e-04
-4.173652252594706896e-04
-4.876317319316564856e-04
-5.615220889245099625e-04
-6.384360983927655445e-04
-7.177328679093962667e-04
-7.987440217095244724e-04
-8.807872174447915108e-04
-9.631795952846612880e-04
-1.045251058824920925e-03
-1.126357153475888821e-03
-1.205891353883194617e-03
-1.283296508731401799e-03
-1.358075322428349899e-03
-1.429799712646826143e-03
-1.498118891503462304e-03
-1.562766073785007773e-03
-1.623563721292123211e-03
-1.680427275692492886e-03
-1.733367251359499818e-03
-1.782489805183088555e-03
-1.827995693976444463e-03
-1.870177682827306410e-03
-1.909416479812779720e-03
-1.946175256179360135e-03
-1.980992849490865234e-03
-2.014475804191054840e-03
-2.047289342480526457e-03
-2.080147449655827402e-03
-2.113802175540410028e-03
-2.149032352814566563e-03
-2.186631993596526748e-03
-2.227398406950310480e-03
-2.272120299490766691e-03
-2.321566025993084589e-03
-2.376472140098304618e-03
-2.437532394484516734e-03
-2.505387377124633150e-03
-2.580614906893263349e-03
-2.663721315736600030e-03
-2.755133756628567847e-03
-2.855193551663524551e-03
-2.964150750312008302e-03
-3.082159876019697868e-03
-3.209276973228673054e-03
-3.345457851806427942e-03
-3.490557630478663236e-03
-3.644331544815457725e-03
-3.806436936139825228e-03
-3.976436366017389867e-03
-4.153801861505446343e-03
-4.337920079708951562e-03
-4.528098433831446827e-03
-4.723571998509876538e-03
-4.923511014664446947e-03
-5.127029009293501693e-03
-5.333191340637527013e-03
-5.541023996426228809e-03
-5.749522605109128569e-03
-5.957661499632195372e-03
-6.164402697136965592e-03
-6.368704722900346560e-03
-6.569531153457857514e-03
-6.765858778284192764e-03
-6.956685336098319961e-03
-7.141036699007606917e-03
-7.317973473569935189e-03
-7.486596991814324122e-03
-7.646054618125660250e-03
-7.795544400106367046e-03
-7.934319020045550730e-03
-8.061689058127631535e-03
-8.177025560934771814e-03
-8.279762007552695854e-03
-8.369395641707058978e-03
-8.445488260639545663e-03
-8.507666458709609025e-03
-8.555621431612318167e-03
-8.589108392708008285e-03
-8.607945584378476692e-03
-8.612013086480385313e-03
-8.601251366882511212e-03
-8.575659708943434573e-03
-8.535294507959539576e-03
-8.480267509059058462e-03
-8.410744073495421066e-03
-8.326941413974754680e-03
-8.229126943040633232e-03
-8.117616700325132328e-03
-7.992773818068153041e-03
-7.855007118415439568e-03
-7.704769833913774173e-03
-7.542558376325099977e-03
-7.368911212906543648e-03
-7.184407744352786299e-03
-6.989667225110168976e-03
-6.785347616475118082e-03
-6.572144430810634812e-03
-6.350789362065166824e-03
-6.122048842744230029e-03
-5.886722378231389399e-03
-5.645640643504762010e-03
-5.399663269659260058e-03
-5.149676326283882458e-03
-4.896589409804244161e-03
-4.641332403541374545e-03
-4.384851831301774319e-03
-4.128106766763589563e-03
-3.872064304955510645e-03
-3.617694693954039056e-03
-3.365966073795037539e-03
-3.117838835989204891e-03
-2.874259749208793631e-03
-2.636155674363588244e-03
-2.404427161956891688e-03
-2.179941929320460773e-03
-1.963528227532418229e-03
-1.755968260233943447e-03
-1.557991769300378282e-03
-1.370269672513133421e-03
-1.193408079813357498e-03
-1.027942720071668530e-03
-8.743338091032124134e-04
-7.329615243089216553e-04
-6.041221467642147276e-04
-4.880249085893328281e-04
-3.847897286080328668e-04
-2.944457768928266045e-04
-2.169310226339042321e-04
-1.520926871037182621e-04
-9.968879353348294027e-05
-5.939070421544816105e-05
-3.078669418233249326e-05
-1.338656616905457801e-05
-6.627197333866736851e-06
-9.879068619078064018e-06
-2.245364589552206429e-05
-4.361154678935076921e-05
-7.257143720065280376e-05
-1.085195330849958467e-04
-1.506195498042440454e-04
-1.980230206548678964e-04
-2.498798629174693565e-04
-3.053490157629293799e-04
-3.636090063809136277e-04
-4.238683056070435113e-04
-4.853753045760336856e-04
-5.474278015395478035e-04
-6.093818004439012503e-04
-6.706595137239061786e-04
-7.307564966275768934e-04
-7.892476716151235151e-04
-8.457922403555861784e-04
-9.001373399159748887e-04
-9.521204082651948562e-04
-1.001670182069782939e-03
-1.048806262390713541e-03
-1.093637293110300956e-03
-1.136357704937786912e-03
-1.177243011663223898e-03
-1.216643847845776550e-03
-1.254978720773410267e-03
-1.292725521835411465e-03
-1.330412008208417454e-03
-1.368605263243019565e-03
-1.407900391834708033e-03
-1.448908510505630661e-03
-1.492244233570070612e-03
-1.538512898925588172e-03
-1.588297591821971654e-03
-1.642146241765931203e-03
-1.700559003277091197e-03
-1.763976057286591485e-03
-1.832766010450829217e-03
-1.907215173882010001e-03
-1.987517817796639278e-03
-2.073767541831494834e-03
-2.165949981742228657e-03
-2.263936992106022148e-03
-2.367482301488090315e-03
-2.476218898235286580e-03
-2.589658090544635048e-03
-2.707190376908395930e-03
-2.828088076839610065e-03
-2.951509763142225358e-03
-3.076506483523748937e-03
-3.202029684217191918e-03
-3.326940777769891045e-03
-3.450022212573971084e-03
-3.569990049095765096e-03
-3.685507718755031813e-03
-3.795200913180860666e-03
-3.897673413998870278e-03
-3.991523594503445030e-03
-4.075361478170178367e-03
-4.147826039535970274e-03
-4.207602644373175001e-03
-4.253440228878959013e-03
-4.284168119308543604e-03
-4.298712191456055542e-03
-4.296110190577667916e-03
-4.275525936032757886e-03
-4.236262294306306075e-03
-4.177772690415674020e-03
-4.099670960253504887e-03
-4.001739433804410613e-03
-3.883935125529348886e-03
-3.746393894134543955e-03
-3.589432486888813160e-03
-3.413548518082265212e-03
-3.219418266203478898e-03
-3.007892294997213580e-03
-2.779989040664493111e-03
-2.536886275684860272e-03
-2.279910608365288711e-03
-2.010525276777040508e-03
-1.730316174410689422e-03
-1.440976373774903669e-03
-1.144289314334784704e-03
-8.421109474598090401e-04
-5.363508656913847875e-04
-2.289528114806406987e-04
7.812522514320788453e-05
3.829310393238978538e-04
6.835382348377694837e-04
9.780658210818103659e-04
1.264697315878689915e-03
1.541699023975090250e-03
1.807437239677053440e-03
2.060394185723258068e-03
2.299182543249467421e-03
2.522558288794948724e-03
2.729431829970990417e-03
2.918877195447330906e-03
3.090139251870387387e-03
3.242638769499038651e-03
3.375975401517116239e-03
3.489928551436095351e-03
3.584455999837234119e-03
3.659690580038575062e-03
3.715934767826999628e-03
3.753653371325373685e-03
3.773464381055996898e-03
3.776128184638691612e-03
3.762535313154308052e-03
3.733692851249952732e-03
3.690709785521361416e-03
3.634781447850249630e-03
3.567173293040637634e-03
3.489204246644508293e-03
3.402229892173562996e-03
3.307625653726308998e-03
3.206770247572795444e-03
3.101029644915553191e-03
2.991741696488511848e-03
2.880201681004333422e-03
2.767648933504741112e-03
2.655254675938597316e-03
2.544111249790190644e-03
2.435222843297550621e-03
2.329497776576775793e-03
2.227742491313891918e-03
2.130657148721700096e-03
2.038833013834704094e-03
1.952751485009563293e-03
1.872784763781462072e-03
1.799198109849535184e-03
1.732153604403607623e-03
1.671715321137526560e-03
1.617855690334124791e-03
1.570463022497358601e-03
1.529349892969224982e-03
1.494262355739497863e-03
1.464889719896265248e-03
1.440874696232139840e-03
1.421823769764553541e-03
1.407317510900001067e-03
1.396920777512339513e-03
1.390192530797880422e-03
1.386695053881416544e-03
1.386002591743079127e-03
1.387709065716273560e-03
1.391434883858380135e-03
1.396832683001761896e-03
1.403591887809109472e-03
1.411442134456817807e-03
1.420155433612628861e-03
1.429547088036983065e-03
1.439475415689037618e-03
1.449840207374572792e-03
1.460580164985238313e-03
1.471669227649529755e-03
1.483112013992757879e-03
1.494938403015568310e-03
1.507197469088269364e-03
1.519950901411425050e-03
1.533266071884768246e-03
1.547208899087597778e-03
1.561836709709648946e-03
1.577191283211767546e-03
1.593292244583714018e-03
1.610130888953024237e-03
1.627664758886535881e-03
1.645813002019981715e-03
1.664452658716698234e-03
1.683415983485114700e-03
1.702488926447547199e-03
1.721410781576754095e-03
1.739875244167059286e-03
1.757532596211422915e-03
1.773993254206742646e-03
1.788832533823807389e-03
1.801596570508115502e-03
1.811809391714514069e-03
1.818981020272391952e-03
1.822616411673817424e-03
1.822225100121469942e-03
1.817331476726851292e-03
1.807485399246824788e-03
1.792273017816201682e-03
1.771327583166161035e-03
1.744340035339987053e-03
1.711069164394360062e-03
1.671351106152811324e-03
1.625108037994343240e-03
1.572355841404886627e-03
1.513210472433914981e-03
1.447893066538194452e-03
1.376733452794284265e-03
1.300172030291700618e-03
1.218759955271832805e-03
1.133157440999464464e-03
1.044130263216733450e-03
9.525443735965431801e-04
8.593587155167512707e-04
7.656162064019560697e-04
6.724331168513475584e-04
5.809867093426477952e-04
4.925015790711229817e-04
4.082346326428117761e-04
3.294590589564757059e-04
2.574474064130988704e-04
1.934540512634686708e-04
1.386972667860952944e-04
9.434120387069264981e-05
6.147803205006466579e-05
4.111055599622000912e-05
3.413550398511895552e-05
4.132781403684904952e-05
6.332616322357155025e-05
1.006199577813583946e-04
1.535380684659364990e-04
2.222394422589474522e-04
3.067058183478169726e-04
4.067367033646370313e-04
5.219466622511139938e-04
6.517650776841613005e-04
7.954383946262034424e-04
9.520348618046257493e-04
1.120451709025256214e-03
1.299424827292087244e-03
1.487540716355451823e-03
1.683250630585237740e-03
1.884886688256051874e-03
2.090679854192547659e-03
2.298779472021218913e-03
2.507274168901120395e-03
2.714213777812268628e-03
2.917632078755292516e-03
3.115569932846379460e-03
3.306098695543073160e-03
3.487343376157468408e-03
3.657505327119732908e-03
3.814884141916064127e-03
3.957898470641661552e-03
4.085105475475663515e-03
4.195218626585006660e-03
4.287123616086181525e-03
4.359892185412359705e-03
4.412793672148825237e-03
4.445304076514939098e-03
4.457112593288311761e-03
4.448125523132853698e-03
4.418467472917218114e-03
4.368479883953893354e-03
4.298716905185242902e-03
4.209938688491046167e-03
4.103102173569070539e-03
3.979349552702125467e-03
3.839994524102991261e-03
3.686506614588418336e-03
3.520493788261989075e-03
3.343683471720442727e-03
3.157902449832493928e-03
2.965055732097155328e-03
2.767104825386652520e-03
2.566045562794864402e-03
2.363885894760320554e-03
2.162623943500127655e-03
1.964226528754295029e-03
1.770608477344262546e-03
1.583612937649441898e-03
1.404993004299268187e-03
1.236394794626454732e-03
1.079342216467320910e-03
9.352234796416948517e-04
8.052796418271673676e-04
6.905951905924114387e-04
5.920906987839284850e-04
5.105176594476277347e-04
4.464554930224179288e-04
4.003106452028538389e-04
3.723177349706509017e-04
3.625427251889975968e-04
3.708879591501347789e-04
3.970988866250277079e-04
4.407723643036823009e-04
5.013664240671171935e-04
5.782112274855425805e-04
6.705210196875863995e-04
7.774069462056696061e-04
8.978904657776026147e-04
1.030917177220293029e-03
1.175370782078836388e-03
1.330087153016098252e-03
1.493868184366418375e-03
1.665495245894498899e-03
1.843742137875725587e-03
2.027387411719522043e-03
2.215225800101949891e-03
2.406078817837761785e-03
2.598804377021954153e-03
2.792305338651791206e-03
2.985536898221874055e-03
3.177512889208741319e-03
3.367310915626697387e-03
3.554076450327234033e-03
3.737025717989781934e-03
3.915447581967873916e-03
4.088704448371587551e-03
4.256232169411454033e-03
4.417539206403212071e-03
4.572204931113978306e-03
4.719877339590792045e-03
4.860270172678462543e-03
4.993159547116558274e-03
5.118380279331164601e-03
5.235821824631523534e-03
5.345424103720153655e-03
5.447173188866786392e-03
5.541096986387477469e-03
5.627260915601775201e-03
5.705763697811028559e-03
5.776733299429404923e-03
5.840323023081862505e-03
5.896707818406407044e-03
5.946080808062335216e-03
5.988650085627038322e-03
6.024635690113321930e-03
6.054266901402759714e-03
6.077779656635527369e-03
6.095414254515251276e-03
6.107413209985190598e-03
6.114019267778107031e-03
6.115473575928145195e-03
6.112013941522249395e-03
6.103873233484171344e-03
6.091277802525114915e-03
6.074445976534443951e-03
6.053586585431589180e-03
6.028897568894032652e-03
6.000564596971851190e-03
5.968759692540231455e-03
5.933639960221254173e-03
5.895346304798823427e-03
5.854002254264032215e-03
5.809712868336165854e-03
5.762563805837942442e-03
5.712620510226101671e-03
5.659927576130022522e-03
5.604508342148738394e-03
5.546364683991062382e-03
5.485477111446294789e-03
5.421805154942026250e-03
5.355288021363397745e-03
5.285845672611129073e-03
5.213380131932051319e-03
5.137777187976109994e-03
5.058908465919645728e-03
4.976633717030636526e-03
4.890803491151445893e-03
4.801262084067002209e-03
4.707850677472510785e-03
4.610410725143281041e-03
4.508787467415873579e-03
4.402833498282940176e-03
4.292412388837422120e-03
4.177402303511002120e-03
4.057699396027853421e-03
3.933221142828018276e-03
3.803909387198849221e-03
3.669733055071467461e-03
3.530690492615029454e-03
3.386811384866858423e-03
3.238158219690057474e-03
3.084827176598771252e-03
2.926948436110853556e-03
2.764685962734090164e-03
2.598236623643607104e-03
2.427828707077152835e-03
2.253719864608339733e-03
2.076194422026581173e-03
1.895560222046402659e-03
1.712144808771373520e-03
1.526291265072436589e-03
1.338353605667304529e-03
1.148691821438079744e-03
9.576666876721010415e-04
7.656343565079361908e-04
5.729408415058935859e-04
3.799165255779878687e-04
1.868706688389440592e-04
-5.913907314792727434e-06
-1.981859483617709233e-04
-3.897305985310239211e-04
-5.803738353457458306e-04
-7.699865428831957105e-04
-9.584880736417405621e-04
-1.145849338390926174e-03
-1.332095316626111768e-03
-1.517307122166735786e-03
-1.701623456493539131e-03
-1.885241467645784033e-03
-2.068417103207903941e-03
-2.251464941621553629e-03
-2.434757493282376818e-03
-2.618724047294232124e-03
-2.803849089044935673e-03
-2.990670402099452653e-03
-3.179776695773632329e-03
-3.371805002560382750e-03
-3.567437848555299502e-03
-3.767400098735745016e-03
-3.972455644114149774e-03
-4.183403934820919060e-03
-4.401076317487034352e-03
-4.626332186580082474e-03
-4.860055017019803379e-03
-5.103148161335359194e-03
-5.356530438387095694e-03
-5.621131524733814257e-03
-5.897886993506776601e-03
-6.187733039724110234e-03
-6.491600807343506432e-03
-6.810410315720908866e-03
-7.145063824022852665e-03
-7.496438668829034056e-03
-7.865379468426747511e-03
-8.252689707474159669e-03
-8.659122624307218768e-03
-9.085371435847236846e-03
-9.532058868164510271e-03
-9.999725965288912277e-03
-1.048882031866716150e-02
-1.099968375974817898e-02
-1.153253954837629713e-02
-1.208747920861136770e-02
-1.266444925983484411e-02
-1.326323791866206026e-02
-1.388346192198551890e-02
-1.452455376912907548e-02
-1.518574967756162845e-02
-1.586607842718452607e-02
-1.656435140136451947e-02
-1.727915411093891226e-02
-1.800883956984678305e-02
-1.875152361671659010e-02
-1.950508269779429107e-02
-2.026715422244966883e-02
-2.103513976452705755e-02
-2.180621140871214642e-02
-2.257732136426627428e-02
-2.334521490219309756e-02
-2.410644693896830254e-02
-2.485740205642951450e-02
-2.559431811300355575e-02
-2.631331325355554251e-02
-2.701041631697896975e-02
-2.768160030153023199e-02
-2.832281866015617239e-02
-2.893004405356937314e-02
-2.949930922776904108e-02
-3.002674943532841756e-02
-3.050864598135295119e-02
-3.094147026279519749e-02
-3.132192770057013603e-02
-3.164700085271740515e-02
-3.191399106890414200e-02
-3.212055805951292281e-02
-3.226475652067150451e-02
-3.234506929663524127e-02
-3.236043636052818306e-02
-3.231027897883444189e-02
-3.219451848044672243e-02
-3.201358914040076248e-02
-3.176844477136903100e-02
-3.146055858388297627e-02
-3.109191610164891914e-02
-3.066500100861347874e-02
-3.018277391446484367e-02
-2.964864403687536565e-02
-2.906643404390232138e-02
-2.844033838741033549e-02
-2.777487552144869420e-02
-2.707483464891461897e-02
-2.634521760392967080e-02
-2.559117673707341639e-02
-2.481794957693206696e-02
-2.403079124025837496e-02
-2.323490569816930029e-02
-2.243537693462119981e-02
-2.163710110333277176e-02
-2.084472081556824202e-02
-2.006256266337722374e-02
-1.929457919671091412e-02
-1.854429625316013006e-02
-1.781476675894093364e-02
-1.710853182189029861e-02
-1.642758998156005137e-02
-1.577337531006679089e-02
-1.514674482611729975e-02
-1.454797567891340758e-02
-1.397677228160811719e-02
-1.343228347480694349e-02
-1.291312960118025377e-02
-1.241743911072360623e-02
-1.194289431022385085e-02
-1.148678548664486439e-02
-1.104607262112486735e-02
-1.061745366393673957e-02
-1.019743826633930268e-02
-9.782425635615672049e-03
-9.368785178677905071e-03
-8.952938483676502190e-03
-8.531441055819653438e-03
-8.101062287600551901e-03
-7.658862180753778053e-03
-7.202263138916933927e-03
-6.729115453324689342e-03
-6.237755074726527259e-03
-5.727052459776207395e-03
-5.196451167551083619e-03
-4.645995444056265702e-03
-4.076345901038317190e-03
-3.488782736401281268e-03
-2.885196175456551659e-03
-2.268064027694037359e-03
-1.640416412183416965e-03
-1.005788211391827952e-03
-3.681596474545503783e-04
2.681139467839101687e-04
8.983821166388177232e-04
1.517787703776254981e-03
2.121362174938702747e-03
2.704126155100819179e-03
3.261193325503496457e-03
3.787875771496940561e-03
4.279788641415698848e-03
4.732952210800790357e-03
5.143889101248307061e-03
5.509714727543232882e-03
5.828218976976181839e-03
6.097937270872716940e-03
6.318209307235742901e-03
6.489224143357999117e-03
6.612050114711214878e-03
6.688648742002378973e-03
6.721871859721421580e-03
6.715441567127211457e-03
6.673912917459236781e-03
6.602619446464980113e-03
6.507602331950607111e-03
6.395523891181456935e-03
6.273566804789619013e-03
6.149320473091944746e-03
6.030656377162219549e-03
5.925594515063073962e-03
5.842163213924606371e-03
5.788254866379648200e-03
5.771480176604878130e-03
5.799023664892677746e-03
5.877503228384064332e-03
