7.182689009842108379e-04
-1.430758852239796168e-03
5.494420935843742203e-04
2.876138400393173349e-03
3.582095371647379522e-03
2.361376574375973533e-03
-1.933529884594303698e-04
-9.103654283399628937e-04
-4.441298476541459062e-04
-1.897629466744209974e-03
-1.662276801877874072e-03
-7.047001508066151870e-04
-1.358198874476042057e-03
-1.978789049446438592e-03
-1.471611869644010560e-04
6.188125287426282910e-04
6.301185327725484500e-04
1.890017906065838155e-03
1.226683605070920348e-03
6.679033265323368329e-04
-3.725900150058785880e-05
-1.436608724277202041e-03
-2.240726078081553985e-03
-1.766992660900318628e-03
-1.926445027801341895e-03
-6.662995900213789478e-04
9.123174080870759858e-05
-5.200279789075700756e-04
1.195259749966798247e-03
5.708794021244783384e-03
5.536663856901393420e-03
2.481936219448907521e-03
1.228283408224316265e-03
4.942932546739739995e-04
-7.043654885058515296e-04
-3.047950002210341076e-03
-5.684898871591389201e-03
-4.852353312645565041e-03
-2.111339315293568001e-03
1.301430115590095993e-03
6.590486094957420399e-04
-5.081897780781990210e-04
7.335677552769084711e-04
1.071233069823656616e-03
-2.106164349036071363e-04
-1.845896797039759145e-03
-8.979245842637489580e-04
1.589552732760280340e-03
2.724158600708705830e-03
1.118674056191703041e-03
1.924999613137978694e-03
2.949270320242048955e-03
3.657397408464841543e-03
4.264637315823516586e-03
2.538346384335174281e-03
-1.615796108857705474e-03
-5.991953917468215499e-03
-6.227897296472200556e-03
-4.953046909354446789e-03
-5.222584884753001498e-03
-3.802252930063596773e-03
2.846238875778958535e-04
2.547593322106040965e-03
2.939750147310601306e-03
3.712634972202353591e-03
3.608750442824486260e-03
7.522384226773153656e-04
-1.712536190850953060e-03
-8.144222408071170611e-04
1.510740431040521201e-03
1.928050974471864909e-03
3.485936615777760622e-03
4.021886606278565236e-03
1.965117941638330409e-03
-3.005484394837617569e-04
-1.465086529984010446e-03
-4.031593299191009623e-03
-5.764817839043918750e-03
-5.484608715576192242e-03
-5.504851423126059205e-03
-5.682914632277065621e-03
-9.814130750769938741e-04
5.251244788305826396e-03
8.903649441555944177e-03
9.062196347718773706e-03
4.649107609022907171e-03
6.758826606619529245e-04
-1.217040648129968277e-03
-2.757648584486103310e-03
-2.781755776545954181e-03
-1.652564981723077427e-03
-2.170533422988164991e-03
-1.938804876630616540e-03
-1.446126466623390587e-03
2.086931788236750542e-04
2.572088018172436798e-03
2.158075737570786749e-03
1.603450429366452303e-03
1.579813080664879080e-03
-4.286386040196390589e-04
-4.176514329213828168e-03
-6.508064418108574709e-03
-7.007738818920692010e-03
-4.802191003694730211e-03
5.164848268540877998e-04
7.203875438095966831e-03
1.364407056360102642e-02
1.346062021852871896e-02
3.905592627713254470e-03
-6.968523423493047826e-03
-1.174933870228146195e-02
-6.710421582245687695e-03
1.024051416954273623e-03
3.099387844962152219e-03
3.059577357877632433e-03
2.467965413494773060e-03
1.501265382365244338e-04
-2.612673887382161927e-03
-2.383687456941617142e-03
9.403108903837380673e-04
2.300988359648579052e-03
3.301732133351484408e-04
-2.802705149930821617e-03
-3.070832937903145241e-03
-4.054188550474372051e-03
-7.484947643601335028e-03
-8.220030568678590027e-03
-1.117230099395672338e-03
1.101965544853649587e-02
1.666775783572569530e-02
1.205656674649284790e-02
2.231506047244936983e-03
-2.913573643618664038e-03
-3.280893268437842705e-03
-5.204690266703303203e-03
-7.099060480623131490e-03
-4.941862950693662673e-03
-1.268898983788940360e-03
1.394458365665943817e-03
2.522395570420763334e-03
2.524609684790827049e-03
2.596717823810166907e-03
2.586284305483678176e-03
1.910032990302075462e-03
-1.399250561115765120e-04
-2.870091173082998416e-03
-5.560171623162597082e-03
-5.940508938924472619e-03
-5.233317250359027263e-03
-3.583661665415145432e-03
-2.206928211753489237e-03
-4.511299182127458243e-05
3.930243688441039350e-03
4.906134025779273176e-03
3.202945382753085313e-03
4.419241799223572707e-03
8.290010147221815034e-03
9.300087678203207420e-03
8.748077468155403269e-03
9.879307458196224384e-03
6.920759002381394846e-03
-2.076450195896242454e-03
-1.292178586872587409e-02
-1.831239436168903903e-02
-1.971554715117061415e-02
-2.140667659571287088e-02
-1.688852436954215580e-02
-6.907101040256410744e-03
4.495064089338808057e-03
1.742812479568463593e-02
2.544323030142646436e-02
2.359084729823257912e-02
1.465389829174617610e-02
4.708472202029557151e-03
-1.763463414157962319e-03
-5.989396828863115425e-03
-9.249049866648775819e-03
-1.026472948499875838e-02
-6.557560656605630582e-03
-3.128876127789295258e-03
-1.460349494359932223e-03
-8.772268139361834739e-04
-1.441194119802950572e-03
-1.811454077854877378e-03
9.073523009823566011e-04
2.311907491996608149e-03
7.659289932391837464e-04
1.361147747641307205e-03
1.872398786360531973e-03
1.753569582682856136e-03
4.529522864166861135e-04
-6.084130930599678574e-04
2.805617065656390314e-04
2.351066610786467753e-04
-9.031376799080899354e-04
-1.482472350749135552e-03
-1.092612248832278317e-03
4.707838803942488451e-05
1.547969827509520493e-03
5.602730523034288833e-03
9.208874815160696461e-03
6.617348682805466141e-03
4.801012672424412060e-04
-5.312050942951572312e-03
-8.672012003999049132e-03
-1.052980428739935109e-02
-1.208211350848886929e-02
-1.021539608098215139e-02
-4.072974365671181741e-03
1.577619506757500052e-03
9.148443870604568498e-03
1.814574787186544816e-02
1.859554200895755308e-02
7.513590232209950599e-03
-3.622269281373534291e-03
-8.707844579997738380e-03
-6.702459558601924286e-03
-2.842047352452418268e-03
-2.069256551129017210e-03
-1.700903876133181116e-03
-1.186367451927901372e-03
-1.182192231403121505e-04
1.161506417357917624e-03
3.430880797601547176e-04
-1.356712207761966854e-03
-1.178593963885844536e-03
-1.627410261488247158e-04
9.686389904463610671e-04
5.874540919010062855e-04
1.038904829498369948e-03
-3.650350261063311716e-04
-5.156595139630653756e-04
1.706959363670890141e-03
2.226508714396286791e-03
-1.449936864086757472e-04
-1.878133396642196881e-03
8.451186836274129607e-05
-6.485324846432288456e-05
-2.046110780077997279e-03
-1.780189344644495615e-03
6.620772118440209871e-05
6.752050463984461855e-04
4.195339395980152066e-04
3.474943967148128379e-03
4.853441181045130282e-03
4.293376625934571325e-03
2.145611700777338895e-03
1.437356962104463412e-04
-2.555246716293693796e-03
-5.090638270451888076e-03
-4.891416575741194296e-03
-4.996016779810082652e-03
-5.658557085748849684e-03
-2.367179969255222161e-03
2.248711235297407452e-03
1.919677669507593087e-03
7.639622194892772052e-04
9.164617973174752057e-04
1.144036738490015635e-03
1.717893288957410584e-03
2.116147178741387656e-03
3.611731662694127841e-03
4.844372200785402628e-03
6.703918425913486454e-03
4.399906192332446279e-03
-7.816781131706137826e-04
-2.536337916112143230e-03
-4.788108336837760930e-03
-5.350712152479372534e-03
-5.072119359500399868e-03
-4.927108418841189517e-03
-2.655355418509038491e-03
-1.610233076210943999e-03
-5.377242665577655015e-04
1.687930415542817416e-03
2.699528685269745546e-03
1.968298514913249895e-03
1.099433074776456866e-03
1.607492723283852540e-04
5.737430082940803058e-04
8.346805657789486185e-04
6.301185555867155636e-04
2.818630591127550475e-03
4.581498369356377769e-03
5.818702543992004469e-03
3.662270760947813897e-03
-1.563720567358720332e-03
-4.043347622221753375e-03
-2.832931323255697287e-03
-1.544276512628553347e-03
-1.468126191658504541e-03
-4.007994290237904857e-03
-5.793082580748423922e-03
-4.781363067265060988e-03
-3.772748477401545193e-03
-3.550247104275954923e-03
-2.128041117947397729e-03
1.267795742373940262e-03
6.032240113880404583e-03
1.077780473697611228e-02
1.179710319630605103e-02
6.106838228492919747e-03
-7.732689798209274341e-04
-2.905808359206857143e-03
-4.908380024283738596e-04
1.434244297969326776e-04
-1.698954261132802146e-03
-2.900947484627345273e-03
-3.235378014551184168e-03
-4.897872594386141164e-03
-5.023477612247311160e-03
-3.007669542683460377e-03
-2.016590284644210346e-04
-1.442365623314523617e-03
-2.700070062898152993e-03
-1.921870804441068014e-03
1.109685729051516868e-03
4.612411882264992255e-03
6.777376944217552122e-03
6.675830410221098195e-03
3.948688104268922167e-03
-5.844213114623629610e-04
-2.175563655319254306e-03
2.670657023406763399e-03
5.984484931381758160e-03
4.061297199442701240e-03
1.749946206543568543e-03
-1.110556456955911868e-03
-2.807783973240900958e-03
-5.844427454252887170e-03
-8.534545991274839274e-03
-9.422429261785360277e-03
-9.419209102925622454e-03
-1.120023648581611880e-02
-1.189596508453617633e-02
-6.012725892521962601e-03
7.369387005777956919e-03
2.029595482598621145e-02
2.323600482061909112e-02
1.665751261526172630e-02
1.040409753210148197e-02
3.245118488521329687e-03
-3.689935622966348302e-03
-5.980999092726735876e-03
-5.814971007342089986e-03
-5.095767251652556611e-03
-5.726043332473154147e-03
-8.212973017550390109e-03
-9.515566136547993006e-03
-8.374629176027475336e-03
-4.698319157333717515e-03
-2.226789607878028446e-05
3.245372050622012932e-03
5.321315451611990932e-03
5.980977007888950946e-03
3.780797673284857791e-03
2.453624381847294405e-03
3.573964602197795323e-03
4.414934636832781520e-03
4.201751462759959789e-03
2.892752614871220082e-03
1.948147585094786973e-03
3.881533153229140259e-03
2.506030265635509485e-03
-2.099170052790578795e-03
-9.527226740611027117e-03
-1.537124620400227848e-02
-1.381196913881904860e-02
-8.450579379883421324e-03
-3.311061110576159466e-03
-1.477460685601577348e-03
4.809789356981258868e-03
1.872630757263875692e-02
2.420022201885452598e-02
1.351914821582290115e-02
-1.536816484446594912e-03
-9.836546095814897514e-03
-1.020034853229851053e-02
-5.592752140909994923e-03
-2.806993744458606121e-03
-2.231472734408988887e-03
2.006624808400101021e-03
5.874333638506918157e-03
2.457544417467540012e-03
-2.928920739180002585e-03
-5.861795264203672334e-03
-7.539580929617359373e-03
-5.629635731935316197e-03
-1.902427971305587330e-03
1.881269651885045377e-03
7.318827978921698882e-03
8.523297430537674080e-03
5.238314211991225780e-03
2.374869348842198555e-03
1.158584847461577088e-03
9.610816157877477475e-04
-8.497462510295202692e-04
-3.717055145490835450e-03
-5.720486393898528699e-03
-5.248992640972393285e-03
-3.437351875006814782e-03
-1.952039297435182255e-04
4.422057590727962277e-03
7.162959427113433156e-03
5.090464840071974931e-03
1.381366127463977281e-03
-2.912135330973251567e-03
-5.351490833585840524e-03
-6.383266619807376717e-03
-4.303770253946526299e-03
9.237484842559573613e-06
3.551289938370363192e-03
2.560296259755129832e-03
-4.692004771111376194e-04
9.204934953044839347e-04
3.871142214134483742e-03
3.682647382133290986e-03
6.782659383330004368e-04
1.120524666272918910e-03
8.862258630363322115e-04
-1.102715170560557420e-03
-2.570303903106716924e-03
-3.986107489242604780e-03
-3.373913782028846280e-03
-1.649975621319736902e-03
2.771843319760546997e-04
1.048711026292294861e-03
2.668716467367015979e-03
2.414996170401352733e-03
-1.059916788680335389e-03
-1.932904905254007434e-03
7.329411504285140207e-04
8.702685436924821724e-05
-3.526322761457661601e-04
4.817244300387273363e-04
-3.192866287373169899e-04
1.648888178832728186e-03
3.151401388699086228e-03
2.165153559545044803e-03
-5.934972955302974043e-04
-2.734372595500028733e-03
-2.326862330567432222e-03
-2.016974334155439801e-03
-1.548080099682925615e-03
4.098762080276781902e-04
1.531354941814901203e-03
1.634239887746464668e-03
1.459503172783110318e-03
1.603355180656266090e-03
-2.290515098532883858e-04
-2.051687463700606080e-03
-3.395787101992385829e-03
-2.258179375803382686e-03
1.236082470677694412e-03
2.849115973007659407e-03
1.248001432184919898e-03
9.026629961591022943e-04
3.234673998857898712e-03
2.649177586440302091e-03
-2.326744065258348152e-03
-4.924730526964044008e-03
-4.479308717760956127e-03
-2.767479256080836430e-03
-1.417496913362218834e-03
-8.446128671628901161e-04
-1.018628864780301343e-03
1.583094724601691967e-03
5.121420162139228918e-03
6.817888582825313432e-03
6.311430499046521807e-03
3.982669330013476928e-03
4.011668974152980856e-03
3.400526175532702592e-03
5.293236064224135333e-04
-4.374253959792394689e-03
-9.834243481194800476e-03
-1.433872634261830828e-02
-1.389440419114235103e-02
-1.042050996908605066e-02
-4.279547580862469967e-03
5.252150780837698887e-03
1.203361821780212122e-02
1.494401644667722392e-02
1.405282705861891045e-02
9.541075915160393203e-03
4.138117416785820450e-03
-1.301562305696959314e-03
-4.738946719727459012e-03
-4.617053649368172384e-03
-4.424372849499406783e-03
-6.271681533613973625e-03
-5.996195806539798660e-03
-5.053178687344191296e-03
-2.116976421929823559e-03
9.707706598662162786e-04
2.251897373236897652e-03
4.105537937686132548e-04
-6.555620755067886971e-04
6.801312138574463432e-04
2.543887652044915341e-03
3.367911421919300621e-03
2.798217708048015163e-03
2.146027991772539532e-03
2.246820535624576877e-03
-8.150971234448919824e-04
-3.958682230424865646e-03
-2.752007359033808651e-03
-2.092671241672782421e-03
-1.252962575649769648e-03
6.285044830298851855e-04
1.649501702462259417e-03
1.571696338722538980e-03
2.434355928855128689e-03
3.676075279298018743e-03
4.429501058637774942e-03
3.528592789405198861e-03
7.376655299611027585e-04
-7.983800906923036117e-04
-3.090585662273119451e-03
-4.601615778990477898e-03
-7.413409940851912149e-03
-1.066590219276459042e-02
-1.162995566385257445e-02
-7.548375669125377031e-03
-1.143756109654493281e-03
5.924672847365110122e-03
1.243121419786809984e-02
1.405596965287934756e-02
1.023701286465264482e-02
7.824331983050264797e-03
8.414278769936486824e-03
6.830572894431887095e-03
-6.222411189734727236e-04
-8.205395171690854986e-03
-1.201584916585734727e-02
-1.286393103068290099e-02
-8.472490242624808321e-03
-3.075807171098771716e-03
-2.070809115134732755e-03
-1.486459238570352797e-03
1.484098123100701392e-03
4.355502913535904720e-03
3.458623498393798099e-03
1.251452886685259841e-03
-1.019062988907727023e-03
-1.041743440802868738e-03
8.844275226789104823e-04
1.382190936894668121e-03
4.364238346457584294e-03
9.126825295122717799e-03
1.126450440105075494e-02
8.624231605997166941e-03
-1.129164653820796541e-03
-1.287399669789100233e-02
-1.661508195586826331e-02
-1.212257154001333652e-02
-4.957940827137053384e-03
-5.203201400609286809e-04
1.750557584093249052e-03
2.876786170448181277e-03
5.251810674569977987e-03
8.056940205078143985e-03
1.107200693289277574e-02
1.345375822279474068e-02
8.398257997378146336e-03
-4.340094273725811184e-03
-1.431901767009922596e-02
-1.443568813490133697e-02
-9.767176763395647721e-03
-4.136050506204480733e-03
2.638767702428376511e-03
5.279873774176806027e-03
3.422127049697434604e-03
8.420107854056658753e-04
-1.112706298533741979e-03
-2.296182703249193463e-05
2.862081533297411700e-03
3.532011869280043612e-03
2.431966986531561281e-04
-4.503427589048870396e-03
-3.508723741118392834e-03
3.213112429753673793e-04
4.503742998414003197e-03
6.675347387192568684e-03
5.359914845098256476e-03
3.637541127287728746e-03
6.096801319637502881e-04
-8.065651697323517359e-04
-2.733822636018545024e-04
7.446830703248779725e-04
-1.158991016941977393e-03
-3.845959806054950140e-03
-7.103111885307301920e-03
-1.218373637282532153e-02
-1.647209357429907720e-02
-1.441100760010121870e-02
-7.591459066464861447e-03
1.784457155295431389e-03
1.392809991305483074e-02
2.472378284686380795e-02
2.707997369244241961e-02
1.686631248175746514e-02
3.744073819677346069e-03
-1.490608073760883072e-03
-3.062937157892906600e-03
-5.545441711242576031e-03
-6.656724945314294005e-03
-9.133245528620430320e-03
-1.307273423175464577e-02
-1.408166353896011386e-02
-1.043320196869731986e-02
-5.503875109785188839e-03
-2.284615994543659923e-03
3.931354147871540285e-03
8.288093945833340317e-03
8.552618853757349218e-03
6.160997215881014975e-03
4.519629921041024533e-03
4.716187875170157855e-03
4.287187166451762559e-03
4.078198638048108164e-03
3.818074988260446428e-03
1.970722668619727565e-03
1.613344496160485725e-05
-3.794192909898146029e-03
-8.168207709356362090e-03
-8.608050239532158768e-03
-5.944126677947636495e-03
-2.512606545985560710e-03
-1.083174429541277012e-03
6.345812055530781950e-04
3.427159864868657094e-03
4.588440196951721478e-03
1.727927072813850847e-03
-5.223374810557482924e-04
-7.379531063150715064e-04
5.123539584844314775e-04
-1.015295671981627422e-04
-1.656324146717116138e-03
1.060927999631635824e-04
2.858894884826364367e-03
2.115448684054263995e-03
2.675403015652415371e-03
5.506200448310482644e-03
3.019005347253839351e-03
-1.875782086855641351e-05
-2.343248137864779521e-03
-3.895640436600111226e-03
-3.829331061794159254e-03
-2.333517474330108407e-03
-2.306794772908936971e-03
-5.540852457718541645e-03
-6.771549556695346042e-03
-4.670862820331841102e-03
-1.245396122138010169e-03
3.645506843755982364e-03
8.157469759044695679e-03
1.089050635497299489e-02
8.590256312719172713e-03
3.923333033584715072e-03
4.392479116891174606e-04
-3.379336647357234370e-03
-5.414823989861948517e-03
-6.164583864462455133e-03
-4.003834922444959345e-03
9.068422850190873406e-05
1.172993581327681735e-03
-5.125041092859012899e-04
-1.381729321623278138e-04
2.401270426126409820e-03
3.100715442409690461e-03
1.932980976436081454e-03
7.134432989679407016e-04
-1.171890745584892087e-03
-3.714616185863290915e-03
-4.148551761736112009e-03
-2.902742789303030310e-03
-2.079118112477964467e-03
-1.947957846906475448e-03
-1.411790773527884981e-03
9.198100068551854367e-04
4.740189491316818514e-03
8.345658795344254588e-03
7.106751592050764010e-03
1.403003178658187742e-03
-4.741843978293594063e-04
1.816397956294198970e-03
1.896366083062834195e-03
1.072990495884118583e-04
-9.016385387890276781e-04
-1.959713489384881657e-03
-2.786289846344324004e-03
-4.271864374572022054e-03
-9.237339278417799893e-03
-1.419571660885754136e-02
-1.256360606751189164e-02
-5.965617789402573139e-03
2.309156502507780321e-03
1.171140365790641728e-02
1.769659112474349788e-02
1.842043526632966208e-02
1.381051757947524168e-02
6.018637788133597739e-03
-5.765798942988658877e-04
-6.073766492223641594e-03
-9.845816453643527547e-03
-9.759316559577227088e-03
-7.344920704381428626e-03
-6.561281832652292138e-03
-3.865243415974952811e-03
-1.065857293121510188e-04
3.136725290969283753e-03
2.946942229273619759e-03
1.013241826028104219e-03
5.737583046654377936e-04
1.830644970365518385e-03
1.484639548941988274e-03
2.043899093515531482e-04
-7.373493384615203029e-04
-1.148138962212561951e-03
-1.768089163790490534e-03
-3.060703886828690682e-04
4.743649627443081822e-03
6.319335621216290791e-03
4.052647793409977842e-03
1.068715732174666195e-03
-2.796627525891025486e-04
-8.206576412758455222e-05
-1.929177219225134158e-03
-2.985216217358733614e-03
-2.677155959001088683e-03
-2.841060186147725125e-03
-4.361749998215530902e-03
-5.341780165068549073e-03
-5.377647771871092372e-03
-6.787892802232156804e-03
-3.942501053345448016e-03
4.212159055563781049e-03
1.368215325668042069e-02
1.495596624006755027e-02
1.008516134780414013e-02
3.677040316256144446e-03
-1.529928888557313725e-03
-4.508321412682022265e-03
-5.170115411298961336e-03
-4.050980463559991640e-03
-3.825480332613136279e-03
-4.872648563671862047e-03
-5.421547814403696909e-03
-3.683427371931077918e-03
-4.447604127642862826e-04
1.846408446884922417e-03
3.654072480281055340e-03
3.466216293502524196e-03
2.672211028268666778e-03
4.184835293266134064e-03
3.434298707823080655e-03
5.737358137177558503e-04
-4.360782483055168895e-04
-9.802577470288686718e-04
-2.141324495144692180e-03
-3.017658346598021003e-03
-2.551747033117683552e-03
-9.014734785156260696e-04
4.081562513129257785e-04
-1.820580070982145537e-03
-1.778609689964842427e-03
2.410609220775099943e-04
7.391096701719714664e-04
-5.851554199148879809e-04
-3.796461047034288463e-04
1.338495857577119870e-03
3.622509292087946163e-03
6.732128227572769207e-03
7.100174981625901119e-03
4.508519456796060941e-03
-1.262331531980305727e-03
-7.068204719110060368e-03
-7.308191272727916112e-03
-5.055775888018828809e-03
-2.745219700203492975e-03
-1.405741684486274583e-03
-8.144458723633974610e-04
1.950650004563290834e-04
1.285198009482222715e-03
-3.092449045576999792e-04
-2.466206653521064388e-03
-4.750693022767726783e-04
3.340677825633349678e-03
3.276953033466116581e-03
3.364896900414787034e-03
1.004251627528343106e-02
1.308022231561084374e-02
2.825622825341171564e-03
-1.224357091989575902e-02
-1.848234939586282724e-02
-1.263490838105849751e-02
-2.896551411778130938e-03
5.128471780267156339e-03
9.191954102624841361e-03
1.177601151313375887e-02
9.107997108625538740e-03
1.386459404003133290e-03
-4.315370040954888582e-03
-5.640544194119538092e-03
-4.637065749049704318e-03
-3.785171234281895034e-03
-4.010024136749441685e-03
-3.459790000808198474e-03
-1.169209309901823217e-03
1.105370277625081395e-03
3.305073402033090364e-03
2.788842985365011518e-03
1.497519228462091149e-03
1.216507728396124801e-03
2.349043209881324871e-03
1.470241316212472825e-03
4.795374324597521856e-04
4.960810983610729717e-04
1.096329803653756227e-03
1.078891258023718719e-03
2.984937578976345606e-04
-1.246054639941488601e-03
-3.255737171607783840e-03
-2.839473876465322105e-03
-2.141516909207862637e-03
-3.305495738772896465e-03
-4.813396235067889800e-03
-3.471868502594563973e-03
1.616611308836107515e-03
4.013937916567013667e-03
4.743444169360855507e-03
7.557282683395886991e-03
9.476194629761498442e-03
8.727642695468832562e-03
4.600335725142168201e-03
-1.324884380333184565e-03
-5.925939962890518914e-03
-9.257671902961893060e-03
-1.271083917046690256e-02
-1.549684343044394237e-02
-1.434254622910379091e-02
-7.921725686141075501e-03
2.674821536432868147e-03
1.392272130766358633e-02
2.106666284197653699e-02
1.825660391946791125e-02
9.522289761383450832e-03
2.054037375512553654e-03
-1.577655108944449021e-03
-2.956694074110944540e-03
-5.368119939384502666e-03
-8.748928957838655179e-03
-1.028504999735264415e-02
-9.435780632332363069e-03
-5.637860622649902738e-03
-1.049498032198733751e-03
1.889167571405334046e-03
4.570503960790952072e-03
5.803051483620913324e-03
4.702378060122429718e-03
3.430097763518896985e-03
2.915692757170464024e-03
2.395543586421521997e-03
1.243521936395053330e-03
4.124696728128997514e-05
-2.621952542734179090e-03
-2.056046874295158582e-03
1.766943842515177564e-04
5.408427476231460456e-04
9.519613544427804120e-05
2.253159300160426863e-04
-8.625833179534775569e-04
-1.273822396224564852e-03
-2.598054007576879477e-03
-7.624569192269245975e-03
-1.256773340095515556e-02
-1.196060769567649368e-02
-4.619714625488142642e-03
5.881400677491164901e-03
1.440067245292685032e-02
1.848668598292877233e-02
1.943886033681087658e-02
1.742438452525484419e-02
9.045445620414361426e-03
-1.962424036892914444e-03
-1.050485814983478407e-02
-1.651011851869539984e-02
-1.925664276861699040e-02
-1.613002465941069247e-02
-9.474585025355615822e-03
-2.315194126621167563e-03
2.554558127477876087e-03
3.628436282504750570e-03
2.347613096610656671e-03
4.842782992872816852e-04
-1.874941287848067028e-04
2.847947841961705629e-03
9.165277592767126502e-03
1.522986466563100612e-02
1.484615987647884723e-02
1.044731582014962572e-02
3.640631341763493015e-03
-4.932194875862880475e-03
-1.054181604387730876e-02
-1.396416645635454798e-02
-1.520500891706234523e-02
-1.134780460143839688e-02
-3.256982704324369506e-03
1.222289283959224508e-03
4.047751421807335194e-03
7.361703990012516234e-03
9.363305542700031334e-03
6.436239484207583600e-03
4.650687775368314830e-04
-2.239180789558664880e-03
-1.777247448066286142e-03
-2.394647216366606074e-04
-3.341664846882137167e-04
-2.184283958231691448e-03
-3.175290915566330533e-03
-1.770258945447838539e-03
1.574327643966804075e-03
3.950647014546196552e-03
4.119583413962430753e-03
1.290784215230492398e-03
-1.518897720243708163e-03
-2.823777422340995481e-03
-2.819297566968580280e-03
-7.853505074556850919e-04
6.436814536956100580e-04
9.740806334444826291e-04
2.329172807968093404e-05
2.099413534818269538e-04
6.038646553604913158e-04
1.312356439257467350e-04
1.084742764084764078e-03
1.647307182452859009e-03
-9.032191250236021752e-04
-2.564580625453390800e-03
-1.613159434257189530e-03
-2.834108126051523282e-04
-1.919357807674736886e-04
-5.113137937836085477e-05
-7.077227932538177058e-04
-1.484270696616622233e-03
-1.830430833626761665e-04
2.332497722671766395e-03
2.591957602743877147e-03
1.534256769993446942e-03
6.911555922890100928e-04
-1.021236112827095477e-04
4.981453884105406776e-04
6.158188076701570646e-04
-1.027610458198481959e-03
-6.844445033654293978e-04
6.575500783490796294e-04
-5.845111879506192758e-04
-1.581923886133624431e-03
-1.940790553630136923e-03
-3.418861740892011839e-04
3.325698494312591489e-03
3.236279933260321779e-03
1.411252268178359449e-04
-2.140353725968756685e-03
-2.824153373562320653e-03
-3.399784410372239107e-03
-2.597199236568252956e-03
-2.188897477164809379e-03
-5.863694050251657460e-04
-1.704873141706188375e-04
-7.368639554092473037e-04
2.481441916229781743e-03
5.075819166361753877e-03
6.123739106887048263e-03
8.188420477471402767e-03
1.030280719657305881e-02
6.755323675603346414e-03
-4.508435906591708696e-03
-1.424531187453224011e-02
-1.594186933446495660e-02
-1.129903857138036226e-02
-3.361112370864496098e-03
2.873642306672570621e-03
3.652490198948549465e-03
2.105654734240811586e-03
3.505833076362749323e-03
5.644571672202496927e-03
4.315933624442916741e-03
2.006709181886315221e-03
2.704059769722859646e-03
4.265023059808525051e-03
2.080744336381432080e-03
-8.477626020450045128e-04
-2.447423889290411929e-03
-2.175119700064663455e-03
-2.382479586196997474e-03
-3.883237339959590313e-03
-4.574162859985899006e-03
-4.314608740451716593e-03
-6.146854473937922100e-03
-4.702007290310808614e-03
1.587839475741183821e-03
9.414662518871847255e-03
1.211308450502511860e-02
8.046307321278556648e-03
3.195758340023002308e-03
-1.200263452425749883e-03
-4.373440968879173212e-03
-5.870578755246091789e-03
-6.924203578017987942e-03
-7.093673196283913594e-03
-6.095843056215929576e-03
-2.128105887114310323e-03
2.177559002289626306e-03
4.175756902131200557e-03
7.002673351937228549e-03
1.133498270182384769e-02
1.295042912801326780e-02
1.097378171025517775e-02
4.835663097699338664e-03
-4.034808375753847279e-03
-1.158367330559477090e-02
-1.432119594643413603e-02
-1.465069418673984290e-02
-1.414897773686319554e-02
-1.188990841610637270e-02
-7.048612014887938211e-03
9.283871387638310737e-04
1.092711000067474354e-02
1.815756704953059783e-02
1.916562913386703551e-02
1.623926431140556778e-02
9.767510263529351200e-03
1.288873938228000558e-03
-8.182647087983465489e-03
-1.326415737875692551e-02
-1.136132950664195743e-02
-7.993913879235266251e-03
-5.795633148103571629e-03
-1.298681187710493514e-03
3.935496772562015362e-03
5.305340299635635283e-03
5.854029713895821975e-03
5.743815148720312312e-03
2.258891981659977115e-03
-1.493838497386115087e-03
-4.668370339746600456e-03
-4.403715224571174043e-03
-2.229937006984552671e-03
9.685919073211522214e-04
3.121846854943796049e-03
2.345462671174946331e-03
-1.536962710053303488e-03
-3.489426086542929406e-03
-3.035725459053891656e-03
-3.352066901822036218e-03
-4.410269808092230799e-03
-4.667178624782213070e-03
-2.602220831538154880e-03
5.865082839676381138e-03
1.302178643749159724e-02
1.262951032514324397e-02
6.788057019622514669e-03
1.207574869005436291e-03
-1.650173539980365764e-03
-1.643969513076931751e-03
-2.158312546809216300e-03
-3.067315694832807322e-03
-3.922168021660111387e-03
-3.783415043101927885e-03
-3.039973698839588696e-03
-2.638290017295288632e-03
-2.858581161365000151e-03
-6.368756060540535849e-03
-9.534319300871420960e-03
-8.381632842127974964e-03
-2.886841091435498729e-03
4.073032460192002428e-03
9.446738128950140159e-03
1.838302424455406578e-02
2.300729709271140747e-02
1.660540916309266590e-02
2.322266046056759448e-03
-1.033881953311150889e-02
-1.419870543851776273e-02
-1.277658010413118723e-02
-1.035346663255010471e-02
-6.768512603057593412e-03
-1.069653316296950056e-03
3.152344265841118282e-03
2.953760451315814734e-03
2.139546380949286421e-03
1.493113768698643706e-03
-9.195602675620620362e-06
-3.223127608261747937e-04
6.250416440373425617e-04
3.059920506761168880e-03
3.849882597909124772e-03
1.839139603493250867e-03
1.345262829287464229e-04
9.163065867799403703e-04
9.787047289998511803e-05
-2.754650117965403051e-03
-2.741838491271401512e-03
-1.377993679948365507e-03
-1.095925494445749082e-03
-2.100142525888434354e-04
6.568674634946151632e-05
2.026539876260711939e-03
1.253941713973248748e-03
3.480307148638816725e-04
7.731824029591335609e-05
-1.384532830249968769e-03
-9.822189035876532481e-04
1.286212377131480894e-03
1.148071369885632397e-03
-1.247246816817640901e-03
-2.549954019311964897e-03
-2.772353952116177103e-03
-1.780734597432691389e-03
1.313461017902808501e-03
5.253090801212067368e-03
5.413790558628597295e-03
2.128436535060822244e-04
-2.022877509472443582e-03
-6.016753123424394304e-04
2.835500571530223668e-04
1.936079868380066044e-03
1.242408560548701824e-03
-6.249173090186538803e-04
-2.016968709534830255e-03
-1.719682054464085090e-03
-7.818651018860307226e-04
-1.140535844932349377e-03
-3.027583638763211519e-03
-4.667484645563989808e-03
-4.418711003101716446e-03
-1.543979781006852301e-03
2.407452963157407592e-03
4.352790434752890417e-03
3.175348605343570989e-03
3.072796108091359682e-03
3.785000418875108814e-03
3.336977682078388647e-03
3.073962760072470636e-03
2.781630874167479502e-03
2.218096979280065155e-03
-9.818699331661862647e-05
-3.368733601122423163e-03
-6.335454445075256943e-03
-7.576013041357433468e-03
-5.801132319274213481e-03
-2.901291195219157532e-03
4.802106704567645542e-04
2.352148222545535038e-03
2.118484026437242058e-03
4.693321414835776272e-03
5.389289380433462742e-03
1.966895658485952585e-03
4.286427059276450274e-04
-1.311036969605063789e-03
-2.594268155258795672e-03
-2.310196308895718070e-03
-2.863750051628372560e-03
-4.378945793480430206e-03
-3.785320558451083558e-03
1.212615989464772273e-03
8.776478529365258976e-03
1.049148981156704588e-02
6.015411825552926389e-03
-7.335306537738777322e-04
-3.250354382044141118e-03
-2.965562373234459977e-03
-4.202886644896140257e-03
-6.391068750061692193e-03
-6.195491930719803329e-03
-1.788377749493938332e-03
1.657718574448230819e-03
2.953512526916394782e-03
1.989289122343639114e-03
3.452145409273889867e-05
3.724143907345349669e-05
-2.478110748690219144e-04
5.864482744247115180e-04
3.323903018261646549e-03
5.529928322451393638e-03
4.909105434761131155e-03
2.970365588343800312e-03
1.217450900058372797e-03
-9.805423225942120225e-04
-3.787660151582824403e-03
-5.062937031196247835e-03
-5.542931082065448260e-03
-6.245050005371921911e-03
-6.484830253873816522e-03
-4.186020377454423118e-03
1.433905032868262170e-04
6.527157522720030466e-04
-1.323344794293380641e-04
2.572602645775904761e-03
6.031964086607916921e-03
6.999313476590317620e-03
6.594669333808250190e-03
7.253002525615959324e-03
1.059475367761552635e-02
1.331933199842328004e-02
8.140033157418690574e-03
-5.510855767967789455e-03
-1.779380216139912416e-02
-1.850762560114187216e-02
-1.186967698982994979e-02
-7.957413570021635782e-03
-7.903150727534146922e-03
-8.629963637029032866e-03
-6.681335845625494159e-03
-7.477425467540545179e-05
9.534311227314415729e-03
1.865410346223123420e-02
1.902924214758055024e-02
1.318170852680621008e-02
6.460526748072784563e-03
1.388809038688937651e-03
-2.182571649242712446e-03
-7.982547414924169235e-03
-1.171047008658695869e-02
-1.154957571321244512e-02
-5.099827932499222290e-03
3.312096704858309790e-03
5.086637835880780147e-03
4.757071031640509526e-03
6.113481442881961610e-03
5.802812088397856817e-03
1.271629562928174809e-03
-2.970397065229282967e-03
-7.093954558453563312e-03
-9.538232627578574832e-03
-8.995204997044375581e-03
-7.314126902617192581e-03
-4.171300989311223402e-03
-2.578180176567969242e-03
-2.022105091255713496e-04
6.340775276777967616e-03
1.444828016958168981e-02
1.612539525466770082e-02
1.048626011994235364e-02
3.597637624377902996e-03
-1.435684074034014818e-03
-1.408626918803522693e-03
1.506962775093320618e-03
1.612795651404690589e-03
-4.954548840917667556e-03
-1.303215373596407732e-02
-1.436490310910135647e-02
-1.102138192014233756e-02
-6.385640899603987376e-03
-2.755396119228398655e-04
6.319798119941313561e-03
8.634218765274757554e-03
6.502626107646621717e-03
3.736036083370905970e-03
4.293733538283386712e-03
5.253772025974704461e-03
2.451611938146449222e-03
-6.734219562640191437e-04
-2.691658042252265039e-03
-3.265528611671530013e-03
-2.382953951582277973e-03
-1.573567169561234302e-03
-1.310144242560560895e-03
-8.888535068396508922e-05
2.064606863055531202e-03
3.292946711376189012e-03
-3.961851990897328883e-04
-3.074387621297458833e-03
-2.930364318216240656e-03
-3.796707574397329907e-03
-5.691701828877733342e-03
-3.754815279942403782e-03
1.519555748211713793e-04
4.305484084307247862e-03
7.880019023065483810e-03
1.063941577103681702e-02
8.359900671597043573e-03
3.515389722203994798e-03
-5.127895007883038776e-04
-1.874890157341283219e-04
-4.998645373591135152e-04
-3.816696452151927075e-03
-7.579259596121938787e-03
-1.131330518836710756e-02
-1.082649237990110022e-02
-8.586099797565877739e-03
-6.860698247245207090e-03
-3.003991990992669128e-03
2.286808303669188303e-03
8.001736814875310203e-03
1.508623535553762357e-02
2.077800149852320616e-02
1.981614449430016064e-02
7.946764398593405068e-03
-6.171089808370721318e-03
-1.178808127361431236e-02
-1.237577148696039804e-02
-1.065561773268491885e-02
-6.293923768540506287e-03
-3.060509249344431273e-03
-2.258893161243653077e-03
-4.336192055425377393e-04
2.694773317405086289e-03
1.021603009992780742e-03
8.202276394136791011e-04
3.187095955867060449e-03
4.797180350619576622e-03
3.848132067986547583e-03
1.733400329988042275e-03
-1.303846826474833312e-05
-4.812100540539339995e-04
-1.368650683552899081e-03
-3.164236592690607055e-03
-3.467349648733956957e-03
1.158264176796938494e-04
5.245221035655038382e-03
5.002809850995187067e-03
2.558304926493673408e-04
-2.170436531155123770e-03
-2.458781361025140499e-03
-2.913807574946275080e-03
-1.703320346751731199e-03
-9.443616476395972313e-04
-1.363162751988947251e-03
-1.839617392541905002e-03
-1.242149624555555611e-03
-5.690423030704769899e-04
2.499614120670973910e-04
1.737076360852595576e-03
2.876983258128695993e-03
3.858638259520334648e-03
3.935985251199826916e-03
2.952967954780662870e-03
2.260597934058194980e-03
-9.422619097496411631e-06
-1.004399459312393245e-03
-1.841232062549839161e-03
-3.326693299235750252e-03
-3.356740016835101006e-03
-3.167303203055006622e-03
-3.516289576300358263e-03
-1.630900436025564193e-03
1.771809439451518852e-03
2.481209981192004661e-03
-4.985062152422778999e-04
-4.192035913237076444e-03
-3.033522384350765492e-03
-1.279504883612223449e-05
4.151617533204038021e-03
9.633786958247283691e-03
1.169884526045546040e-02
5.738138018643742198e-03
-2.046603606795938720e-03
-6.081415471101477878e-03
-6.447655045924666033e-03
-4.601204398967458260e-03
-3.670245890526189613e-03
-3.567095351596829503e-03
-3.121764991306934505e-03
-2.218380154347780481e-03
-2.255733212832786768e-03
-3.537326946276419127e-04
3.621668584671714018e-03
5.984503342374803379e-03
6.853591170742003892e-03
9.692598496708310085e-03
8.493749256826671132e-03
2.125781544678437534e-03
-3.064105760070422960e-03
-6.362643460798085744e-03
-7.949462219844723176e-03
-6.751210794377478404e-03
-3.333857422542662718e-03
-5.101325110392891746e-04
-2.730830020301048666e-03
-5.715114459762573804e-03
-6.989654162076508123e-03
-7.276081425740239285e-03
-1.962778510075491919e-03
7.128146711231517392e-03
1.416560591680882455e-02
1.799381463966606004e-02
1.754718770798333397e-02
1.078221331720156072e-02
2.467449545252982119e-03
-5.109127786240029445e-03
-1.013621851119794574e-02
-1.217244321945862816e-02
-1.227796284496470575e-02
-1.101420621788434112e-02
-9.349359953859682007e-03
-7.893204001333930381e-03
-5.834690755722689304e-03
-4.968417195293629938e-04
4.710930838379193651e-03
8.664899020005632779e-03
1.250724306849201016e-02
1.566248102979693815e-02
1.765832414156220248e-02
1.613968478618764760e-02
6.874756622121656370e-03
-7.991561306884662971e-03
-1.869792349361459882e-02
-2.157833993757398219e-02
-1.568569355399857673e-02
-5.828603695911462913e-03
1.861998123074443774e-03
4.206799822331992213e-03
2.957168635820129222e-03
2.955024444675059033e-03
3.881286862765818708e-03
3.905050186790627858e-03
2.112241865198040327e-03
-2.852549254318749884e-04
-8.748900768994780173e-04
-3.234768601499719235e-04
1.432318815077459218e-03
3.352232247910456181e-03
2.681937071320401531e-03
1.974587254974177492e-03
1.313840663002333519e-03
3.047073072364360350e-04
-1.307222948231676150e-03
-1.489716091498229653e-03
-6.441482440579743372e-04
-1.443653284524546538e-03
-8.907835173789832150e-04
-2.061197410576547442e-03
-4.182635753633930087e-03
-4.771557163072957970e-03
-4.062077113775756053e-03
-5.471119910917469041e-03
-6.606285285255913443e-03
-2.788327534263672965e-03
4.389791132789095350e-03
1.330539751044723662e-02
1.664930310393923293e-02
1.362636290592961728e-02
7.971472181341835925e-03
1.852375568214913127e-03
-3.354998755757049051e-03
-7.965307885243470137e-03
-1.045558265789396125e-02
-1.004126993050478110e-02
-9.255440886840240328e-03
-6.309585498144982228e-03
-1.803611644447571149e-03
1.272000763860850784e-03
8.856551238561852397e-04
1.751423833141661996e-03
2.955331113418374362e-03
2.975701905611938172e-03
2.873001784041797225e-03
2.309908273011536829e-03
4.271830012684266729e-03
6.363429342939539921e-03
6.147462863285526637e-03
5.725051015396278968e-03
1.976750584534755009e-03
-4.882576262573753122e-03
-1.098670073607026232e-02
-9.721373428670443059e-03
-4.073117901408644138e-03
2.454128026453366706e-04
2.429729957459091007e-03
1.244529284224667968e-03
-1.010315287847064888e-03
-3.344064064992975844e-04
5.755048874476702660e-04
-9.671679059267007401e-04
-1.695189281771344479e-03
1.282191288615912382e-04
2.260848091037224398e-03
2.595196853822675457e-03
2.358214601122835073e-03
3.820031190472304369e-03
5.716461599508276294e-03
5.388175722210506932e-03
4.647956930247207786e-04
-3.192699915934200678e-03
-4.452788583992554027e-03
-5.530794887133930020e-03
-4.656427920720083817e-03
-3.086713494976498200e-03
-3.424253374628770646e-03
-2.292840009719945317e-03
3.518951756509294208e-04
1.675024106178909416e-03
2.058976167148213795e-03
3.722696045865614856e-03
5.373794127967916091e-03
3.575687033406737148e-03
8.303302531843489206e-04
-5.277250211710297120e-04
-3.154773721682601739e-04
-3.478170427862217707e-04
-2.604336588020425385e-03
-3.886105553522533305e-03
-1.916524945208777529e-03
6.936833975633236848e-04
8.732683172924611461e-04
-1.781215066120631432e-04
5.694822540549292818e-04
2.026101851405224304e-03
2.644620417971952926e-03
1.642359257797976245e-03
-3.874810696733123252e-04
-1.779797648142521921e-03
-3.000878271972369331e-03
-4.053845438745369394e-03
-3.410789229468106417e-03
7.653048169608195946e-04
3.751977117206936087e-03
2.504349275057065130e-03
1.298105735865375931e-03
1.656325051767958568e-03
5.903338775443379510e-05
-1.986740772075536610e-03
-1.608962405243227235e-03
-6.289193612970884388e-05
2.153225723423283448e-03
3.316599894867127384e-03
1.855844285947135701e-03
-7.466525903974759095e-04
-1.477026283283861636e-03
-2.194990460582489211e-03
-2.001177279716301154e-03
-1.354547189838788135e-03
-3.925894477689792755e-04
5.914222599264214544e-07
-1.654427749991553001e-03
-1.941726191668597832e-03
-1.861406462639051112e-03
-1.188051668939258234e-03
2.440312553777797960e-03
8.635194720984598962e-03
9.829296245221025297e-03
2.718788008511240518e-03
-3.039280814037210576e-03
-3.593953578529287401e-03
-3.950117362246304518e-03
-5.912434071399862850e-03
-1.022134151139031909e-02
-1.212989365687666861e-02
-5.070104683163383259e-03
4.082130225964907162e-03
1.086937397900272252e-02
1.950317454548513088e-02
2.378838275207280015e-02
1.445034166050416721e-02
6.586666796921821204e-04
-1.071064437935432753e-02
-1.917809636962316752e-02
-2.179394406287094368e-02
-1.678737970891765879e-02
-8.900558383165673923e-03
-2.218019825419600185e-03
2.571622225397958515e-03
8.619743938625116023e-03
1.511930413466606483e-02
1.667836070027438333e-02
1.215706889533191976e-02
5.117320934518350579e-03
-1.520184909242804474e-03
-5.778131018075122714e-03
-8.599293447201172835e-03
-8.802193948360041362e-03
-5.513474464141967894e-03
-3.348304203154217704e-03
-1.113650051182426453e-03
2.090836662301159225e-03
3.668806032266389364e-03
3.324214052425816975e-03
1.075407638735771752e-03
-1.534574736306627840e-04
-2.803575109378466642e-05
-3.481504697141863617e-04
4.436464085507259248e-04
1.920171561274495011e-03
6.005418725925787144e-04
-8.951815617629719623e-04
-1.170617515766409931e-03
-2.037046018472232680e-03
-1.952581872868812277e-03
-2.953391414079822603e-04
2.177820480371962276e-03
1.956828983882998810e-03
7.118207436509450207e-04
-2.794985226590612857e-03
-3.249463871420043073e-03
3.804423267165862269e-04
2.708726940731949646e-03
3.376276958226849968e-03
3.695686837546976328e-03
3.602359875563405922e-03
2.726656352739131785e-03
-6.692295904996653586e-04
-5.413385343473693656e-03
-6.808761829207465692e-03
-6.242399510011053393e-03
-4.317193478557158730e-03
-5.473891458769310995e-04
4.044373423015441664e-03
5.243708404739416164e-03
2.657654048305135679e-03
1.692345509482030179e-03
-3.266225178301322127e-05
-1.854972325252638712e-03
6.904712037300072668e-04
2.289134850751604108e-03
1.731605730882327526e-03
-2.816363341361357697e-03
-3.741849530902514008e-03
-4.529116081112052048e-06
1.187395928961453928e-03
2.080430585648165246e-03
3.240440067077207751e-03
2.641305797897199308e-03
1.315482779634999768e-03
1.375615748243392547e-03
6.892957668741993488e-05
-2.436020252171802649e-03
-4.571777827075413324e-03
-5.354334803153529450e-03
-5.452872806416331382e-03
-8.568144009702637759e-03
-9.691910827962372035e-03
-3.053472620404884368e-03
7.032389826905970781e-03
1.149119485636578182e-02
1.081877814085517413e-02
9.883848891715401805e-03
1.105770226296961915e-02
1.253858199104866157e-02
6.377564949235311510e-03
-6.705217056365714474e-03
-1.745433338045734514e-02
-1.843534346856654307e-02
-1.317251356207548019e-02
-5.607311225160082659e-03
1.434403877907159839e-03
4.717320882295194910e-03
4.712238137489189842e-03
2.994211778356652229e-03
3.300985123107340498e-03
3.893594817707647041e-03
3.498155954939550800e-03
2.671666754757754617e-03
1.050036389211170739e-03
-8.240556822575490371e-04
-1.044597115654164604e-03
1.486111929379548555e-04
3.713775333756480024e-04
-1.851204277947152447e-03
-3.725931952097746597e-03
-4.141038009977854144e-03
-1.224283526969341699e-03
1.705526980519272073e-03
1.477484308310090394e-03
-9.665704024833453008e-04
-2.253355156281706181e-03
-8.534593960186244574e-04
2.000670288924719185e-03
3.991565411559102640e-03
7.209572603649372705e-03
7.625708828970432368e-03
3.029637419048520231e-03
-4.218509144036255640e-03
-8.707576208979075222e-03
-8.835273622741642366e-03
-4.971597223434527299e-03
-2.182224394584383203e-04
1.881473930494097181e-03
2.071582252748364102e-03
1.871455781155600007e-03
9.781687541606117441e-04
2.603410033795117758e-03
3.552043648443983792e-03
4.758544460556725971e-04
-2.193153212458077376e-03
-6.352560196248241767e-04
1.949095354951556293e-03
2.512454560742263289e-03
-3.116743649148395138e-04
-1.781451192096794285e-03
-1.878147244600210678e-03
-5.740532970658492832e-04
-1.493530003149479450e-03
-3.673318218810841043e-03
-3.089768041120553258e-03
4.720446959294046212e-04
2.804170445230889409e-03
1.374748296099450586e-03
5.112023870235029698e-04
1.172362671929508488e-03
1.097321460066461984e-03
-3.143902714856908111e-04
-7.834176861311295710e-04
3.323674606918322009e-03
4.941619250762476281e-03
2.483951102566599612e-03
1.068307286845398022e-03
-1.210813012757168189e-03
-4.578393875431730625e-03
-5.742032289965954238e-03
-4.753763024649558695e-03
-3.176268501977670689e-03
-2.251369640633367562e-03
-3.078267337864460784e-04
1.741892456451361393e-03
3.448716539964839442e-03
2.991151956853200893e-03
2.817124823891780164e-03
3.843423739338092809e-03
7.286833846968304024e-03
1.085211035356763859e-02
6.600913864890123849e-03
-3.324587733410800782e-03
-9.898372852659870560e-03
-1.551460547365082938e-02
-2.040409430025808685e-02
-1.897409377267835970e-02
-8.208646019682139597e-03
5.451237878493807483e-03
1.677118043386510368e-02
2.277331679213700014e-02
2.287363686118438003e-02
1.551608228500647377e-02
4.580594464133409989e-03
-4.423572497892666079e-03
-8.767625704263827188e-03
-1.077216672589092691e-02
-1.336087074599331091e-02
-1.042788587619277764e-02
-4.675202542322147957e-03
-1.651954154396868520e-03
4.726153029595895044e-04
1.141410910356895373e-03
-4.612138392838751764e-04
-9.949213300880584056e-04
2.446207815423455910e-03
6.826827940913098892e-03
7.429484613260207461e-03
5.167070688910466170e-03
-1.403921169461323098e-04
-3.973935206728533218e-03
-3.375501242998945554e-03
3.040908840975936611e-04
1.253059864445253604e-03
-5.759525818910195445e-04
-1.751451916765899529e-03
-1.309669138436706610e-03
4.714875898117595800e-04
3.757182957905294985e-03
5.805941656931559725e-03
7.233913790021075270e-03
2.563397449222439874e-03
-4.509031365947476465e-03
-9.343411252546549028e-03
-1.001133996246277198e-02
-8.207296573394059006e-03
-3.907776827712115819e-03
2.183345293363162052e-03
1.760577698178241064e-03
8.788894552314106129e-04
3.920010864379741208e-03
6.103747674825933493e-03
5.226840230413531095e-03
3.638802185731506138e-03
2.744332061341129159e-03
1.324138679958522307e-03
7.258326505603024999e-04
4.449108448987927145e-04
-3.578077755270812590e-05
-6.258454413248203119e-04
-1.685191710563918198e-03
-4.014437177108361003e-03
-4.574560747439135842e-03
-5.331760935884160592e-03
-6.694303889154169969e-03
-3.699700609728427247e-03
2.468213736115008276e-04
7.748482536453945560e-05
3.744686276418278268e-05
5.891141375976208412e-03
1.285678428974990420e-02
1.292156432605033427e-02
3.533241149700994555e-03
-8.740047946959142097e-03
-1.263381888291936934e-02
-6.374511847691800674e-03
2.630343478988896120e-03
6.189566263179712910e-03
4.031122952480808465e-03
1.976681522973202602e-03
6.562190810623384687e-04
-2.044003798060261504e-03
-4.108305278462993579e-03
-3.047432528586930828e-03
5.971870174218912950e-04
1.273646624898764268e-03
-1.965221761219077424e-03
-2.562220108528839163e-03
-4.950921702514955551e-04
-9.060168583612521328e-04
-1.593534362211888053e-03
8.787955532773951764e-04
3.242132054331154159e-03
3.451229081511645192e-03
2.662936634569873506e-03
9.596128279934516749e-04
-8.226704133396966264e-04
-4.853218192145617848e-04
1.917758086120547147e-04
6.386794759251889766e-04
-9.450709630057440528e-04
-2.706482467170891019e-03
-2.647562620226215011e-03
-1.828940787710858383e-03
-4.023473823359764116e-04
5.581007716330395416e-04
3.022695241168103439e-03
3.765980289871590208e-03
1.538426923673155830e-03
-1.862074481512234890e-04
3.820383332615081423e-04
1.368013753993032244e-03
4.385692907066738840e-04
-3.210977092763894931e-03
-5.039704307569376970e-03
-3.551819225959542206e-03
-1.211774437324156803e-03
-1.240845630463493663e-03
-1.424223019693832408e-04
3.750240675630543870e-03
6.151222926128233591e-03
3.075711353581572077e-03
6.044813119785834039e-04
5.410140908687938611e-04
7.185864910010889700e-04
3.440228286147293830e-04
1.674224482894503716e-06
-2.614820347004315811e-03
-3.848581095153400140e-03
-1.705995454329838372e-03
-3.179531548694395672e-03
-3.648779322118940894e-03
-4.630731335736489301e-04
9.509895758785115016e-04
1.885318411901335282e-03
2.867662833605949882e-03
2.129998367669010823e-03
1.401942434780563971e-03
1.482129938751095303e-03
1.320799434168521119e-03
2.444786191864377258e-03
1.635039914745608928e-03
-9.828936546422584620e-04
-2.697268186572476713e-03
-1.409219229057818469e-03
1.001926859545310432e-04
7.363030797822077509e-04
1.247663885460439546e-03
-9.588651282536936240e-04
-3.729339480707088636e-03
-5.198282213856019081e-03
-5.316759926512655554e-03
-6.687632131879789419e-04
8.739736763089445051e-04
7.434560920096274341e-04
9.693600163698911764e-04
2.797501716083536632e-03
3.631187544699029501e-03
4.503422769571406581e-03
7.176217817184868744e-03
8.649487376853455534e-03
2.845296287662069275e-03
-3.513878294549051175e-03
-5.694640025691111510e-03
-6.433291166150530670e-03
-6.463421729847217828e-03
-4.811173011548281614e-03
-1.840192950237856543e-03
2.124819936464003144e-03
5.415282485580663781e-04
-6.994186430416581175e-03
-7.430445189448722267e-03
4.026634073272781795e-04
9.140660675104952948e-03
1.431967711153574532e-02
1.345352944798864671e-02
7.860331179690998107e-03
2.051252449364379411e-03
-6.185388978030386710e-03
-1.357292560974178615e-02
-1.683542322408264347e-02
-1.559489843744475517e-02
-1.069453532371138910e-02
-6.949492977804960520e-04
1.186064446613684618e-02
1.906279268913147959e-02
1.891836569564674456e-02
1.443012859603106691e-02
6.273477976067482441e-03
-9.401687582203763650e-04
-7.500837179177891924e-03
-1.278582453599286066e-02
-1.310720968613931017e-02
-9.632492200039255437e-03
-7.307062531351161440e-03
-4.932351162714942831e-03
-1.271701591588840713e-03
2.195419764935117955e-03
4.771491115199620776e-03
7.137889396990492255e-03
7.832044436355814140e-03
5.677447561937013810e-03
3.742906550865109875e-03
2.777472637193358854e-03
2.737019304054376552e-03
2.636555232076509547e-03
1.626706775620266046e-03
-1.453291690358673007e-03
-6.537927041219275190e-03
-9.424931007007895239e-03
-8.937619111321007045e-03
-6.461133244564825837e-03
-1.210290009293732818e-03
2.291393388777078748e-03
2.140506155074025155e-03
2.707644883026958348e-03
5.167633015171756682e-03
6.727419830528273866e-03
5.043216800933423422e-03
6.559728351435559820e-04
-2.707107003839543096e-03
-3.322088422751885532e-03
-3.146678889639639275e-03
-3.546634214310782126e-03
-8.690369538040768494e-04
2.420741360830919956e-03
4.607736505998441361e-03
4.577527973411455245e-03
2.735198278127932026e-03
-2.111646869032346365e-04
-3.093124134893440649e-03
-4.277110541685121871e-03
-3.186192354494645027e-03
-2.280983960936552434e-03
-2.175988052304900656e-03
-3.471927271571471126e-03
-3.402138168367535489e-03
-8.729891253235048422e-04
3.835225493629859043e-03
7.536173297255285668e-03
8.557179038458843576e-03
4.904686742801281536e-03
9.771898929010556633e-04
-1.435688012074451099e-03
-2.233596861762834288e-03
-3.152493892867692677e-03
-4.706853381697293989e-03
-4.810835714730029786e-03
-3.961996557578143126e-03
-6.610816860716233357e-04
1.874895057423123885e-03
2.578416887949473105e-03
3.140210590490011104e-03
3.429747981982361228e-03
3.477347730529207863e-03
1.642268219696475318e-03
-6.571456202307593680e-04
-1.384376963845681966e-03
-2.003994571034702424e-03
-3.666795288152446385e-03
-3.853747640862526923e-03
-3.855173948313703105e-03
-5.417925972497650636e-03
-5.105401177887305443e-03
9.652566666276463699e-04
1.055455503326571329e-02
1.361573065891073624e-02
9.685529712152127213e-03
1.932348160926349685e-03
-3.451305326557481141e-03
-4.261680079233554075e-03
-3.801198858460081657e-03
-3.392279103991997086e-03
-4.657205716690897800e-03
-4.780446839995591141e-03
-1.996532698054429445e-03
1.971358181386027603e-03
2.674784647182763472e-03
1.025665648751716234e-03
1.309660692149312942e-03
1.721825621660960084e-03
7.953551347501918031e-06
-3.488340501204080773e-03
-5.220068818944468246e-03
-2.561579142069659015e-03
2.219469228908519699e-03
2.568297729619220277e-03
6.103140892487086792e-03
1.126820198536167099e-02
8.860988976136189438e-03
-1.941658556212227287e-03
-8.693909093260079879e-03
-7.339940990288136742e-03
-3.883626329939860854e-03
-1.410800435878235880e-03
-8.464338004782487410e-04
-3.580882839138265758e-05
7.630710187100111196e-04
-5.400728054709692626e-05
-1.016080095719902208e-03
-1.549675874900819034e-03
-1.545145769764789013e-04
1.011109394057237848e-03
-2.158689637920374442e-04
-5.184964335993448147e-04
-4.155866928658125906e-04
7.667363220050659074e-04
1.837849004682064104e-03
2.791001435459707341e-03
6.175779691043155155e-03
7.487204168696705818e-03
4.478881419190974128e-03
5.282147924332155579e-04
-3.592718243309617632e-03
-6.195787930754008931e-03
-7.716910578180822232e-03
-7.196537312897439108e-03
-3.645838219326092648e-03
-7.734249278197032149e-04
4.912212153852346230e-04
3.214885770379508241e-03
2.094876991413854514e-03
5.411146771100406542e-04
1.390832740270962580e-04
1.836305183803286004e-04
4.177836522207118135e-04
1.789116562120072378e-03
2.630130472594429791e-03
6.390217778022338948e-04
3.559675281754944454e-04
1.415867958224132977e-03
3.283148393016451470e-03
4.953630676534047199e-03
4.658632878587896237e-03
3.385545830190418368e-03
3.122805444410797424e-04
-5.349681246552703828e-03
-1.144566405167840757e-02
-1.164980931066133055e-02
-7.059127145145999496e-03
-4.365469079845361519e-03
-3.047053520823234454e-03
2.481136453247275320e-03
7.285301380379904761e-03
3.827189400280618919e-03
-4.018188840566852028e-03
-5.406304928175560513e-03
5.559618952818370756e-03
1.822124880589637633e-02
1.985641839222966262e-02
1.292426157147277301e-02
3.936755569772070786e-03
-4.305707354524825926e-03
-1.269164380675878896e-02
-1.692356501379106357e-02
-1.436083667340761795e-02
-8.883142658235117575e-03
-6.147263143334961120e-03
-3.205338950370072420e-03
1.880926413323542488e-03
7.134279404280823543e-03
9.855672759423969240e-03
7.374945075954011248e-03
4.210451212288153673e-03
2.140542810591383131e-03
1.263848096095073230e-03
-9.214699875998860496e-04
-3.569699909085375950e-03
-3.709491683744261387e-03
-2.500138022129713700e-03
-1.874379971160740170e-03
-1.130369885110583478e-04
3.577622248969284345e-03
2.504919834082602447e-03
1.905602198664944414e-04
-4.620350530066814725e-04
6.976745641094796299e-04
1.527238368749878712e-03
6.454262576997061348e-04
-1.649691892706977138e-03
-3.225793330327831297e-03
-5.722129882249089167e-04
6.217290538624240524e-05
-1.461918918960061894e-03
-2.684832027490160599e-03
-2.212296178584290899e-03
-1.244445431287064712e-03
9.980627579712852103e-04
4.370978485513819442e-03
3.835743393845157407e-03
3.495259445665267837e-03
5.149120050270771139e-03
4.937902386423714297e-03
-1.465811655984595009e-03
-8.782285425121180364e-03
-9.749184862230350634e-03
-4.730260272536890645e-03
-4.915599421308500337e-04
3.227797627204649893e-03
6.544139725865920354e-03
5.766573258671614174e-03
1.788793039260094852e-03
-6.738236630956268448e-04
-8.654511847676091361e-04
-1.225624907513896090e-03
-2.352529314243952379e-03
-3.459897275644291219e-03
-4.208090983584046943e-03
-2.111310739999803111e-03
2.883419160146203936e-04
2.436472467245450520e-03
3.473623041462153924e-03
4.062495052851249587e-03
2.722755936835410777e-03
8.645651439003162238e-04
9.570473439966468553e-04
-6.425049194988905615e-04
-3.158262702463748850e-03
-2.461680779806996264e-03
-8.348487317399548840e-04
-1.170333399787800701e-03
-1.019169331195969846e-03
-2.200101794113960070e-04
-4.419108474623986531e-04
-6.078605725718163461e-04
1.120029455655189828e-03
3.066450727046091812e-03
2.635536367587834692e-03
7.351079905101338009e-04
7.084942706483820119e-04
1.163581362769680952e-03
-8.215798420191963540e-04
-3.898899815705903372e-03
-3.669532921352661355e-03
-1.227870212302963884e-03
-4.147809394531652271e-04
-6.466114949707794848e-04
-7.311448818258668627e-04
1.283445419601010650e-03
3.682187196218100322e-03
4.744746029580074707e-03
3.203665928343196658e-03
1.298061834725772320e-03
1.420120772368697404e-03
1.688363904018953625e-04
-2.794558648275382532e-03
-3.673220178528256025e-03
-2.312325459320590301e-03
-4.180055186391742547e-03
-6.023965968811197114e-03
-3.960408107356884998e-03
5.696783768403474498e-04
2.624749423195850764e-03
2.299087466861535981e-03
2.577684157446356091e-03
4.140056156497834254e-03
3.827832648217189757e-03
1.964845015783097271e-03
2.203263447334783375e-03
1.912266603955597912e-03
7.274721104856168071e-04
8.629753243055847574e-04
-6.620773463873463882e-04
-3.774314985065524344e-03
-2.742763643430837315e-03
-8.188604935500684665e-04
4.513435417732040902e-04
-2.278112204764635475e-03
-4.843885714372803998e-03
-4.272660747995074906e-03
-5.347541877313013829e-03
-5.204971308420509694e-03
-1.432885319834804319e-03
4.101788614282425582e-03
9.054548935247225955e-03
8.454931183221854954e-03
6.141174694522249719e-03
3.768493014439145989e-03
2.181701640373186635e-03
8.089966939182938969e-04
5.695228128947842951e-04
-1.150310696103368181e-03
-3.463962667856269103e-03
-3.190865213139726982e-03
-3.355480388874583237e-04
-1.127131172372089008e-03
-5.497651861086266627e-03
-6.923617980215829477e-03
-7.835709095675319827e-03
-5.430873824252356596e-03
8.438309009129675489e-04
4.397877167994881584e-03
5.369970784700517190e-03
5.579220970936531881e-03
4.545426850157695958e-03
4.514439228525813155e-03
4.500546542734693359e-03
3.793135246106326287e-03
1.347289211076063307e-03
-7.023913069618885428e-04
-2.680753998369456246e-03
-4.922550094551048777e-03
-5.475391322750196819e-03
-4.975450331785307746e-03
-4.353593480103080775e-03
-2.086374630840440430e-03
-1.472671902892745699e-04
8.734543305526823020e-04
3.595376023558148875e-03
4.992654947585886509e-03
4.018362529813739904e-03
2.363322801522198605e-03
1.401739979541488873e-03
6.643817416627248538e-04
-1.550474170854550379e-03
-3.445085249657867370e-03
-4.450139391872088256e-03
-6.447285706240055234e-04
1.512782456793096029e-03
-6.230666237336183848e-04
-8.484416836864381011e-04
-1.504597533114298245e-03
-1.270341897673732358e-03
1.329083926941046923e-03
4.413593793269911941e-03
7.785629267912474831e-03
1.079712794075640865e-02
1.037045930773712772e-02
-2.166248856727631341e-04
-1.728715159593071857e-02
-2.660814805608521447e-02
-2.444714220795742368e-02
-1.086283852079261182e-02
7.233024733992398335e-03
2.079157688789739708e-02
2.440948168229481463e-02
1.921467552495135026e-02
1.102731936868626972e-02
4.255605463596204806e-03
-2.675098200841418469e-03
-8.154194647894108181e-03
-1.042140330980295161e-02
-1.212779132055329806e-02
-1.223452983315462088e-02
-9.665746997761062373e-03
-7.425363113995682614e-03
-3.750494983120576751e-03
4.674892351311533620e-03
1.187276791036436484e-02
1.323675774282738818e-02
8.874055338129696602e-03
2.066916267535902092e-03
-2.719984829267268946e-03
-4.574800478886120389e-03
-3.851066180586856444e-03
-1.097959851840778168e-03
1.112652057390247718e-03
1.091384580964612936e-03
2.006455358599337595e-03
4.874287174990202601e-03
7.045044889493592803e-03
5.267388530416879273e-03
-1.245674586233815181e-03
-5.309316257465145246e-03
-4.876218770779814846e-03
-4.704453611617173507e-03
-6.738039429171020257e-03
-9.953398669209615260e-03
-1.158535852758871276e-02
-1.049583958943195450e-02
-3.987179771081574876e-03
2.867842589869184101e-03
1.108717232497830572e-02
2.241540761727385880e-02
2.557148880783517014e-02
1.515712473983095269e-02
-4.124610960011658185e-04
-1.004251591952195002e-02
-1.245880347959733847e-02
-7.951099367467663603e-03
-3.084989184554914107e-03
-3.665255540454128141e-03
-5.413088552513835826e-03
-4.330830257090971698e-03
-2.645832316820524981e-03
4.256150944580994064e-05
3.557870874769298534e-03
2.717683588057918584e-03
2.434126034521483326e-03
2.295740945269708535e-03
1.595948272253505792e-03
-8.260849224836933156e-04
-2.013592590416086927e-03
3.727192907786276103e-04
1.794748914623610662e-03
1.820607676740121535e-03
1.529096894965843159e-03
-3.052670525997844622e-04
-3.967636354352412591e-05
1.531128344703782318e-03
9.323501783482696949e-05
-3.790742219564006889e-03
-4.067784952459208361e-03
-7.878023302897794577e-04
1.272582874100583331e-03
2.225503535010583348e-03
3.564388103953767834e-03
3.893397823357479682e-03
1.065537225901867172e-03
-2.169778360141421270e-03
-3.658430132872347949e-03
-5.655690574464548523e-03
-6.892453888787879006e-03
-3.951131614984650098e-03
1.253069554249585998e-03
5.586067877717002493e-03
6.214152671782571975e-03
3.191694576710764775e-03
6.768880538641148300e-04
1.130457963304548836e-03
1.805498008044190963e-03
2.378520347263655618e-03
2.969514480465404362e-03
2.163623446643965238e-03
-3.287711330646369244e-03
-7.779088932033204062e-03
-7.373973067286004705e-03
-4.378287575467292546e-03
-7.774552367123164446e-04
1.610144811713660465e-03
3.724062687910268885e-03
2.848418433590747204e-03
8.330125641486830904e-05
-8.813270091352542936e-04
7.364029651115904049e-04
2.196115612313689121e-03
1.657738841640669664e-03
7.745305605045325979e-04
2.252387415619449672e-03
3.138402441226150440e-03
1.843917079587055084e-03
-7.820707725805966636e-04
-2.667525504577472704e-03
-3.562921828591384451e-03
-3.967549556244916349e-03
-2.226097971659132292e-03
4.383406139015805659e-04
5.349264035477911249e-04
-2.661296155070208037e-03
-3.603505780928478470e-03
-1.311998165685415458e-03
1.229939678231738772e-03
2.257327149271969296e-03
4.116271656192740241e-03
6.392270376531727916e-03
7.585346222441421808e-03
4.498794167871404681e-03
-1.197908294538725356e-03
-6.322274431253198206e-03
-8.615197487448633326e-03
-7.956503111824801341e-03
-3.919291819490224905e-03
2.554329078846983344e-03
6.560437058469995031e-03
5.794696788247447571e-03
3.146153452490724634e-03
2.886696075469652890e-04
1.231110281566533810e-04
6.751917847117598799e-04
-4.779100438990096546e-04
-2.849392005845388046e-03
-6.094308596670068058e-03
-8.332360502486419254e-03
-6.456286720208760134e-03
-2.088066262547940387e-03
2.686611021376581702e-03
8.820229540208064656e-03
1.281967751164522426e-02
1.040355411833083533e-02
5.198227138246437444e-03
-2.624393227626229969e-04
-5.294087243928556445e-03
-8.764697453228010790e-03
-9.085390891985668099e-03
-5.117491390159914846e-03
-7.436474735965216496e-04
3.681041102828897221e-03
1.717373959242397873e-03
-2.068854410053515627e-03
-9.592376087654186541e-04
2.775093428133212654e-03
4.278514753232113589e-03
2.973796180831012395e-03
1.185736612391132981e-03
-1.812097336308877158e-03
-3.390263795366568311e-03
-2.599869014264640128e-03
2.844765749006844362e-04
1.322656900527748470e-03
1.148306725544293461e-03
1.611612261543562963e-03
8.966200730684899430e-04
5.409029596310273172e-04
-5.646746205830107827e-05
-5.816104752310189080e-04
-4.144044066207301950e-04
6.103552948991949412e-04
3.734372078461835245e-04
-1.255308662432989874e-03
-2.111421752851614861e-03
-3.382144024415654517e-03
-1.673491402220273405e-03
7.635796676649844045e-04
1.522537769455790989e-03
7.833315216802603630e-04
8.497744932116764417e-04
-2.247544045237196992e-03
-3.496755941723652446e-03
2.580621021466731561e-04
2.379997412190884305e-03
3.223267043134290990e-03
4.488928128320878765e-03
6.024692284917450638e-03
6.289911483829522046e-03
2.671082066164705195e-03
3.449869559477825552e-04
-3.712080651584027491e-04
-1.105346596877219414e-03
-3.279661210769516978e-03
-5.657745964131368106e-03
-8.457264840586242033e-03
-1.151768607774389906e-02
-1.400096732672211942e-02
-1.318429597965986057e-02
-8.905818649099369114e-03
-6.919782103545510463e-04
1.007647921624640029e-02
2.013501296609212371e-02
2.858266030828022011e-02
3.076181518163589521e-02
2.344088555846023450e-02
4.668949722252345967e-03
-1.903388743450048354e-02
-2.914010126536318787e-02
-2.361850755834862120e-02
-1.522742199345657015e-02
-7.993643237369224899e-03
-1.623192141696425507e-03
4.384590253360972668e-03
8.141432179927018259e-03
9.025254868931770202e-03
5.991632066878163805e-03
1.835130836754252396e-03
-4.834685644234612296e-04
3.224242741473009721e-04
-4.149099020693939894e-04
-2.184488328888751791e-03
8.881632128637143399e-05
2.461381176087206780e-03
2.498433688034238081e-03
2.326458170992789804e-03
1.616377765870127305e-03
-1.649871842868542776e-03
-2.171961318087115272e-03
-1.516589320606514689e-03
-3.302622855459872494e-04
-1.656553561367238834e-04
-1.494240827725583148e-03
-2.635712021710863700e-03
-3.266513911513705629e-03
-2.284183873974697260e-03
3.595244848165852700e-04
2.129465015060070902e-03
1.717745744480452452e-03
3.464580563633947331e-03
4.384588207451083249e-03
3.624469315260395435e-03
2.156279916141495660e-03
1.830689650954783222e-04
-4.233965078274931799e-03
-8.613573342761058488e-03
-6.817369801798227845e-03
-2.783976296451575166e-03
-7.662071843929478283e-04
1.531193850995094191e-03
4.859503004729951066e-03
3.691200358393602939e-03
2.696260765855802623e-03
5.144622986805871996e-03
6.499678013656501330e-03
5.715301206424161506e-03
3.260983459050878757e-03
-2.400205946627069844e-04
-4.302841895697711271e-03
-6.279066253256407847e-03
-7.601371615429835561e-03
-7.977059423849509195e-03
-8.741568144635969775e-03
-7.825185469698710608e-03
-5.101395852863030954e-03
-8.737876615518968149e-04
2.886843870703188850e-03
8.475447833378656551e-03
1.572172870726007074e-02
2.090823461422413113e-02
1.538865502219175993e-02
-1.291485410407207770e-03
-1.315051363029748517e-02
-1.293803698753724814e-02
-7.310652337013328651e-03
-3.849420815830804487e-03
-4.640245149491977264e-03
-3.213873991592097832e-03
2.336793159794289549e-03
5.391983064991391107e-03
4.385902416426733924e-03
4.026737970633215147e-03
1.715084754641961950e-03
-2.844420647753038555e-03
-5.660975481530717592e-03
-4.715567760888617239e-03
-1.160369919284522843e-04
2.085009900212548683e-03
1.788248186260803533e-03
1.486721318620779376e-03
1.531981490661197187e-03
1.657153949469743030e-03
2.501162677831363871e-03
2.556658841370546432e-03
2.443510230481074196e-03
2.816783762105230842e-05
-4.232830663321466257e-03
-4.543195116003672686e-03
-2.734301336334053235e-03
-3.533571330698200702e-03
-4.036071891534604404e-03
-1.335707648898136609e-03
2.131040461498780875e-03
4.379518878835200572e-03
5.704062492504281476e-03
5.470674433768382347e-03
2.115696294014876057e-03
-1.818083706406808985e-03
-2.120109990708408335e-03
-1.605193887774420585e-03
-1.898363102045902081e-04
3.130110640929995892e-03
1.893117917375758625e-03
-8.851517494041402341e-04
-1.862339940109857114e-03
-3.011725217643977746e-03
-3.991352356264427775e-03
-5.349391267128893873e-03
-7.612487307979941276e-03
-5.952000478997978260e-03
-2.095264377859603743e-03
3.445270765122739748e-03
9.376939032700162824e-03
1.224355195044361105e-02
1.481099688074366885e-02
1.340047369908710893e-02
4.758464292447607373e-03
-6.610401836940183080e-03
-1.438196582321056051e-02
-1.482393347867432855e-02
-1.029299269706784176e-02
-5.563751209950161015e-03
-2.026190089934513158e-03
2.160992106188038431e-03
3.520451835772606900e-03
2.403536465182029569e-03
3.591334195909574433e-03
6.519917697314023437e-03
5.730463674875945802e-03
3.681464273569029586e-03
2.506849004618198849e-03
1.575577199180035843e-03
-3.683774120700250478e-04
-3.826985555266108029e-03
-3.811204999757313288e-03
-3.414697458807965536e-03
-5.721228802143223449e-03
-5.561451386148064287e-03
-4.465474807752146079e-03
-1.051249079541261575e-03
5.767635569122880890e-03
1.067379485234675428e-02
8.655190000577635268e-03
3.674149476502891351e-05
-4.791659706904462246e-03
-3.991453963906804042e-03
-2.138536063570338572e-03
-1.371865576880609578e-03
8.968252451834392725e-04
2.524017610370334931e-03
1.518604797584592559e-03
6.209468504142721381e-04
1.327396690511412753e-04
-5.555810711100699593e-04
-1.437583567821740021e-03
-2.195030936130059913e-03
-2.197540854843249136e-03
-6.556659396300913364e-04
-1.318056734350402115e-04
-1.049240802905674350e-03
-1.237139109540524385e-03
2.082812307772802327e-03
5.121995393804393455e-03
5.152146203628189640e-03
3.098314744079153776e-03
-1.648876436707793049e-03
-4.212768010860303523e-03
-1.400117502720653285e-03
1.129608839028012042e-03
1.576546437898229843e-04
-4.330062373342364809e-03
-7.312098064153875303e-03
-6.057346639494215305e-03
-3.942846309622227881e-03
2.231355780457145224e-04
5.024907634952582164e-03
1.040299360100060619e-02
1.643218416229190112e-02
1.813607470765754570e-02
1.068216790563246248e-02
-4.960839373608285675e-03
-1.605757987351459984e-02
-1.670670674250011520e-02
-1.515269551373437697e-02
-1.424765257560053726e-02
-1.251986291446834793e-02
-6.776120026626422481e-03
2.694972807165232995e-03
1.393400083891967352e-02
2.145807534572707898e-02
1.944560014344798651e-02
1.270828120673193548e-02
6.613440208190653029e-03
-6.967486989790359648e-04
-7.463047722782985803e-03
-9.668755061016437793e-03
-1.033130695166935113e-02
-8.347216654480803938e-03
-5.039546715367756134e-03
-2.927206399932423455e-03
-3.788197148518930319e-04
1.674619930620799410e-03
2.026073660335681731e-03
1.476015313394421968e-03
2.825443163321271836e-03
2.933573190077744426e-03
9.499290515580496776e-04
-6.244900655200905527e-04
-6.732562522453885371e-04
6.836147656561631768e-04
1.628928750568162933e-03
2.309022734871545111e-03
1.934819972356256442e-03
-3.008095065935917009e-04
-3.369337725583097321e-04
9.943049018265787999e-04
-5.011563351896030673e-04
-2.455494522768004138e-03
-3.868146512243263255e-03
-1.133728268535324915e-03
1.738378556054062446e-03
1.976730058085472957e-03
-2.723425791054755575e-04
-2.860076871695566448e-03
-2.551764452968188334e-03
5.461238381111193805e-04
8.465757223159228045e-04
-9.727129293937142578e-04
-1.788657744244357686e-03
1.215757630321305603e-03
2.764763155951429664e-03
2.150418515181348397e-03
1.550939263692055264e-03
1.145987008292336873e-03
7.947367486858200342e-04
3.698546371338517401e-05
7.926265783054745496e-05
-1.688935473401406695e-04
2.925135509345667490e-05
2.021615642013020915e-03
1.210691160306264424e-03
-2.108492458055199244e-03
-4.881291102415999568e-03
-5.106265851177424139e-03
-1.987795920791603655e-03
2.470035079732712819e-04
-7.896754820981726798e-04
-2.753449054920366259e-03
-8.641602574608331366e-04
2.167711800316895771e-03
2.694377065878262884e-03
1.617110059925215776e-03
3.771208147464886508e-03
6.327552709106401378e-03
6.881567302769563653e-03
5.442544861428842869e-03
3.832778806921682477e-03
1.732959901431127504e-03
-3.455675409980272020e-03
-7.898666221570501897e-03
-1.092767945777561520e-02
-1.136813117810182329e-02
-8.602048626197964301e-03
-5.467943839200141085e-03
-9.433216052419570331e-04
2.214018959378688794e-03
5.079895065164425141e-03
9.037244417892800058e-03
1.041931555773786128e-02
7.057489141069937973e-03
2.544592938233885149e-03
1.653267277049863667e-03
3.165577074458473823e-03
1.557425620817635232e-03
-9.373371331239325598e-04
-2.554564526608917984e-03
-3.665233043719562638e-03
-4.169011014687884834e-03
-6.688274259572603124e-03
-7.100716046660893871e-03
-6.133403315480578238e-03
-5.550225197283938094e-03
-2.970700448239219343e-03
-7.307901426029203996e-04
1.122815763038678563e-03
8.785802793034914321e-03
1.683044779478736971e-02
1.719850196107063078e-02
7.893714081370031832e-03
-4.423564144686528872e-03
-9.618497272746136598e-03
-8.720459026999373073e-03
-6.434568240321267979e-03
-3.042891359584414587e-03
5.703375856532719428e-04
1.553353078082780848e-03
-1.245607111517302258e-03
-5.614291649674279638e-04
8.255449305163103761e-04
-1.366709653220251350e-03
-2.090995828759763947e-03
-1.165795896596231139e-03
-5.339587671545366863e-04
1.564781373816583651e-04
2.783429110602150727e-03
5.252268754811757409e-03
4.696100909721972159e-03
2.661470045918862878e-03
9.883129988344275824e-04
-1.392501616733921943e-03
-2.158664528171457821e-04
-6.850802989757163021e-05
-2.482246786749003203e-03
-5.319249139925276947e-03
-5.362821054833539006e-03
-3.046185413539687168e-03
-1.384966000470541419e-03
4.289265238452708105e-04
2.445545715036187302e-03
2.578702131513061716e-03
4.383093080038245361e-03
6.216613299748266312e-03
5.052669180846978102e-03
1.209941327554735690e-03
-2.409144332854171958e-03
-3.672537760323283090e-03
-4.419489461979953827e-03
-6.032383991531438221e-03
-5.772613942843142325e-03
-1.510379492198741245e-03
4.306795139959409928e-03
4.956727261853998735e-03
1.341344451141146749e-03
1.373469112699909293e-03
3.342765265325676940e-03
2.171175672091449783e-03
9.486834807321467414e-05
-4.745640565715391251e-05
-4.570484187275369566e-04
-2.420254715986661607e-03
-3.100110288482080343e-03
-1.330982082091777255e-03
-1.430346756109637666e-03
-2.668326041022718153e-03
-1.555667941583055176e-03
2.052667436506524275e-03
2.973223575643179489e-03
3.358097265743149266e-03
4.760020291599625746e-03
4.318104345759654975e-03
2.541205198730615237e-03
1.173825208146297592e-03
-3.057666026912955921e-03
-7.609665481813287884e-03
-9.462069610818484369e-03
-9.546314273014108037e-03
-9.547583473621086905e-03
-5.353772793934444794e-03
-4.964847425273039103e-04
4.515353353298738083e-03
1.645388981169126213e-02
2.708378196498163748e-02
2.612726788718079327e-02
1.286351867588097359e-02
-8.133300198577305198e-03
-2.362029412465225381e-02
-2.661957448558990511e-02
-1.945101915611513119e-02
-8.377095541414967747e-03
-8.521893797650807875e-05
5.637844721275961195e-03
8.577713525013299159e-03
1.022140987014956599e-02
1.054514331491484234e-02
7.092423761247207241e-03
3.668201832157131238e-03
2.557127668507834777e-03
1.170251256389976497e-03
-4.720486129041556820e-04
-2.021655327089252191e-03
-3.864161688838530558e-03
-9.861115171375710656e-03
-1.895737942968571399e-02
-2.549142971043190029e-02
-1.584968647973078806e-02
6.186889792076656104e-03
2.338925683042213446e-02
2.748942455133954882e-02
2.404564020916008862e-02
1.534231428890076195e-02
4.814526115827700257e-03
-2.942548501413984243e-03
-8.259400505692337038e-03
-1.255444217592889891e-02
-1.327392659400610138e-02
-1.256672200577249598e-02
-1.070516622594627765e-02
-5.616217801724052334e-03
-8.124734391947400092e-04
2.996545781806073203e-03
3.622387687355466731e-03
3.029748683533773929e-03
5.489611849228695321e-03
7.034633913270294664e-03
5.210085713451345461e-03
5.876067671089439236e-04
-2.328118728840486342e-03
-1.208220266887520414e-03
1.809585661235284899e-03
1.037665427207570866e-03
6.701247774264420393e-04
4.260632170825165085e-03
5.575637218383292827e-03
5.063322450507500537e-04
-5.443523268959186111e-03
-6.454496182830585412e-03
-7.062863929320634289e-03
-5.826262059043033070e-03
-2.033238631464094701e-03
4.829127153794952800e-04
1.276370637066515839e-03
2.826126638473740443e-03
2.137137132663868063e-03
2.329850058079048145e-03
3.478020929490178905e-03
2.297562389093214200e-03
-3.812288228769117413e-04
3.833535356524071010e-04
3.678899796311734232e-04
-6.935994330168298964e-04
-2.406830711159870542e-05
5.690550137141207193e-04
-1.158088601386472375e-04
-1.146069269624935870e-03
-1.894153999457135308e-03
-1.578070431748259100e-03
-1.701952335462731877e-03
-1.325970821701376095e-03
-1.187381319977380686e-03
-9.560419750269437628e-04
6.102356343024443238e-04
3.068663480789170315e-03
3.678317180281968565e-03
2.128272874749475175e-03
1.909937244364652868e-03
2.077677503855933968e-03
-2.921229579495755594e-06
-1.633317095430552365e-03
-3.018510429543195140e-03
-5.585354230022205116e-03
-5.418638058015848129e-03
-4.310679096656982751e-04
3.076016481331504595e-03
2.771983794205989601e-03
4.263608027994376243e-03
4.615294520940030516e-03
2.420402067436525431e-03
9.160810837652710729e-05
-8.668605559024281527e-04
-4.128754981180290766e-03
-4.962703857044037034e-03
-1.979533522694511272e-03
-9.463905890081372643e-04
-2.885967941327853472e-03
-1.942993237167520712e-03
2.862437122128155906e-03
3.510074881561766041e-03
2.047896018575834452e-03
2.195126683791420990e-03
3.082530944785693682e-03
2.149354401604788075e-03
-4.323682830849869072e-04
-2.520149838629164984e-03
-1.525326060673404694e-03
-2.192895734540236622e-03
-3.324149891911092058e-03
-1.741994090553224605e-03
1.301903977581699056e-03
2.569698747597662630e-03
1.873813865948230871e-03
1.315240933048106731e-03
8.602078941083058251e-04
1.546879661551760557e-03
2.589178349921257040e-03
2.448366121241666877e-03
5.738237442262843435e-05
-2.887015455822561274e-03
-3.142587331706713817e-03
-5.076217187193051046e-03
-7.543106261998277183e-03
-8.316514627752832900e-03
-6.536956000768019345e-03
-1.959775546950927663e-03
2.438605006718483348e-03
1.021394281585916511e-02
1.984706404135095151e-02
2.077022482091189434e-02
9.846024278709127053e-03
-5.269758989090138172e-03
-1.145699419250626426e-02
-1.040968454370474680e-02
-8.700694970717230692e-03
-7.237339899586892576e-03
-3.995293447297519791e-03
-4.189015233809032391e-04
3.007653982187620621e-03
2.029655777103992701e-03
-1.311378848841011132e-03
-1.736208998360986482e-03
2.607739170905263009e-04
2.063817050707473719e-03
1.824707756057808656e-03
4.364671847373001717e-04
2.592554740732459697e-03
4.572587446948342405e-03
3.392501136253532352e-03
1.074317086556278835e-03
-1.152443739746704171e-03
-2.696217984737352743e-03
-2.226428867847509048e-03
-1.025591290879889579e-03
-3.898745496006253333e-04
1.580904560024174116e-03
2.359520513470072817e-03
7.951326585768664790e-04
-1.966060591878702243e-03
-2.171063118098485838e-03
-3.227951961530097034e-04
-1.482689038443220104e-03
-1.841790738523527106e-03
-2.301474012905591927e-03
-3.745163281899839113e-03
-3.379571423924532681e-03
3.124677188438142877e-03
1.170997876908276038e-02
1.084272197951997342e-02
2.872072762871293299e-03
-2.533403201621124787e-03
-7.307534608993555315e-03
-1.323777896861199656e-02
-1.418443115105790311e-02
-6.764533809880046364e-03
5.523704247635941207e-03
1.290561759804195914e-02
1.549916886554272323e-02
1.293601089346605240e-02
6.040820540799402352e-03
-1.637430032687180919e-03
-7.478063594115166857e-03
-8.403108507763792229e-03
-5.594314633263161932e-03
-3.565383698908875746e-03
-2.675373370809508520e-03
-1.411100561611723691e-03
2.585847990090350042e-04
-1.863772019896957702e-04
-3.449254197175309622e-04
-3.791094450670364803e-04
-1.192868358201269784e-03
-3.528161832042703543e-03
-5.383824842232958451e-03
-2.028868899406770059e-03
4.829417181281759480e-03
1.100157716554657147e-02
1.285959372913329443e-02
1.053742289830344840e-02
3.965115255881048080e-03
-2.852006274976345759e-03
-5.636835300500690933e-03
-6.540217733671738025e-03
-7.106796582448891494e-03
-6.582342403236639099e-03
-3.885609637238185334e-03
-4.131601660651371951e-05
2.892697294899673321e-03
1.826653619214496215e-03
-3.439808998245865021e-04
-1.456694820583308682e-03
-3.750293065708992096e-03
-4.717315828560635603e-03
-2.758412466075261735e-03
1.740664342442720287e-03
8.384497404483218924e-03
1.340471541908888099e-02
1.514986881354357835e-02
9.661071786621797455e-03
-3.524795004558359170e-03
-1.404263056079958077e-02
-1.411697985282167438e-02
-8.928746260107358820e-03
-3.028278847782457216e-03
-9.431478058504413637e-04
-1.839406617835912883e-03
-1.663667726241349143e-03
-1.710589112818901184e-04
1.810617431107227216e-03
3.895605192933105591e-03
6.282698359042461315e-03
8.221802274023385856e-03
1.060413452842663695e-02
1.001210458213847888e-02
4.218107135498686509e-03
-5.058996856618584725e-03
-1.046260461880382624e-02
-1.210719627672112927e-02
-8.868365783772881247e-03
-4.171880823857003658e-03
-2.174089322213198974e-03
-1.505650940956652960e-03
-3.110850021267482206e-04
1.302329028966764390e-03
4.001583226339300130e-03
6.013426140832385351e-03
5.251230491240202122e-03
5.868963532821089811e-03
4.829102078798675098e-03
1.514716107644639665e-03
-1.200048920397209619e-03
-1.522476106761897754e-03
-2.396400581182271932e-03
-2.949541743660503371e-03
-3.368906674995839675e-03
-3.521391259483209243e-03
-3.712655239818734784e-03
-2.091568022396536261e-03
-1.444612817794457490e-04
-7.150482631060948828e-04
-1.601312776995051984e-03
4.702687782419094241e-04
2.055249093484346444e-03
3.665186513355533828e-03
5.794406221356484567e-03
6.932452512647903700e-03
4.173193659720350786e-03
-5.274182672039449352e-04
-2.025473403722399552e-03
-1.138018574824973617e-03
-1.583896380165612967e-03
-5.093569466080145880e-03
-6.825185502898785221e-03
-4.057697421790258836e-03
-2.597623759279124676e-03
-1.978699416487476447e-03
2.551497845349152884e-03
6.294039782785608439e-03
6.079706695981728672e-03
4.231307567683531383e-03
1.845924062014555255e-03
-1.054928504347042760e-03
-3.847852219249724409e-03
-4.239457513744177702e-03
-2.538368826612730136e-03
-5.866826157796534418e-04
-9.969014216440817526e-04
1.721122750478623696e-04
3.191508793317768700e-03
3.136641925841122426e-03
2.705237200945574943e-03
1.538067407364812188e-03
1.562542208793202660e-03
2.829447983628221750e-04
-8.223671221049141337e-04
-1.026065392571194352e-03
-3.093680171231520844e-03
-5.192704518035845367e-03
-3.942211430639949200e-03
-2.110529835108270445e-04
1.337915483033330199e-03
2.588482017580425772e-05
6.785281995615244973e-04
2.480695788778828053e-03
1.716236588271713567e-03
4.588911098900437958e-04
-1.978697165316775641e-03
-2.183759892410010433e-03
4.859322110777866601e-04
1.610242835268960344e-03
1.928482311021507837e-03
3.830029143132884003e-03
4.032245420887320062e-03
9.089690983828076828e-04
-1.688446302484851100e-03
-5.265678212667936411e-04
1.221038184588415761e-03
1.460374916547505821e-03
4.072636129740551340e-04
-1.845468402456775870e-03
-3.795237198250975448e-03
-4.356411147872093180e-03
-4.537717203512019008e-03
-6.224350307054122601e-03
-8.217655213813129453e-03
-6.856458928837885249e-03
-1.677155156745373460e-03
3.349167223598225988e-03
9.413089613367278327e-03
1.812198816904147039e-02
2.218187569994102201e-02
1.287016291905139498e-02
-2.108434499766372993e-03
-1.005614089732006361e-02
-1.249342762884974277e-02
-1.262979888495763606e-02
-1.015936527042354820e-02
-5.214512034765551689e-03
-4.926334198073333438e-04
4.394718222874564005e-03
5.141113447697815558e-03
4.493000536069126187e-03
4.922373367062972752e-03
3.282460221289815964e-03
7.221801312295706137e-04
-1.284751178491842826e-03
-3.690077504768013352e-03
-5.297573782368549151e-03
-6.430441724847417613e-03
-4.207864730158886006e-03
-3.019003317008218723e-05
1.326952573054221212e-03
1.315526051968060302e-03
1.807134858262509410e-03
3.406695825683171523e-03
4.531967582682662997e-03
6.295364494263444750e-03
8.235226254120662018e-03
9.545411589076598438e-03
9.089289204468727068e-03
4.350016181602454381e-03
-5.038595778546427727e-03
-1.330271215850656157e-02
-1.751112088663102709e-02
-1.420321846500750655e-02
-1.021510002998488563e-02
-9.710856947985726725e-03
-5.800637742264102593e-03
2.808837449812876409e-03
7.212357833964907518e-03
7.199967414373402604e-03
9.857000014251904654e-03
1.504530389167971043e-02
1.813342847704609365e-02
1.456636150947563692e-02
4.444625034570511175e-03
-3.955837406978292455e-03
-8.662018296358804312e-03
-1.169321876152346930e-02
-1.507091900898905289e-02
-1.225309762964930070e-02
-5.818181881503680340e-03
-8.934362173871051183e-04
2.020811021983471862e-03
4.303224809941056522e-03
6.154150103134481582e-03
5.061519151162463190e-03
2.963039031085809485e-03
1.048625935702340124e-03
-1.469345168859486879e-03
-2.634070782803589385e-03
-5.076011587547143815e-03
-5.185948930172296946e-03
-1.513444022627704688e-03
5.380545833201525602e-03
1.200442740693720943e-02
1.223971778408594786e-02
4.514249182011642429e-03
-4.378291235662237421e-03
-7.357864869240606127e-03
-6.051440989602104199e-03
-4.069618998005133936e-03
-3.946572856168617527e-03
-3.929616654052432365e-03
-2.095686563733148520e-03
4.449965598722347478e-04
2.751637334240568736e-03
3.286656740250879904e-03
2.810795225545755730e-03
1.479900638547481740e-03
2.045919873587912722e-03
2.377854658464878534e-03
1.564338965714772442e-03
-6.963936223336219308e-04
-2.721884019119608610e-03
-1.911608698130297899e-03
-3.906275719041888816e-04
-1.249528565105920846e-04
-1.089283752173818374e-03
-2.029536333959056776e-03
-9.210851442438629287e-04
2.996520821267472127e-04
1.581248838204056615e-04
6.906953713874940679e-04
8.803486131035691969e-04
1.078733454841667274e-03
2.568523705839555714e-04
-6.402298682181508825e-04
2.369332727559310306e-04
1.674077995035540018e-03
9.191221011764710369e-04
-6.712178656151401076e-04
-7.112745892128557459e-05
2.991730867519009057e-03
2.682397039790141227e-03
6.424964261724894383e-04
-1.788020917629040219e-03
-3.872597422283744189e-03
-5.170238842568821748e-03
-3.397987440762236053e-03
-1.145251095152560869e-03
-1.298501315412742664e-03
-1.552092540735478020e-03
-6.694712580011735270e-04
2.426874474618787719e-03
5.293533340307467541e-03
7.913644601820894395e-03
1.101736745168498816e-02
1.074325195080609585e-02
1.084704468910502794e-03
-1.130143785794037424e-02
-1.547857970912701331e-02
-1.193901668272626115e-02
-5.579571911150692405e-03
-1.275009571862664769e-03
1.612643863298256859e-03
2.819583216421883524e-03
4.681890728491610101e-03
5.413353487600051570e-03
9.016425490592365130e-03
1.062885446567472282e-02
3.388308060592167600e-03
-5.086680694844238244e-03
-8.256452758571035042e-03
-4.926757475319850678e-03
-1.073479001569874235e-03
-8.343613325191769504e-04
-2.842797086276344348e-03
-2.514376150099614619e-03
1.894038920163580248e-05
2.196340199721813491e-03
1.466927424565037238e-03
3.216168976575186755e-04
9.486801103900780775e-04
1.262642796616135921e-03
8.517858435052483735e-04
2.501214071393319510e-03
4.415193038202565225e-04
-2.410104660650155394e-03
-1.927336441592921281e-03
-5.569141791825938260e-04
5.650836237292121563e-06
-1.183701212161932881e-03
-5.025050989379529782e-04
1.083575361450704036e-03
1.531291407367751890e-03
2.146483591396490618e-03
3.466630047143763344e-03
2.670187254632219471e-03
-1.050397480014798830e-05
-9.791918417324221770e-04
-1.815610803456684701e-03
-4.540682436808211007e-03
-4.746606428287206483e-03
-3.191784549599828349e-03
-1.376065628940943480e-03
-1.698280715781153298e-04
1.249993490390491476e-03
3.410944112315792906e-03
4.403059700637397024e-03
2.772591353298858950e-03
1.637357747817735345e-03
2.911791231455732997e-04
-1.983295391570127388e-03
-2.863512648020025576e-03
-2.174815542726391254e-03
3.991101688065252281e-04
2.570716177690713072e-03
1.738729567097024560e-03
3.303367933600981875e-04
-6.055827033624503310e-04
-1.243683329011656446e-03
-1.301395685106050562e-03
-3.673007454446568183e-05
2.075182108119801808e-03
3.343625072950353900e-03
1.004253726708213959e-04
-3.381357912024061073e-03
-5.263740273542915141e-03
-3.856430920597615601e-03
-3.723144248268268636e-03
-3.478753599014111544e-03
2.381647021374108132e-04
6.198412033933412869e-03
7.966796991263836586e-03
6.411084817755519603e-03
5.581646155180676472e-03
5.084989127045465122e-03
2.226377184926344073e-03
-2.792887111905117091e-03
-6.711754121170487170e-03
-6.707445448347040297e-03
-3.131692243183946660e-03
-2.249489913145094177e-03
-4.790654927200874331e-03
-2.439920121372123225e-03
1.712638729081402507e-03
2.472073778406198418e-03
-3.962483695762800823e-03
-1.146592702090911201e-02
-8.884645929876628864e-03
4.079039609767304807e-03
1.547904047491586478e-02
1.881373947019880991e-02
1.500233009859665637e-02
8.263966884431834387e-03
2.028418352819215967e-05
-5.599009850889975944e-03
-7.690028038072668076e-03
-9.928882657082844718e-03
-1.032979908684814908e-02
-8.248645543589049403e-03
-3.914342835944714834e-03
-1.020559351095969583e-04
2.731884719382327161e-06
-2.013022457399088385e-03
1.421729512507200572e-03
6.302982891467796660e-03
7.720226403686088201e-03
5.795059273565176562e-03
-5.858027770195243112e-04
-4.624013959311046133e-03
-5.654071639600251331e-03
-1.975780679679922484e-03
4.566177530354482809e-03
9.498052835966998633e-03
8.161179809810464522e-03
2.278722874252367935e-03
-2.782781963814242188e-03
-3.496389041040682058e-03
-3.504104465006280082e-03
-4.603288696513705737e-03
-6.889912987971021606e-03
-4.937132326189698842e-03
-1.372111047562495469e-03
-9.249988104101452505e-04
5.543977898308650835e-04
4.036770940749895807e-03
4.254686355555010492e-03
1.902278406864041675e-03
1.034344667919532374e-03
2.651834067154661655e-03
3.629394567445090678e-03
3.747640788914093340e-04
-2.474914622074746249e-03
-2.886808621425253959e-03
-2.499716816187388859e-03
-9.772385559947474858e-04
-2.792445124592157941e-04
2.216463866433093950e-04
3.835563256432889846e-04
2.347357506461639123e-03
1.686819454108340116e-03
-2.313870929232791235e-04
-6.721466584887562370e-04
4.381244217901723777e-05
-5.437569414511614439e-04
-1.845969651565537457e-03
-2.360673308783484657e-03
-1.961310714116349350e-03
-3.715112410674304907e-04
2.681547086937342578e-03
3.041283527422424405e-03
2.802400175832861755e-03
2.071360213026604558e-03
3.408057323448885224e-04
-4.566623206809228286e-04
-1.744134166661442291e-03
-3.109430357445343556e-03
-2.760051857723455973e-03
-4.200828934112735714e-04
5.350593061384742184e-04
7.086655356803499371e-04
7.153808319858801987e-04
2.096157415165446694e-03
1.976812261895796383e-03
-3.716998593592255647e-04
-2.924034351464751668e-03
-2.732770230455543788e-03
-5.075929198369369399e-04
1.213835917136644755e-03
1.420540182700961648e-03
1.083535649523521610e-03
-2.035233988555061005e-04
-1.066555946290545471e-04
3.793233717907984519e-05
-2.488739444800464485e-03
-4.010754671246454607e-05
3.575414960023527537e-03
1.944675602800926455e-03
2.413019111979060273e-04
-1.840535973774336741e-04
7.926330054271464153e-04
1.156135180817422425e-03
-9.560205466420148819e-04
-1.757258902402128540e-03
-8.119338557727919653e-04
-1.491184584590239280e-03
-1.969471783487505758e-03
-2.549381083008873082e-03
-3.527440814369014674e-03
-2.756162679822725826e-03
-7.366426878183640582e-05
1.317854056232364282e-03
3.697160869161452996e-03
5.969904796930153648e-03
8.396836112395668697e-03
8.169506439416260313e-03
3.839207360213977866e-03
-1.624400108526499438e-03
-5.554442604379281577e-03
-7.713125094652553519e-03
-7.078172896346810773e-03
-5.345394587123058344e-03
-5.704413233643210873e-03
-6.735540671685869181e-03
-2.871812499880401891e-03
5.827925222029095055e-03
1.016007398844025363e-02
9.466691544463735550e-03
7.354508088511024951e-03
6.195773972327330535e-03
2.395184861834479071e-03
-2.928853545844538765e-03
-8.519657740315277755e-03
-1.328447870244229938e-02
-1.247752822839224944e-02
-5.023744279696319183e-03
3.732820860944227343e-03
8.281498884294071980e-03
8.891772859106231511e-03
1.023689937148216343e-02
8.576014638723268579e-03
6.100411102096338356e-03
1.784962198129776438e-03
-4.177134307311516394e-03
-1.082084481567193238e-02
-1.304138413264589562e-02
-9.672616208259444612e-03
-3.939822615293118481e-03
2.028611444294390112e-04
2.951289098863855206e-03
2.692866757205527803e-03
1.490003603771686671e-03
2.475679764435292571e-03
5.723786628171309045e-03
8.393753790338862389e-03
6.098596846866933749e-03
9.900617902029787681e-04
-1.597077323979687611e-03
-3.974799044303956551e-03
-4.804576333178165251e-03
-2.142698259397350126e-03
-1.673936291194079917e-03
-2.668524368084400442e-03
-1.488373066029619789e-03
-2.830933336758162475e-04
1.096868413874032243e-03
-3.947799318125168452e-04
-2.916066312842303856e-03
-3.707872120693173849e-03
-4.713671890579497308e-04
2.829769169785657096e-03
4.969145060674007817e-03
8.982496821812622698e-03
1.347182657004519432e-02
1.291547048342038713e-02
3.474562907020445780e-03
-9.672239033219285839e-03
-1.994703555449970148e-02
-2.012634563746550434e-02
-1.225438140725024216e-02
-4.439898857552050486e-03
2.868863337686411528e-03
9.241169823359740229e-03
8.600599129685346234e-03
2.481377877971157036e-03
3.157309058829181180e-04
4.923109107435925773e-03
7.921916272622873262e-03
7.119102493250880660e-03
4.374231255051931090e-03
5.701430933502985802e-04
-1.629140104126567236e-03
-1.730155068734770410e-03
-2.764926054193888542e-03
-2.421247867262963770e-03
-1.873430953673239268e-03
-1.644710607293263386e-03
-3.270788400825253798e-03
-2.422177993330892985e-03
-2.020001090366250942e-03
-2.621104132025526331e-03
-4.252420358695593872e-03
-4.893534916036817312e-03
-5.067610532803732727e-03
-7.248555347073690376e-03
-4.437669585723692627e-03
3.334387913478590801e-03
1.264748176455985154e-02
1.804568996786907326e-02
1.553230940947305377e-02
1.080220024616570899e-02
4.441543532141669325e-03
-1.959883210414814416e-03
-8.082254434195934936e-03
-1.012609152687146512e-02
-9.489109226209451256e-03
-8.627119181749179008e-03
-7.528909924128405172e-03
-4.621190284420374252e-03
-2.104114080447022552e-03
3.051218581249116619e-03
6.433489440553895149e-03
5.339031872718542557e-03
4.256145784011320515e-03
1.886137919631332210e-03
5.955711340313730572e-04
1.532455975289217013e-04
-1.054598083899085286e-03
-2.213773861438797508e-03
-2.068893702097980916e-03
-1.061822966905038917e-03
-2.650424279605998476e-04
-9.076220710734870937e-06
2.101343794525532913e-03
4.627358219737955948e-03
4.129837002354490652e-03
2.040269262960746864e-03
8.521170590511168612e-04
-7.546361779755159874e-04
-1.496721717937390429e-03
-2.362423192386085141e-03
-3.552838790179266206e-03
-4.934519853208161298e-03
-6.189498109168931582e-03
-2.848455978938191965e-03
5.831479389196969881e-04
7.916825967688828050e-05
6.292451124925158013e-04
2.954087695286196445e-03
3.343278677462175209e-03
3.107140115179289706e-03
3.839883976593540076e-03
5.737192502984459971e-03
5.459123061906175252e-03
1.472962266778178727e-03
-1.516663991499502635e-03
-5.225521282381120555e-03
-6.642892675133712024e-03
-5.043003487490119348e-03
-1.215901654632595879e-03
1.468419965892787732e-03
-6.496706143661156851e-04
-3.738434894763793554e-03
-2.886619064701924364e-03
-2.179209086942821959e-03
1.775855767624822876e-03
5.039927677434662655e-03
5.339985656857264978e-03
4.352440734697047078e-03
3.732988868180986321e-03
2.674984438464819616e-03
4.816474209532880607e-05
-1.629195600056924454e-03
-1.371697499313207381e-03
-9.401103587019395396e-04
-3.613357655525274454e-03
-4.111382531924864629e-03
-3.849320534494984989e-03
-4.221260112713936391e-03
-3.396005355230598526e-03
1.834115346535504732e-05
3.765681021987919621e-03
4.835668224251005350e-03
4.798786891912603866e-03
4.461175000524226879e-03
4.472020325004597181e-03
2.423449423541522863e-03
-1.502713321549343064e-03
-3.769532721715880552e-03
-4.500863775313617907e-03
-4.731898868824053507e-03
-4.423792737465547138e-03
-1.853321784799471074e-03
-7.864984405095670327e-04
4.620563222711689344e-05
1.451611233856129344e-03
2.394896474954718874e-03
1.977875257959017894e-03
2.639085426987167193e-03
4.658190051612535847e-03
4.019666242368265946e-03
2.486162451068962657e-03
3.331209347495939482e-03
2.496541359040847525e-03
-3.464384144187972799e-03
-7.458719573284641052e-03
-5.730988312543666523e-03
-4.570161333923007836e-03
-4.284073728459686023e-03
-2.861167229155684409e-03
-8.564647084224185237e-04
5.858165041060250065e-04
2.317722764661292543e-03
4.888992794695738893e-03
5.027724701915010398e-03
2.955810307874108273e-03
5.509780048059572093e-04
1.215884207431767783e-04
1.047772697699280060e-03
1.155267757652744766e-03
-6.878442888766084619e-04
-1.972566369475996922e-03
-3.577091572095406329e-04
1.759392314024132683e-03
1.522774636020471058e-03
5.082150976920493408e-04
-2.135938155384820448e-03
-1.900211760506093821e-03
-2.488964030356696083e-03
-4.372614991861031170e-03
-3.107558814048121728e-03
-3.230961679471162137e-04
2.226760834256215696e-03
2.963968210323615713e-03
2.006624054539988666e-03
1.773006885670205075e-03
2.244930332023105206e-03
-1.065871278095140720e-04
-3.324539116728799423e-03
-4.091457400973083462e-03
-2.617771728349863134e-03
-1.884401770597504602e-03
4.389847064633584182e-04
1.460462626750071592e-03
1.454298373188552896e-03
3.095907093460687712e-03
6.579453377936295838e-03
7.332587225143294418e-03
4.568448926472611429e-03
1.754054702742168827e-03
-3.950656855142550068e-04
-1.610299258815025983e-03
-1.748341139370652433e-03
-2.759331855475833251e-03
-4.859230284182196845e-03
-6.673591091542518776e-03
-9.201481571470071855e-03
-1.383488559432770326e-02
-1.382369593223788280e-02
-6.346659010638618613e-03
5.788294489273823965e-03
1.579754539088425863e-02
1.930548833233678568e-02
1.508585027933637135e-02
8.708498762349600394e-03
3.377067817605628689e-03
-6.942724849548087692e-05
-3.604774707614842848e-03
-4.217695792252132425e-03
-2.741864919715415478e-03
-7.820945863233838297e-04
-1.760465236075317618e-03
-4.640099705018791570e-03
-6.960190985486494272e-03
-6.654991628214960812e-03
-4.946541438470031596e-03
-1.919326490527812875e-03
-1.103772874663762468e-03
-6.376234581776607730e-04
-3.658038890919760016e-03
-4.130425510744651502e-03
-1.449684046371158181e-04
5.298857208164428970e-03
1.083371544829383332e-02
1.243584075790648592e-02
1.089135515297925787e-02
5.994433602591226450e-03
5.186475366963977287e-04
-1.602870464371366826e-03
-1.974152909629436296e-03
-1.764215361665281675e-03
-1.578667480379595059e-04
-1.656626168089981839e-03
-4.308118466367309891e-03
-5.792030087172944305e-03
-7.833010952772185426e-03
-1.054955947516549031e-02
-1.321933572576478207e-02
-1.200079338448390570e-02
-8.343559934855125995e-03
-1.840969152935646594e-03
1.431984002233606217e-02
2.906860443687419443e-02
2.929704633069223421e-02
1.540621928740349734e-02
-2.262172859246434919e-04
-7.585862588802659047e-03
-1.014829510128653460e-02
-8.991703269731797857e-03
-5.827592413517538282e-03
-4.353128642851506781e-03
-5.807500995461162448e-03
-4.989908632410955565e-03
-2.609141657678590558e-03
-8.534337340018957347e-04
1.194646631980228593e-04
1.263121207436966771e-03
1.278734405146218344e-03
1.946902459491197833e-03
4.150552334193105541e-03
5.118585525491798661e-03
2.994580598526741782e-03
3.361250264020323189e-05
-1.218316283300552175e-03
-1.590677254172857000e-03
-1.324149597777098814e-03
-3.582281236042014153e-03
-3.924533700173330787e-03
-1.904248489405101176e-03
1.510976167684956173e-04
1.411986149414211746e-03
3.615701889338691476e-03
7.101531538304399656e-03
1.234153230771983974e-02
1.308181340145911538e-02
2.456613748810995267e-03
-1.235060820505422090e-02
-1.635008684933396059e-02
-1.160598504315316255e-02
-8.073294084669325327e-03
-5.742531106953270396e-03
-2.272445092438566457e-03
1.660798454779269370e-03
4.792498132324239310e-03
7.238533903859686001e-03
8.344735983804698123e-03
6.369440154736442927e-03
5.799177840669158396e-03
6.205987753837422655e-03
4.842733697606058964e-03
2.905295796376152970e-03
-5.610449571693237446e-04
-6.513150991733438096e-03
-9.488667277124940291e-03
-1.056491786883369775e-02
-1.017967311307746946e-02
-6.602512507647075035e-03
-3.109140612767354473e-03
9.792815421520867922e-05
2.062778975923513797e-03
4.723988153899334394e-03
9.238036058568094636e-03
1.199939299367820851e-02
9.972174533834343366e-03
6.637178586654903997e-03
3.753818846226550984e-03
-2.295096905781035621e-03
-7.980265161502428026e-03
-9.631827313281019973e-03
-8.614077215405151547e-03
-7.346561860694353178e-03
-2.581572565222377876e-03
1.630982368237020958e-03
2.795390653451622267e-03
5.309761636047700267e-03
5.662378693481723464e-03
3.109536553210528586e-03
1.198142005237595861e-03
-2.307977679515975291e-03
-3.681343323238792185e-03
-1.473053041184971008e-03
-2.008763366714607247e-03
-3.065234518021284302e-03
-1.503912419788655487e-03
7.733387688737694901e-04
2.007140896379642093e-03
3.017158510652223017e-03
2.925624532736474225e-03
2.206487299191914764e-03
1.616501060956394235e-03
6.020642230052627352e-05
-6.632785164898157883e-05
3.009488395403913438e-03
1.440246778380848336e-03
-1.482551156657592201e-03
-3.223216208684066223e-03
-1.995265466141212408e-03
-1.638892021476241875e-03
-4.140738518841366282e-03
-4.139722011088214741e-03
-3.729708415972152104e-03
-1.935228814858419230e-03
2.230201233150264084e-03
4.567929760659068805e-03
3.619900900317379790e-03
1.880857769157522280e-03
-7.258502171463941525e-06
-2.089135933695605689e-04
1.097609386178726191e-03
1.414475248096996396e-03
1.877270224491636979e-03
4.207917341141318573e-03
4.923559419662353574e-03
2.822893524103548251e-03
-2.395531683594060216e-04
-1.935085122083194916e-03
-1.432274066191516334e-03
-2.132789332685778184e-03
-4.949621164480811318e-03
-1.181283563194876138e-02
-1.666834559909140603e-02
-1.403018122621089818e-02
-6.165330300978859139e-03
6.348680355670355789e-03
1.819441982055316348e-02
2.204090256418532803e-02
1.936090768424151773e-02
1.187627786505252026e-02
2.929635405354214048e-03
-5.713399760552470043e-03
-9.731218814243878731e-03
-1.046891143820685884e-02
-9.884844765340322637e-03
-8.398170651584133811e-03
-5.028940999435546448e-03
-2.273384120826171372e-03
-1.218758548125985263e-03
1.506011197877560282e-03
3.806005985066618445e-03
3.757531183767267181e-03
3.718426338233834106e-03
3.604881130450621109e-03
2.714443581476565660e-03
1.093226835155373554e-03
1.973538163293464195e-03
7.861097478443852728e-04
-1.564088416959972779e-03
-2.510190755875998329e-03
4.384409942748176671e-05
7.082981133407293805e-04
-1.333663498916742678e-03
-3.237648793977344029e-03
-2.614710882744651372e-03
-1.038592728008664928e-03
1.296079052151645093e-03
3.860447695958587125e-04
-1.205143817281544407e-03
-1.464485670598550501e-04
1.861225977025336492e-03
3.272179626053466940e-03
3.763776079654670374e-03
1.337873226357510483e-03
-1.421501488197698775e-03
-2.448821639952619006e-04
9.074137205390641042e-04
-9.963435794052160916e-04
-1.647889901766438252e-03
-2.519676014821981089e-03
-1.861640009931188377e-03
-2.179136814904873102e-03
-3.522072158794895859e-03
-2.726863531557524069e-03
-1.369033824217243741e-04
1.610299461697719267e-03
2.762693116996802964e-03
3.393777427545677846e-03
2.174891995004130715e-03
1.252923782969445543e-03
1.975205776583709508e-03
1.227551709718315270e-03
1.965843574222042849e-03
1.930329804133865774e-03
2.351441701108410165e-03
2.924756264785279784e-03
2.127956331658190352e-03
5.901252385634189572e-04
-3.321432095577987395e-03
-1.013414521419322978e-02
-1.407520278926551772e-02
-1.100349214975623879e-02
-3.294908042783436120e-03
6.253551169766260499e-03
9.071397632311023126e-03
5.296126413851313421e-03
-1.124642002749952742e-03
-4.430801689923115003e-03
-7.235087909416495090e-04
8.669588052109220358e-03
1.871611919271633576e-02
2.067983438427820411e-02
6.246665102316772446e-03
-1.278033110967854644e-02
-2.170897766677577778e-02
-1.743868630396929950e-02
-8.905244932220765519e-03
-2.271239291799852494e-03
1.518462057890425680e-03
2.157009833157207384e-03
3.479076274500073496e-03
3.534334518668490622e-03
5.107167612711177064e-03
7.469091455243262977e-03
6.525796748484669584e-03
6.258818273407343834e-03
4.841050446837043449e-03
-1.851486152742588251e-05
-5.422620759866689927e-03
-8.771638969120521684e-03
-1.126664345541036373e-02
-1.088636190623177083e-02
-5.591147088592427102e-03
2.646199528130190309e-04
3.249362204886365683e-03
3.896190210252854086e-03
4.555991508557052060e-03
8.777418611118316047e-03
1.290757479507491888e-02
1.188730967056903821e-02
4.288142485465420463e-03
-5.698201251318758299e-03
-1.496449160483293885e-02
-1.354279524958490639e-02
-6.567065174255515801e-03
-2.271860904594352065e-04
2.966108731587815354e-03
3.877987327862487867e-03
4.002629887610601074e-03
3.783151032971877187e-03
1.541400332647131473e-03
-1.030880497680317824e-03
-1.009990640378049089e-03
-1.926346998862281141e-04
-1.587759866827870769e-03
-1.483485356625107365e-03
-1.655946306728335376e-03
-8.265791977499344035e-04
1.215436958869169038e-03
8.638272015481704685e-04
1.373654935039153938e-03
1.414861842878386341e-03
2.089557329091339382e-03
1.132715839147263679e-03
-8.318410608871783761e-04
-3.342569530315417543e-03
-1.368790963105077614e-03
2.788956494103203218e-03
1.636779169487132760e-03
-1.184013432731996973e-03
-2.186796134076920538e-03
-1.743656494985559868e-04
-2.049718152114829537e-04
-1.384363946182641135e-03
3.881962516198039261e-04
2.044230270613782863e-03
1.128113107057163731e-03
2.221557373246049120e-04
2.328123889607487749e-04
8.563763584825219075e-05
-5.280066607881926362e-04
-1.150959280841749822e-03
-1.781250599445931108e-03
-2.720212659885713844e-03
-1.979659662141766696e-03
1.817341364512245786e-03
3.178546389051622924e-03
2.710812669778581933e-03
2.083536216114440561e-03
1.434349875550650555e-03
7.430998886413841056e-04
-1.082086116019256384e-03
-2.693049634071277131e-03
-3.045721318623655603e-03
-2.008196254235139738e-03
-1.427087937281660982e-03
6.155626708051236057e-05
3.675814797348322255e-03
4.384502347347251847e-03
3.266853239058680521e-03
-4.218185268886301843e-04
-2.230662916034362522e-03
-3.499266400442865941e-03
-3.118030655603405699e-03
-1.801683396091048953e-03
-1.786384102659049683e-03
-2.713435658527040776e-03
-1.081076337719367189e-04
1.950169178837319597e-03
7.405296391649781847e-04
1.304528276770514821e-03
2.557220845982656129e-03
5.678206850067780802e-03
8.162119473850442189e-03
6.264518038304684247e-03
2.181081736378852505e-03
-9.776317382121952216e-04
-3.141740418008884955e-03
-5.744332067372908031e-03
-6.981023464930710513e-03
-8.211713902144930632e-03
-9.991011246250095998e-03
-9.935220915137899303e-03
-6.851120620927691682e-03
-2.580962083857151271e-03
4.846487091139599357e-03
1.417812098062368534e-02
2.015626175395022340e-02
1.640482215578009315e-02
8.697973594166831524e-03
1.075837995617427321e-03
-2.010663108148225391e-03
-4.687956223287302777e-03
-1.048645247481512152e-02
-1.316633837224769933e-02
-9.212566393349526719e-03
-3.467137324395484343e-03
-1.033431129152841870e-03
-1.627212470120952209e-03
8.795698220851069869e-04
5.025659983625004393e-03
4.499106327428876659e-03
3.691964995124819623e-03
3.195055262678574235e-03
2.078117135745600075e-03
3.237951231805419241e-04
-2.399099045134319482e-03
-1.704959810828212330e-03
-7.022209112490227813e-04
-2.214520123353224974e-03
-2.374739245814063825e-03
5.224801933129102471e-04
2.203987478093922658e-03
-2.591490106153460267e-04
-6.702980836347078274e-04
2.712935764473457280e-03
3.518564122066290302e-03
1.912259368673944375e-03
9.406008613751760342e-04
-1.091279808787038981e-03
-1.608552421989934604e-03
-7.762745830373221721e-04
1.714908784858010194e-03
3.759564574508247794e-03
4.814291238664895195e-03
4.075284491342865030e-03
7.905801889849506641e-04
-8.176756505634008923e-03
-1.766657241398085151e-02
-2.139738619367084066e-02
-1.579132324462945852e-02
-3.957992590562919334e-03
9.319028214095076770e-03
1.603162551568014169e-02
1.911388141047443492e-02
2.387780858426155964e-02
2.152239326358454038e-02
8.968405266617950414e-03
-7.013288522518372654e-03
-1.390473406272688638e-02
-1.356030354146891236e-02
-1.333288176308401220e-02
-9.877924717485577627e-03
-6.836893041826676808e-03
-4.450995301535307265e-03
-2.914788349866515287e-03
3.673025455550131806e-04
4.974350631376482125e-03
6.389046893326689319e-03
4.681897235851652413e-03
2.361990129960277792e-03
3.145160840906621822e-03
4.621645515292305099e-03
5.270708123274579597e-03
4.307657904560479797e-03
2.297748699464910969e-03
9.506162526472346425e-05
-2.521243271032160092e-03
-3.326564609701845605e-03
-4.506617454566485236e-03
-5.934464744725733744e-03
-6.384995603938321308e-03
-5.973937541996273727e-03
-5.091683335638241652e-03
-4.562127522023549410e-03
-2.448271624321769757e-03
4.256818140917255182e-03
1.259757421623686029e-02
1.593237592013573359e-02
9.722427550751599340e-03
-8.105750157911684325e-05
-4.513956984425265655e-03
-4.259884953102191160e-03
-4.149555575953429130e-03
-3.690930014958703365e-03
-1.484203756653261009e-03
1.125848135268425190e-03
3.110490092211547469e-03
1.025360334545235029e-04
-3.695630728459327243e-03
-3.747306554876232362e-03
-2.350511073427310246e-03
-7.029285975248985002e-04
7.912899220311523079e-04
1.449886868854953752e-03
1.375594969199219093e-03
1.450117117630341347e-03
4.284067194243602449e-04
-3.378034122764859721e-04
8.046104430865562516e-04
1.581405840671548299e-04
-2.175940335289215568e-03
-3.828834517786557264e-03
-3.525957466156291222e-03
-1.548766844219831660e-03
2.703663098922697103e-03
1.040814736478159509e-02
1.568908851795117534e-02
1.096324688550458400e-02
-2.371548991796118121e-03
-1.301046534785016591e-02
-1.361527212273625290e-02
-9.500387696801429818e-03
-3.670042520367474467e-03
1.814249223975021889e-03
3.394432795684351484e-03
2.881343396371970154e-03
2.110845072084090949e-03
2.939268762808087184e-03
2.203000648988482843e-03
-3.518264947768216886e-04
-7.004598616526761402e-04
-4.615808617615599612e-04
2.710322524472690790e-04
-1.041614020675224071e-03
-2.824905476719024016e-03
-2.139325551096016992e-03
1.045321112076807567e-03
2.780531448551496008e-03
3.683530242932026889e-03
4.970586647064088870e-03
4.949455350155788219e-03
-1.129843167071998547e-03
-4.743627285461337988e-03
-3.315630735069804904e-03
-3.416668074609858097e-03
-3.671244480832219683e-03
-2.385145364612201082e-03
1.655168301619355787e-04
-8.619149618175466973e-04
-1.605391830681082146e-03
1.799293662532736775e-03
4.668067321585712623e-03
2.918568417881369555e-03
1.763310844957793324e-03
2.584248637255138342e-03
2.321322047626177103e-03
1.407725234934975632e-03
-4.252558101878590964e-05
-2.383802823945312555e-03
-5.214305176245903096e-03
-6.304310189094515689e-03
-3.882229220991984756e-03
-9.055740681000068893e-04
1.653112623998250407e-03
4.500374816831452865e-03
4.527744365820692528e-03
3.051102319319345686e-03
2.912330339611568768e-03
2.530785708394897235e-03
1.095301383769709284e-03
4.005531190485222322e-04
-1.823191744124494763e-04
-2.631668237200070985e-03
-4.624683379421019869e-03
-4.722452611488584841e-03
-4.658685662821945850e-03
-6.291304196811739816e-03
-7.947370031284324565e-03
-7.943115506167927609e-03
-3.246979295261642490e-04
1.214727894487855134e-02
1.813640012619373298e-02
1.480915405603485530e-02
7.981215040450099704e-03
3.877408354259051938e-03
-1.696277819315124150e-03
-8.388416136629599229e-03
-1.083075823307853500e-02
-1.083098984369854252e-02
-8.204658433261829281e-03
-1.223167487504644340e-03
2.863670054495383050e-03
4.156882037785131559e-03
4.614542531785466480e-03
2.250762191287065516e-03
-3.232348346870782870e-04
-7.863402377442645520e-04
-2.300222868643835017e-03
-3.443336375671748016e-03
-2.030491198601918051e-03
2.898713129578222962e-03
6.040097334053926362e-03
3.908531807340929164e-03
1.549615004492504089e-03
7.898635798976344925e-04
-1.593234664221376698e-03
-3.340198723102285033e-03
-2.046816371603300561e-03
-5.010837449545434055e-04
-7.287594411831044196e-04
-2.295446535355361500e-05
1.123918460612318695e-03
1.616258799132319103e-03
6.724746166308981973e-04
-1.258235420320643434e-03
-2.189888366468565207e-03
-1.040824994010382991e-03
7.715645782750385864e-05
1.045823488509526429e-03
1.907897610073875511e-03
-3.413757497184885477e-05
-1.522881239492211236e-03
-5.202497284946374159e-04
-9.405229731166350748e-04
-1.514447559833172587e-03
-1.132962574306568175e-03
-3.762085516523400739e-04
-1.058622379211061155e-03
1.855991023436889343e-03
6.367806059085003544e-03
4.814671116759651828e-03
2.795379182023538783e-03
4.373168642957521619e-03
2.011431533668400426e-03
-1.903481064350428468e-03
-3.598815440287998334e-03
-5.689798085648436511e-03
-7.866257373703102948e-03
-9.026616045070946434e-03
-6.822015545943249659e-03
-4.681671431570794822e-03
-3.736068930648341318e-03
2.214977344027937295e-04
9.091025210116036523e-03
1.665393532806040688e-02
1.817590346947102822e-02
1.284341539239792010e-02
4.223271871628040373e-03
-4.917046072202999225e-03
-1.045944359489955379e-02
-1.042791824486516243e-02
-7.870438492368155362e-03
-5.503025305025745044e-03
-3.104148688119737123e-03
-1.932880673833875735e-03
-2.285544450448624611e-03
-4.466253847656548575e-04
1.691648843315901509e-03
3.333758956700004408e-03
2.023163870849526737e-03
2.175499202326546585e-03
3.012883154160565877e-03
2.216099186384876737e-03
1.409773204383748006e-03
-2.519921633848739174e-04
-2.904960210835230618e-04
2.302991751959743442e-04
6.724922419809398547e-04
6.476604044702728832e-05
6.171474928458912327e-04
1.929415306277729386e-03
1.304229910272988778e-03
1.080152644627434136e-03
1.774389125740622472e-03
-9.599366197342147850e-04
-2.287521190511507003e-03
-2.375030688820872499e-03
-3.030123972892063804e-03
-5.259257614773336226e-03
-6.524175384798527357e-03
-8.378569873073322613e-03
-9.002690311221651573e-03
-5.812334970636868353e-03
1.472015540029249095e-03
8.823711302955833738e-03
1.674422933844222847e-02
2.628492442124720496e-02
2.759934655656034672e-02
1.185047910481576254e-02
-9.548807719312385131e-03
-2.124116691546172955e-02
-2.114212223537606170e-02
-1.538028705676270681e-02
-9.274930845746558530e-03
-4.882144985262406971e-03
-2.821901888547923964e-03
-1.061475445975259635e-03
-1.640190456333685386e-03
1.674581921675709134e-03
1.024692377378191334e-02
1.658738180695336004e-02
1.410360332876027523e-02
9.449709957915344849e-03
3.601072403717202764e-03
-2.803474260890614477e-03
-7.166274842528819536e-03
-8.583409709649754069e-03
-1.027576251352866482e-02
-1.011954656017828753e-02
-5.828157712580263501e-03
1.388158482674443179e-03
5.752981071382425038e-03
5.922297090160144085e-03
1.926926888911483513e-03
-1.035662623732499073e-04
3.040177083714057631e-04
2.081673226427611934e-03
2.922159546991846043e-03
3.456445220780424588e-04
-1.891245405046525782e-03
-1.422668676201445078e-03
3.035398753861625817e-03
5.129112017664824372e-03
4.758700779302841265e-03
1.829737308326588336e-03
-3.586473896095397282e-03
-7.583350198282079110e-03
-7.295815274681138711e-03
-6.542507606506117387e-03
-6.822851031694692446e-03
-1.064313108486617367e-03
4.398289644382755159e-03
4.157021458579209655e-03
4.249281400598238327e-03
4.142668961446134036e-03
4.813998044044581238e-03
2.792782894631604205e-03
2.295423733632785321e-04
1.081820410418478330e-03
1.810025096548358329e-03
1.149236793173692619e-03
7.275410406763468995e-04
-1.028529637074176864e-03
-4.002188024576939715e-03
-6.225785032123763024e-03
-5.858402584426459885e-03
-1.640360404399368805e-03
-2.174642223794962502e-04
-2.411485223003492512e-03
-1.242946261347163076e-03
9.701799974715387929e-04
1.604682479720002941e-03
-1.428232067056470222e-04
-1.435708579160279363e-03
1.751676597509427974e-03
7.302437225529544856e-03
1.015726748167027765e-02
9.180599724419129942e-03
4.875826410325500779e-03
-4.538515982458739707e-04
-6.661067815984783765e-03
-9.179468720513350027e-03
-8.928325637347269556e-03
-4.366098265818604655e-03
-4.843584907883475166e-04
-2.394174212724997555e-03
-3.270675218188931564e-03
-8.350955197843452308e-04
1.571745776135234250e-03
2.459028736908381793e-03
6.145254772487011158e-03
6.881559731247278641e-03
3.646640138386551388e-03
-9.762862648237767419e-06
3.695622848861998457e-04
2.319345673348173823e-04
-1.012567293100499624e-03
-1.207962108934844576e-03
-2.467130323545425365e-03
-2.317719888104309480e-03
-1.938814028856618993e-03
-1.429042845015998740e-03
-4.169988723279022085e-04
-2.640782158445152336e-03
-3.592067545816706505e-03
-5.921368881982404849e-04
2.471525325563210963e-03
2.920291847398597679e-03
2.176820250433680621e-03
1.135037060393218701e-04
2.362755840342668681e-04
2.663496824690927533e-03
3.973748506363210080e-03
5.601191546059538888e-03
6.059283706930115518e-03
1.101510861680210463e-03
-4.061590532355619128e-03
-6.653450695125916019e-03
-6.015907106767070904e-03
-5.431687264399014982e-03
-4.336788312497010314e-03
-2.438319161051207083e-03
-1.852449602662776607e-03
-3.956544686075159131e-04
1.693677306710348295e-03
2.661444534945086714e-03
4.873876284318197534e-03
6.568901948249173013e-03
4.748328561646082517e-03
1.887375437027277161e-03
-1.757243903313689251e-05
2.474571089818979139e-04
-6.966404661098875555e-04
-1.966205771508266510e-03
-1.154779066828079620e-03
-8.877236701871655134e-04
-1.949849346560198751e-03
-5.111941436922463541e-03
-4.414283873901048497e-03
-1.509557998997229688e-03
7.438935804312105018e-04
-9.590263536737937862e-04
-1.373064336353123317e-03
1.694307249098219630e-03
5.392872801511913207e-03
6.401831022653177265e-03
5.198483713674270992e-03
2.089481501977654993e-03
8.739874386312345301e-04
-1.834129053057513776e-03
-3.783901663129939519e-03
-3.032404257794850833e-03
-2.516749764621867540e-03
-1.809679355598803894e-03
-2.457038202271499827e-03
-4.009275422111242305e-03
-1.123001015340797633e-03
2.551045062653821850e-03
1.993609594619443013e-03
1.798791406948418862e-03
3.004443140332861088e-04
5.546884092578899597e-04
3.470778914915123147e-03
4.605583508013710858e-03
3.624567255751257825e-03
3.367805090068807638e-04
-2.097021238002747413e-03
-2.652791223700753931e-03
-3.506322886299103204e-03
-3.925322735728048983e-03
-2.555089636494247470e-03
-1.384400531776103010e-03
-1.473559790624192570e-03
-1.125634954158144128e-03
4.477493138730626304e-04
2.206384782268368174e-03
4.023452812187877994e-03
4.697907792674248587e-03
2.409571295505297424e-03
2.113982682042122956e-04
9.951243811700467064e-04
9.328498650099226576e-04
1.624986973406051160e-04
-1.061303249652727107e-04
-2.726183676813927762e-05
-2.182152501912643094e-03
-3.487942780268378940e-03
-3.435221854254652280e-03
-4.088250032110995157e-03
-3.984472427446155048e-03
-4.091404801938604806e-03
-3.237659654893036004e-03
-1.785819184488308866e-03
1.407444952242529286e-03
4.249487113546801011e-03
1.009933234937428377e-02
1.494386518597798710e-02
1.182132139997230970e-02
2.422171279175702827e-03
-3.816405719109438373e-03
-3.123381857375635492e-03
-3.174188254619734247e-03
-4.455910130094863260e-03
-3.301033387151766901e-03
-3.469071566962169274e-03
-6.980749386341676167e-03
-9.077743170272918258e-03
-1.012611108340198338e-02
-9.215839236933004441e-03
-4.938243038433705150e-03
9.324746940083475117e-04
7.841899319277213440e-03
1.643284098363544804e-02
2.211694066523138200e-02
1.872277677968501100e-02
5.356035042421681928e-03
-5.663804355822524804e-03
-8.782795559268792226e-03
-7.943932177536713532e-03
-5.735427697960746897e-03
-4.898445138920399893e-03
-4.496214500488091188e-03
-3.868579776845116041e-03
-3.691685773832906279e-03
-2.312076267883875821e-03
-7.828042196487865808e-04
-2.741233922768468879e-04
1.885977328128250752e-03
4.419898267523553886e-03
2.547383697302293883e-03
2.013005352422923746e-03
2.139470685702391222e-03
1.465821422221458932e-03
2.319853051630221992e-03
2.728289980581434255e-03
6.891307501273719310e-04
-3.079537246086008588e-03
-3.151701648732995950e-03
-1.594810960885973327e-03
1.344672087664541956e-03
3.281112515791796951e-03
2.748879247815092311e-03
3.177158052396294140e-03
2.216183002447265522e-03
-1.622609171984727656e-05
-3.828334228931981522e-03
-9.340853903298668159e-03
-1.328254454972263750e-02
-1.372448840541073967e-02
-9.325711243565668052e-03
1.417096597042001192e-03
1.588178110352569603e-02
2.242224147225273592e-02
1.775024750876211602e-02
9.063442244925317554e-03
1.226168583091533744e-03
-5.667277394371636988e-03
-1.231559672818747890e-02
-1.226325770004370666e-02
-7.603908925895331260e-03
-1.034206380840462002e-03
4.002423055687182908e-03
2.863657338967463394e-03
-5.234414092961799884e-04
-3.122750075825512627e-03
-2.943624493704710514e-03
-1.638545023441046562e-03
2.221558478471773158e-04
3.449750482495210144e-03
5.653694865588862646e-03
6.119374145837836072e-03
2.600104105136124850e-03
1.654133659407554236e-04
-8.533488236850863672e-04
-1.657109363596759180e-03
-2.382642951429197499e-03
-3.168109367600851350e-03
-3.845844671933036727e-03
-2.873292867610411847e-03
-1.148131796283712947e-03
-4.842237361840000340e-04
5.052947975154053768e-04
2.742311451906497780e-03
3.628406784327726283e-03
3.908432399392044489e-03
2.786101295062566423e-03
2.128623733752613145e-04
-9.740689598173753443e-04
-3.889336901484794331e-04
-9.291926289398557521e-05
-1.689816270228156709e-03
-3.726686582171918199e-03
-9.258683096882447134e-04
2.391717803589109986e-03
1.770613396600231914e-03
5.580834567180114085e-04
-1.233093693941643805e-05
-2.498502131303174164e-03
-1.958569311789115207e-03
-1.211407888222081021e-03
-2.142268510754144397e-03
-4.028950908923392173e-03
-2.784848452373133668e-03
2.930561708711025126e-03
8.652572112271434204e-03
7.155955028972519998e-03
-7.172373502805338714e-04
-6.519736033385172165e-03
-3.509431548124904762e-03
2.210809495139863783e-03
2.832536768727169675e-03
2.271198476300263867e-03
3.199219520293574825e-03
1.557206321960920813e-03
-1.538647637928120459e-03
-2.689358142442024521e-03
-2.920361810521744129e-03
-2.182030979015047150e-03
-8.701190625945295302e-04
-5.845345825629493213e-04
-6.740064285644624257e-06
9.816811141472973901e-04
1.909399348318211289e-03
1.103918707647319605e-03
-1.716412401086262569e-03
-4.224484277527382724e-03
-3.624196046606323936e-03
7.513188132954944868e-04
4.535789700242319131e-03
2.750006776693995295e-03
1.733450792613690217e-04
3.538786463876339178e-04
1.333600075191101065e-03
2.056189419472121901e-03
9.942098687062436799e-04
4.233623050754391302e-04
-2.884986921633696851e-04
-2.236320241370005988e-03
-2.243654770238114483e-03
-2.319247478196844944e-03
-6.509798622096627050e-04
1.835486837444010077e-03
2.088885008324269186e-03
1.189499586737870207e-03
-5.332736492748122066e-04
-2.890867937951559392e-03
-2.327048804301349444e-03
-1.227649507203628634e-03
