2.101550473647733827e-02
2.101727639170433704e-02
2.101904697800427435e-02
2.102081649516797032e-02
2.102258494298595709e-02
2.102435232124845108e-02
2.102611862974534951e-02
2.102788386826623390e-02
2.102964803660037005e-02
2.103141113453670802e-02
2.103317316186390992e-02
2.103493411837031868e-02
2.103669400384397536e-02
2.103845281807261922e-02
2.104021056084369803e-02
2.104196723194435431e-02
2.104372283116143910e-02
2.104547735828148428e-02
2.104723081309070598e-02
2.104898319537500465e-02
2.105073450491996151e-02
2.105248474151084209e-02
2.105423390493263436e-02
2.105598199497000361e-02
2.105772901140731332e-02
2.105947495402863898e-02
2.106121982261776465e-02
2.106296361695816910e-02
2.106470633683302576e-02
2.106644798202518890e-02
2.106818855231722132e-02
2.106992804749136666e-02
2.107166646732955284e-02
2.107340381161339204e-02
2.107514008012418769e-02
2.107687527264295174e-02
2.107860938895038047e-02
2.108034242882686482e-02
2.108207439205248002e-02
2.108380527840698210e-02
2.108553508766983220e-02
2.108726381962020349e-02
2.108899147403695343e-02
2.109071805069862027e-02
2.109244354938345084e-02
2.109416796986937279e-02
2.109589131193401190e-02
2.109761357535466439e-02
2.109933475990830726e-02
2.110105486537159833e-02
2.110277389152089011e-02
2.110449183813224716e-02
2.110620870498144605e-02
2.110792449184396152e-02
2.110963919849495260e-02
2.111135282470927299e-02
2.111306537026144681e-02
2.111477683492569632e-02
2.111648721847592461e-02
2.111819652068571904e-02
2.111990474132835471e-02
2.112161188017680491e-02
2.112331793700374105e-02
2.112502291158153273e-02
2.112672680368224420e-02
2.112842961307764139e-02
2.113013133953919181e-02
2.113183198283806116e-02
2.113353154274510287e-02
2.113523001903088241e-02
2.113692741146566342e-02
2.113862371981941116e-02
2.114031894386176474e-02
2.114201308336205107e-02
2.114370613808929864e-02
2.114539810781223758e-02
2.114708899229928579e-02
2.114877879131857666e-02
2.115046750463794867e-02
2.115215513202493153e-02
2.115384167324673922e-02
2.115552712807030125e-02
2.115721149626225567e-02
2.115889477758894216e-02
2.116057697181640204e-02
2.116225807871038520e-02
2.116393809803634660e-02
2.116561702955944632e-02
2.116729487304454954e-02
2.116897162825622652e-02
2.117064729495875611e-02
2.117232187291612222e-02
2.117399536189200349e-02
2.117566776164977668e-02
2.117733907195250981e-02
2.117900929256298984e-02
2.118067842324370190e-02
2.118234646375682928e-02
2.118401341386424649e-02
2.118567927332755049e-02
2.118734404190803985e-02
2.118900771936672520e-02
2.119067030546431182e-02
2.119233179996118932e-02
2.119399220261743502e-02
2.119565151319283830e-02
2.119730973144687280e-02
2.119896685713871382e-02
2.120062289002725212e-02
2.120227782987106624e-02
2.120393167642840859e-02
2.120558442945723321e-02
2.120723608871518187e-02
2.120888665395960146e-02
2.121053612494755783e-02
2.121218450143584622e-02
2.121383178318096349e-02
2.121547796993911161e-02
2.121712306146618723e-02
2.121876705751778169e-02
2.122040995784918102e-02
2.122205176221536246e-02
2.122369247037102225e-02
2.122533208207056862e-02
2.122697059706812189e-02
2.122860801511751092e-02
2.123024433597227312e-02
2.123187955938565449e-02
2.123351368511061654e-02
2.123514671289982239e-02
2.123677864250564373e-02
2.123840947368016777e-02
2.124003920617520066e-02
2.124166783974224676e-02
2.124329537413252242e-02
2.124492180909694911e-02
2.124654714438618114e-02
2.124817137975058834e-02
2.124979451494023175e-02
2.125141654970489138e-02
2.125303748379405236e-02
2.125465731695690835e-02
2.125627604894238590e-02
2.125789367949913397e-02
2.125951020837552746e-02
2.126112563531967758e-02
2.126273996007939024e-02
2.126435318240219377e-02
2.126596530203533203e-02
2.126757631872577825e-02
2.126918623222021423e-02
2.127079504226506504e-02
2.127240274860647470e-02
2.127400935099031318e-02
2.127561484916217632e-02
2.127721924286737898e-02
2.127882253185095843e-02
2.128042471585767093e-02
2.128202579463201599e-02
2.128362576791822600e-02
2.128522463546028698e-02
2.128682239700189702e-02
2.128841905228647316e-02
2.129001460105716531e-02
2.129160904305686317e-02
2.129320237802819968e-02
2.129479460571354760e-02
2.129638572585501946e-02
2.129797573819448495e-02
2.129956464247355699e-02
2.130115243843357792e-02
2.130273912581564719e-02
2.130432470436061099e-02
2.130590917380907612e-02
2.130749253390138223e-02
2.130907478437761918e-02
2.131065592497763742e-02
2.131223595544102373e-02
2.131381487550711856e-02
2.131539268491501257e-02
2.131696938340355008e-02
2.131854497071132906e-02
2.132011944657671507e-02
2.132169281073780301e-02
2.132326506293245882e-02
2.132483620289829171e-02
2.132640623037266800e-02
2.132797514509270076e-02
2.132954294679525326e-02
2.133110963521692161e-02
2.133267521009406253e-02
2.133423967116278644e-02
2.133580301815896779e-02
2.133736525081824167e-02
2.133892636887601418e-02
2.134048637206743468e-02
2.134204526012740272e-02
2.134360303279058887e-02
2.134515968979143821e-02
2.134671523086416681e-02
2.134826965574276175e-02
2.134982296416097075e-02
2.135137515585230558e-02
2.135292623055003863e-02
2.135447618798722025e-02
2.135602502789668219e-02
2.135757275001103420e-02
2.135911935406265352e-02
2.136066483978369887e-02
2.136220920690609648e-02
2.136375245516154708e-02
2.136529458428152589e-02
2.136683559399728954e-02
2.136837548403986570e-02
2.136991425414007384e-02
2.137145190402852529e-02
2.137298843343560933e-02
2.137452384209152095e-02
2.137605812972623656e-02
2.137759129606954175e-02
2.137912334085101396e-02
2.138065426380002590e-02
2.138218406464575255e-02
2.138371274311717113e-02
2.138524029894305761e-02
2.138676673185200411e-02
2.138829204157240496e-02
2.138981622783242900e-02
2.139133929036004036e-02
2.139286122888298461e-02
2.139438204312879913e-02
2.139590173282481661e-02
2.139742029769818241e-02
2.139893773747585451e-02
2.140045405188458968e-02
2.140196924065094694e-02
2.140348330350127712e-02
2.140499624016176106e-02
2.140650805035840959e-02
2.140801873381703926e-02
2.140952829026327234e-02
2.141103671942254025e-02
2.141254402102008708e-02
2.141405019478097999e-02
2.141555524043009875e-02
2.141705915769214277e-02
2.141856194629163795e-02
2.142006360595293674e-02
2.142156413640022850e-02
2.142306353735752220e-02
2.142456180854865680e-02
2.142605894969728045e-02
2.142755496052685393e-02
2.142904984076067845e-02
2.143054359012186785e-02
2.143203620833335210e-02
2.143352769511789116e-02
2.143501805019808540e-02
2.143650727329636518e-02
2.143799536413498394e-02
2.143948232243604590e-02
2.144096814792150266e-02
2.144245284031313231e-02
2.144393639933254297e-02
2.144541882470117969e-02
2.144690011614034178e-02
2.144838027337118980e-02
2.144985929611474204e-02
2.145133718409186069e-02
2.145281393702327261e-02
2.145428955462956935e-02
2.145576403663119330e-02
2.145723738274845499e-02
2.145870959270154699e-02
2.146018066621053350e-02
2.146165060299533300e-02
2.146311940277573216e-02
2.146458706527141005e-02
2.146605359020192436e-02
2.146751897728671130e-02
2.146898322624508915e-02
2.147044633679626863e-02
2.147190830865933903e-02
2.147336914155326126e-02
2.147482883519686789e-02
2.147628738930889084e-02
2.147774480360793714e-02
2.147920107781250282e-02
2.148065621164096245e-02
2.148211020481155878e-02
2.148356305704241659e-02
2.148501476805155658e-02
2.148646533755688495e-02
2.148791476527621078e-02
2.148936305092724250e-02
2.149081019422758795e-02
2.149225619489476130e-02
2.149370105264615874e-02
2.149514476719907238e-02
2.149658733827070067e-02
2.149802876557815184e-02
2.149946904883843699e-02
2.150090818776846657e-02
2.150234618208504006e-02
2.150378303150488057e-02
2.150521873574461756e-02
2.150665329452081109e-02
2.150808670754992755e-02
2.150951897454834658e-02
2.151095009523236457e-02
2.151238006931820851e-02
2.151380889652203601e-02
2.151523657655994917e-02
2.151666310914797028e-02
2.151808849400204532e-02
2.151951273083805780e-02
2.152093581937182878e-02
2.152235775931912037e-02
2.152377855039563914e-02
2.152519819231703616e-02
2.152661668479889656e-02
2.152803402755673959e-02
2.152945022030601854e-02
2.153086526276212428e-02
2.153227915464040257e-02
2.153369189565612976e-02
2.153510348552452325e-02
2.153651392396075878e-02
2.153792321067996007e-02
2.153933134539720920e-02
2.154073832782753967e-02
2.154214415768593988e-02
2.154354883468735313e-02
2.154495235854668109e-02
2.154635472897879420e-02
2.154775594569853167e-02
2.154915600842070497e-02
2.155055491686010127e-02
2.155195267073147652e-02
2.155334926974955545e-02
2.155474471362904196e-02
2.155613900208460873e-02
2.155753213483089722e-02
2.155892411158254543e-02
2.156031493205416705e-02
2.156170459596036884e-02
2.156309310301572288e-02
2.156448045293479082e-02
2.156586664543211351e-02
2.156725168022221792e-02
2.156863555701962754e-02
2.157001827553883463e-02
2.157139983549432108e-02
2.157278023660054792e-02
2.157415947857197966e-02
2.157553756112306695e-02
2.157691448396826736e-02
2.157829024682203847e-02
2.157966484939883439e-02
2.158103829141311963e-02
2.158241057257937259e-02
2.158378169261208901e-02
2.158515165122578197e-02
2.158652044813495416e-02
2.158788808305411519e-02
2.158925455569780938e-02
2.159061986578057757e-02
2.159198401301697101e-02
2.159334699712158259e-02
2.159470881780902254e-02
2.159606947479392886e-02
2.159742896779095686e-02
2.159878729651479312e-02
2.160014446068015542e-02
2.160150046000179971e-02
2.160285529419452358e-02
2.160420896297314888e-02
2.160556146605252179e-02
2.160691280314751619e-02
2.160826297397303378e-02
2.160961197824400742e-02
2.161095981567540472e-02
2.161230648598225570e-02
2.161365198887963898e-02
2.161499632408267133e-02
2.161633949130650767e-02
2.161768149026634112e-02
2.161902232067739599e-02
2.162036198225493824e-02
2.162170047471428935e-02
2.162303779777081936e-02
2.162437395113995728e-02
2.162570893453719459e-02
2.162704274767807480e-02
2.162837539027820735e-02
2.162970686205324330e-02
2.163103716271888577e-02
2.163236629199088989e-02
2.163369424958506981e-02
2.163502103521731598e-02
2.163634664860357784e-02
2.163767108945987769e-02
2.163899435750230374e-02
2.164031645244701013e-02
2.164163737401021345e-02
2.164295712190819621e-02
2.164427569585732417e-02
2.164559309557403596e-02
2.164690932077482921e-02
2.164822437117627091e-02
2.164953824649501479e-02
2.165085094644777705e-02
2.165216247075136755e-02
2.165347281912268981e-02
2.165478199127875147e-02
2.165608998693665382e-02
2.165739680581356755e-02
2.165870244762674660e-02
2.166000691209354206e-02
2.166131019893140566e-02
2.166261230785787931e-02
2.166391323859060900e-02
2.166521299084731705e-02
2.166651156434582989e-02
2.166780895880406413e-02
2.166910517394004393e-02
2.167040020947190448e-02
2.167169406511789201e-02
2.167298674059636374e-02
2.167427823562577405e-02
2.167556854992468141e-02
2.167685768321174836e-02
2.167814563520576582e-02
2.167943240562564614e-02
2.168071799419041962e-02
2.168200240061923453e-02
2.168328562463135017e-02
2.168456766594616114e-02
2.168584852428316959e-02
2.168712819936200603e-02
2.168840669090242937e-02
2.168968399862434074e-02
2.169096012224777312e-02
2.169223506149290173e-02
2.169350881608003018e-02
2.169478138572959736e-02
2.169605277016216707e-02
2.169732296909845232e-02
2.169859198225931179e-02
2.169985980936575340e-02
2.170112645013892727e-02
2.170239190430012580e-02
2.170365617157076973e-02
2.170491925167239780e-02
2.170618114432667708e-02
2.170744184925543080e-02
2.170870136618062787e-02
2.170995969482436908e-02
2.171121683490890436e-02
2.171247278615662246e-02
2.171372754829006477e-02
2.171498112103191144e-02
2.171623350410499531e-02
2.171748469723230185e-02
2.171873470013694143e-02
2.171998351254219445e-02
2.172123113417150087e-02
2.172247756474844638e-02
2.172372280399677627e-02
2.172496685164038155e-02
2.172620970740331628e-02
2.172745137100978371e-02
2.172869184218416405e-02
2.172993112065099014e-02
2.173116920613496136e-02
2.173240609836096099e-02
2.173364179705401453e-02
2.173487630193928627e-02
2.173610961274211051e-02
2.173734172918800889e-02
2.173857265100267652e-02
2.173980237791196812e-02
2.174103090964191187e-02
2.174225824591869902e-02
2.174348438646868387e-02
2.174470933101841155e-02
2.174593307929459374e-02
2.174715563102413637e-02
2.174837698593412583e-02
2.174959714375185663e-02
2.175081610420481065e-02
2.175203386702064326e-02
2.175325043192719021e-02
2.175446579865245728e-02
2.175567996692465145e-02
2.175689293647215666e-02
2.175810470702355115e-02
2.175931527830760395e-02
2.176052465005325759e-02
2.176173282198964540e-02
2.176293979384609500e-02
2.176414556535214220e-02
2.176535013623751708e-02
2.176655350623215787e-02
2.176775567506618672e-02
2.176895664246991310e-02
2.177015640817384426e-02
2.177135497190869906e-02
2.177255233340539761e-02
2.177374849239507512e-02
2.177494344860905762e-02
2.177613720177884807e-02
2.177732975163615414e-02
2.177852109791287780e-02
2.177971124034112568e-02
2.178090017865322303e-02
2.178208791258168936e-02
2.178327444185925235e-02
2.178445976621885133e-02
2.178564388539365113e-02
2.178682679911701087e-02
2.178800850712250478e-02
2.178918900914393955e-02
2.179036830491536125e-02
2.179154639417104147e-02
2.179272327664545650e-02
2.179389895207328731e-02
2.179507342018945776e-02
2.179624668072912413e-02
2.179741873342766478e-02
2.179858957802069397e-02
2.179975921424403412e-02
2.180092764183372625e-02
2.180209486052602993e-02
2.180326087005743374e-02
2.180442567016465522e-02
2.180558926058463395e-02
2.180675164105453506e-02
2.180791281131174916e-02
2.180907277109387851e-02
2.181023152013875782e-02
2.181138905818445425e-02
2.181254538496926396e-02
2.181370050023173982e-02
2.181485440371066370e-02
2.181600709514504993e-02
2.181715857427414876e-02
2.181830884083746022e-02
2.181945789457472029e-02
2.182060573522590086e-02
2.182175236253122361e-02
2.182289777623114616e-02
2.182404197606636204e-02
2.182518496177781805e-02
2.182632673310670388e-02
2.182746728979444856e-02
2.182860663158272055e-02
2.182974475821344504e-02
2.183088166942881783e-02
2.183201736497127760e-02
2.183315184458351974e-02
2.183428510800851027e-02
2.183541715498946156e-02
2.183654798526983576e-02
2.183767759859334134e-02
2.183880599470394354e-02
2.183993317334585391e-02
2.184105913426353726e-02
2.184218387720173599e-02
2.184330740190545267e-02
2.184442970811995705e-02
2.184555079559078600e-02
2.184667066406374009e-02
2.184778931328488702e-02
2.184890674300056165e-02
2.185002295295736599e-02
2.185113794290215877e-02
2.185225171258205201e-02
2.185336426174441446e-02
2.185447559013688895e-02
2.185558569750737160e-02
2.185669458360404299e-02
2.185780224817536130e-02
2.185890869097004141e-02
2.186001391173708272e-02
2.186111791022574830e-02
2.186222068618558917e-02
2.186332223936643046e-02
2.186442256951834709e-02
2.186552167639169153e-02
2.186661955973707994e-02
2.186771621930540602e-02
2.186881165484784104e-02
2.186990586611583381e-02
2.187099885286111073e-02
2.187209061483567918e-02
2.187318115179181718e-02
2.187427046348209767e-02
2.187535854965936069e-02
2.187644541007671695e-02
2.187753104448755814e-02
2.187861545264552926e-02
2.187969863430456324e-02
2.188078058921884977e-02
2.188186131714284569e-02
2.188294081783130965e-02
2.188401909103927442e-02
2.188509613652205726e-02
2.188617195403525992e-02
2.188724654333478598e-02
2.188831990417684434e-02
2.188939203631792146e-02
2.189046293951477790e-02
2.189153261352444826e-02
2.189260105810427251e-02
2.189366827301190629e-02
2.189473425800531059e-02
2.189579901284272739e-02
2.189686253728267626e-02
2.189792483108395429e-02
2.189898589400567780e-02
2.190004572580724410e-02
2.190110432624833153e-02
2.190216169508890989e-02
2.190321783208925774e-02
2.190427273700995200e-02
2.190532640961187841e-02
2.190637884965621757e-02
2.190743005690443460e-02
2.190848003111830339e-02
2.190952877205987886e-02
2.191057627949150391e-02
2.191162255317580937e-02
2.191266759287573834e-02
2.191371139835453230e-02
2.191475396937571374e-02
2.191579530570310352e-02
2.191683540710085559e-02
2.191787427333343960e-02
2.191891190416562357e-02
2.191994829936248779e-02
2.192098345868941436e-02
2.192201738191209073e-02
2.192305006879650964e-02
2.192408151910896566e-02
2.192511173261605523e-02
2.192614070908468007e-02
2.192716844828205766e-02
2.192819494997573504e-02
2.192922021393356458e-02
2.193024423992370742e-02
2.193126702771464737e-02
2.193228857707518395e-02
2.193330888777443241e-02
2.193432795958183065e-02
2.193534579226712536e-02
2.193636238560039628e-02
2.193737773935201807e-02
2.193839185329268804e-02
2.193940472719339493e-02
2.194041636082546404e-02
2.194142675396051553e-02
2.194243590637047492e-02
2.194344381782757994e-02
2.194445048810436671e-02
2.194545591697367667e-02
2.194646010420864615e-02
2.194746304958270985e-02
2.194846475286960086e-02
2.194946521384339225e-02
2.195046443227846936e-02
2.195146240794952630e-02
2.195245914063157985e-02
2.195345463009997292e-02
2.195444887613038840e-02
2.195544187849880757e-02
2.195643363698152398e-02
2.195742415135514686e-02
2.195841342139661506e-02
2.195940144688317622e-02
2.196038822759240061e-02
2.196137376330218813e-02
2.196235805379075437e-02
2.196334109883662719e-02
2.196432289821863629e-02
2.196530345171592707e-02
2.196628275910795722e-02
2.196726082017450010e-02
2.196823763469564830e-02
2.196921320245182399e-02
2.197018752322377547e-02
2.197116059679257716e-02
2.197213242293961921e-02
2.197310300144662484e-02
2.197407233209561911e-02
2.197504041466897054e-02
2.197600724894936339e-02
2.197697283471981150e-02
2.197793717176363404e-02
2.197890025986447976e-02
2.197986209880631314e-02
2.198082268837342826e-02
2.198178202835044878e-02
2.198274011852233145e-02
2.198369695867436607e-02
2.198465254859216164e-02
2.198560688806164287e-02
2.198655997686906408e-02
2.198751181480099876e-02
2.198846240164436736e-02
2.198941173718641992e-02
2.199035982121473609e-02
2.199130665351721817e-02
2.199225223388210151e-02
2.199319656209795110e-02
2.199413963795366495e-02
2.199508146123847416e-02
2.199602203174192902e-02
2.199696134925392330e-02
2.199789941356468381e-02
2.199883622446477394e-02
2.199977178174508663e-02
2.200070608519684445e-02
2.200163913461161691e-02
2.200257092978131004e-02
2.200350147049815255e-02
2.200443075655470274e-02
2.200535878774384849e-02
2.200628556385879689e-02
2.200721108469309156e-02
2.200813535004059879e-02
2.200905835969552832e-02
2.200998011345241950e-02
2.201090061110613089e-02
2.201181985245185407e-02
2.201273783728511721e-02
2.201365456540178497e-02
2.201457003659805164e-02
2.201548425067044110e-02
2.201639720741581374e-02
2.201730890663135265e-02
2.201821934811455661e-02
2.201912853166325748e-02
2.202003645707560978e-02
2.202094312415012883e-02
2.202184853268564918e-02
2.202275268248135229e-02
2.202365557333673882e-02
2.202455720505164249e-02
2.202545757742623012e-02
2.202635669026100154e-02
2.202725454335679317e-02
2.202815113651477447e-02
2.202904646953645837e-02
2.202994054222369436e-02
2.203083335437866497e-02
2.203172490580388235e-02
2.203261519630218129e-02
2.203350422567673314e-02
2.203439199373102841e-02
2.203527850026887683e-02
2.203616374509440728e-02
2.203704772801209563e-02
2.203793044882675078e-02
2.203881190734351472e-02
2.203969210336786250e-02
2.204057103670561610e-02
2.204144870716294446e-02
2.204232511454635307e-02
2.204320025866269780e-02
2.204407413931916415e-02
2.204494675632328107e-02
2.204581810948292447e-02
2.204668819860632067e-02
2.204755702350206029e-02
2.204842458397906352e-02
2.204929087984658365e-02
2.205015591091421048e-02
2.205101967699187732e-02
2.205188217788986438e-02
2.205274341341880232e-02
2.205360338338966525e-02
2.205446208761377425e-02
2.205531952590278691e-02
2.205617569806870432e-02
2.205703060392387449e-02
2.205788424328098199e-02
2.205873661595305485e-02
2.205958772175346458e-02
2.206043756049594698e-02
2.206128613199457439e-02
2.206213343606377650e-02
2.206297947251832647e-02
2.206382424117334443e-02
2.206466774184429741e-02
2.206550997434698555e-02
2.206635093849754203e-02
2.206719063411243312e-02
2.206802906100848588e-02
2.206886621900287088e-02
2.206970210791310213e-02
2.207053672755703022e-02
2.207137007775283877e-02
2.207220215831905488e-02
2.207303296907456650e-02
2.207386250983861889e-02
2.207469078043080082e-02
2.207551778067103412e-02
2.207634351037958756e-02
2.207716796937707684e-02
2.207799115748446464e-02
2.207881307452307096e-02
2.207963372031457316e-02
2.208045309468099557e-02
2.208127119744471983e-02
2.208208802842847110e-02
2.208290358745529369e-02
2.208371787434857542e-02
2.208453088893203367e-02
2.208534263102973280e-02
2.208615310046609451e-02
2.208696229706587008e-02
2.208777022065414389e-02
2.208857687105632989e-02
2.208938224809819939e-02
2.209018635160585678e-02
2.209098918140573603e-02
2.209179073732462500e-02
2.209259101918965504e-02
2.209339002682827666e-02
2.209418776006829774e-02
2.209498421873788004e-02
2.209577940266551493e-02
2.209657331168005459e-02
2.209736594561068079e-02
2.209815730428691533e-02
2.209894738753861998e-02
2.209973619519601390e-02
2.210052372708966317e-02
2.210130998305047736e-02
2.210209496290971992e-02
2.210287866649898389e-02
2.210366109365019191e-02
2.210444224419560663e-02
2.210522211796784459e-02
2.210600071479987619e-02
2.210677803452501533e-02
2.210755407697691938e-02
2.210832884198958570e-02
2.210910232939734127e-02
2.210987453903485653e-02
2.211064547073715233e-02
2.211141512433959996e-02
2.211218349967790028e-02
2.211295059658809764e-02
2.211371641490659026e-02
2.211448095447011639e-02
2.211524421511576813e-02
2.211600619668096374e-02
2.211676689900344758e-02
2.211752632192129017e-02
2.211828446527291589e-02
2.211904132889707525e-02
2.211979691263285877e-02
2.212055121631966922e-02
2.212130423979724592e-02
2.212205598290567857e-02
2.212280644548541078e-02
2.212355562737724005e-02
2.212430352842228998e-02
2.212505014846202073e-02
2.212579548733822898e-02
2.212653954489305144e-02
2.212728232096897521e-02
2.212802381540885169e-02
2.212876402805587228e-02
2.212950295875356493e-02
2.213024060734579065e-02
2.213097697367674699e-02
2.213171205759097149e-02
2.213244585893334171e-02
2.213317837754907175e-02
2.213390961328372264e-02
2.213463956598320584e-02
2.213536823549376933e-02
2.213609562166200806e-02
2.213682172433487777e-02
2.213754654335969851e-02
2.213827007858414422e-02
2.213899232985623924e-02
2.213971329702434099e-02
2.214043297993715381e-02
2.214115137844372902e-02
2.214186849239345098e-02
2.214258432163607876e-02
2.214329886602170797e-02
2.214401212540077074e-02
2.214472409962405658e-02
2.214543478854268804e-02
2.214614419200812423e-02
2.214685230987215384e-02
2.214755914198689515e-02
2.214826468820481689e-02
2.214896894837873817e-02
2.214967192236182159e-02
2.215037361000757321e-02
2.215107401116981484e-02
2.215177312570269785e-02
2.215247095346072406e-02
2.215316749429875609e-02
2.215386274807198269e-02
2.215455671463593609e-02
2.215524939384649547e-02
2.215594078555986959e-02
2.215663088963262459e-02
2.215731970592165964e-02
2.215800723428420008e-02
2.215869347457781122e-02
2.215937842666039145e-02
2.216006209039018265e-02
2.216074446562578057e-02
2.216142555222610708e-02
2.216210535005041365e-02
2.216278385895826750e-02
2.216346107880958968e-02
2.216413700946463089e-02
2.216481165078397139e-02
2.216548500262851412e-02
2.216615706485950202e-02
2.216682783733852150e-02
2.216749731992750938e-02
2.216816551248872863e-02
2.216883241488478568e-02
2.216949802697861308e-02
2.217016234863347993e-02
2.217082537971300574e-02
2.217148712008113615e-02
2.217214756960215680e-02
2.217280672814067946e-02
2.217346459556166632e-02
2.217412117173041611e-02
2.217477645651256407e-02
2.217543044977409589e-02
2.217608315138135111e-02
2.217673456120100584e-02
2.217738467910006922e-02
2.217803350494588696e-02
2.217868103860614129e-02
2.217932727994884751e-02
2.217997222884234357e-02
2.218061588515530397e-02
2.218125824875673627e-02
2.218189931951597069e-02
2.218253909730267398e-02
2.218317758198683209e-02
2.218381477343875016e-02
2.218445067152906292e-02
2.218508527612873815e-02
2.218571858710908021e-02
2.218635060434174036e-02
2.218698132769870296e-02
2.218761075705229582e-02
2.218823889227517637e-02
2.218886573324032122e-02
2.218949127982102615e-02
2.219011553189091657e-02
2.219073848932394746e-02
2.219136015199440690e-02
2.219198051977691252e-02
2.219259959254642200e-02
2.219321737017822260e-02
2.219383385254794852e-02
2.219444903953157744e-02
2.219506293100542704e-02
2.219567552684615502e-02
2.219628682693073479e-02
2.219689683113646936e-02
2.219750553934100173e-02
2.219811295142231494e-02
2.219871906725873201e-02
2.219932388672890208e-02
2.219992740971178657e-02
2.220052963608665914e-02
2.220113056573311955e-02
2.220173019853109372e-02
2.220232853436084758e-02
2.220292557310295581e-02
2.220352131463832965e-02
2.220411575884820646e-02
2.220470890561416014e-02
2.220530075481807336e-02
2.220589130634213759e-02
2.220648056006888083e-02
2.220706851588117106e-02
2.220765517366219896e-02
2.220824053329551601e-02
2.220882459466499287e-02
2.220940735765484716e-02
2.220998882214963305e-02
2.221056898803422733e-02
2.221114785519381213e-02
2.221172542351387488e-02
2.221230169288020834e-02
2.221287666317892442e-02
2.221345033429645427e-02
2.221402270611953431e-02
2.221459377853522016e-02
2.221516355143090052e-02
2.221573202469429367e-02
2.221629919821344404e-02
2.221686507187672563e-02
2.221742964557284553e-02
2.221799291919082653e-02
2.221855489261999328e-02
2.221911556575000349e-02
2.221967493847084446e-02
2.222023301067284004e-02
2.222078978224662632e-02
2.222134525308317246e-02
2.222189942307375987e-02
2.222245229210999262e-02
2.222300386008379050e-02
2.222355412688738902e-02
2.222410309241333592e-02
2.222465075655450512e-02
2.222519711920409313e-02
2.222574218025563306e-02
2.222628593960298410e-02
2.222682839714032813e-02
2.222736955276216966e-02
2.222790940636333937e-02
2.222844795783896280e-02
2.222898520708447428e-02
2.222952115399561696e-02
2.223005579846845312e-02
2.223058914039936773e-02
2.223112117968504067e-02
2.223165191622245712e-02
2.223218134990891104e-02
2.223270948064203292e-02
2.223323630831976899e-02
2.223376183284038118e-02
2.223428605410246797e-02
2.223480897200495049e-02
2.223533058644705171e-02
2.223585089732830686e-02
2.223636990454856688e-02
2.223688760800800537e-02
2.223740400760710126e-02
2.223791910324665957e-02
2.223843289482779761e-02
2.223894538225194839e-02
2.223945656542085023e-02
2.223996644423655716e-02
2.224047501860144938e-02
2.224098228841820540e-02
2.224148825358981604e-02
2.224199291401959822e-02
2.224249626961116721e-02
2.224299832026845058e-02
2.224349906589567424e-02
2.224399850639737636e-02
2.224449664167839347e-02
2.224499347164388824e-02
2.224548899619931824e-02
2.224598321525044636e-02
2.224647612870331650e-02
2.224696773646428483e-02
2.224745803844001626e-02
2.224794703453749495e-02
2.224843472466401378e-02
2.224892110872717446e-02
2.224940618663487010e-02
2.224988995829529914e-02
2.225037242361696532e-02
2.225085358250867770e-02
2.225133343487955065e-02
2.225181198063900384e-02
2.225228921969674839e-02
2.225276515196280072e-02
2.225323977734747910e-02
2.225371309576141404e-02
2.225418510711555178e-02
2.225465581132114387e-02
2.225512520828972982e-02
2.225559329793313709e-02
2.225606008016348114e-02
2.225652555489318618e-02
2.225698972203497480e-02
2.225745258150187492e-02
2.225791413320723014e-02
2.225837437706470676e-02
2.225883331298827983e-02
2.225929094089220892e-02
2.225974726069104848e-02
2.226020227229967563e-02
2.226065597563326587e-02
2.226110837060727918e-02
2.226155945713747045e-02
2.226200923513989988e-02
2.226245770453093645e-02
2.226290486522725792e-02
2.226335071714585084e-02
2.226379526020399666e-02
2.226423849431927865e-02
2.226468041940957154e-02
2.226512103539305884e-02
2.226556034218821201e-02
2.226599833971378006e-02
2.226643502788882081e-02
2.226687040663269043e-02
2.226730447586502959e-02
2.226773723550575998e-02
2.226816868547512249e-02
2.226859882569367025e-02
2.226902765608225476e-02
2.226945517656202592e-02
2.226988138705444931e-02
2.227030628748127850e-02
2.227072987776456542e-02
2.227115215782664651e-02
2.227157312759014268e-02
2.227199278697797324e-02
2.227241113591334198e-02
2.227282817431973719e-02
2.227324390212092817e-02
2.227365831924097567e-02
2.227407142560423534e-02
2.227448322113536119e-02
2.227489370575930216e-02
2.227530287940131248e-02
2.227571074198691353e-02
2.227611729344192160e-02
2.227652253369245480e-02
2.227692646266492271e-02
2.227732908028600203e-02
2.227773038648264356e-02
2.227813038118207564e-02
2.227852906431180766e-02
2.227892643579961959e-02
2.227932249557354819e-02
2.227971724356190772e-02
2.228011067969329004e-02
2.228050280389656107e-02
2.228089361610088512e-02
2.228128311623570057e-02
2.228167130423073031e-02
2.228205818001596436e-02
2.228244374352165297e-02
2.228282799467832045e-02
2.228321093341677564e-02
2.228359255966809796e-02
2.228397287336363400e-02
2.228435187443502524e-02
2.228472956281418380e-02
2.228510593843327503e-02
2.228548100122475575e-02
2.228585475112136380e-02
2.228622718805612149e-02
2.228659831196233218e-02
2.228696812277357678e-02
2.228733662042371375e-02
2.228770380484687910e-02
2.228806967597748642e-02
2.228843423375021296e-02
2.228879747809999964e-02
2.228915940896206496e-02
2.228952002627190496e-02
2.228987932996526200e-02
2.229023731997816643e-02
2.229059399624692614e-02
2.229094935870810923e-02
2.229130340729854054e-02
2.229165614195530165e-02
2.229200756261573435e-02
2.229235766921745798e-02
2.229270646169835210e-02
2.229305393999656340e-02
2.229340010405047798e-02
2.229374495379875254e-02
2.229408848918031441e-02
2.229443071013436153e-02
2.229477161660034859e-02
2.229511120851798700e-02
2.229544948582726921e-02
2.229578644846844093e-02
2.229612209638201503e-02
2.229645642950874029e-02
2.229678944778963265e-02
2.229712115116597518e-02
2.229745153957930076e-02
2.229778061297139555e-02
2.229810837128431283e-02
2.229843481446036613e-02
2.229875994244214649e-02
2.229908375517249824e-02
2.229940625259452594e-02
2.229972743465158044e-02
2.230004730128727630e-02
2.230036585244548827e-02
2.230068308807033398e-02
2.230099900810619123e-02
2.230131361249768768e-02
2.230162690118971461e-02
2.230193887412742354e-02
2.230224953125623313e-02
2.230255887252183267e-02
2.230286689787017163e-02
2.230317360724745623e-02
2.230347900060014946e-02
2.230378307787498141e-02
2.230408583901892505e-02
2.230438728397919970e-02
2.230468741270327793e-02
2.230498622513888557e-02
2.230528372123399133e-02
2.230557990093683107e-02
2.230587476419587656e-02
2.230616831095988059e-02
2.230646054117784924e-02
2.230675145479905225e-02
2.230704105177299876e-02
2.230732933204945118e-02
2.230761629557840783e-02
2.230790194231011686e-02
2.230818627219506231e-02
2.230846928518399191e-02
2.230875098122791708e-02
2.230903136027809555e-02
2.230931042228604527e-02
2.230958816720353399e-02
2.230986459498258967e-02
2.231013970557547271e-02
2.231041349893470374e-02
2.231068597501304623e-02
2.231095713376351000e-02
2.231122697513935466e-02
2.231149549909408614e-02
2.231176270558146366e-02
2.231202859455548582e-02
2.231229316597039755e-02
2.231255641978067625e-02
2.231281835594105256e-02
2.231307897440652430e-02
2.231333827513234599e-02
2.231359625807401506e-02
2.231385292318727176e-02
2.231410827042809575e-02
2.231436229975271648e-02
2.231461501111760282e-02
2.231486640447945258e-02
2.231511647979520299e-02
2.231536523702202721e-02
2.231561267611734817e-02
2.231585879703885250e-02
2.231610359974444888e-02
2.231634708419226801e-02
2.231658925034069388e-02
2.231683009814833599e-02
2.231706962757406404e-02
2.231730783857700795e-02
2.231754473111653356e-02
2.231778030515222527e-02
2.231801456064389996e-02
2.231824749755161041e-02
2.231847911583565575e-02
2.231870941545657794e-02
2.231893839637516183e-02
2.231916605855242472e-02
2.231939240194963370e-02
2.231961742652828831e-02
2.231984113225012750e-02
2.232006351907714348e-02
2.232028458697157478e-02
2.232050433589589239e-02
2.232072276581279283e-02
2.232093987668518423e-02
2.232115566847619331e-02
2.232137014114917578e-02
2.232158329466770938e-02
2.232179512899559737e-02
2.232200564409687199e-02
2.232221483993579100e-02
2.232242271647683421e-02
2.232262927368470692e-02
2.232283451152433998e-02
2.232303842996090013e-02
2.232324102895976575e-02
2.232344230848654076e-02
2.232364226850706151e-02
2.232384090898740028e-02
2.232403822989385486e-02
2.232423423119294162e-02
2.232442891285142325e-02
2.232462227483629838e-02
2.232481431711480155e-02
2.232500503965440322e-02
2.232519444242279244e-02
2.232538252538788723e-02
2.232556928851783806e-02
2.232575473178101746e-02
2.232593885514603041e-02
2.232612165858169698e-02
2.232630314205706623e-02
2.232648330554140234e-02
2.232666214900418805e-02
2.232683967241511080e-02
2.232701587574408703e-02
2.232719075896126212e-02
2.232736432203700702e-02
2.232753656494191816e-02
2.232770748764681054e-02
2.232787709012272817e-02
2.232804537234093709e-02
2.232821233427293231e-02
2.232837797589042397e-02
2.232854229716535813e-02
2.232870529806987858e-02
2.232886697857635466e-02
2.232902733865737774e-02
2.232918637828576469e-02
2.232934409743455792e-02
2.232950049607702186e-02
2.232965557418664648e-02
2.232980933173715765e-02
2.232996176870248595e-02
2.233011288505675970e-02
2.233026268077432930e-02
2.233041115582976369e-02
2.233055831019782611e-02
2.233070414385349839e-02
2.233084865677198091e-02
2.233099184892869613e-02
2.233113372029928850e-02
2.233127427085962111e-02
2.233141350058575822e-02
2.233155140945399311e-02
2.233168799744083763e-02
2.233182326452302566e-02
2.233195721067750619e-02
2.233208983588143987e-02
2.233222114011219200e-02
2.233235112334731876e-02
2.233247978556459137e-02
2.233260712674198234e-02
2.233273314685770353e-02
2.233285784589017844e-02
2.233298122381804918e-02
2.233310328062015904e-02
2.233322401627554563e-02
2.233334343076346165e-02
2.233346152406336105e-02
2.233357829615490592e-02
2.233369374701797000e-02
2.233380787663261091e-02
2.233392068497909791e-02
2.233403217203791188e-02
2.233414233778974189e-02
2.233425118221547476e-02
2.233435870529620546e-02
2.233446490701323367e-02
2.233456978734807072e-02
2.233467334628242568e-02
2.233477558379822620e-02
2.233487649987760462e-02
2.233497609450290494e-02
2.233507436765667931e-02
2.233517131932168109e-02
2.233526694948085450e-02
2.233536125811733802e-02
2.233545424521446443e-02
2.233554591075577120e-02
2.233563625472499703e-02
2.233572527710607145e-02
2.233581297788314254e-02
2.233589935704055965e-02
2.233598441456286290e-02
2.233606815043479715e-02
2.233615056464130846e-02
2.233623165716754413e-02
2.233631142799886657e-02
2.233638987712084287e-02
2.233646700451924136e-02
2.233654281018002466e-02
2.233661729408935662e-02
2.233669045623359189e-02
2.233676229659926904e-02
2.233683281517312436e-02
2.233690201194208150e-02
2.233696988689326188e-02
2.233703644001398120e-02
2.233710167129176680e-02
2.233716558071434724e-02
2.233722816826963498e-02
2.233728943394575062e-02
2.233734937773100906e-02
2.233740799961390910e-02
2.233746529958313340e-02
2.233752127762754502e-02
2.233757593373620134e-02
2.233762926789836789e-02
2.233768128010349061e-02
2.233773197034120625e-02
2.233778133860134588e-02
2.233782938487392442e-02
2.233787610914916150e-02
2.233792151141748145e-02
2.233796559166951676e-02
2.233800834989609074e-02
2.233804978608822794e-02
2.233808990023711596e-02
2.233812869233415058e-02
2.233816616237091837e-02
2.233820231033918288e-02
2.233823713623089846e-02
2.233827064003820681e-02
2.233830282175342311e-02
2.233833368136906375e-02
2.233836321887784984e-02
2.233839143427270718e-02
2.233841832754674891e-02
2.233844389869325819e-02
2.233846814770571593e-02
2.233849107457780425e-02
2.233851267930339266e-02
2.233853296187652410e-02
2.233855192229142889e-02
2.233856956054251081e-02
2.233858587662435752e-02
2.233860087053175097e-02
2.233861454225965701e-02
2.233862689180323921e-02
2.233863791915785893e-02
2.233864762431905099e-02
2.233865600728254450e-02
2.233866306804426285e-02
2.233866880660028559e-02
2.233867322294688651e-02
2.233867631708052331e-02
2.233867808899783411e-02
2.233867853869563394e-02
2.233867766617093562e-02
2.233867547142093582e-02
2.233867195444302206e-02
2.233866711523478654e-02
2.233866095379398800e-02
2.233865347011855171e-02
2.233864466420659722e-02
2.233863453605643493e-02
2.233862308566653826e-02
2.233861031303555761e-02
2.233859621816230642e-02
2.233858080104577856e-02
2.233856406168515871e-02
2.233854600007980501e-02
2.233852661622924909e-02
2.233850591013321341e-02
2.233848388179158345e-02
2.233846053120441821e-02
2.233843585837195014e-02
2.233840986329459904e-02
2.233838254597293391e-02
2.233835390640771454e-02
2.233832394459988463e-02
2.233829266055054399e-02
2.233826005426098327e-02
2.233822612573268390e-02
2.233819087496729736e-02
2.233815430196665550e-02
2.233811640673278795e-02
2.233807718926789782e-02
2.233803664957434779e-02
2.233799478765468444e-02
2.233795160351164863e-02
2.233790709714816511e-02
2.233786126856733209e-02
2.233781411777243167e-02
2.233776564476694024e-02
2.233771584955450418e-02
2.233766473213893988e-02
2.233761229252423028e-02
2.233755853071453870e-02
2.233750344671420890e-02
2.233744704052776503e-02
2.233738931215989779e-02
2.233733026161545052e-02
2.233726988889946086e-02
2.233720819401716073e-02
2.233714517697394861e-02
2.233708083777537212e-02
2.233701517642715587e-02
2.233694819293519096e-02
2.233687988730553506e-02
2.233681025954441235e-02
2.233673930965821008e-02
2.233666703765346123e-02
2.233659344353685836e-02
2.233651852731527096e-02
2.233644228899573508e-02
2.233636472858544983e-02
2.233628584609178777e-02
2.233620564152227067e-02
2.233612411488459723e-02
2.233604126618663963e-02
2.233595709543642963e-02
2.233587160264214472e-02
2.233578478781212545e-02
2.233569665095487544e-02
2.233560719207906831e-02
2.233551641119354766e-02
2.233542430830731673e-02
2.233533088342956260e-02
2.233523613656961462e-02
2.233514006773695132e-02
2.233504267694120041e-02
2.233494396419214573e-02
2.233484392949972377e-02
2.233474257287403758e-02
2.233463989432533242e-02
2.233453589386402705e-02
2.233443057150071367e-02
2.233432392724614066e-02
2.233421596111120899e-02
2.233410667310697581e-02
2.233399606324465436e-02
2.233388413153563831e-02
2.233377087799147398e-02
2.233365630262387422e-02
2.233354040544471841e-02
2.233342318646602820e-02
2.233330464570000909e-02
2.233318478315901578e-02
2.233306359885556605e-02
2.233294109280234765e-02
2.233281726501220449e-02
2.233269211549815739e-02
2.233256564427337290e-02
2.233243785135118065e-02
2.233230873674506636e-02
2.233217830046866845e-02
2.233204654253578489e-02
2.233191346296036287e-02
2.233177906175650221e-02
2.233164333893846581e-02
2.233150629452066230e-02
2.233136792851766333e-02
2.233122824094420367e-02
2.233108723181516375e-02
2.233094490114560099e-02
2.233080124895072197e-02
2.233065627524587898e-02
2.233050998004657006e-02
2.233036236336843894e-02
2.233021342522727506e-02
2.233006316563902749e-02
2.232991158461980485e-02
2.232975868218586152e-02
2.232960445835361143e-02
2.232944891313964203e-02
2.232929204656069685e-02
2.232913385863367212e-02
2.232897434937563749e-02
2.232881351880382226e-02
2.232865136693562222e-02
2.232848789378857543e-02
2.232832309938037954e-02
2.232815698372887445e-02
2.232798954685205270e-02
2.232782078876804563e-02
2.232765070949513722e-02
2.232747930905176759e-02
2.232730658745653296e-02
2.232713254472816836e-02
2.232695718088556144e-02
2.232678049594775255e-02
2.232660248993393465e-02
2.232642316286346726e-02
2.232624251475583133e-02
2.232606054563064310e-02
2.232587725550767149e-02
2.232569264440684847e-02
2.232550671234822745e-02
2.232531945935200060e-02
2.232513088543848154e-02
2.232494099062814347e-02
2.232474977494158103e-02
2.232455723839952416e-02
2.232436338102284853e-02
2.232416820283259287e-02
2.232397170384993121e-02
2.232377388409616942e-02
2.232357474359277297e-02
2.232337428236134957e-02
2.232317250042366655e-02
2.232296939780165426e-02
2.232276497451738534e-02
2.232255923059306077e-02
2.232235216605102726e-02
2.232214378091376336e-02
2.232193407520387599e-02
2.232172304894411083e-02
2.232151070215736971e-02
2.232129703486668282e-02
2.232108204709520524e-02
2.232086573886622044e-02
2.232064811020312636e-02
2.232042916112944933e-02
2.232020889166883015e-02
2.231998730184504495e-02
2.231976439168201903e-02
2.231954016120381648e-02
2.231931461043462628e-02
2.231908773939876231e-02
2.231885954812067724e-02
2.231863003662494863e-02
2.231839920493630322e-02
2.231816705307958573e-02
2.231793358107976230e-02
2.231769878896192397e-02
2.231746267675126932e-02
2.231722524447314268e-02
2.231698649215300631e-02
2.231674641981645432e-02
2.231650502748921613e-02
2.231626231519714260e-02
2.231601828296621293e-02
2.231577293082254859e-02
2.231552625879241677e-02
2.231527826690221650e-02
2.231502895517847862e-02
2.231477832364786584e-02
2.231452637233715536e-02
2.231427310127324926e-02
2.231401851048316412e-02
2.231376259999403103e-02
2.231350536983309554e-02
2.231324682002771773e-02
2.231298695060538254e-02
2.231272576159370330e-02
2.231246325302041825e-02
2.231219942491337316e-02
2.231193427730052484e-02
2.231166781020996887e-02
2.231140002366989797e-02
2.231113091770862630e-02
2.231086049235457558e-02
2.231058874763626465e-02
2.231031568358234768e-02
2.231004130022156903e-02
2.230976559758278063e-02
2.230948857569494542e-02
2.230921023458713390e-02
2.230893057428853105e-02
2.230864959482843635e-02
2.230836729623627071e-02
2.230808367854154872e-02
2.230779874177389946e-02
2.230751248596306649e-02
2.230722491113891134e-02
2.230693601733139964e-02
2.230664580457059759e-02
2.230635427288666858e-02
2.230606142230990435e-02
2.230576725287070072e-02
2.230547176459956801e-02
2.230517495752711368e-02
2.230487683168404234e-02
2.230457738710118348e-02
2.230427662380946377e-02
2.230397454183992087e-02
2.230367114122370348e-02
2.230336642199208172e-02
2.230306038417640552e-02
2.230275302780810806e-02
2.230244435291874744e-02
2.230213435953998929e-02
2.230182304770361723e-02
2.230151041744152240e-02
2.230119646878570352e-02
2.230088120176824951e-02
2.230056461642135335e-02
2.230024671277729825e-02
2.229992749086847151e-02
2.229960695072734714e-02
2.229928509238649978e-02
2.229896191587859428e-02
2.229863742123639955e-02
2.229831160849278862e-02
2.229798447768073510e-02
2.229765602883330977e-02
2.229732626198369441e-02
2.229699517716517143e-02
2.229666277441110997e-02
2.229632905375495897e-02
2.229599401523027838e-02
2.229565765887071491e-02
2.229531998470999504e-02
2.229498099278195283e-02
2.229464068312050559e-02
2.229429905575968165e-02
2.229395611073357528e-02
2.229361184807637092e-02
2.229326626782234672e-02
2.229291937000588836e-02
2.229257115466145786e-02
2.229222162182359357e-02
2.229187077152692403e-02
2.229151860380618189e-02
2.229116511869621425e-02
2.229081031623195500e-02
2.229045419644841777e-02
2.229009675938070645e-02
2.228973800506400815e-02
2.228937793353358288e-02
2.228901654482479122e-02
2.228865383897309094e-02
2.228828981601402304e-02
2.228792447598321180e-02
2.228755781891636478e-02
2.228718984484925891e-02
2.228682055381775440e-02
2.228644994585778083e-02
2.228607802100535107e-02
2.228570477929654389e-02
2.228533022076750053e-02
2.228495434545442813e-02
2.228457715339359976e-02
2.228419864462136482e-02
2.228381881917416638e-02
2.228343767708850995e-02
2.228305521840098780e-02
2.228267144314825809e-02
2.228228635136706923e-02
2.228189994309423896e-02
2.228151221836665793e-02
2.228112317722129310e-02
2.228073281969519814e-02
2.228034114582551004e-02
2.227994815564944900e-02
2.227955384920431853e-02
2.227915822652748110e-02
2.227876128765637204e-02
2.227836303262850648e-02
2.227796346148145160e-02
2.227756257425284395e-02
2.227716037098038948e-02
2.227675685170186007e-02
2.227635201645509003e-02
2.227594586527799000e-02
2.227553839820856432e-02
2.227512961528486934e-02
2.227471951654502388e-02
2.227430810202719533e-02
2.227389537176962392e-02
2.227348132581059847e-02
2.227306596418845638e-02
2.227264928694159055e-02
2.227223129410843896e-02
2.227181198572750209e-02
2.227139136183735324e-02
2.227096942247661776e-02
2.227054616768399040e-02
2.227012159749821099e-02
2.226969571195810266e-02
2.226926851110253014e-02
2.226883999497041022e-02
2.226841016360072562e-02
2.226797901703252494e-02
2.226754655530490540e-02
2.226711277845700235e-02
2.226667768652800666e-02
2.226624127955717514e-02
2.226580355758382354e-02
2.226536452064731275e-02
2.226492416878705222e-02
2.226448250204248608e-02
2.226403952045309317e-02
2.226359522405839744e-02
2.226314961289796446e-02
2.226270268701141530e-02
2.226225444643843004e-02
2.226180489121873385e-02
2.226135402139207964e-02
2.226090183699826197e-02
2.226044833807711704e-02
2.225999352466852266e-02
2.225953739681239482e-02
2.225907995454868421e-02
2.225862119791739355e-02
2.225816112695856719e-02
2.225769974171229806e-02
2.225723704221869645e-02
2.225677302851789691e-02
2.225630770065007216e-02
2.225584105865542617e-02
2.225537310257420798e-02
2.225490383244667358e-02
2.225443324831311021e-02
2.225396135021382241e-02
2.225348813818913210e-02
2.225301361227940283e-02
2.225253777252502591e-02
2.225206061896643425e-02
2.225158215164408856e-02
2.225110237059847729e-02
2.225062127587011662e-02
2.225013886749954706e-02
2.224965514552732990e-02
2.224917010999406114e-02
2.224868376094034719e-02
2.224819609840683263e-02
2.224770712243416895e-02
2.224721683306302850e-02
2.224672523033410440e-02
2.224623231428811063e-02
2.224573808496576460e-02
2.224524254240780111e-02
2.224474568665498614e-02
2.224424751774811346e-02
2.224374803572800804e-02
2.224324724063551223e-02
2.224274513251149263e-02
2.224224171139681239e-02
2.224173697733234853e-02
2.224123093035900584e-02
2.224072357051768908e-02
2.224021489784932387e-02
2.223970491239485314e-02
2.223919361419523025e-02
2.223868100329142242e-02
2.223816707972438994e-02
2.223765184353509658e-02
2.223713529476451303e-02
2.223661743345362735e-02
2.223609825964343104e-02
2.223557777337490521e-02
2.223505597468903097e-02
2.223453286362679290e-02
2.223400844022916517e-02
2.223348270453710807e-02
2.223295565659159576e-02
2.223242729643361282e-02
2.223189762410415424e-02
2.223136663964421153e-02
2.223083434309478662e-02
2.223030073449686755e-02
2.222976581389144932e-02
2.222922958131948873e-02
2.222869203682193567e-02
2.222815318043973309e-02
2.222761301221381700e-02
2.222707153218511644e-02
2.222652874039453622e-02
2.222598463688295334e-02
2.222543922169122055e-02
2.222489249486016630e-02
2.222434445643061557e-02
2.222379510644338987e-02
2.222324444493930032e-02
2.222269247195914413e-02
2.222213918754371159e-02
2.222158459173378953e-02
2.222102868457015087e-02
2.222047146609353735e-02
2.221991293634465250e-02
2.221935309536416173e-02
2.221879194319268530e-02
2.221822947987080882e-02
2.221766570543910399e-02
2.221710061993810437e-02
2.221653422340830880e-02
2.221596651589017798e-02
2.221539749742414485e-02
2.221482716805060070e-02
2.221425552780989521e-02
2.221368257674236416e-02
2.221310831488831211e-02
2.221253274228802629e-02
2.221195585898177657e-02
2.221137766500981200e-02
2.221079816041233654e-02
2.221021734522949515e-02
2.220963521950139463e-02
2.220905178326810364e-02
2.220846703656965959e-02
2.220788097944606521e-02
2.220729361193728157e-02
2.220670493408323162e-02
2.220611494592379664e-02
2.220552364749881283e-02
2.220493103884809208e-02
2.220433712001140814e-02
2.220374189102851739e-02
2.220314535193911379e-02
2.220254750278286004e-02
2.220194834359936337e-02
2.220134787442818586e-02
2.220074609530884105e-02
2.220014300628076614e-02
2.219953860738336018e-02
2.219893289865597016e-02
2.219832588013786676e-02
2.219771755186826859e-02
2.219710791388635612e-02
2.219649696623125779e-02
2.219588470894202914e-02
2.219527114205767024e-02
2.219465626561714297e-02
2.219404007965935025e-02
2.219342258422312211e-02
2.219280377934721576e-02
2.219218366507035370e-02
2.219156224143119943e-02
2.219093950846834362e-02
2.219031546622031448e-02
2.218969011472557776e-02
2.218906345402253330e-02
2.218843548414951503e-02
2.218780620514479093e-02
2.218717561704654576e-02
2.218654371989288443e-02
2.218591051372184597e-02
2.218527599857141042e-02
2.218464017447947106e-02
2.218400304148385183e-02
2.218336459962231763e-02
2.218272484893256055e-02
2.218208378945218592e-02
2.218144142121872275e-02
2.218079774426959597e-02
2.218015275864214028e-02
2.217950646437360021e-02
2.217885886150115435e-02
2.217820995006188761e-02
2.217755973009279125e-02
2.217690820163077323e-02
2.217625536471265826e-02
2.217560121937518780e-02
2.217494576565502001e-02
2.217428900358872634e-02
2.217363093321279149e-02
2.217297155456358915e-02
2.217231086767740625e-02
2.217164887259045342e-02
2.217098556933883718e-02
2.217032095795857388e-02
2.216965503848558963e-02
2.216898781095572035e-02
2.216831927540470829e-02
2.216764943186818465e-02
2.216697828038167312e-02
2.216630582098060367e-02
2.216563205370030917e-02
2.216495697857601491e-02
2.216428059564282474e-02
2.216360290493572804e-02
2.216292390648963787e-02
2.216224360033936663e-02
2.216156198651960188e-02
2.216087906506491664e-02
2.216019483600979376e-02
2.215950929938859809e-02
2.215882245523558003e-02
2.215813430358486158e-02
2.215744484447044332e-02
2.215675407792620441e-02
2.215606200398591991e-02
2.215536862268325732e-02
2.215467393405179050e-02
2.215397793812497185e-02
2.215328063493614275e-02
2.215258202451853703e-02
2.215188210690526363e-02
2.215118088212930311e-02
2.215047835022352848e-02
2.214977451122068786e-02
2.214906936515341485e-02
2.214836291205423205e-02
2.214765515195551981e-02
2.214694608488955788e-02
2.214623571088852536e-02
2.214552402998448341e-02
2.214481104220936136e-02
2.214409674759498445e-02
2.214338114617303566e-02
2.214266423797509736e-02
2.214194602303263051e-02
2.214122650137698850e-02
2.214050567303937900e-02
2.213978353805089172e-02
2.213906009644249495e-02
2.213833534824501820e-02
2.213760929348917300e-02
2.213688193220555295e-02
2.213615326442460937e-02
2.213542329017666871e-02
2.213469200949190821e-02
2.213395942240038022e-02
2.213322552893200179e-02
2.213249032911655118e-02
2.213175382298369215e-02
2.213101601056294970e-02
2.213027689188369618e-02
2.212953646697517901e-02
2.212879473586650339e-02
2.212805169858661491e-02
2.212730735516433081e-02
2.212656170562834340e-02
2.212581475000721665e-02
2.212506648832936879e-02
2.212431692062308622e-02
2.212356604691651310e-02
2.212281386723766521e-02
2.212206038161441263e-02
2.212130559007449704e-02
2.212054949264553178e-02
2.211979208935499486e-02
2.211903338023021512e-02
2.211827336529836180e-02
2.211751204458648618e-02
2.211674941812150769e-02
2.211598548593021393e-02
2.211522024803926068e-02
2.211445370447518224e-02
2.211368585526437419e-02
2.211291670043308288e-02
2.211214624000739509e-02
2.211137447401323453e-02
2.211060140247637570e-02
2.210982702542243356e-02
2.210905134287690157e-02
2.210827435486513448e-02
2.210749606141236209e-02
2.210671646254367892e-02
2.210593555828400253e-02
2.210515334865809783e-02
2.210436983369058056e-02
2.210358501340593113e-02
2.210279888782849117e-02
2.210201145698244968e-02
2.210122272089184298e-02
2.210043267958056862e-02
2.209964133307238884e-02
2.209884868139091671e-02
2.209805472455960915e-02
2.209725946260178431e-02
2.209646289554061116e-02
2.209566502339910254e-02
2.209486584620012906e-02
2.209406536396641210e-02
2.209326357672053778e-02
2.209246048448493607e-02
2.209165608728190858e-02
2.209085038513360424e-02
2.209004337806200549e-02
2.208923506608894208e-02
2.208842544923607723e-02
2.208761452752492152e-02
2.208680230097681899e-02
2.208598876961295754e-02
2.208517393345438284e-02
2.208435779252200179e-02
2.208354034683656861e-02
2.208272159641869875e-02
2.208190154128887930e-02
2.208108018146745510e-02
2.208025751697462180e-02
2.207943354783043974e-02
2.207860827405481313e-02
2.207778169566751436e-02
2.207695381268814580e-02
2.207612462513617452e-02
2.207529413303091839e-02
2.207446233639153918e-02
2.207362923523704251e-02
2.207279482958626748e-02
2.207195911945788666e-02
2.207112210487043383e-02
2.207028378584231440e-02
2.206944416239178114e-02
2.206860323453690986e-02
2.206776100229562027e-02
2.206691746568567938e-02
2.206607262472469119e-02
2.206522647943012089e-02
2.206437902981926713e-02
2.206353027590927246e-02
2.206268021771712676e-02
2.206182885525967072e-02
2.206097618855359238e-02
2.206012221761543060e-02
2.205926694246157158e-02
2.205841036310823150e-02
2.205755247957147738e-02
2.205669329186724092e-02
2.205583280001130464e-02
2.205497100401931573e-02
2.205410790390676876e-02
2.205324349968899519e-02
2.205237779138119122e-02
2.205151077899841425e-02
2.205064246255557248e-02
2.204977284206741453e-02
2.204890191754853984e-02
2.204802968901339519e-02
2.204715615647627816e-02
2.204628131995131288e-02
2.204540517945244998e-02
2.204452773499348053e-02
2.204364898658803251e-02
2.204276893424959860e-02
2.204188757799149800e-02
2.204100491782691809e-02
2.204012095376891439e-02
2.203923568583041059e-02
2.203834911402418467e-02
2.203746123836286888e-02
2.203657205885893935e-02
2.203568157552472997e-02
2.203478978837242544e-02
2.203389669741407861e-02
2.203300230266160356e-02
2.203210660412675825e-02
2.203120960182113064e-02
2.203031129575616642e-02
2.202941168594318294e-02
2.202851077239335875e-02
2.202760855511771629e-02
2.202670503412714961e-02
2.202580020943242789e-02
2.202489408104416763e-02
2.202398664897286043e-02
2.202307791322883138e-02
2.202216787382226676e-02
2.202125653076321410e-02
2.202034388406158560e-02
2.201942993372714430e-02
2.201851467976948667e-02
2.201759812219808779e-02
2.201668026102227352e-02
2.201576109625124830e-02
2.201484062789408475e-02
2.201391885595972014e-02
2.201299578045694261e-02
2.201207140139440840e-02
2.201114571878062809e-02
2.201021873262398384e-02
2.200929044293272949e-02
2.200836084971499740e-02
2.200742995297878812e-02
2.200649775273199119e-02
2.200556424898236774e-02
2.200462944173754709e-02
2.200369333100501631e-02
2.200275591679212370e-02
2.200181719910610303e-02
2.200087717795403547e-02
2.199993585334285295e-02
2.199899322527934520e-02
2.199804929377017701e-02
2.199710405882187789e-02
2.199615752044085243e-02
2.199520967863336993e-02
2.199426053340559559e-02
2.199331008476357666e-02
2.199235833271323895e-02
2.199140527726038338e-02
2.199045091841067556e-02
2.198949525616963885e-02
2.198853829054266823e-02
2.198758002153505461e-02
2.198662044915196054e-02
2.198565957339843405e-02
2.198469739427941910e-02
2.198373391179971742e-02
2.198276912596401969e-02
2.198180303677690559e-02
2.198083564424282987e-02
2.197986694836613630e-02
2.197889694915104372e-02
2.197792564660164955e-02
2.197695304072194364e-02
2.197597913151581872e-02
2.197500391898704608e-02
2.197402740313929292e-02
2.197304958397612237e-02
2.197207046150099000e-02
2.197109003571724728e-02
2.197010830662813122e-02
2.196912527423677472e-02
2.196814093854618233e-02
2.196715529955927185e-02
2.196616835727884659e-02
2.196518011170759885e-02
2.196419056284810989e-02
2.196319971070286384e-02
2.196220755527423726e-02
2.196121409656449919e-02
2.196021933457580760e-02
2.195922326931019908e-02
2.195822590076961650e-02
2.195722722895592297e-02
2.195622725387087748e-02
2.195522597551614885e-02
2.195422339389331914e-02
2.195321950900388369e-02
2.195221432084924762e-02
2.195120782943071544e-02
2.195020003474952228e-02
2.194919093680680611e-02
2.194818053560362164e-02
2.194716883114092645e-02
2.194615582341961219e-02
2.194514151244049069e-02
2.194412589820429055e-02
2.194310898071163626e-02
2.194209075996307948e-02
2.194107123595907816e-02
2.194005040870001047e-02
2.193902827818618173e-02
2.193800484441782786e-02
2.193698010739509804e-02
2.193595406711808249e-02
2.193492672358680201e-02
2.193389807680119416e-02
2.193286812676113057e-02
2.193183687346640307e-02
2.193080431691673410e-02
2.192977045711180795e-02
2.192873529405124644e-02
2.192769882773462284e-02
2.192666105816144795e-02
2.192562198533117013e-02
2.192458160924316488e-02
2.192353992989676606e-02
2.192249694729123816e-02
2.192145266142577625e-02
2.192040707229951993e-02
2.191936017991155325e-02
2.191831198426090477e-02
2.191726248534653712e-02
2.191621168316736784e-02
2.191515957772225201e-02
2.191410616900996491e-02
2.191305145702920898e-02
2.191199544177864153e-02
2.191093812325687479e-02
2.190987950146247934e-02
2.190881957639399802e-02
2.190775834804993202e-02
2.190669581642872704e-02
2.190563198152880448e-02
2.190456684334853715e-02
2.190350040188624586e-02
2.190243265714020282e-02
2.190136360910864902e-02
2.190029325778977687e-02
2.189922160318173716e-02
2.189814864528263905e-02
2.189707438409055698e-02
2.189599881960352379e-02
2.189492195181953760e-02
2.189384378073655837e-02
2.189276430635253567e-02
2.189168352866538436e-02
2.189060144767298460e-02
2.188951806337318187e-02
2.188843337576379042e-02
2.188734738484261061e-02
2.188626009060741159e-02
2.188517149305593129e-02
2.188408159218588334e-02
2.188299038799497442e-02
2.188189788048088696e-02
2.188080406964126173e-02
2.187970895547373257e-02
2.187861253797591943e-02
2.187751481714543533e-02
2.187641579297988637e-02
2.187531546547686820e-02
2.187421383463396263e-02
2.187311090044876186e-02
2.187200666291884768e-02
2.187090112204179496e-02
2.186979427781515772e-02
2.186868613023649696e-02
2.186757667930336671e-02
2.186646592501334530e-02
2.186535386736402492e-02
2.186424050635299432e-02
2.186312584197782488e-02
2.186200987423610534e-02
2.186089260312543137e-02
2.185977402864340211e-02
2.185865415078762017e-02
2.185753296955571245e-02
2.185641048494533362e-02
2.185528669695414872e-02
2.185416160557984364e-02
2.185303521082011813e-02
2.185190751267268930e-02
2.185077851113530201e-02
2.184964820620573581e-02
2.184851659788179454e-02
2.184738368616133061e-02
2.184624947104221726e-02
2.184511395252237975e-02
2.184397713059977111e-02
2.184283900527238600e-02
2.184169957653826419e-02
2.184055884439549053e-02
2.183941680884217765e-02
2.183827346987647286e-02
2.183712882749657899e-02
2.183598288170076132e-02
2.183483563248733370e-02
2.183368707985466894e-02
2.183253722380119888e-02
2.183138606432539694e-02
2.183023360142579555e-02
2.182907983510098959e-02
2.182792476534963638e-02
2.182676839217045917e-02
2.182561071556223323e-02
2.182445173552379977e-02
2.182329145205404511e-02
2.182212986515190065e-02
2.182096697481636718e-02
2.181980278104651838e-02
2.181863728384149381e-02
2.181747048320052673e-02
2.181630237912292672e-02
2.181513297160808662e-02
2.181396226065547214e-02
2.181279024626461838e-02
2.181161692843513328e-02
2.181044230716671153e-02
2.180926638245913457e-02
2.180808915431224973e-02
2.180691062272598763e-02
2.180573078770034826e-02
2.180454964923542877e-02
2.180336720733142344e-02
2.180218346198861332e-02
2.180099841320738349e-02
2.179981206098819541e-02
2.179862440533157641e-02
2.179743544623816490e-02
2.179624518370870678e-02
2.179505361774406944e-02
2.179386074834522083e-02
2.179266657551324343e-02
2.179147109924934808e-02
2.179027431955485317e-02
2.178907623643119851e-02
2.178787684987992801e-02
2.178667615990270701e-02
2.178547416650131185e-02
2.178427086967763340e-02
2.178306626943369434e-02
2.178186036577165960e-02
2.178065315869382249e-02
2.177944464820262202e-02
2.177823483430064641e-02
2.177702371699063652e-02
2.177581129627545464e-02
2.177459757215808797e-02
2.177338254464166595e-02
2.177216621372947414e-02
2.177094857942494383e-02
2.176972964173163466e-02
2.176850940065323814e-02
2.176728785619358453e-02
2.176606500835665675e-02
2.176484085714659039e-02
2.176361540256765981e-02
2.176238864462429548e-02
2.176116058332107014e-02
2.175993121866272653e-02
2.175870055065417044e-02
2.175746857930046727e-02
2.175623530460684199e-02
2.175500072657867226e-02
2.175376484522148837e-02
2.175252766054098716e-02
2.175128917254303199e-02
2.175004938123364581e-02
2.174880828661901466e-02
2.174756588870548069e-02
2.174632218749954216e-02
2.174507718300786041e-02
2.174383087523726332e-02
2.174258326419475917e-02
2.174133434988753666e-02
2.174008413232296835e-02
2.173883261150861418e-02
2.173757978745221794e-02
2.173632566016170387e-02
2.173507022964519739e-02
2.173381349591101824e-02
2.173255545896767699e-02
2.173129611882387499e-02
2.173003547548850792e-02
2.172877352897067960e-02
2.172751027927968814e-02
2.172624572642502944e-02
2.172497987041640058e-02
2.172371271126369990e-02
2.172244424897701309e-02
2.172117448356662706e-02
2.171990341504302299e-02
2.171863104341686598e-02
2.171735736869902580e-02
2.171608239090057693e-02
2.171480611003281588e-02
2.171352852610726469e-02
2.171224963913564662e-02
2.171096944912987228e-02
2.170968795610205351e-02
2.170840516006451726e-02
2.170712106102979516e-02
2.170583565901064091e-02
2.170454895402004411e-02
2.170326094607120254e-02
2.170197163517753602e-02
2.170068102135270377e-02
2.169938910461059051e-02
2.169809588496532035e-02
2.169680136243123253e-02
2.169550553702289525e-02
2.169420840875510917e-02
2.169290997764289353e-02
2.169161024370151389e-02
2.169030920694647174e-02
2.168900686739350450e-02
2.168770322505858550e-02
2.168639827995792746e-02
2.168509203210796862e-02
2.168378448152538662e-02
2.168247562822708807e-02
2.168116547223023632e-02
2.167985401355225494e-02
2.167854125221081382e-02
2.167722718822384306e-02
2.167591182160952257e-02
2.167459515238627857e-02
2.167327718057276975e-02
2.167195790618790807e-02
2.167063732925084835e-02
2.166931544978101601e-02
2.166799226779807588e-02
2.166666778332194607e-02
2.166534199637280139e-02
2.166401490697107343e-02
2.166268651513745397e-02
2.166135682089288458e-02
2.166002582425858441e-02
2.165869352525603628e-02
2.165735992390698667e-02
2.165602502023345963e-02
2.165468881425774289e-02
2.165335130600240521e-02
2.165201249549028595e-02
2.165067238274450898e-02
2.164933096778846877e-02
2.164798825064583043e-02
2.164664423134051580e-02
2.164529890989672078e-02
2.164395228633891888e-02
2.164260436069185764e-02
2.164125513298054485e-02
2.163990460323025541e-02
2.163855277146653142e-02
2.163719963771520635e-02
2.163584520200238087e-02
2.163448946435445400e-02
2.163313242479810578e-02
2.163177408336031116e-02
2.163041444006834693e-02
2.162905349494977786e-02
2.162769124803245666e-02
2.162632769934453789e-02
2.162496284891446061e-02
2.162359669677096571e-02
2.162222924294308901e-02
2.162086048746014733e-02
2.161949043035174892e-02
2.161811907164781082e-02
2.161674641137854500e-02
2.161537244957445481e-02
2.161399718626635241e-02
2.161262062148535182e-02
2.161124275526286886e-02
2.160986358763064205e-02
2.160848311862072213e-02
2.160710134826546516e-02
2.160571827659752905e-02
2.160433390364987355e-02
2.160294822945579146e-02
2.160156125404888092e-02
2.160017297746304535e-02
2.159878339973250738e-02
2.159739252089179495e-02
2.159600034097574478e-02
2.159460686001949195e-02
2.159321207805848034e-02
2.159181599512849034e-02
2.159041861126562850e-02
2.158901992650629972e-02
2.158761994088723851e-02
2.158621865444550897e-02
2.158481606721850132e-02
2.158341217924392152e-02
2.158200699055982247e-02
2.158060050120457624e-02
2.157919271121688798e-02
2.157778362063579244e-02
2.157637322950064010e-02
2.157496153785110407e-02
2.157354854572718361e-02
2.157213425316921451e-02
2.157071866021787951e-02
2.156930176691419787e-02
2.156788357329952888e-02
2.156646407941554405e-02
2.156504328530425493e-02
2.156362119100798877e-02
2.156219779656941629e-02
2.156077310203153088e-02
2.155934710743766594e-02
2.155791981283147404e-02
2.155649121825696513e-02
2.155506132375846484e-02
2.155363012938061804e-02
2.155219763516841996e-02
2.155076384116718854e-02
2.154932874742257129e-02
2.154789235398057307e-02
2.154645466088752140e-02
2.154501566819011157e-02
2.154357537593537542e-02
2.154213378417068128e-02
2.154069089294373754e-02
2.153924670230260296e-02
2.153780121229570063e-02
2.153635442297181096e-02
2.153490633438007174e-02
2.153345694656995726e-02
2.153200625959128187e-02
2.153055427349420681e-02
2.152910098832926458e-02
2.152764640414732769e-02
2.152619052099962599e-02
2.152473333893773627e-02
2.152327485801358228e-02
2.152181507827943471e-02
2.152035399978791119e-02
2.151889162259197630e-02
2.151742794674495543e-02
2.151596297230053828e-02
2.151449669931276149e-02
2.151302912783600862e-02
2.151156025792503104e-02
2.151009008963495825e-02
2.150861862302127017e-02
2.150714585813981103e-02
2.150567179504680321e-02
2.150419643379881257e-02
2.150271977445276234e-02
2.150124181706594001e-02
2.149976256169599739e-02
2.149828200840095752e-02
2.149680015723918688e-02
2.149531700826944752e-02
2.149383256155087268e-02
2.149234681714296685e-02
2.149085977510560228e-02
2.148937143549903631e-02
2.148788179838390100e-02
2.148639086382118923e-02
2.148489863187225471e-02
2.148340510259883623e-02
2.148191027606305772e-02
2.148041415232740739e-02
2.147891673145476202e-02
2.147741801350835575e-02
2.147591799855178701e-02
2.147441668664903242e-02
2.147291407786444326e-02
2.147141017226273513e-02
2.146990496990899139e-02
2.146839847086867356e-02
2.146689067520760399e-02
2.146538158299197974e-02
2.146387119428837600e-02
2.146235950916376700e-02
2.146084652768549469e-02
2.145933224992127575e-02
2.145781667593920847e-02
2.145629980580777627e-02
2.145478163959584419e-02
2.145326217737267283e-02
2.145174141920788702e-02
2.145021936517150368e-02
2.144869601533392484e-02
2.144717136976592720e-02
2.144564542853867259e-02
2.144411819172371836e-02
2.144258965939300349e-02
2.144105983161886247e-02
2.143952870847401493e-02
2.143799629003158291e-02
2.143646257636507707e-02
2.143492756754839315e-02
2.143339126365582242e-02
2.143185366476205514e-02
2.143031477094217013e-02
2.142877458227163481e-02
2.142723309882632945e-02
2.142569032068251944e-02
2.142414624791687261e-02
2.142260088060643150e-02
2.142105421882864111e-02
2.141950626266134888e-02
2.141795701218280473e-02
2.141640646747163326e-02
2.141485462860686154e-02
2.141330149566791907e-02
2.141174706873463784e-02
2.141019134788726616e-02
2.140863433320645826e-02
2.140707602477327429e-02
2.140551642266916299e-02
2.140395552697597556e-02
2.140239333777595523e-02
2.140082985515175118e-02
2.139926507918638726e-02
2.139769900996327939e-02
2.139613164756624941e-02
2.139456299207950773e-02
2.139299304358765683e-02
2.139142180217570854e-02
2.138984926792906680e-02
2.138827544093353794e-02
2.138670032127534815e-02
2.138512390904111909e-02
2.138354620431786451e-02
2.138196720719297630e-02
2.138038691775423841e-02
2.137880533608982336e-02
2.137722246228829920e-02
2.137563829643864682e-02
2.137405283863023919e-02
2.137246608895285171e-02
2.137087804749663797e-02
2.136928871435217481e-02
2.136769808961044848e-02
2.136610617336285114e-02
2.136451296570116704e-02
2.136291846671756200e-02
2.136132267650460784e-02
2.135972559515526836e-02
2.135812722276291681e-02
2.135652755942133579e-02
2.135492660522471733e-02
2.135332436026763508e-02
2.135172082464506862e-02
2.135011599845238611e-02
2.134850988178536510e-02
2.134690247474018213e-02
2.134529377741343353e-02
2.134368378990213547e-02
2.134207251230369612e-02
2.134045994471592961e-02
2.133884608723704904e-02
2.133723093996566650e-02
2.133561450300081389e-02
2.133399677644189779e-02
2.133237776038874461e-02
2.133075745494159015e-02
2.132913586020107957e-02
2.132751297626828135e-02
2.132588880324466987e-02
2.132426334123212544e-02
2.132263659033292388e-02
2.132100855064974695e-02
2.131937922228568233e-02
2.131774860534421320e-02
2.131611669992921829e-02
2.131448350614496834e-02
2.131284902409616433e-02
2.131121325388790275e-02
2.130957619562568947e-02
2.130793784941541896e-02
2.130629821536338120e-02
2.130465729357627555e-02
2.130301508416120385e-02
2.130137158722565996e-02
2.129972680287755757e-02
2.129808073122523016e-02
2.129643337237739284e-02
2.129478472644316320e-02
2.129313479353206126e-02
2.129148357375400258e-02
2.128983106721931903e-02
2.128817727403875884e-02
2.128652219432347961e-02
2.128486582818504488e-02
2.128320817573542065e-02
2.128154923708700311e-02
2.127988901235260827e-02
2.127822750164544419e-02
2.127656470507913178e-02
2.127490062276770830e-02
2.127323525482560651e-02
2.127156860136766164e-02
2.126990066250910791e-02
2.126823143836556809e-02
2.126656092905306744e-02
2.126488913468803366e-02
2.126321605538729689e-02
2.126154169126807589e-02
2.125986604244800224e-02
2.125818910904512388e-02
2.125651089117789466e-02
2.125483138896516397e-02
2.125315060252617669e-02
2.125146853198058017e-02
2.124978517744843809e-02
2.124810053905021659e-02
2.124641461690680508e-02
2.124472741113947460e-02
2.124303892186989867e-02
2.124134914922016365e-02
2.123965809331275142e-02
2.123796575427055328e-02
2.123627213221685947e-02
2.123457722727535926e-02
2.123288103957012354e-02
2.123118356922560832e-02
2.122948481636665122e-02
2.122778478111846806e-02
2.122608346360667364e-02
2.122438086395727827e-02
2.122267698229667043e-02
2.122097181875164801e-02
2.121926537344940092e-02
2.121755764651752502e-02
2.121584863808403942e-02
2.121413834827738307e-02
2.121242677722640080e-02
2.121071392506034339e-02
2.120899979190885021e-02
2.120728437790195264e-02
2.120556768317007762e-02
2.120384970784405798e-02
2.120213045205512903e-02
2.120040991593491464e-02
2.119868809961542727e-02
2.119696500322908531e-02
2.119524062690869570e-02
2.119351497078746441e-02
2.119178803499897554e-02
2.119005981967718791e-02
2.118833032495644544e-02
2.118659955097146677e-02
2.118486749785736950e-02
2.118313416574967023e-02
2.118139955478427414e-02
2.117966366509748885e-02
2.117792649682600711e-02
2.117618805010693106e-02
2.117444832507776181e-02
2.117270732187638907e-02
2.117096504064110152e-02
2.116922148151056601e-02
2.116747664462384493e-02
2.116573053012040309e-02
2.116398313814008697e-02
2.116223446882313508e-02
2.116048452231018492e-02
2.115873329874228687e-02
2.115698079826088332e-02
2.115522702100782262e-02
2.115347196712533476e-02
2.115171563675603134e-02
2.114995803004291949e-02
2.114819914712941229e-02
2.114643898815932871e-02
2.114467755327688325e-02
2.114291484262668247e-02
2.114115085635370761e-02
2.113938559460331809e-02
2.113761905752126885e-02
2.113585124525371728e-02
2.113408215794720588e-02
2.113231179574865878e-02
2.113054015880539566e-02
2.112876724726512126e-02
2.112699306127592547e-02
2.112521760098631796e-02
2.112344086654520045e-02
2.112166285810185978e-02
2.111988357580596790e-02
2.111810301980757143e-02
2.111632119025710561e-02
2.111453808730540810e-02
2.111275371110368781e-02
2.111096806180355265e-02
2.110918113955698519e-02
2.110739294451635314e-02
2.110560347683441973e-02
2.110381273666433327e-02
2.110202072415961680e-02
2.110022743947414722e-02
2.109843288276218309e-02
2.109663705417835419e-02
2.109483995387767194e-02
2.109304158201554674e-02
2.109124193874775677e-02
2.108944102423045835e-02
2.108763883862019295e-02
2.108583538207387323e-02
2.108403065474879004e-02
2.108222465680262628e-02
2.108041738839343260e-02
2.107860884967965517e-02
2.107679904082013222e-02
2.107498796197408014e-02
2.107317561330111083e-02
2.107136199496121437e-02
2.106954710711476941e-02
2.106773094992254666e-02
2.106591352354569846e-02
2.106409482814576573e-02
2.106227486388467796e-02
2.106045363092474282e-02
2.105863112942864268e-02
2.105680735955943808e-02
2.105498232148056773e-02
2.105315601535582767e-02
2.105132844134938522e-02
2.104949959962577194e-02
2.104766949034989412e-02
2.104583811368704316e-02
2.104400546980285738e-02
2.104217155886336371e-02
2.104033638103496376e-02
2.103849993648443037e-02
2.103666222537891803e-02
2.103482324788596633e-02
2.103298300417347569e-02
2.103114149440973163e-02
2.102929871876338744e-02
2.102745467740346416e-02
2.102560937049934020e-02
2.102376279822076865e-02
2.102191496073788426e-02
2.102006585822117218e-02
2.101821549084147492e-02
2.101636385877002008e-02
2.101451096217838918e-02
2.101265680123855575e-02
2.101080137612285764e-02
2.100894468700400045e-02
2.100708673405505753e-02
2.100522751744947000e-02
2.100336703736104330e-02
2.100150529396394711e-02
2.099964228743271891e-02
2.099777801794226045e-02
2.099591248566782392e-02
2.099404569078503965e-02
2.099217763346989882e-02
2.099030831389875687e-02
2.098843773224831968e-02
2.098656588869565742e-02
2.098469278341820454e-02
2.098281841659375285e-02
2.098094278840045498e-02
2.097906589901681398e-02
2.097718774862171801e-02
2.097530833739442990e-02
2.097342766551457682e-02
2.097154573316217102e-02
2.096966254051758211e-02
2.096777808776154051e-02
2.096589237507513748e-02
2.096400540263983550e-02
2.096211717063746482e-02
2.096022767925022692e-02
2.095833692866068410e-02
2.095644491905177334e-02
2.095455165060680289e-02
2.095265712350944873e-02
2.095076133794375461e-02
2.094886429409413206e-02
2.094696599214534993e-02
2.094506643228254833e-02
2.094316561469124899e-02
2.094126353955731365e-02
2.093936020706698570e-02
2.093745561740686240e-02
2.093554977076389489e-02
2.093364266732541598e-02
2.093173430727910886e-02
2.092982469081302102e-02
2.092791381811556772e-02
2.092600168937552851e-02
2.092408830478203335e-02
2.092217366452456609e-02
2.092025776879296098e-02
2.091834061777741657e-02
2.091642221166846796e-02
2.091450255065701105e-02
2.091258163493430605e-02
2.091065946469197745e-02
2.090873604012199669e-02
2.090681136141668214e-02
2.090488542876868527e-02
2.090295824237099406e-02
2.090102980241696079e-02
2.089910010910029509e-02
2.089716916261505006e-02
2.089523696315565351e-02
2.089330351091689408e-02
2.089136880609392122e-02
2.088943284888225560e-02
2.088749563947777527e-02
2.088555717807670520e-02
2.088361746487562773e-02
2.088167650007146867e-02
2.087973428386151117e-02
2.087779081644339230e-02
2.087584609801509256e-02
2.087390012877494982e-02
2.087195290892165586e-02
2.087000443865425978e-02
2.086805471817215415e-02
2.086610374767508547e-02
2.086415152736314019e-02
2.086219805743673092e-02
2.086024333809661027e-02
2.085828736954387086e-02
2.085633015197994530e-02
2.085437168560662011e-02
2.085241197062601831e-02
2.085045100724062725e-02
2.084848879565331589e-02
2.084652533606730362e-02
2.084456062868616025e-02
2.084259467371381985e-02
2.084062747135458082e-02
2.083865902181310931e-02
2.083668932529441839e-02
2.083471838200388199e-02
2.083274619214722789e-02
2.083077275593053085e-02
2.082879807356020213e-02
2.082682214524300343e-02
2.082484497118603298e-02
2.082286655159674982e-02
2.082088688668296689e-02
2.081890597665283366e-02
2.081692382171485348e-02
2.081494042207788706e-02
2.081295577795113164e-02
2.081096988954412100e-02
2.080898275706671852e-02
2.080699438072913104e-02
2.080500476074191932e-02
2.080301389731597367e-02
2.080102179066253484e-02
2.079902844099318360e-02
2.079703384851983722e-02
2.079503801345475300e-02
2.079304093601052131e-02
2.079104261640007251e-02
2.078904305483669432e-02
2.078704225153401794e-02
2.078504020670602151e-02
2.078303692056703011e-02
2.078103239333170191e-02
2.077902662521502117e-02
2.077701961643231565e-02
2.077501136719924965e-02
2.077300187773184481e-02
2.077099114824646972e-02
2.076897917895983645e-02
2.076696597008899012e-02
2.076495152185131240e-02
2.076293583446452845e-02
2.076091890814670687e-02
2.075890074311624242e-02
2.075688133959186638e-02
2.075486069779264656e-02
2.075283881793798385e-02
2.075081570024761568e-02
2.074879134494162294e-02
2.074676575224042654e-02
2.074473892236478392e-02
2.074271085553578906e-02
2.074068155197486552e-02
2.073865101190375954e-02
2.073661923554455735e-02
2.073458622311967828e-02
2.073255197485188855e-02
2.073051649096428750e-02
2.072847977168031791e-02
2.072644181722376605e-02
2.072440262781876513e-02
2.072236220368978490e-02
2.072032054506162471e-02
2.071827765215942738e-02
2.071623352520866185e-02
2.071418816443511973e-02
2.071214157006491877e-02
2.071009374232449934e-02
2.070804468144063840e-02
2.070599438764045286e-02
2.070394286115138927e-02
2.070189010220123416e-02
2.069983611101810020e-02
2.069778088783044701e-02
2.069572443286706379e-02
2.069366674635707282e-02
2.069160782852992944e-02
2.068954767961541860e-02
2.068748629984366524e-02
2.068542368944512738e-02
2.068335984865060997e-02
2.068129477769124758e-02
2.067922847679850434e-02
2.067716094620418790e-02
2.067509218614042507e-02
2.067302219683967227e-02
2.067095097853472591e-02
2.066887853145870507e-02
2.066680485584505844e-02
2.066472995192756082e-02
2.066265381994031314e-02
2.066057646011773552e-02
2.065849787269456381e-02
2.065641805790585303e-02
2.065433701598697047e-02
2.065225474717361995e-02
2.065017125170183834e-02
2.064808652980799561e-02
2.064600058172880170e-02
2.064391340770130312e-02
2.064182500796287248e-02
2.063973538275119465e-02
2.063764453230427370e-02
2.063555245686044676e-02
2.063345915665837360e-02
2.063136463193703321e-02
2.062926888293573416e-02
2.062717190989412155e-02
2.062507371305217704e-02
2.062297429265020493e-02
2.062087364892882524e-02
2.061877178212897371e-02
2.061666869249190182e-02
2.061456438025917673e-02
2.061245884567267789e-02
2.061035208897459697e-02
2.060824411040745874e-02
2.060613491021410712e-02
2.060402448863770178e-02
2.060191284592171809e-02
2.059979998230995757e-02
2.059768589804654437e-02
2.059557059337591492e-02
2.059345406854282134e-02
2.059133632379233497e-02
2.058921735936983591e-02
2.058709717552103385e-02
2.058497577249196117e-02
2.058285315052895553e-02
2.058072930987867033e-02
2.057860425078808161e-02
2.057647797350449156e-02
2.057435047827551461e-02
2.057222176534907743e-02
2.057009183497343976e-02
2.056796068739718750e-02
2.056582832286921875e-02
2.056369474163875430e-02
2.056155994395533065e-02
2.055942393006880697e-02
2.055728670022935467e-02
2.055514825468745740e-02
2.055300859369390762e-02
2.055086771749980307e-02
2.054872562635654334e-02
2.054658232051585764e-02
2.054443780022978394e-02
2.054229206575065858e-02
2.054014511733111975e-02
2.053799695522410748e-02
2.053584757968287405e-02
2.053369699096096318e-02
2.053154518931222042e-02
2.052939217499081398e-02
2.052723794825122086e-02
2.052508250934822684e-02
2.052292585853694035e-02
2.052076799607279248e-02
2.051860892221153004e-02
2.051644863720920864e-02
2.051428714132220305e-02
2.051212443480719683e-02
2.050996051792119620e-02
2.050779539092150577e-02
2.050562905406573197e-02
2.050346150761180042e-02
2.050129275181793859e-02
2.049912278694268619e-02
2.049695161324489173e-02
2.049477923098370902e-02
2.049260564041859023e-02
2.049043084180928592e-02
2.048825483541586237e-02
2.048607762149869463e-02
2.048389920031845959e-02
2.048171957213614641e-02
2.047953873721304607e-02
2.047735669581074447e-02
2.047517344819113627e-02
2.047298899461641800e-02
2.047080333534909147e-02
2.046861647065196382e-02
2.046642840078813363e-02
2.046423912602101172e-02
2.046204864661432116e-02
2.045985696283208685e-02
2.045766407493863903e-02
2.045546998319862364e-02
2.045327468787698499e-02
2.045107818923896231e-02
2.044888048755011054e-02
2.044668158307628297e-02
2.044448147608363478e-02
2.044228016683863683e-02
2.044007765560804796e-02
2.043787394265892884e-02
2.043566902825864895e-02
2.043346291267487264e-02
2.043125559617555223e-02
2.042904707902892802e-02
2.042683736150354562e-02
2.042462644386824205e-02
2.042241432639214926e-02
2.042020100934468022e-02
2.041798649299556012e-02
2.041577077761481604e-02
2.041355386347276993e-02
2.041133575084004559e-02
2.040911643998755826e-02
2.040689593118651807e-02
2.040467422470843700e-02
2.040245132082512541e-02
2.040022721980869549e-02
2.039800192193156822e-02
2.039577542746646641e-02
2.039354773668640083e-02
2.039131884986468413e-02
2.038908876727493769e-02
2.038685748919106047e-02
2.038462501588723247e-02
2.038239134763792162e-02
2.038015648471789426e-02
2.037792042740220466e-02
2.037568317596619508e-02
2.037344473068550613e-02
2.037120509183608721e-02
2.036896425969417224e-02
2.036672223453628305e-02
2.036447901663924337e-02
2.036223460628016138e-02
2.035998900373642631e-02
2.035774220928570147e-02
2.035549422320594160e-02
2.035324504577537899e-02
2.035099467727254433e-02
2.034874311797625276e-02
2.034649036816560397e-02
2.034423642811998903e-02
2.034198129811910088e-02
2.033972497844292737e-02
2.033746746937176164e-02
2.033520877118616399e-02
2.033294888416698962e-02
2.033068780859538516e-02
2.032842554475278521e-02
2.032616209292090192e-02
2.032389745338173195e-02
2.032163162641755297e-02
2.031936461231093061e-02
2.031709641134470112e-02
2.031482702380198527e-02
2.031255644996619522e-02
2.031028469012102419e-02
2.030801174455044988e-02
2.030573761353872755e-02
2.030346229737040389e-02
2.030118579633029968e-02
2.029890811070350978e-02
2.029662924077541009e-02
2.029434918683165751e-02
2.029206794915817957e-02
2.028978552804117791e-02
2.028750192376713862e-02
2.028521713662282885e-02
2.028293116689530023e-02
2.028064401487188195e-02
2.027835568084019463e-02
2.027606616508813644e-02
2.027377546790387619e-02
2.027148358957586369e-02
2.026919053039284366e-02
2.026689629064382797e-02
2.026460087061809912e-02
2.026230427060521366e-02
2.026000649089500574e-02
2.025770753177756969e-02
2.025540739354326700e-02
2.025310607648274364e-02
2.025080358088691274e-02
2.024849990704695110e-02
2.024619505525429922e-02
2.024388902580066818e-02
2.024158181897804318e-02
2.023927343507868348e-02
2.023696387439512245e-02
2.023465313722016753e-02
2.023234122384688985e-02
2.023002813456863808e-02
2.022771386967903151e-02
2.022539842947195313e-02
2.022308181424155304e-02
2.022076402428224506e-02
2.021844505988871707e-02
2.021612492135591022e-02
2.021380360897902934e-02
2.021148112305353947e-02
2.020915746387517975e-02
2.020683263173994604e-02
2.020450662694411523e-02
2.020217944978422789e-02
2.019985110055709174e-02
2.019752157955977817e-02
2.019519088708961879e-02
2.019285902344420541e-02
2.019052598892139352e-02
2.018819178381930229e-02
2.018585640843631804e-02
2.018351986307108381e-02
2.018118214802250981e-02
2.017884326358975258e-02
2.017650321007223232e-02
2.017416198776962946e-02
2.017181959698187421e-02
2.016947603800915007e-02
2.016713131115191460e-02
2.016478541671088212e-02
2.016243835498702716e-02
2.016009012628158792e-02
2.015774073089605586e-02
2.015539016913216186e-02
2.015303844129187616e-02
2.015068554767742576e-02
2.014833148859129092e-02
2.014597626433620864e-02
2.014361987521517613e-02
2.014126232153144735e-02
2.013890360358851911e-02
2.013654372169014148e-02
2.013418267614031434e-02
2.013182046724329086e-02
2.012945709530357744e-02
2.012709256062591989e-02
2.012472686351532078e-02
2.012236000427702898e-02
2.011999198321652929e-02
2.011762280063955979e-02
2.011525245685211530e-02
2.011288095216044389e-02
2.011050828687102957e-02
2.010813446129059920e-02
2.010575947572612251e-02
2.010338333048481904e-02
2.010100602587416158e-02
2.009862756220187271e-02
2.009624793977593527e-02
2.009386715890456448e-02
2.009148521989621849e-02
2.008910212305960175e-02
2.008671786870366155e-02
2.008433245713758114e-02
2.008194588867078662e-02
2.007955816361296081e-02
2.007716928227402942e-02
2.007477924496414365e-02
2.007238805199368370e-02
2.006999570367327262e-02
2.006760220031377634e-02
2.006520754222628974e-02
2.006281172972215060e-02
2.006041476311291524e-02
2.005801664271036899e-02
2.005561736882653309e-02
2.005321694177366817e-02
2.005081536186427774e-02
2.004841262941110119e-02
