-2.805744127476059429e-03
-2.803958952652375446e-03
-2.802174327778828109e-03
-2.800390252962730447e-03
-2.798606728311244570e-03
-2.796823753931379063e-03
-2.795041329929990725e-03
-2.793259456413784998e-03
-2.791478133489318138e-03
-2.789697361262992448e-03
-2.787917139841058437e-03
-2.786137469329614830e-03
-2.784358349834607262e-03
-2.782579781461832612e-03
-2.780801764316939012e-03
-2.779024298505425837e-03
-2.777247384132641109e-03
-2.775471021303782364e-03
-2.773695210123896648e-03
-2.771919950697882256e-03
-2.770145243130487864e-03
-2.768371087526314261e-03
-2.766597483989814352e-03
-2.764824432625294023e-03
-2.763051933536912579e-03
-2.761279986828683169e-03
-2.759508592604475400e-03
-2.757737750968013591e-03
-2.755967462022876346e-03
-2.754197725872497421e-03
-2.752428542620164852e-03
-2.750659912369020962e-03
-2.748891835222064522e-03
-2.747124311282151191e-03
-2.745357340651993945e-03
-2.743590923434163515e-03
-2.741825059731088816e-03
-2.740059749645057385e-03
-2.738294993278215378e-03
-2.736530790732566269e-03
-2.734767142109969986e-03
-2.733004047512143340e-03
-2.731241507040661765e-03
-2.729479520796957576e-03
-2.727718088882322579e-03
-2.725957211397910668e-03
-2.724196888444737393e-03
-2.722437120123676925e-03
-2.720677906535463354e-03
-2.718919247780694597e-03
-2.717161143959830223e-03
-2.715403595173193196e-03
-2.713646601520967264e-03
-2.711890163103199570e-03
-2.710134280019801077e-03
-2.708378952370546575e-03
-2.706624180255075111e-03
-2.704869963772887388e-03
-2.703116303023347933e-03
-2.701363198105684663e-03
-2.699610649118991054e-03
-2.697858656162227444e-03
-2.696107219334221029e-03
-2.694356338733667599e-03
-2.692606014459132408e-03
-2.690856246609050605e-03
-2.689107035281725500e-03
-2.687358380575327263e-03
-2.685610282587893791e-03
-2.683862741417331142e-03
-2.682115757161413969e-03
-2.680369329917785953e-03
-2.678623459783961540e-03
-2.676878146857324635e-03
-2.675133391235129041e-03
-2.673389193014498889e-03
-2.671645552292431242e-03
-2.669902469165793060e-03
-2.668159943731322932e-03
-2.666417976085631511e-03
-2.664676566325202382e-03
-2.662935714546393797e-03
-2.661195420845435203e-03
-2.659455685318429848e-03
-2.657716508061353910e-03
-2.655977889170056932e-03
-2.654239828740263124e-03
-2.652502326867573531e-03
-2.650765383647465598e-03
-2.649028999175293605e-03
-2.647293173546290401e-03
-2.645557906855567406e-03
-2.643823199198115041e-03
-2.642089050668800128e-03
-2.640355461362366325e-03
-2.638622431373436293e-03
-2.636889960796513863e-03
-2.635158049725981003e-03
-2.633426698256098250e-03
-2.631695906481006011e-03
-2.629965674494721961e-03
-2.628236002391145815e-03
-2.626506890264055424e-03
-2.624778338207111976e-03
-2.623050346313857400e-03
-2.621322914677716963e-03
-2.619596043391997538e-03
-2.617869732549889337e-03
-2.616143982244467214e-03
-2.614418792568689361e-03
-2.612694163615398614e-03
-2.610970095477321146e-03
-2.609246588247066904e-03
-2.607523642017130043e-03
-2.605801256879890660e-03
-2.604079432927615227e-03
-2.602358170252455725e-03
-2.600637468946451810e-03
-2.598917329101530383e-03
-2.597197750809503852e-03
-2.595478734162071869e-03
-2.593760279250820894e-03
-2.592042386167225064e-03
-2.590325055002647928e-03
-2.588608285848342013e-03
-2.586892078795448822e-03
-2.585176433934999705e-03
-2.583461351357915856e-03
-2.581746831155009182e-03
-2.580032873416981433e-03
-2.578319478234424207e-03
-2.576606645697821114e-03
-2.574894375897547778e-03
-2.573182668923872270e-03
-2.571471524866955974e-03
-2.569760943816851856e-03
-2.568050925863507063e-03
-2.566341471096761188e-03
-2.564632579606346708e-03
-2.562924251481889844e-03
-2.561216486812910136e-03
-2.559509285688822602e-03
-2.557802648198936445e-03
-2.556096574432455918e-03
-2.554391064478480754e-03
-2.552686118426006172e-03
-2.550981736363922871e-03
-2.549277918381018335e-03
-2.547574664565976834e-03
-2.545871975007377684e-03
-2.544169849793699156e-03
-2.542468289013316736e-03
-2.540767292754502697e-03
-2.539066861105426526e-03
-2.537366994154156667e-03
-2.535667691988660512e-03
-2.533968954696804408e-03
-2.532270782366353654e-03
-2.530573175084973800e-03
-2.528876132940231520e-03
-2.527179656019593740e-03
-2.525483744410426338e-03
-2.523788398199997181e-03
-2.522093617475475256e-03
-2.520399402323931105e-03
-2.518705752832337257e-03
-2.517012669087567364e-03
-2.515320151176395330e-03
-2.513628199185498346e-03
-2.511936813201458632e-03
-2.510245993310762560e-03
-2.508555739599798492e-03
-2.506866052154858512e-03
-2.505176931062139296e-03
-2.503488376407742109e-03
-2.501800388277670636e-03
-2.500112966757835325e-03
-2.498426111934052510e-03
-2.496739823892042253e-03
-2.495054102717430937e-03
-2.493368948495751272e-03
-2.491684361312442291e-03
-2.490000341252849789e-03
-2.488316888402226316e-03
-2.486634002845732050e-03
-2.484951684668434795e-03
-2.483269933955310847e-03
-2.481588750791244996e-03
-2.479908135261031394e-03
-2.478228087449372685e-03
-2.476548607440882174e-03
-2.474869695320083395e-03
-2.473191351171407509e-03
-2.471513575079194169e-03
-2.469836367127694558e-03
-2.468159727401071819e-03
-2.466483655983400195e-03
-2.464808152958665021e-03
-2.463133218410763596e-03
-2.461458852423506483e-03
-2.459785055080617507e-03
-2.458111826465733327e-03
-2.456439166662404295e-03
-2.454767075754095765e-03
-2.453095553824185485e-03
-2.451424600955965337e-03
-2.449754217232640897e-03
-2.448084402737332309e-03
-2.446415157553076015e-03
-2.444746481762821722e-03
-2.443078375449433265e-03
-2.441410838695689482e-03
-2.439743871584284639e-03
-2.438077474197830174e-03
-2.436411646618852952e-03
-2.434746388929797008e-03
-2.433081701213021808e-03
-2.431417583550802685e-03
-2.429754036025333873e-03
-2.428091058718726773e-03
-2.426428651713011253e-03
-2.424766815090134350e-03
-2.423105548931963303e-03
-2.421444853320284685e-03
-2.419784728336804407e-03
-2.418125174063146844e-03
-2.416466190580856144e-03
-2.414807777971394922e-03
-2.413149936316144259e-03
-2.411492665696406308e-03
-2.409835966193403858e-03
-2.408179837888279901e-03
-2.406524280862096764e-03
-2.404869295195837409e-03
-2.403214880970407606e-03
-2.401561038266637228e-03
-2.399907767165276786e-03
-2.398255067746998294e-03
-2.396602940092396571e-03
-2.394951384281991408e-03
-2.393300400396225405e-03
-2.391649988515463527e-03
-2.390000148719992248e-03
-2.388350881090020843e-03
-2.386702185705683130e-03
-2.385054062647038332e-03
-2.383406511994070644e-03
-2.381759533826688369e-03
-2.380113128224723915e-03
-2.378467295267935096e-03
-2.376822035036006437e-03
-2.375177347608547866e-03
-2.373533233065096455e-03
-2.371889691485115984e-03
-2.370246722947998673e-03
-2.368604327533063453e-03
-2.366962505319557698e-03
-2.365321256386655920e-03
-2.363680580813461510e-03
-2.362040478679006301e-03
-2.360400950062251004e-03
-2.358761995042085637e-03
-2.357123613697328663e-03
-2.355485806106726119e-03
-2.353848572348955087e-03
-2.352211912502621960e-03
-2.350575826646263307e-03
-2.348940314858345008e-03
-2.347305377217263987e-03
-2.345671013801346912e-03
-2.344037224688850628e-03
-2.342404009957963461e-03
-2.340771369686804777e-03
-2.339139303953424124e-03
-2.337507812835802092e-03
-2.335876896411849882e-03
-2.334246554759410175e-03
-2.332616787956258431e-03
-2.330987596080102454e-03
-2.329358979208581964e-03
-2.327730937419269456e-03
-2.326103470789670207e-03
-2.324476579397222274e-03
-2.322850263319296057e-03
-2.321224522633195172e-03
-2.319599357416156013e-03
-2.317974767745349489e-03
-2.316350753697881456e-03
-2.314727315350791417e-03
-2.313104452781053390e-03
-2.311482166065576774e-03
-2.309860455281205916e-03
-2.308239320504718375e-03
-2.306618761812827094e-03
-2.304998779282179961e-03
-2.303379372989360248e-03
-2.301760543010886173e-03
-2.300142289423211771e-03
-2.298524612302727324e-03
-2.296907511725760666e-03
-2.295290987768576745e-03
-2.293675040507376327e-03
-2.292059670018298592e-03
-2.290444876377419406e-03
-2.288830659660751315e-03
-2.287217019944245283e-03
-2.285603957303791126e-03
-2.283991471815215342e-03
-2.282379563554282845e-03
-2.280768232596696535e-03
-2.279157479018098596e-03
-2.277547302894070060e-03
-2.275937704300131682e-03
-2.274328683311743933e-03
-2.272720240004308303e-03
-2.271112374453165567e-03
-2.269505086733596654e-03
-2.267898376920821774e-03
-2.266292245090000858e-03
-2.264686691316234856e-03
-2.263081715674565737e-03
-2.261477318239975189e-03
-2.259873499087385051e-03
-2.258270258291657749e-03
-2.256667595927597161e-03
-2.255065512069948618e-03
-2.253464006793400205e-03
-2.251863080172581029e-03
-2.250262732282062080e-03
-2.248662963196356238e-03
-2.247063772989918266e-03
-2.245465161737145686e-03
-2.243867129512380071e-03
-2.242269676389906617e-03
-2.240672802443954576e-03
-2.239076507748697254e-03
-2.237480792378249411e-03
-2.235885656406671595e-03
-2.234291099907968411e-03
-2.232697122956088954e-03
-2.231103725624926804e-03
-2.229510907988319600e-03
-2.227918670120048600e-03
-2.226327012093838251e-03
-2.224735933983357922e-03
-2.223145435862221905e-03
-2.221555517803990281e-03
-2.219966179882169356e-03
-2.218377422170212093e-03
-2.216789244741518110e-03
-2.215201647669434119e-03
-2.213614631027253053e-03
-2.212028194888215372e-03
-2.210442339325507759e-03
-2.208857064412265720e-03
-2.207272370221570988e-03
-2.205688256826452819e-03
-2.204104724299886259e-03
-2.202521772714794313e-03
-2.200939402144047943e-03
-2.199357612660466504e-03
-2.197776404336816442e-03
-2.196195777245812161e-03
-2.194615731460116889e-03
-2.193036267052341382e-03
-2.191457384095043051e-03
-2.189879082660729434e-03
-2.188301362821855160e-03
-2.186724224650823251e-03
-2.185147668219986853e-03
-2.183571693601649242e-03
-2.181996300868061650e-03
-2.180421490091424570e-03
-2.178847261343889053e-03
-2.177273614697555412e-03
-2.175700550224473652e-03
-2.174128067996643470e-03
-2.172556168086014258e-03
-2.170984850564485098e-03
-2.169414115503907805e-03
-2.167843962976085184e-03
-2.166274393052770603e-03
-2.164705405805667556e-03
-2.163137001306430097e-03
-2.161569179626663707e-03
-2.160001940837925297e-03
-2.158435285011723638e-03
-2.156869212219518928e-03
-2.155303722532722795e-03
-2.153738816022698292e-03
-2.152174492760759901e-03
-2.150610752818174400e-03
-2.149047596266160862e-03
-2.147485023175889785e-03
-2.145923033618484833e-03
-2.144361627665024132e-03
-2.142800805386537669e-03
-2.141240566854008594e-03
-2.139680912138372786e-03
-2.138121841310517551e-03
-2.136563354441282491e-03
-2.135005451601461237e-03
-2.133448132861799282e-03
-2.131891398292997449e-03
-2.130335247965709292e-03
-2.128779681950541524e-03
-2.127224700318054457e-03
-2.125670303138764167e-03
-2.124116490483140759e-03
-2.122563262421610537e-03
-2.121010619024553401e-03
-2.119458560362302412e-03
-2.117907086505145097e-03
-2.116356197523325180e-03
-2.114805893487039980e-03
-2.113256174466443885e-03
-2.111707040531646609e-03
-2.110158491752711467e-03
-2.108610528199655366e-03
-2.107063149942449681e-03
-2.105516357051021546e-03
-2.103970149595252564e-03
-2.102424527644980966e-03
-2.100879491270000749e-03
-2.099335040540062109e-03
-2.097791175524871873e-03
-2.096247896294092198e-03
-2.094705202917341875e-03
-2.093163095464196325e-03
-2.091621574004188470e-03
-2.090080638606807428e-03
-2.088540289341498518e-03
-2.087000526277663689e-03
-2.085461349484661522e-03
-2.083922759031809398e-03
-2.082384754988381766e-03
-2.080847337423608404e-03
-2.079310506406677889e-03
-2.077774262006737167e-03
-2.076238604292890248e-03
-2.074703533334196909e-03
-2.073169049199673989e-03
-2.071635151958294094e-03
-2.070101841678989064e-03
-2.068569118430648671e-03
-2.067036982282119753e-03
-2.065505433302206647e-03
-2.063974471559671623e-03
-2.062444097123236619e-03
-2.060914310061581507e-03
-2.059385110443345390e-03
-2.057856498337125740e-03
-2.056328473811478829e-03
-2.054801036934920597e-03
-2.053274187775926216e-03
-2.051747926402931396e-03
-2.050222252884330645e-03
-2.048697167288478140e-03
-2.047172669683688159e-03
-2.045648760138233345e-03
-2.044125438720343843e-03
-2.042602705498209898e-03
-2.041080560539982290e-03
-2.039559003913770600e-03
-2.038038035687641907e-03
-2.036517655929623825e-03
-2.034997864707704940e-03
-2.033478662089834368e-03
-2.031960048143922198e-03
-2.030442022937840787e-03
-2.028924586539421291e-03
-2.027407739016455837e-03
-2.025891480436696653e-03
-2.024375810867857367e-03
-2.022860730377611712e-03
-2.021346239033595688e-03
-2.019832336903407133e-03
-2.018319024054605719e-03
-2.016806300554712956e-03
-2.015294166471209153e-03
-2.013782621871536022e-03
-2.012271666823096678e-03
-2.010761301393256938e-03
-2.009251525649344023e-03
-2.007742339658645254e-03
-2.006233743488410222e-03
-2.004725737205849054e-03
-2.003218320878132411e-03
-2.001711494572392790e-03
-2.000205258355723659e-03
-1.998699612295180318e-03
-1.997194556457779040e-03
-1.995690090910497930e-03
-1.994186215720276066e-03
-1.992682930954015660e-03
-1.991180236678582061e-03
-1.989678132960802891e-03
-1.988176619867468471e-03
-1.986675697465330095e-03
-1.985175365821100022e-03
-1.983675625001453217e-03
-1.982176475073027348e-03
-1.980677916102423653e-03
-1.979179948156203038e-03
-1.977682571300889112e-03
-1.976185785602967756e-03
-1.974689591128887985e-03
-1.973193987945063253e-03
-1.971698976117869720e-03
-1.970204555713645379e-03
-1.968710726798691361e-03
-1.967217489439272368e-03
-1.965724843701615807e-03
-1.964232789651911785e-03
-1.962741327356312682e-03
-1.961250456880933146e-03
-1.959760178291847926e-03
-1.958270491655094911e-03
-1.956781397036675123e-03
-1.955292894502553159e-03
-1.953804984118654581e-03
-1.952317665950866572e-03
-1.950830940065040970e-03
-1.949344806526992317e-03
-1.947859265402498725e-03
-1.946374316757300792e-03
-1.944889960657100736e-03
-1.943406197167563696e-03
-1.941923026354317513e-03
-1.940440448282952516e-03
-1.938958463019022820e-03
-1.937477070628045462e-03
-1.935996271175500398e-03
-1.934516064726829639e-03
-1.933036451347437895e-03
-1.931557431102691935e-03
-1.930079004057922310e-03
-1.928601170278422278e-03
-1.927123929829448017e-03
-1.925647282776218839e-03
-1.924171229183916981e-03
-1.922695769117686729e-03
-1.921220902642635509e-03
-1.919746629823832797e-03
-1.918272950726309907e-03
-1.916799865415061074e-03
-1.915327373955041934e-03
-1.913855476411171260e-03
-1.912384172848330096e-03
-1.910913463331363272e-03
-1.909443347925078322e-03
-1.907973826694245702e-03
-1.906504899703599003e-03
-1.905036567017833219e-03
-1.903568828701605615e-03
-1.902101684819537241e-03
-1.900635135436211853e-03
-1.899169180616175259e-03
-1.897703820423936186e-03
-1.896239054923965417e-03
-1.894774884180696001e-03
-1.893311308258523043e-03
-1.891848327221804351e-03
-1.890385941134860434e-03
-1.888924150061973856e-03
-1.887462954067388584e-03
-1.886002353215310637e-03
-1.884542347569908519e-03
-1.883082937195312574e-03
-1.881624122155615194e-03
-1.880165902514871479e-03
-1.878708278337098362e-03
-1.877251249686275481e-03
-1.875794816626344310e-03
-1.874338979221208809e-03
-1.872883737534733689e-03
-1.871429091630744633e-03
-1.869975041573028289e-03
-1.868521587425333794e-03
-1.867068729251371685e-03
-1.865616467114812171e-03
-1.864164801079288593e-03
-1.862713731208396782e-03
-1.861263257565694187e-03
-1.859813380214699659e-03
-1.858364099218894321e-03
-1.856915414641721346e-03
-1.855467326546585962e-03
-1.854019834996853714e-03
-1.852572940055852851e-03
-1.851126641786872808e-03
-1.849680940253163553e-03
-1.848235835517936243e-03
-1.846791327644363651e-03
-1.845347416695579303e-03
-1.843904102734678562e-03
-1.842461385824717543e-03
-1.841019266028712893e-03
-1.839577743409642014e-03
-1.838136818030442409e-03
-1.836696489954012333e-03
-1.835256759243211223e-03
-1.833817625960856889e-03
-1.832379090169725718e-03
-1.830941151932554637e-03
-1.829503811312040238e-03
-1.828067068370838565e-03
-1.826630923171565545e-03
-1.825195375776796124e-03
-1.823760426249065349e-03
-1.822326074650868150e-03
-1.820892321044658259e-03
-1.819459165492847558e-03
-1.818026608057807811e-03
-1.816594648801869369e-03
-1.815163287787321163e-03
-1.813732525076411795e-03
-1.812302360731347581e-03
-1.810872794814293203e-03
-1.809443827387371712e-03
-1.808015458512664307e-03
-1.806587688252210338e-03
-1.805160516668006436e-03
-1.803733943822008034e-03
-1.802307969776126978e-03
-1.800882594592233049e-03
-1.799457818332154393e-03
-1.798033641057676657e-03
-1.796610062830543203e-03
-1.795187083712455976e-03
-1.793764703765075939e-03
-1.792342923050021120e-03
-1.790921741628867482e-03
-1.789501159563149134e-03
-1.788081176914357254e-03
-1.786661793743941386e-03
-1.785243010113307053e-03
-1.783824826083817497e-03
-1.782407241716793458e-03
-1.780990257073512308e-03
-1.779573872215207834e-03
-1.778158087203068937e-03
-1.776742902098239632e-03
-1.775328316961819267e-03
-1.773914331854863167e-03
-1.772500946838382425e-03
-1.771088161973344765e-03
-1.769675977320673459e-03
-1.768264392941247976e-03
-1.766853408895903334e-03
-1.765443025245429882e-03
-1.764033242050572865e-03
-1.762624059372031775e-03
-1.761215477270460352e-03
-1.759807495806466147e-03
-1.758400115040612043e-03
-1.756993335033414519e-03
-1.755587155845344518e-03
-1.754181577536826579e-03
-1.752776600168240136e-03
-1.751372223799917572e-03
-1.749968448492144430e-03
-1.748565274305159201e-03
-1.747162701299153102e-03
-1.745760729534270731e-03
-1.744359359070609197e-03
-1.742958589968218123e-03
-1.741558422287100942e-03
-1.740158856087213168e-03
-1.738759891428463258e-03
-1.737361528370711316e-03
-1.735963766973768873e-03
-1.734566607297400621e-03
-1.733170049401323550e-03
-1.731774093345206074e-03
-1.730378739188667822e-03
-1.728983986991279196e-03
-1.727589836812560512e-03
-1.726196288711982860e-03
-1.724803342748967676e-03
-1.723410998982886737e-03
-1.722019257473063033e-03
-1.720628118278769462e-03
-1.719237581459229485e-03
-1.717847647073615387e-03
-1.716458315181048060e-03
-1.715069585840597660e-03
-1.713681459111284682e-03
-1.712293935052078015e-03
-1.710907013721896242e-03
-1.709520695179606769e-03
-1.708134979484024528e-03
-1.706749866693913495e-03
-1.705365356867985386e-03
-1.703981450064899440e-03
-1.702598146343261556e-03
-1.701215445761626024e-03
-1.699833348378493357e-03
-1.698451854252313112e-03
-1.697070963441483452e-03
-1.695690676004348984e-03
-1.694310991999200535e-03
-1.692931911484274726e-03
-1.691553434517754613e-03
-1.690175561157768614e-03
-1.688798291462389632e-03
-1.687421625489635710e-03
-1.686045563297470682e-03
-1.684670104943804822e-03
-1.683295250486493110e-03
-1.681920999983334145e-03
-1.680547353492072319e-03
-1.679174311070396079e-03
-1.677801872775938575e-03
-1.676430038666275714e-03
-1.675058808798928541e-03
-1.673688183231362156e-03
-1.672318162020983764e-03
-1.670948745225144189e-03
-1.669579932901137879e-03
-1.668211725106202902e-03
-1.666844121897519647e-03
-1.665477123332210390e-03
-1.664110729467339293e-03
-1.662744940359913055e-03
-1.661379756066878963e-03
-1.660015176645126406e-03
-1.658651202151486658e-03
-1.657287832642731799e-03
-1.655925068175574492e-03
-1.654562908806667988e-03
-1.653201354592605905e-03
-1.651840405589922664e-03
-1.650480061855091538e-03
-1.649120323444525516e-03
-1.647761190414577092e-03
-1.646402662821536958e-03
-1.645044740721634657e-03
-1.643687424171038584e-03
-1.642330713225854900e-03
-1.640974607942127100e-03
-1.639619108375836663e-03
-1.638264214582902181e-03
-1.636909926619178933e-03
-1.635556244540459529e-03
-1.634203168402472177e-03
-1.632850698260881117e-03
-1.631498834171286405e-03
-1.630147576189224564e-03
-1.628796924370168580e-03
-1.627446878769527689e-03
-1.626097439442646727e-03
-1.624748606444805258e-03
-1.623400379831218231e-03
-1.622052759657035539e-03
-1.620705745977341159e-03
-1.619359338847152930e-03
-1.618013538321422338e-03
-1.616668344455033431e-03
-1.615323757302803255e-03
-1.613979776919480550e-03
-1.612636403359746619e-03
-1.611293636678215327e-03
-1.609951476929434404e-03
-1.608609924167884358e-03
-1.607268978447975441e-03
-1.605928639824049818e-03
-1.604588908350380915e-03
-1.603249784081172552e-03
-1.601911267070559161e-03
-1.600573357372606000e-03
-1.599236055041307423e-03
-1.597899360130587958e-03
-1.596563272694301013e-03
-1.595227792786229302e-03
-1.593892920460082902e-03
-1.592558655769499678e-03
-1.591224998768046807e-03
-1.589891949509219908e-03
-1.588559508046442827e-03
-1.587227674433065250e-03
-1.585896448722363353e-03
-1.584565830967540889e-03
-1.583235821221727884e-03
-1.581906419537980855e-03
-1.580577625969282595e-03
-1.579249440568542169e-03
-1.577921863388592966e-03
-1.576594894482193998e-03
-1.575268533902028601e-03
-1.573942781700704216e-03
-1.572617637930752389e-03
-1.571293102644628556e-03
-1.569969175894711608e-03
-1.568645857733304326e-03
-1.567323148212633813e-03
-1.566001047384850409e-03
-1.564679555302027044e-03
-1.563358672016159885e-03
-1.562038397579167473e-03
-1.560718732042889415e-03
-1.559399675459086608e-03
-1.558081227879441017e-03
-1.556763389355555029e-03
-1.555446159938950581e-03
-1.554129539681069596e-03
-1.552813528633273333e-03
-1.551498126846841737e-03
-1.550183334372974087e-03
-1.548869151262787696e-03
-1.547555577567318562e-03
-1.546242613337521585e-03
-1.544930258624269267e-03
-1.543618513478350841e-03
-1.542307377950472274e-03
-1.540996852091254966e-03
-1.539686935951235097e-03
-1.538377629580864499e-03
-1.537068933030510433e-03
-1.535760846350454943e-03
-1.534453369590894640e-03
-1.533146502801941346e-03
-1.531840246033621018e-03
-1.530534599335872442e-03
-1.529229562758546799e-03
-1.527925136351407668e-03
-1.526621320164131459e-03
-1.525318114246307843e-03
-1.524015518647438673e-03
-1.522713533416936681e-03
-1.521412158604126125e-03
-1.520111394258243445e-03
-1.518811240428435960e-03
-1.517511697163761650e-03
-1.516212764513188939e-03
-1.514914442525595178e-03
-1.513616731249767949e-03
-1.512319630734403324e-03
-1.511023141028106521e-03
-1.509727262179391249e-03
-1.508431994236679279e-03
-1.507137337248300657e-03
-1.505843291262494140e-03
-1.504549856327404593e-03
-1.503257032491083856e-03
-1.501964819801489661e-03
-1.500673218306484979e-03
-1.499382228053838025e-03
-1.498091849091223770e-03
-1.496802081466221557e-03
-1.495512925226315541e-03
-1.494224380418893595e-03
-1.492936447091247967e-03
-1.491649125290573979e-03
-1.490362415063968939e-03
-1.489076316458433445e-03
-1.487790829520869865e-03
-1.486505954298082991e-03
-1.485221690836779169e-03
-1.483938039183565214e-03
-1.482654999384947761e-03
-1.481372571487334349e-03
-1.480090755537033205e-03
-1.478809551580252159e-03
-1.477528959663098425e-03
-1.476248979831577520e-03
-1.474969612131593480e-03
-1.473690856608949294e-03
-1.472412713309345818e-03
-1.471135182278381125e-03
-1.469858263561550291e-03
-1.468581957204244523e-03
-1.467306263251751597e-03
-1.466031181749254553e-03
-1.464756712741832785e-03
-1.463482856274459865e-03
-1.462209612392003548e-03
-1.460936981139225556e-03
-1.459664962560780054e-03
-1.458393556701214093e-03
-1.457122763604966516e-03
-1.455852583316368182e-03
-1.454583015879642614e-03
-1.453314061338905130e-03
-1.452045719738161329e-03
-1.450777991121308171e-03
-1.449510875532132028e-03
-1.448244373014307817e-03
-1.446978483611399214e-03
-1.445713207366857139e-03
-1.444448544324020622e-03
-1.443184494526116371e-03
-1.441921058016258118e-03
-1.440658234837446407e-03
-1.439396025032567503e-03
-1.438134428644394702e-03
-1.436873445715587888e-03
-1.435613076288692240e-03
-1.434353320406138877e-03
-1.433094178110241824e-03
-1.431835649443199314e-03
-1.430577734447092703e-03
-1.429320433163886687e-03
-1.428063745635428866e-03
-1.426807671903448883e-03
-1.425552212009558849e-03
-1.424297365995252701e-03
-1.423043133901904459e-03
-1.421789515770769752e-03
-1.420536511642984077e-03
-1.419284121559564104e-03
-1.418032345561405939e-03
-1.416781183689285557e-03
-1.415530635983858372e-03
-1.414280702485657282e-03
-1.413031383235092021e-03
-1.411782678272448938e-03
-1.410534587637891869e-03
-1.409287111371460618e-03
-1.408040249513072906e-03
-1.406794002102521772e-03
-1.405548369179475355e-03
-1.404303350783477761e-03
-1.403058946953947110e-03
-1.401815157730177275e-03
-1.400571983151335711e-03
-1.399329423256463886e-03
-1.398087478084476852e-03
-1.396846147674162160e-03
-1.395605432064179422e-03
-1.394365331293059883e-03
-1.393125845399207936e-03
-1.391886974420899819e-03
-1.390648718396283404e-03
-1.389411077363376891e-03
-1.388174051360069024e-03
-1.386937640424118880e-03
-1.385701844593154996e-03
-1.384466663904674287e-03
-1.383232098396042480e-03
-1.381998148104494331e-03
-1.380764813067133188e-03
-1.379532093320929914e-03
-1.378299988902721793e-03
-1.377068499849213191e-03
-1.375837626196973161e-03
-1.374607367982436101e-03
-1.373377725241900667e-03
-1.372148698011530204e-03
-1.370920286327353401e-03
-1.369692490225262772e-03
-1.368465309741014437e-03
-1.367238744910228123e-03
-1.366012795768384996e-03
-1.364787462350828097e-03
-1.363562744692761904e-03
-1.362338642829252766e-03
-1.361115156795227824e-03
-1.359892286625474789e-03
-1.358670032354641509e-03
-1.357448394017236621e-03
-1.356227371647629335e-03
-1.355006965280048997e-03
-1.353787174948584658e-03
-1.352568000687183122e-03
-1.351349442529649380e-03
-1.350131500509647040e-03
-1.348914174660697466e-03
-1.347697465016179340e-03
-1.346481371609329963e-03
-1.345265894473244390e-03
-1.344051033640873260e-03
-1.342836789145023879e-03
-1.341623161018358273e-03
-1.340410149293393832e-03
-1.339197754002502232e-03
-1.337985975177910947e-03
-1.336774812851701738e-03
-1.335564267055808479e-03
-1.334354337822017374e-03
-1.333145025181966745e-03
-1.331936329167147893e-03
-1.330728249808905538e-03
-1.329520787138436296e-03
-1.328313941186789332e-03
-1.327107711984865492e-03
-1.325902099563416219e-03
-1.324697103953043770e-03
-1.323492725184200781e-03
-1.322288963287189621e-03
-1.321085818292162166e-03
-1.319883290229118726e-03
-1.318681379127909338e-03
-1.317480085018234420e-03
-1.316279407929642816e-03
-1.315079347891531369e-03
-1.313879904933144696e-03
-1.312681079083574979e-03
-1.311482870371762392e-03
-1.310285278826493803e-03
-1.309088304476402559e-03
-1.307891947349968482e-03
-1.306696207475517655e-03
-1.305501084881220035e-03
-1.304306579595089889e-03
-1.303112691644985792e-03
-1.301919421058611494e-03
-1.300726767863514188e-03
-1.299534732087085157e-03
-1.298343313756559342e-03
-1.297152512899014693e-03
-1.295962329541372167e-03
-1.294772763710394427e-03
-1.293583815432685193e-03
-1.292395484734689889e-03
-1.291207771642695649e-03
-1.290020676182830443e-03
-1.288834198381062866e-03
-1.287648338263200397e-03
-1.286463095854890491e-03
-1.285278471181620788e-03
-1.284094464268718252e-03
-1.282911075141348082e-03
-1.281728303824513499e-03
-1.280546150343056392e-03
-1.279364614721656456e-03
-1.278183696984829670e-03
-1.277003397156928951e-03
-1.275823715262144583e-03
-1.274644651324504004e-03
-1.273466205367870937e-03
-1.272288377415944525e-03
-1.271111167492259544e-03
-1.269934575620185972e-03
-1.268758601822928770e-03
-1.267583246123527019e-03
-1.266408508544853481e-03
-1.265234389109613951e-03
-1.264060887840347475e-03
-1.262888004759425914e-03
-1.261715739889054163e-03
-1.260544093251269281e-03
-1.259373064867941143e-03
-1.258202654760771141e-03
-1.257032862951292180e-03
-1.255863689460867596e-03
-1.254695134310691157e-03
-1.253527197521787494e-03
-1.252359879115011237e-03
-1.251193179111047011e-03
-1.250027097530408788e-03
-1.248861634393439888e-03
-1.247696789720313193e-03
-1.246532563531030065e-03
-1.245368955845419911e-03
-1.244205966683139533e-03
-1.243043596063672694e-03
-1.241881844006330338e-03
-1.240720710530250365e-03
-1.239560195654396992e-03
-1.238400299397561391e-03
-1.237241021778360834e-03
-1.236082362815238032e-03
-1.234924322526461142e-03
-1.233766900930122895e-03
-1.232610098044141251e-03
-1.231453913886259178e-03
-1.230298348474044004e-03
-1.229143401824886548e-03
-1.227989073956000906e-03
-1.226835364884424446e-03
-1.225682274627018249e-03
-1.224529803200466015e-03
-1.223377950621273424e-03
-1.222226716905768775e-03
-1.221076102070102129e-03
-1.219926106130244433e-03
-1.218776729101987743e-03
-1.217627971000944569e-03
-1.216479831842548747e-03
-1.215332311642054568e-03
-1.214185410414536778e-03
-1.213039128174890147e-03
-1.211893464937829250e-03
-1.210748420717888034e-03
-1.209603995529418084e-03
-1.208460189386590571e-03
-1.207317002303395391e-03
-1.206174434293640291e-03
-1.205032485370950441e-03
-1.203891155548768212e-03
-1.202750444840352531e-03
-1.201610353258779308e-03
-1.200470880816941225e-03
-1.199332027527547952e-03
-1.198193793403124624e-03
-1.197056178456011848e-03
-1.195919182698365266e-03
-1.194782806142154902e-03
-1.193647048799165817e-03
-1.192511910680997241e-03
-1.191377391799063219e-03
-1.190243492164590666e-03
-1.189110211788620228e-03
-1.187977550682005421e-03
-1.186845508855413275e-03
-1.185714086319324340e-03
-1.184583283084031380e-03
-1.183453099159639159e-03
-1.182323534556063791e-03
-1.181194589283033605e-03
-1.180066263350088495e-03
-1.178938556766579706e-03
-1.177811469541668746e-03
-1.176685001684326520e-03
-1.175559153203333549e-03
-1.174433924107281266e-03
-1.173309314404570288e-03
-1.172185324103409976e-03
-1.171061953211818872e-03
-1.169939201737624050e-03
-1.168817069688460894e-03
-1.167695557071772670e-03
-1.166574663894811171e-03
-1.165454390164636072e-03
-1.164334735888114709e-03
-1.163215701071922516e-03
-1.162097285722541503e-03
-1.160979489846260477e-03
-1.159862313449174604e-03
-1.158745756537184549e-03
-1.157629819115996682e-03
-1.156514501191123522e-03
-1.155399802767882863e-03
-1.154285723851397778e-03
-1.153172264446596183e-03
-1.152059424558211052e-03
-1.150947204190779557e-03
-1.149835603348642408e-03
-1.148724622035943860e-03
-1.147614260256632143e-03
-1.146504518014458381e-03
-1.145395395312977021e-03
-1.144286892155544537e-03
-1.143179008545319644e-03
-1.142071744485262863e-03
-1.140965099978137175e-03
-1.139859075026506286e-03
-1.138753669632735057e-03
-1.137648883798989940e-03
-1.136544717527237895e-03
-1.135441170819247473e-03
-1.134338243676587515e-03
-1.133235936100627367e-03
-1.132134248092535583e-03
-1.131033179653279704e-03
-1.129932730783627347e-03
-1.128832901484146198e-03
-1.127733691755203153e-03
-1.126635101596963661e-03
-1.125537131009391942e-03
-1.124439779992250990e-03
-1.123343048545101270e-03
-1.122246936667300283e-03
-1.121151444358003436e-03
-1.120056571616163607e-03
-1.118962318440529843e-03
-1.117868684829647361e-03
-1.116775670781857983e-03
-1.115683276295298615e-03
-1.114591501367901685e-03
-1.113500345997395138e-03
-1.112409810181302222e-03
-1.111319893916939971e-03
-1.110230597201421372e-03
-1.109141920031654713e-03
-1.108053862404343370e-03
-1.106966424315985586e-03
-1.105879605762874040e-03
-1.104793406741094979e-03
-1.103707827246528002e-03
-1.102622867274845406e-03
-1.101538526821512409e-03
-1.100454805881786926e-03
-1.099371704450719574e-03
-1.098289222523153238e-03
-1.097207360093722852e-03
-1.096126117156854315e-03
-1.095045493706765360e-03
-1.093965489737466204e-03
-1.092886105242757812e-03
-1.091807340216232550e-03
-1.090729194651273099e-03
-1.089651668541052453e-03
-1.088574761878533708e-03
-1.087498474656470489e-03
-1.086422806867405654e-03
-1.085347758503671725e-03
-1.084273329557390239e-03
-1.083199520020472397e-03
-1.082126329884618631e-03
-1.081053759141318606e-03
-1.079981807781851431e-03
-1.078910475797283715e-03
-1.077839763178470214e-03
-1.076769669916053176e-03
-1.075700196000462785e-03
-1.074631341421916717e-03
-1.073563106170419496e-03
-1.072495490235762057e-03
-1.071428493607521530e-03
-1.070362116275062111e-03
-1.069296358227534187e-03
-1.068231219453874776e-03
-1.067166699942806440e-03
-1.066102799682837722e-03
-1.065039518662262274e-03
-1.063976856869159292e-03
-1.062914814291393518e-03
-1.061853390916614372e-03
-1.060792586732255951e-03
-1.059732401725537029e-03
-1.058672835883461057e-03
-1.057613889192815949e-03
-1.056555561640173209e-03
-1.055497853211886635e-03
-1.054440763894093835e-03
-1.053384293672716228e-03
-1.052328442533457739e-03
-1.051273210461805023e-03
-1.050218597443026806e-03
-1.049164603462174111e-03
-1.048111228504080249e-03
-1.047058472553360608e-03
-1.046006335594412435e-03
-1.044954817611415052e-03
-1.043903918588328988e-03
-1.042853638508895115e-03
-1.041803977356634860e-03
-1.040754935114850642e-03
-1.039706511766624354e-03
-1.038658707294818229e-03
-1.037611521682075492e-03
-1.036564954910819273e-03
-1.035519006963252176e-03
-1.034473677821357148e-03
-1.033428967466896824e-03
-1.032384875881412877e-03
-1.031341403046225590e-03
-1.030298548942433631e-03
-1.029256313550914710e-03
-1.028214696852324710e-03
-1.027173698827097250e-03
-1.026133319455444122e-03
-1.025093558717354858e-03
-1.024054416592596294e-03
-1.023015893060711702e-03
-1.021977988101022746e-03
-1.020940701692627959e-03
-1.019904033814402746e-03
-1.018867984444999167e-03
-1.017832553562845717e-03
-1.016797741146147765e-03
-1.015763547172887334e-03
-1.014729971620823099e-03
-1.013697014467489091e-03
-1.012664675690194043e-03
-1.011632955266022257e-03
-1.010601853171832955e-03
-1.009571369384261149e-03
-1.008541503879716332e-03
-1.007512256634381835e-03
-1.006483627624215910e-03
-1.005455616824951293e-03
-1.004428224212094121e-03
-1.003401449760924586e-03
-1.002375293446496930e-03
-1.001349755243638581e-03
-1.000324835126950368e-03
-9.993005330708065216e-04
-9.982768490493546757e-04
-9.972537830365160814e-04
-9.962313350059845245e-04
-9.952095049312263252e-04
-9.941882927854796877e-04
-9.931676985417557842e-04
-9.921477221728376705e-04
-9.911283636512809372e-04
-9.901096229494137091e-04
-9.890915000393357779e-04
-9.880739948929183857e-04
-9.870571074818035740e-04
-9.860408377774050517e-04
-9.850251857509075438e-04
-9.840101513732663584e-04
-9.829957346152076031e-04
-9.819819354472279684e-04
-9.809687538395951614e-04
-9.799561897623466043e-04
-9.789442431852903026e-04
-9.779329140780041937e-04
-9.769222024098357139e-04
-9.759121081499030990e-04
-9.749026312670945171e-04
-9.738937717300681770e-04
-9.728855295072511358e-04
-9.718779045668389733e-04
-9.708708968767956835e-04
-9.698645064048537837e-04
-9.688587331185143136e-04
-9.678535769850466191e-04
-9.668490379714891111e-04
-9.658451160446482895e-04
-9.648418111710987434e-04
-9.638391233171822838e-04
-9.628370524490082686e-04
-9.618355985324536029e-04
-9.608347615331629555e-04
-9.598345414165486509e-04
-9.588349381477899100e-04
-9.578359516918327418e-04
-9.568375820133898351e-04
-9.558398290769405583e-04
-9.548426928467308511e-04
-9.538461732867726823e-04
-9.528502703608444837e-04
-9.518549840324911498e-04
-9.508603142650234961e-04
-9.498662610215181500e-04
-9.488728242648171180e-04
-9.478800039575282187e-04
-9.468878000620254082e-04
-9.458962125404478047e-04
-9.449052413547002300e-04
-9.439148864664522343e-04
-9.429251478371383126e-04
-9.419360254279570376e-04
-9.409475191998719268e-04
-9.399596291136114428e-04
-9.389723551296681259e-04
-9.379856972082994612e-04
-9.369996553095269031e-04
-9.360142293931360919e-04
-9.350294194186764205e-04
-9.340452253454608169e-04
-9.330616471325660702e-04
-9.320786847388326133e-04
-9.310963381228640895e-04
-9.301146072430273521e-04
-9.291334920574524647e-04
-9.281529925240338940e-04
-9.271731086004292082e-04
-9.261938402440591861e-04
-9.252151874121077079e-04
-9.242371500615216475e-04
-9.232597281490113059e-04
-9.222829216310494353e-04
-9.213067304638712391e-04
-9.203311546034740470e-04
-9.193561940056181820e-04
-9.183818486258259845e-04
-9.174081184193821382e-04
-9.164350033413333442e-04
-9.154625033464882126e-04
-9.144906183894171547e-04
-9.135193484244525991e-04
-9.125486934056888837e-04
-9.115786532869817136e-04
-9.106092280219482693e-04
-9.096404175639675321e-04
-9.086722218661798505e-04
-9.077046408814870484e-04
-9.067376745625523168e-04
-9.057713228617992381e-04
-9.048055857314123282e-04
-9.038404631233366024e-04
-9.028759549892787688e-04
-9.019120612807063602e-04
-9.009487819488481682e-04
-8.999861169446939178e-04
-8.990240662189929663e-04
-8.980626297222546288e-04
-8.971018074047487200e-04
-8.961415992165051208e-04
-8.951820051073131274e-04
-8.942230250267219939e-04
-8.932646589240410403e-04
-8.923069067483391107e-04
-8.913497684484451150e-04
-8.903932439729474874e-04
-8.894373332701940773e-04
-8.884820362882923667e-04
-8.875273529751091448e-04
-8.865732832782703991e-04
-8.856198271451616415e-04
-8.846669845229267149e-04
-8.837147553584690949e-04
-8.827631395984517808e-04
-8.818121371892961033e-04
-8.808617480771827003e-04
-8.799119722080510830e-04
-8.789628095275992025e-04
-8.780142599812837748e-04
-8.770663235143211483e-04
-8.761190000716862197e-04
-8.751722895981128673e-04
-8.742261920380934095e-04
-8.732807073358790379e-04
-8.723358354354799260e-04
-8.713915762806647954e-04
-8.704479298149604824e-04
-8.695048959816520460e-04
-8.685624747237836356e-04
-8.676206659841576236e-04
-8.666794697053346050e-04
-8.657388858296339402e-04
-8.647989142991333207e-04
-8.638595550556692031e-04
-8.629208080408355078e-04
-8.619826731959840532e-04
-8.610451504622252056e-04
-8.601082397804274459e-04
-8.591719410912176946e-04
-8.582362543349809870e-04
-8.573011794518601474e-04
-8.563667163817556809e-04
-8.554328650643263157e-04
-8.544996254389887859e-04
-8.535669974449171813e-04
-8.526349810210433807e-04
-8.517035761060569440e-04
-8.507727826384051117e-04
-8.498426005562931306e-04
-8.489130297976838196e-04
-8.479840703002972449e-04
-8.470557220016109367e-04
-8.461279848388598892e-04
-8.452008587490368857e-04
-8.442743436688921735e-04
-8.433484395349335723e-04
-8.424231462834260407e-04
-8.414984638503917843e-04
-8.405743921716107977e-04
-8.396509311826204315e-04
-8.387280808187153915e-04
-8.378058410149481728e-04
-8.368842117061287347e-04
-8.359631928268246087e-04
-8.350427843113605733e-04
-8.341229860938182208e-04
-8.332037981080363904e-04
-8.322852202876109516e-04
-8.313672525658952379e-04
-8.304498948760000469e-04
-8.295331471507937484e-04
-8.286170093229023930e-04
-8.277014813247093872e-04
-8.267865630883549505e-04
-8.258722545457362245e-04
-8.249585556285074896e-04
-8.240454662680805984e-04
-8.231329863956241086e-04
-8.222211159420638252e-04
-8.213098548380830168e-04
-8.203992030141219827e-04
-8.194891604003784859e-04
-8.185797269268074283e-04
-8.176709025231204166e-04
-8.167626871187858711e-04
-8.158550806430292426e-04
-8.149480830248331201e-04
-8.140416941929372319e-04
-8.131359140758388782e-04
-8.122307426017921729e-04
-8.113261796988086938e-04
-8.104222252946574829e-04
-8.095188793168654794e-04
-8.086161416927160027e-04
-8.077140123492501612e-04
-8.068124912132664190e-04
-8.059115782113201619e-04
-8.050112732697243482e-04
-8.041115763145497254e-04
-8.032124872716247220e-04
-8.023140060665346881e-04
-8.014161326246225462e-04
-8.005188668709892251e-04
-7.996222087304933343e-04
-7.987261581277505136e-04
-7.978307149871339751e-04
-7.969358792327748287e-04
-7.960416507885621903e-04
-7.951480295781429650e-04
-7.942550155249223894e-04
-7.933626085520637059e-04
-7.924708085824885969e-04
-7.915796155388769677e-04
-7.906890293436662958e-04
-7.897990499190520649e-04
-7.889096771869873312e-04
-7.880209110691832651e-04
-7.871327514871098024e-04
-7.862451983619948848e-04
-7.853582516148248935e-04
-7.844719111663447583e-04
-7.835861769370569812e-04
-7.827010488472221786e-04
-7.818165268168594069e-04
-7.809326107657459451e-04
-7.800493006134170786e-04
-7.791665962791669659e-04
-7.782844976820483141e-04
-7.774030047408717276e-04
-7.765221173742066843e-04
-7.756418355003807767e-04
-7.747621590374802539e-04
-7.738830879033496962e-04
-7.730046220155921237e-04
-7.721267612915695385e-04
-7.712495056484035749e-04
-7.703728550029751744e-04
-7.694968092719242604e-04
-7.686213683716494128e-04
-7.677465322183079765e-04
-7.668723007278166037e-04
-7.659986738158514703e-04
-7.651256513978480596e-04
-7.642532333890011617e-04
-7.633814197042642236e-04
-7.625102102583503245e-04
-7.616396049657317424e-04
-7.607696037406411465e-04
-7.599002064970704047e-04
-7.590314131487710175e-04
-7.581632236092535754e-04
-7.572956377917887351e-04
-7.564286556094063519e-04
-7.555622769748956968e-04
-7.546965018008056731e-04
-7.538313299994450333e-04
-7.529667614828828128e-04
-7.521027961629487635e-04
-7.512394339512323783e-04
-7.503766747590840834e-04
-7.495145184976143710e-04
-7.486529650776942331e-04
-7.477920144099554868e-04
-7.469316664047904487e-04
-7.460719209723529113e-04
-7.452127780225576001e-04
-7.443542374650801742e-04
-7.434962992093573347e-04
-7.426389631645866074e-04
-7.417822292397264518e-04
-7.409260973434965859e-04
-7.400705673843776611e-04
-7.392156392706116961e-04
-7.383613129102015345e-04
-7.375075882109114953e-04
-7.366544650802674815e-04
-7.358019434255575223e-04
-7.349500231538318813e-04
-7.340987041719028395e-04
-7.332479863863448043e-04
-7.323978697034949593e-04
-7.315483540294531566e-04
-7.306994392700811572e-04
-7.298511253310036072e-04
-7.290034121176082547e-04
-7.281562995350456240e-04
-7.273097874882291248e-04
-7.264638758818352682e-04
-7.256185646203034507e-04
-7.247738536078366040e-04
-7.239297427484005449e-04
-7.230862319457237583e-04
-7.222433211032978310e-04
-7.214010101243775600e-04
-7.205592989119818199e-04
-7.197181873688932377e-04
-7.188776753976587348e-04
-7.180377629005893101e-04
-7.171984497797597152e-04
-7.163597359370087788e-04
-7.155216212739400582e-04
-7.146841056919215132e-04
-7.138471890920856152e-04
-7.130108713753295635e-04
-7.121751524423147435e-04
-7.113400321934677025e-04
-7.105055105289793905e-04
-7.096715873488059195e-04
-7.088382625526683462e-04
-7.080055360400531062e-04
-7.071734077102119053e-04
-7.063418774621620447e-04
-7.055109451946864211e-04
-7.046806108063341772e-04
-7.038508741954204850e-04
-7.030217352600266539e-04
-7.021931938979996974e-04
-7.013652500069534170e-04
-7.005379034842679686e-04
-6.997111542270900795e-04
-6.988850021323328313e-04
-6.980594470966764191e-04
-6.972344890165679343e-04
-6.964101277882214737e-04
-6.955863633076192227e-04
-6.947631954705116731e-04
-6.939406241724168636e-04
-6.931186493086205968e-04
-6.922972707741768730e-04
-6.914764884639081066e-04
-6.906563022724052352e-04
-6.898367120940278275e-04
-6.890177178229043003e-04
-6.881993193529319184e-04
-6.873815165777769033e-04
-6.865643093908744329e-04
-6.857476976854295090e-04
-6.849316813544164152e-04
-6.841162602905788252e-04
-6.833014343864308874e-04
-6.824872035342564652e-04
-6.816735676261090294e-04
-6.808605265538115493e-04
-6.800480802089574686e-04
-6.792362284829104885e-04
-6.784249712668052185e-04
-6.776143084515475010e-04
-6.768042399278137618e-04
-6.759947655860515511e-04
-6.751858853164798696e-04
-6.743775990090886260e-04
-6.735699065536396128e-04
-6.727628078396661812e-04
-6.719563027564739999e-04
-6.711503911931406214e-04
-6.703450730385156989e-04
-6.695403481812214203e-04
-6.687362165096522905e-04
-6.679326779119751324e-04
-6.671297322761297367e-04
-6.663273794898289708e-04
-6.655256194405595373e-04
-6.647244520155814324e-04
-6.639238771019285957e-04
-6.631238945864085859e-04
-6.623245043556036642e-04
-6.615257062958703610e-04
-6.607275002933396925e-04
-6.599298862339169442e-04
-6.591328640032819959e-04
-6.583364334868894302e-04
-6.575405945699691829e-04
-6.567453471375260012e-04
-6.559506910743400938e-04
-6.551566262649670229e-04
-6.543631525937384629e-04
-6.535702699447614415e-04
-6.527779782019189903e-04
-6.519862772488710118e-04
-6.511951669690544970e-04
-6.504046472456829825e-04
-6.496147179617468761e-04
-6.488253790000139990e-04
-6.480366302430293690e-04
-6.472484715731155252e-04
-6.464609028723729625e-04
-6.456739240226801310e-04
-6.448875349056941951e-04
-6.441017354028512505e-04
-6.433165253953659988e-04
-6.425319047642319642e-04
-6.417478733902219276e-04
-6.409644311538880345e-04
-6.401815779355621207e-04
-6.393993136153558205e-04
-6.386176380731606751e-04
-6.378365511886485663e-04
-6.370560528412717166e-04
-6.362761429102632314e-04
-6.354968212746370986e-04
-6.347180878131886226e-04
-6.339399424044944243e-04
-6.331623849269127661e-04
-6.323854152585832271e-04
-6.316090332774270278e-04
-6.308332388611476811e-04
-6.300580318872309920e-04
-6.292834122329454914e-04
-6.285093797753422192e-04
-6.277359343912551582e-04
-6.269630759573019928e-04
-6.261908043498841088e-04
-6.254191194451867025e-04
-6.246480211191789969e-04
-6.238775092476140250e-04
-6.231075837060290638e-04
-6.223382443697463929e-04
-6.215694911138728608e-04
-6.208013238133002105e-04
-6.200337423427054045e-04
-6.192667465765507332e-04
-6.185003363890841403e-04
-6.177345116543395478e-04
-6.169692722461370734e-04
-6.162046180380833550e-04
-6.154405489035716598e-04
-6.146770647157825344e-04
-6.139141653476836965e-04
-6.131518506720307939e-04
-6.123901205613671876e-04
-6.116289748880240603e-04
-6.108684135241201994e-04
-6.101084363415626476e-04
-6.093490432120469199e-04
-6.085902340070577623e-04
-6.078320085978683928e-04
-6.070743668555408272e-04
-6.063173086509266374e-04
-6.055608338546671684e-04
-6.048049423371936470e-04
-6.040496339687268564e-04
-6.032949086192777866e-04
-6.025407661586481764e-04
-6.017872064564304055e-04
-6.010342293820079276e-04
-6.002818348045553792e-04
-5.995300225930389046e-04
-5.987787926162162645e-04
-5.980281447426368359e-04
-5.972780788406423713e-04
-5.965285947783667813e-04
-5.957796924237363520e-04
-5.950313716444705038e-04
-5.942836323080815742e-04
-5.935364742818755772e-04
-5.927898974329518780e-04
-5.920439016282039515e-04
-5.912984867343189493e-04
-5.905536526177786747e-04
-5.898093991448595834e-04
-5.890657261816327830e-04
-5.883226335939644672e-04
-5.875801212475160237e-04
-5.868381890077439258e-04
-5.860968367399000583e-04
-5.853560643090321503e-04
-5.846158715799842096e-04
-5.838762584173964139e-04
-5.831372246857050023e-04
-5.823987702491427096e-04
-5.816608949717390906e-04
-5.809235987173203041e-04
-5.801868813495097629e-04
-5.794507427317283511e-04
-5.787151827271949656e-04
-5.779802011989267334e-04
-5.772457980097387949e-04
-5.765119730222443032e-04
-5.757787260988547502e-04
-5.750460571017808331e-04
-5.743139658930324553e-04
-5.735824523344188342e-04
-5.728515162875487182e-04
-5.721211576138307119e-04
-5.713913761744731680e-04
-5.706621718304845121e-04
-5.699335444426735682e-04
-5.692054938716495588e-04
-5.684780199778224300e-04
-5.677511226214033936e-04
-5.670248016624051439e-04
-5.662990569606419665e-04
-5.655738883757299544e-04
-5.648492957670870089e-04
-5.641252789939334893e-04
-5.634018379152922135e-04
-5.626789723899883492e-04
-5.619566822766500647e-04
-5.612349674337086371e-04
-5.605138277193988860e-04
-5.597932629917592821e-04
-5.590732731086324892e-04
-5.583538579276656894e-04
-5.576350173063103662e-04
-5.569167511018227384e-04
-5.561990591712637601e-04
-5.554819413714993373e-04
-5.547653975592004363e-04
-5.540494275908437348e-04
-5.533340313227114041e-04
-5.526192086108912185e-04
-5.519049593112766629e-04
-5.511912832795673673e-04
-5.504781803712694311e-04
-5.497656504416960745e-04
-5.490536933459677464e-04
-5.483423089390115825e-04
-5.476314970755623811e-04
-5.469212576101627112e-04
-5.462115903971630215e-04
-5.455024952907219652e-04
-5.447939721448069421e-04
-5.440860208131937737e-04
-5.433786411494670281e-04
-5.426718330070202370e-04
-5.419655962390563294e-04
-5.412599306985876315e-04
-5.405548362384358669e-04
-5.398503127112322646e-04
-5.391463599694179933e-04
-5.384429778652448113e-04
-5.377401662507751753e-04
-5.370379249778818066e-04
-5.363362538982481250e-04
-5.356351528633688987e-04
-5.349346217245505705e-04
-5.342346603329110400e-04
-5.335352685393800979e-04
-5.328364461946997511e-04
-5.321381931494245481e-04
-5.314405092539215784e-04
-5.307433943583706902e-04
-5.300468483127641645e-04
-5.293508709669076913e-04
-5.286554621704202608e-04
-5.279606217727344890e-04
-5.272663496230970510e-04
-5.265726455705690067e-04
-5.258795094640260175e-04
-5.251869411521578037e-04
-5.244949404834687960e-04
-5.238035073062787851e-04
-5.231126414687225969e-04
-5.224223428187500925e-04
-5.217326112041264933e-04
-5.210434464724330314e-04
-5.203548484710672755e-04
-5.196668170472429132e-04
-5.189793520479897516e-04
-5.182924533201543676e-04
-5.176061207104005416e-04
-5.169203540652090407e-04
-5.162351532308779439e-04
-5.155505180535225338e-04
-5.148664483790762721e-04
-5.141829440532909084e-04
-5.135000049217360463e-04
-5.128176308298001192e-04
-5.121358216226906072e-04
-5.114545771454341453e-04
-5.107738972428763069e-04
-5.100937817596822542e-04
-5.094142305403367380e-04
-5.087352434291445317e-04
-5.080568202702307563e-04
-5.073789609075408805e-04
-5.067016651848407207e-04
-5.060249329457168748e-04
-5.053487640335767219e-04
-5.046731582916485310e-04
-5.039981155629820030e-04
-5.033236356904485960e-04
-5.026497185167417420e-04
-5.019763638843772807e-04
-5.013035716356931343e-04
-5.006313416128499580e-04
-4.999596736578314649e-04
-4.992885676124443183e-04
-4.986180233183183479e-04
-4.979480406169066583e-04
-4.972786193494857379e-04
-4.966097593571554584e-04
-4.959414604808397254e-04
-4.952737225612866955e-04
-4.946065454390686676e-04
-4.939399289545824082e-04
-4.932738729480498022e-04
-4.926083772595179610e-04
-4.919434417288591141e-04
-4.912790661957711514e-04
-4.906152504997775146e-04
-4.899519944802270890e-04
-4.892892979762951790e-04
-4.886271608269835082e-04
-4.879655828711204364e-04
-4.873045639473610677e-04
-4.866441038941875219e-04
-4.859842025499093139e-04
-4.853248597526636245e-04
-4.846660753404154090e-04
-4.840078491509576682e-04
-4.833501810219118823e-04
-4.826930707907280647e-04
-4.820365182946848167e-04
-4.813805233708897606e-04
-4.807250858562795944e-04
-4.800702055876199833e-04
-4.794158824015060474e-04
-4.787621161343627411e-04
-4.781089066224448536e-04
-4.774562537018371168e-04
-4.768041572084547475e-04
-4.761526169780435020e-04
-4.755016328461800549e-04
-4.748512046482719997e-04
-4.742013322195583907e-04
-4.735520153951100139e-04
-4.729032540098290077e-04
-4.722550478984493508e-04
-4.716073968955372415e-04
-4.709603008354913689e-04
-4.703137595525428588e-04
-4.696677728807556527e-04
-4.690223406540267254e-04
-4.683774627060860300e-04
-4.677331388704966610e-04
-4.670893689806555047e-04
-4.664461528697934020e-04
-4.658034903709751479e-04
-4.651613813170999258e-04
-4.645198255409015782e-04
-4.638788228749486067e-04
-4.632383731516447143e-04
-4.625984762032288593e-04
-4.619591318617754182e-04
-4.613203399591942399e-04
-4.606821003272307540e-04
-4.600444127974666754e-04
-4.594072772013199505e-04
-4.587706933700452447e-04
-4.581346611347340511e-04
-4.574991803263148528e-04
-4.568642507755531776e-04
-4.562298723130519228e-04
-4.555960447692513553e-04
-4.549627679744293286e-04
-4.543300417587019875e-04
-4.536978659520233886e-04
-4.530662403841861506e-04
-4.524351648848215631e-04
-4.518046392833996406e-04
-4.511746634092295019e-04
-4.505452370914598040e-04
-4.499163601590788503e-04
-4.492880324409146992e-04
-4.486602537656354892e-04
-4.480330239617492764e-04
-4.474063428576044140e-04
-4.467802102813899314e-04
-4.461546260611355349e-04
-4.455295900247118780e-04
-4.449051019998310499e-04
-4.442811618140466833e-04
-4.436577692947539552e-04
-4.430349242691897487e-04
-4.424126265644331415e-04
-4.417908760074055140e-04
-4.411696724248710373e-04
-4.405490156434368359e-04
-4.399289054895529874e-04
-4.393093417895130109e-04
-4.386903243694539206e-04
-4.380718530553563347e-04
-4.374539276730449091e-04
-4.368365480481881200e-04
-4.362197140062985356e-04
-4.356034253727332495e-04
-4.349876819726937178e-04
-4.343724836312262477e-04
-4.337578301732224304e-04
-4.331437214234193584e-04
-4.325301572063996796e-04
-4.319171373465919227e-04
-4.313046616682707137e-04
-4.306927299955569388e-04
-4.300813421524178528e-04
-4.294704979626673500e-04
-4.288601972499661271e-04
-4.282504398378220081e-04
-4.276412255495899988e-04
-4.270325542084728288e-04
-4.264244256375210058e-04
-4.258168396596327611e-04
-4.252097960975544837e-04
-4.246032947738808826e-04
-4.239973355110552579e-04
-4.233919181313697722e-04
-4.227870424569659378e-04
-4.221827083098346717e-04
-4.215789155118162407e-04
-4.209756638846006956e-04
-4.203729532497279793e-04
-4.197707834285879271e-04
-4.191691542424209166e-04
-4.185680655123177603e-04
-4.179675170592201923e-04
-4.173675087039210320e-04
-4.167680402670641835e-04
-4.161691115691451776e-04
-4.155707224305113892e-04
-4.149728726713620367e-04
-4.143755621117486704e-04
-4.137787905715751722e-04
-4.131825578705981892e-04
-4.125868638284269714e-04
-4.119917082645236967e-04
-4.113970909982037419e-04
-4.108030118486356288e-04
-4.102094706348411867e-04
-4.096164671756960941e-04
-4.090240012899301505e-04
-4.084320727961276553e-04
-4.078406815127270826e-04
-4.072498272580215694e-04
-4.066595098501590779e-04
-4.060697291071426124e-04
-4.054804848468304907e-04
-4.048917768869366688e-04
-4.043036050450309038e-04
-4.037159691385391880e-04
-4.031288689847434227e-04
-4.025423044007815816e-04
-4.019562752036481986e-04
-4.013707812101946926e-04
-4.007858222371293139e-04
-4.002013981010173606e-04
-3.996175086182814497e-04
-3.990341536052019510e-04
-3.984513328779170412e-04
-3.978690462524231918e-04
-3.972872935445751689e-04
-3.967060745700864673e-04
-3.961253891445291474e-04
-3.955452370833340524e-04
-3.949656182017912418e-04
-3.943865323150502625e-04
-3.938079792381201489e-04
-3.932299587858696936e-04
-3.926524707730275022e-04
-3.920755150141819927e-04
-3.914990913237818295e-04
-3.909231995161363570e-04
-3.903478394054156540e-04
-3.897730108056508044e-04
-3.891987135307338431e-04
-3.886249473944180274e-04
-3.880517122103185413e-04
-3.874790077919126581e-04
-3.869068339525400663e-04
-3.863351905054029228e-04
-3.857640772635657456e-04
-3.851934940399556837e-04
-3.846234406473626266e-04
-3.840539168984397999e-04
-3.834849226057040366e-04
-3.829164575815356144e-04
-3.823485216381787978e-04
-3.817811145877418925e-04
-3.812142362421974077e-04
-3.806478864133820022e-04
-3.800820649129966469e-04
-3.795167715526069499e-04
-3.789520061436438074e-04
-3.783877684974033492e-04
-3.778240584250474265e-04
-3.772608757376037206e-04
-3.766982202459659055e-04
-3.761360917608938103e-04
-3.755744900930135821e-04
-3.750134150528179025e-04
-3.744528664506663676e-04
-3.738928440967855416e-04
-3.733333478012689573e-04
-3.727743773740776036e-04
-3.722159326250401427e-04
-3.716580133638529098e-04
-3.711006194000804012e-04
-3.705437505431550572e-04
-3.699874066023779132e-04
-3.694315873869188156e-04
-3.688762927058168565e-04
-3.683215223679802103e-04
-3.677672761821862424e-04
-3.672135539570817262e-04
-3.666603555011829513e-04
-3.661076806228762115e-04
-3.655555291304179132e-04
-3.650039008319349004e-04
-3.644527955354248889e-04
-3.639022130487566285e-04
-3.633521531796699033e-04
-3.628026157357756940e-04
-3.622536005245563951e-04
-3.617051073533660856e-04
-3.611571360294305293e-04
-3.606096863598478252e-04
-3.600627581515885157e-04
-3.595163512114959666e-04
-3.589704653462863124e-04
-3.584251003625487817e-04
-3.578802560667456974e-04
-3.573359322652126390e-04
-3.567921287641589848e-04
-3.562488453696679666e-04
-3.557060818876967771e-04
-3.551638381240768421e-04
-3.546221138845137111e-04
-3.540809089745876543e-04
-3.535402231997536080e-04
-3.530000563653416627e-04
-3.524604082765571715e-04
-3.519212787384809666e-04
-3.513826675560699562e-04
-3.508445745341569615e-04
-3.503069994774507707e-04
-3.497699421905365734e-04
-3.492334024778763935e-04
-3.486973801438093064e-04
-3.481618749925516560e-04
-3.476268868281971085e-04
-3.470924154547167071e-04
-3.465584606759590340e-04
-3.460250222956504822e-04
-3.454921001173957970e-04
-3.449596939446780220e-04
-3.444278035808586618e-04
-3.438964288291779530e-04
-3.433655694927551893e-04
-3.428352253745887762e-04
-3.423053962775563929e-04
-3.417760820044149386e-04
-3.412472823578008578e-04
-3.407189971402308447e-04
-3.401912261541020061e-04
-3.396639692016919154e-04
-3.391372260851588296e-04
-3.386109966065416893e-04
-3.380852805677604439e-04
-3.375600777706164852e-04
-3.370353880167928644e-04
-3.365112111078541295e-04
-3.359875468452465418e-04
-3.354643950302985643e-04
-3.349417554642210781e-04
-3.344196279481075995e-04
-3.338980122829345509e-04
-3.333769082695614778e-04
-3.328563157087315364e-04
-3.323362344010714941e-04
-3.318166641470919457e-04
-3.312976047471876393e-04
-3.307790560016377469e-04
-3.302610177106058103e-04
-3.297434896741401750e-04
-3.292264716921742608e-04
-3.287099635645267790e-04
-3.281939650909020578e-04
-3.276784760708898792e-04
-3.271634963039660214e-04
-3.266490255894920962e-04
-3.261350637267161992e-04
-3.256216105147730186e-04
-3.251086657526841063e-04
-3.245962292393579857e-04
-3.240843007735903151e-04
-3.235728801540640499e-04
-3.230619671793498763e-04
-3.225515616479066993e-04
-3.220416633580816426e-04
-3.215322721081102656e-04
-3.210233876961166174e-04
-3.205150099201135622e-04
-3.200071385780031046e-04
-3.194997734675764979e-04
-3.189929143865144609e-04
-3.184865611323875034e-04
-3.179807135026559801e-04
-3.174753712946706873e-04
-3.169705343056730251e-04
-3.164662023327951602e-04
-3.159623751730601888e-04
-3.154590526233825697e-04
-3.149562344805682335e-04
-3.144539205413146902e-04
-3.139521106022112465e-04
-3.134508044597393312e-04
-3.129500019102726574e-04
-3.124497027500774938e-04
-3.119499067753129357e-04
-3.114506137820310678e-04
-3.109518235661773975e-04
-3.104535359235909096e-04
-3.099557506500043910e-04
-3.094584675410447564e-04
-3.089616863922331567e-04
-3.084654069989850329e-04
-3.079696291566104416e-04
-3.074743526603145429e-04
-3.069795773051977629e-04
-3.064853028862560649e-04
-3.059915291983811660e-04
-3.054982560363604291e-04
-3.050054831948774046e-04
-3.045132104685119388e-04
-3.040214376517402827e-04
-3.035301645389356338e-04
-3.030393909243682990e-04
-3.025491166022058025e-04
-3.020593413665132658e-04
-3.015700650112537870e-04
-3.010812873302886033e-04
-3.005930081173772538e-04
-3.001052271661781216e-04
-2.996179442702485421e-04
-2.991311592230450739e-04
-2.986448718179237705e-04
-2.981590818481400710e-04
-2.976737891068492888e-04
-2.971889933871067735e-04
-2.967046944818683453e-04
-2.962208921839905654e-04
-2.957375862862306280e-04
-2.952547765812468480e-04
-2.947724628615990407e-04
-2.942906449197484130e-04
-2.938093225480578889e-04
-2.933284955387924892e-04
-2.928481636841193851e-04
-2.923683267761082783e-04
-2.918889846067318342e-04
-2.914101369678658449e-04
-2.909317836512894458e-04
-2.904539244486851698e-04
-2.899765591516393812e-04
-2.894996875516424924e-04
-2.890233094400895602e-04
-2.885474246082803400e-04
-2.880720328474195568e-04
-2.875971339486170140e-04
-2.871227277028877011e-04
-2.866488139011523907e-04
-2.861753923342378009e-04
-2.857024627928767034e-04
-2.852300250677080868e-04
-2.847580789492775355e-04
-2.842866242280378260e-04
-2.838156606943488189e-04
-2.833451881384777297e-04
-2.828752063505996167e-04
-2.824057151207973811e-04
-2.819367142390620377e-04
-2.814682034952927696e-04
-2.810001826792973075e-04
-2.805326515807924173e-04
-2.800656099894040089e-04
-2.795990576946675698e-04
-2.791329944860282733e-04
-2.786674201528412500e-04
-2.782023344843716954e-04
-2.777377372697953047e-04
-2.772736282981984345e-04
-2.768100073585784827e-04
-2.763468742398442137e-04
-2.758842287308158666e-04
-2.754220706202254810e-04
-2.749603996967169505e-04
-2.744992157488464028e-04
-2.740385185650821994e-04
-2.735783079338053149e-04
-2.731185836433096628e-04
-2.726593454818024200e-04
-2.722005932374042445e-04
-2.717423266981497084e-04
-2.712845456519874065e-04
-2.708272498867803362e-04
-2.703704391903061677e-04
-2.699141133502574617e-04
-2.694582721542418315e-04
-2.690029153897822685e-04
-2.685480428443174131e-04
-2.680936543052019885e-04
-2.676397495597071258e-04
-2.671863283950205812e-04
-2.667333905982466813e-04
-2.662809359564067570e-04
-2.658289642564392523e-04
-2.653774752851999403e-04
-2.649264688294625204e-04
-2.644759446759186177e-04
-2.640259026111781626e-04
-2.635763424217697163e-04
-2.631272638941407416e-04
-2.626786668146578198e-04
-2.622305509696069761e-04
-2.617829161451937876e-04
-2.613357621275438718e-04
-2.608890887027031031e-04
-2.604428956566378294e-04
-2.599971827752351437e-04
-2.595519498443031549e-04
-2.591071966495714211e-04
-2.586629229766912214e-04
-2.582191286112355552e-04
-2.577758133386994139e-04
-2.573329769445001055e-04
-2.568906192139774176e-04
-2.564487399323939969e-04
-2.560073388849357285e-04
-2.555664158567120072e-04
-2.551259706327558999e-04
-2.546860029980245249e-04
-2.542465127373992151e-04
-2.538074996356857885e-04
-2.533689634776148739e-04
-2.529309040478420188e-04
-2.524933211309481236e-04
-2.520562145114399293e-04
-2.516195839737500172e-04
-2.511834293022370806e-04
-2.507477502811861951e-04
-2.503125466948091446e-04
-2.498778183272448001e-04
-2.494435649625593369e-04
-2.490097863847464516e-04
-2.485764823777275243e-04
-2.481436527253520524e-04
-2.477112972113979764e-04
-2.472794156195721126e-04
-2.468480077335103167e-04
-2.464170733367775914e-04
-2.459866122128686835e-04
-2.455566241452083543e-04
-2.451271089171515425e-04
-2.446980663119834726e-04
-2.442694961129201429e-04
-2.438413981031085421e-04
-2.434137720656267580e-04
-2.429866177834843295e-04
-2.425599350396225452e-04
-2.421337236169146599e-04
-2.417079832981661658e-04
-2.412827138661152531e-04
-2.408579151034329730e-04
-2.404335867927234543e-04
-2.400097287165243369e-04
-2.395863406573070704e-04
-2.391634223974771576e-04
-2.387409737193743446e-04
-2.383189944052730000e-04
-2.378974842373824945e-04
-2.374764429978473094e-04
-2.370558704687473074e-04
-2.366357664320979767e-04
-2.362161306698508378e-04
-2.357969629638938496e-04
-2.353782630960515995e-04
-2.349600308480854929e-04
-2.345422660016942143e-04
-2.341249683385137541e-04
-2.337081376401179507e-04
-2.332917736880187076e-04
-2.328758762636662372e-04
-2.324604451484492233e-04
-2.320454801236952280e-04
-2.316309809706710709e-04
-2.312169474705831271e-04
-2.308033794045774361e-04
-2.303902765537401895e-04
-2.299776386990978663e-04
-2.295654656216176124e-04
-2.291537571022073496e-04
-2.287425129217161000e-04
-2.283317328609345287e-04
-2.279214167005952146e-04
-2.275115642213730029e-04
-2.271021752038851948e-04
-2.266932494286915745e-04
-2.262847866762948972e-04
-2.258767867271412142e-04
-2.254692493616201443e-04
-2.250621743600652528e-04
-2.246555615027542418e-04
-2.242494105699093562e-04
-2.238437213416974653e-04
-2.234384935982304424e-04
-2.230337271195654625e-04
-2.226294216857053012e-04
-2.222255770765986320e-04
-2.218221930721405149e-04
-2.214192694521724229e-04
-2.210168059964826763e-04
-2.206148024848068759e-04
-2.202132586968280387e-04
-2.198121744121770045e-04
-2.194115494104326527e-04
-2.190113834711223631e-04
-2.186116763737219889e-04
-2.182124278976562901e-04
-2.178136378222994215e-04
-2.174153059269749873e-04
-2.170174319909564471e-04
-2.166200157934673330e-04
-2.162230571136815479e-04
-2.158265557307237445e-04
-2.154305114236694887e-04
-2.150349239715457466e-04
-2.146397931533311021e-04
-2.142451187479558648e-04
-2.138509005343025311e-04
-2.134571382912061905e-04
-2.130638317974547428e-04
-2.126709808317891689e-04
-2.122785851729037205e-04
-2.118866445994463269e-04
-2.114951588900188927e-04
-2.111041278231775968e-04
-2.107135511774331624e-04
-2.103234287312512644e-04
-2.099337602630529356e-04
-2.095445455512147295e-04
-2.091557843740692621e-04
-2.087674765099053207e-04
-2.083796217369679991e-04
-2.079922198334592130e-04
-2.076052705775379163e-04
-2.072187737473202914e-04
-2.068327291208802636e-04
-2.064471364762497456e-04
-2.060619955914189355e-04
-2.056773062443365604e-04
-2.052930682129103918e-04
-2.049092812750074081e-04
-2.045259452084540928e-04
-2.041430597910367324e-04
-2.037606248005017150e-04
-2.033786400145557198e-04
-2.029971052108662047e-04
-2.026160201670618405e-04
-2.022353846607325106e-04
-2.018551984694297991e-04
-2.014754613706672614e-04
-2.010961731419207501e-04
-2.007173335606287398e-04
-2.003389424041925981e-04
-1.999609994499768572e-04
-1.995835044753096468e-04
-1.992064572574830201e-04
-1.988298575737532244e-04
-1.984537052013409181e-04
-1.980779999174315771e-04
-1.977027414991758476e-04
-1.973279297236897622e-04
-1.969535643680550932e-04
-1.965796452093197312e-04
-1.962061720244979567e-04
-1.958331445905707653e-04
-1.954605626844860842e-04
-1.950884260831592604e-04
-1.947167345634733318e-04
-1.943454879022792710e-04
-1.939746858763964187e-04
-1.936043282626127556e-04
-1.932344148376851994e-04
-1.928649453783397956e-04
-1.924959196612723131e-04
-1.921273374631483801e-04
-1.917591985606038093e-04
-1.913915027302449500e-04
-1.910242497486489054e-04
-1.906574393923639657e-04
-1.902910714379097714e-04
-1.899251456617777193e-04
-1.895596618404315049e-04
-1.891946197503073393e-04
-1.888300191678141387e-04
-1.884658598693339038e-04
-1.881021416312219372e-04
-1.877388642298073848e-04
-1.873760274413935074e-04
-1.870136310422579784e-04
-1.866516748086533180e-04
-1.862901585168068655e-04
-1.859290819429213219e-04
-1.855684448631749665e-04
-1.852082470537222262e-04
-1.848484882906940006e-04
-1.844891683501980145e-04
-1.841302870083191975e-04
-1.837718440411198733e-04
-1.834138392246400856e-04
-1.830562723348978143e-04
-1.826991431478892469e-04
-1.823424514395891852e-04
-1.819861969859512887e-04
-1.816303795629084549e-04
-1.812749989463732249e-04
-1.809200549122380553e-04
-1.805655472363755076e-04
-1.802114756946388170e-04
-1.798578400628621915e-04
-1.795046401168610549e-04
-1.791518756324323727e-04
-1.787995463853550310e-04
-1.784476521513901626e-04
-1.780961927062815796e-04
-1.777451678257559371e-04
-1.773945772855231389e-04
-1.770444208612765278e-04
-1.766946983286932650e-04
-1.763454094634344109e-04
-1.759965540411453325e-04
-1.756481318374561093e-04
-1.753001426279818047e-04
-1.749525861883229267e-04
-1.746054622940655090e-04
-1.742587707207815995e-04
-1.739125112440295304e-04
-1.735666836393540819e-04
-1.732212876822868336e-04
-1.728763231483462467e-04
-1.725317898130380155e-04
-1.721876874518554203e-04
-1.718440158402795986e-04
-1.715007747537800867e-04
-1.711579639678147656e-04
-1.708155832578302409e-04
-1.704736323992619507e-04
-1.701321111675344912e-04
-1.697910193380619689e-04
-1.694503566862480548e-04
-1.691101229874864454e-04
-1.687703180171611604e-04
-1.684309415506466247e-04
-1.680919933633080472e-04
-1.677534732305017734e-04
-1.674153809275754756e-04
-1.670777162298681519e-04
-1.667404789127104525e-04
-1.664036687514250043e-04
-1.660672855213264924e-04
-1.657313289977220669e-04
-1.653957989559115592e-04
-1.650606951711876995e-04
-1.647260174188361977e-04
-1.643917654741358246e-04
-1.640579391123588460e-04
-1.637245381087712123e-04
-1.633915622386328021e-04
-1.630590112771976123e-04
-1.627268849997138124e-04
-1.623951831814242049e-04
-1.620639055975663068e-04
-1.617330520233726209e-04
-1.614026222340707165e-04
-1.610726160048835012e-04
-1.607430331110294643e-04
-1.604138733277227040e-04
-1.600851364301731446e-04
-1.597568221935868611e-04
-1.594289303931661613e-04
-1.591014608041098290e-04
-1.587744132016132600e-04
-1.584477873608684622e-04
-1.581215830570643259e-04
-1.577958000653868417e-04
-1.574704381610192352e-04
-1.571454971191421298e-04
-1.568209767149336556e-04
-1.564968767235696927e-04
-1.561731969202240070e-04
-1.558499370800683318e-04
-1.555270969782726110e-04
-1.552046763900051898e-04
-1.548826750904328680e-04
-1.545610928547210905e-04
-1.542399294580340280e-04
-1.539191846755348213e-04
-1.535988582823856355e-04
-1.532789500537477139e-04
-1.529594597647815140e-04
-1.526403871906468698e-04
-1.523217321065031273e-04
-1.520034942875091990e-04
-1.516856735088238076e-04
-1.513682695456054859e-04
-1.510512821730127127e-04
-1.507347111662039668e-04
-1.504185563003378624e-04
-1.501028173505732576e-04
-1.497874940920693903e-04
-1.494725862999859859e-04
-1.491580937494833663e-04
-1.488440162157226123e-04
-1.485303534738655366e-04
-1.482171052990747650e-04
-1.479042714665137906e-04
-1.475918517513470825e-04
-1.472798459287401394e-04
-1.469682537738595718e-04
-1.466570750618732366e-04
-1.463463095679502920e-04
-1.460359570672611700e-04
-1.457260173349777665e-04
-1.454164901462734678e-04
-1.451073752763231512e-04
-1.447986725003031579e-04
-1.444903815933914278e-04
-1.441825023307676359e-04
-1.438750344876132460e-04
-1.435679778391115379e-04
-1.432613321604477431e-04
-1.429550972268090717e-04
-1.426492728133846853e-04
-1.423438586953657513e-04
-1.420388546479455514e-04
-1.417342604463194542e-04
-1.414300758656849969e-04
-1.411263006812418308e-04
-1.408229346681917485e-04
-1.405199776017387111e-04
-1.402174292570888749e-04
-1.399152894094506463e-04
-1.396135578340346000e-04
-1.393122343060534789e-04
-1.390113186007223300e-04
-1.387108104932584501e-04
-1.384107097588813042e-04
-1.381110161728125801e-04
-1.378117295102762965e-04
-1.375128495464986677e-04
-1.372143760567080492e-04
-1.369163088161351005e-04
-1.366186476000126767e-04
-1.363213921835759637e-04
-1.360245423420622889e-04
-1.357280978507111209e-04
-1.354320584847641510e-04
-1.351364240194652389e-04
-1.348411942300602499e-04
-1.345463688917970823e-04
-1.342519477799256945e-04
-1.339579306696980234e-04
-1.336643173363680930e-04
-1.333711075551917977e-04
-1.330783011014268207e-04
-1.327858977503327696e-04
-1.324938972771710682e-04
-1.322022994572049292e-04
-1.319111040656992728e-04
-1.316203108779205914e-04
-1.313299196691369223e-04
-1.310399302146177938e-04
-1.307503422896341434e-04
-1.304611556694581283e-04
-1.301723701293632342e-04
-1.298839854446242476e-04
-1.295960013905171203e-04
-1.293084177423188346e-04
-1.290212342753073210e-04
-1.287344507647614049e-04
-1.284480669859607515e-04
-1.281620827141858937e-04
-1.278764977247179606e-04
-1.275913117928385420e-04
-1.273065246938296074e-04
-1.270221362029734784e-04
-1.267381460955527208e-04
-1.264545541468501983e-04
-1.261713601321487748e-04
-1.258885638267313411e-04
-1.256061650058805444e-04
-1.253241634448787876e-04
-1.250425589190080943e-04
-1.247613512035499459e-04
-1.244805400737852819e-04
