3.945171439380962958e-03
-2.698771600206344243e-03
-2.216048515346235714e-03
-9.175052223076755149e-04
-3.296150060500062286e-03
-8.020822990010802872e-03
-1.140890473690571970e-02
-1.426188093984238729e-02
-1.650298520411343922e-02
-1.350482540539501945e-02
-8.298993590156697117e-03
-9.760465481166314544e-03
-1.096712860060256554e-02
-1.290202183873863026e-03
1.464360485199442570e-02
2.408173109261838030e-02
2.808068050260243212e-02
2.408223782986911379e-02
1.520510694791565517e-02
4.444579796010851569e-03
-6.689004879020653271e-03
-1.051783138698031070e-02
-1.101885969863836134e-02
-1.066755395916402921e-02
-1.055766366230361311e-02
-1.113561764973064819e-02
-9.126851929863639273e-03
-2.709820807663240478e-03
1.623325285124309261e-03
3.103066610238985456e-03
2.554695534294449018e-03
1.317778889639199900e-03
4.435366633511258691e-03
5.226379384269340053e-03
3.732783492998108851e-03
1.364404922934224756e-03
-1.555015264872500972e-03
-1.067700690863612831e-03
3.397677125791788108e-04
-1.233295962291265906e-03
-1.949204448798431749e-03
2.443396780672518406e-03
5.014691064273244653e-03
4.595177609965713991e-03
3.188316065513055551e-03
-2.107750843172857304e-03
-3.220396225178960483e-03
-2.147955674495709288e-03
-3.318548820501368395e-03
-1.982407763490437371e-03
1.454341571498613244e-03
3.115627737069250405e-03
-3.720869388208187622e-04
-3.026991463388241984e-03
-2.939615481046468307e-03
-2.580860535364344361e-03
-2.857015061206406772e-03
-2.203286201894201057e-03
-3.462220132015543690e-03
-2.148825627466688457e-03
-1.572838683634524871e-03
1.145351352005550568e-04
4.869128975377961903e-03
5.126766290244139102e-03
3.629277202297751664e-03
5.026767854425682677e-03
9.469670450427498595e-03
1.536291234610537119e-02
1.220888733873881117e-02
1.685659430725028936e-03
-1.102445119802120121e-02
-1.476475096508448812e-02
-9.465762192218191845e-03
-1.848116940248896879e-03
-3.115335441740958809e-03
-8.038922947437018157e-03
-9.910654202433567816e-03
-8.790364130391224023e-03
-9.386872261799090317e-03
-1.253836278414716815e-02
-1.663711422497682899e-03
1.356209154660182117e-02
2.189180278894551149e-02
2.146082984274148148e-02
1.961105546983199152e-02
1.365193816345015160e-02
3.371998746931182452e-03
-5.593334549358047053e-03
-9.218085631945279954e-03
-9.941762293969376441e-03
-8.400126952604102318e-03
-8.279251997407614458e-03
-8.355712484604775961e-03
-7.207054719351745770e-03
-2.588258428211950238e-03
1.822877240933471561e-04
-7.908813501061130518e-04
1.812721291436915176e-03
6.362336984478982396e-03
5.773842534810075949e-03
3.366316516929878083e-03
-5.779747544199766640e-04
-1.042721682987179325e-03
-6.466900538500541936e-04
1.182350230341015340e-03
2.673025095461146355e-04
1.410887321850563120e-03
4.203257155449126835e-03
3.632717307216324579e-03
-4.514611210733810906e-04
-4.708246116719726898e-03
-5.351279034956988277e-03
-1.042099814500204152e-03
4.979618024061561662e-03
7.037971688792509645e-03
2.824337825670061950e-03
-4.309324551290343031e-03
-9.466936655672858469e-03
-8.342840615998920947e-03
-3.936399757384521567e-03
-1.367589632618549777e-03
3.564344376767248691e-04
2.687226854782026001e-03
4.168831894756722285e-03
8.210864639160715683e-03
9.043179612197055350e-03
4.528670127400030027e-03
-3.285956486983455222e-04
-3.910189067805274962e-03
-4.927310255327201072e-03
-4.703846636397867806e-03
-3.965817900270333929e-03
-2.072626761913978679e-03
-1.132006518717874281e-03
1.175562552479578800e-03
2.292218677094236094e-03
4.093545483330181950e-03
4.804654624118550460e-03
5.107670409730001582e-03
1.737958657343398848e-03
2.086648070737002680e-06
-1.474883557164798423e-03
-3.267013732730402863e-03
-3.159817593024609982e-03
-6.829997486296169110e-03
-9.231851750791711039e-03
-8.489086318300751929e-03
-7.431369257405605680e-03
-2.775183013910997865e-03
4.482865954920391832e-03
1.545654347314937005e-02
1.641602904609334307e-02
1.020820631933055597e-02
5.721057515989509679e-03
4.455580680975100745e-03
-6.887897415875525236e-04
-6.787088044012230641e-03
-8.656086534723151510e-03
-1.058771618265517966e-02
-8.176232787864215132e-03
-4.632855482154335514e-03
9.722420829879095195e-04
6.543390161347660550e-03
7.266556171791975147e-03
2.475484709764987686e-03
-2.061241751850537238e-03
-3.298148853548212456e-03
-2.594756885614687199e-03
-6.843924265583878168e-04
-3.477571616204020149e-03
-3.604617697901468017e-03
1.725438771986996609e-03
3.394732541685074965e-03
3.412408255554178101e-03
8.655449144782426454e-03
1.377842978983775078e-02
8.082737596944652991e-03
-4.335928616284942527e-03
-1.068282037328085673e-02
-9.138857368814314389e-03
-7.021468611344967165e-03
-5.978238600016743190e-03
-7.936484042604365075e-03
-6.713990916648661898e-03
-8.062743204281139729e-05
5.501193530333108733e-03
1.012361970151924237e-02
1.370834231998139564e-02
1.080995047999843903e-02
3.428646927404438004e-03
9.472976112986535903e-05
-1.674584157006368205e-03
-4.381036101161344537e-03
-4.889960802816042430e-03
-6.932751430297404496e-03
-7.213035783480218656e-03
-4.708821380227460815e-03
-2.348549584646897424e-03
-1.976705338384586886e-03
-2.379369876504064797e-04
-7.901634865300807397e-04
5.067148709843505641e-03
1.427769390298296720e-02
1.400750049947584348e-02
5.905014986103627669e-03
-2.746767653860230935e-03
-6.196410736049425688e-03
-7.235418026833368398e-03
-6.051172852433679694e-03
-3.271738950193598446e-03
-2.250225791270068793e-03
-2.044589937098166294e-03
-3.370989333857170658e-03
-6.015671393003796386e-03
-7.317973332897719993e-03
-4.775402553741077069e-03
2.876149964714474691e-03
1.305697402955336914e-02
1.765636385646331824e-02
1.874536929083537098e-02
1.469415762613397042e-02
6.133220281058941736e-03
-2.351094693838058376e-03
-9.824202705786343193e-03
-1.547049001689075783e-02
-1.887748108004163455e-02
-1.925775599621765144e-02
-1.590021696675740157e-02
-1.168320426666522548e-02
1.407841452763546660e-03
1.464034384308893731e-02
1.578311810778216390e-02
1.471335489396908072e-02
1.073761138323937880e-02
7.525749909120551390e-03
1.959612697900673783e-03
9.130375913155380991e-04
-1.633765984773426130e-03
-3.833750297450698105e-03
-6.031000981235667274e-03
-5.404746865826021325e-03
-3.277164936537182386e-03
8.537027648473479108e-04
2.309964100505568999e-03
2.386300152381809047e-03
2.715953913849192183e-03
-6.004464059545918861e-05
-4.519672653785725830e-03
-5.370519560877169175e-03
-4.739550859972556200e-03
-2.867128752408814544e-03
-2.690323195227022589e-03
-1.917592170030116804e-03
-1.585914462718190053e-03
2.164744673146951504e-03
6.937524363609218724e-03
5.590140682449383849e-03
3.159674518602669391e-03
3.578025798510815498e-03
4.936100731855710272e-03
1.923730325284028677e-03
3.279868926005232257e-04
-6.611211553601873629e-04
-6.602006503330705997e-04
-3.117890071039001402e-03
-3.707822272955998890e-03
-4.814851554792450028e-03
-6.219264233484395402e-03
-4.175713505149565574e-03
-7.182586948719392244e-04
2.748545104623385717e-03
4.990032077519364340e-03
3.107270795247196304e-03
2.146644724100303658e-03
2.889755063499357610e-03
3.377092677727827359e-03
3.026716448509325207e-03
-1.638539387942419562e-03
-6.920162126926023179e-03
-7.894998091222552375e-03
-5.587910090558831019e-03
-3.922476701265953554e-03
-1.119241393907113700e-04
4.349528926044480756e-03
8.259189744630366162e-03
1.360105289533525968e-02
9.064565986908346834e-03
-2.640872494154898695e-03
-4.476424830918969595e-03
-3.214150211811324809e-03
-4.710067154253441690e-03
-5.504473142929800118e-03
-4.718043755292749240e-03
-5.269240545797835434e-03
-2.429807905110392425e-03
1.219196465847777969e-03
4.175000465941379121e-03
3.870698334270119070e-03
2.466981388533337483e-03
5.899905593199735636e-04
1.293895363691806907e-03
3.801924095895531895e-03
3.200419585640242818e-03
3.584305649293601501e-04
-2.646560660339797224e-03
-3.896954957016381289e-03
-1.031058035219407936e-04
1.959159496416611624e-03
1.019134016683868145e-03
1.775350573230594911e-03
2.084003500201877818e-03
7.458573475712679344e-04
-3.405680380203059045e-03
-8.603695268739825278e-03
-7.402039047379933324e-03
-3.158764023829336610e-03
9.429688058555475228e-04
4.936403181883083913e-03
3.056008613422876979e-03
-3.916610005163470402e-03
-6.988111906374566522e-03
-3.309742722875437960e-03
7.168287112119038629e-03
1.527963754814393171e-02
1.301344168385416833e-02
7.858460097523009905e-03
6.846175677086620845e-04
-5.394506227740723282e-03
-7.446281459536772257e-03
-4.072940355479916057e-03
-8.847896638066770269e-04
-2.241730775222217521e-03
-3.912918441661006851e-03
-3.897992203237014754e-03
-2.418863153588077849e-03
-1.000660096656990142e-03
-2.015216216595771496e-03
-1.973023195490868683e-03
-2.519489629811477900e-03
-3.887025078916311969e-03
-2.622138375402235325e-03
3.666972994997302112e-03
1.095237844351405927e-02
1.136435177981512737e-02
6.300752545696893664e-03
-2.890044818309193009e-03
-6.826798722664523082e-03
-3.049653897688213520e-03
2.151681589370006264e-03
5.340318127831284768e-03
2.888428689309360201e-03
-3.153367001701792047e-04
-1.535651418310895761e-03
-3.382708010614847004e-03
-2.356001864792163589e-03
3.331629494868157426e-04
-7.709829758935823332e-04
-2.849134835266949051e-03
-3.041998179959689696e-03
-2.721038283180982845e-03
-2.149263500193082481e-03
-3.329834292764829247e-04
2.409595421576193441e-04
1.530645119649239917e-03
2.451758784665758646e-03
2.397607689558737697e-04
-8.635839091608660733e-04
-4.541187467528408155e-04
2.450953050698154081e-03
2.387101847847632793e-03
2.391501456588918020e-03
3.014853132847210293e-03
3.695818904404428104e-03
2.154845283642814382e-03
-2.241910548897504876e-03
-4.048205486600261853e-03
-2.560487401091871267e-03
-2.801937801503940804e-04
3.049160522712642245e-03
4.655266461291072098e-03
2.867765623569305550e-03
-8.883886882241144633e-04
-7.272922121117753221e-03
-1.383675094934114919e-02
-1.166288856943749688e-02
5.936970586800021732e-04
1.120722853049735054e-02
1.429317403975042047e-02
7.050963058832976187e-03
-3.380835121073192274e-03
-1.092193359119794649e-02
-1.239222570319070509e-02
-6.149414134052497150e-03
6.373925143716555053e-03
1.272470198965799937e-02
1.139200784380845974e-02
6.153762195342187859e-03
-4.888552965520903465e-04
-6.701773748202999835e-03
-7.500982267076667862e-03
-4.818874497608500312e-03
-2.768474302185271966e-03
1.365196967875448569e-03
3.245740975014404280e-03
1.410067841657328559e-03
2.768785771198435143e-03
8.118732778605249750e-03
6.201827376672396433e-03
-1.411974505882316374e-03
-4.890267584319679672e-03
-3.215926852290378491e-03
-4.176071518536835815e-03
-7.416032135330721808e-03
-5.196738645094945569e-03
1.280115734314441357e-03
1.564703464498666497e-03
1.130254541434967197e-03
-7.609738276378828900e-04
-2.523766213517247923e-03
1.568683315345872215e-03
2.755945681425450450e-03
3.564683200634144195e-03
1.927305194620921192e-03
-2.114886833883409655e-03
-1.232467269329329349e-03
1.943189999773398948e-03
3.055614958322449507e-03
5.024479545697147290e-03
3.703582645673198035e-03
-1.586690852316233842e-03
-4.238430550912663207e-03
-4.691445787263996865e-03
-1.268930976237256977e-03
4.033615117553323789e-03
6.930971979854717510e-03
1.314824105883698755e-03
-5.174117742660513594e-03
-8.839306293490839170e-03
-7.176557143125823768e-03
-1.465240332462581802e-03
3.536956880896188413e-03
1.117389529147033147e-03
-7.639695213345196927e-04
2.209253948672909324e-03
3.379621554150744143e-03
1.589807319950311409e-03
4.535017115348066730e-03
5.719204465488686093e-03
3.069486359086926169e-03
4.546625056646939262e-06
-2.498527158784969934e-03
-5.749951650401407752e-03
-1.441440119369535866e-02
-1.530208655880332946e-02
-2.548972715383716284e-03
1.047576262997693478e-02
1.496636472020856229e-02
1.079344659649739482e-02
4.210163722606543452e-03
1.289141287573777449e-03
-3.672346257991938954e-03
-3.122838207797116496e-03
-5.106964704499923754e-04
-5.097754001168454353e-04
-2.601825217965746898e-03
-4.120021144890254061e-03
-4.361987463433494167e-03
-4.279665564932513301e-03
3.899449249922062898e-04
5.697764720580580575e-03
8.026552665123944802e-03
4.851668176469652212e-03
-2.057472248083598663e-03
-6.335686381700389273e-03
-8.165252473567767913e-03
-6.346988276997164377e-03
-2.885277843233633854e-03
3.258898656995452055e-03
5.171289145471920021e-03
2.011865035933564985e-03
3.784462923404003699e-04
1.329090473397069594e-03
2.971358945870500746e-03
6.412085605714778341e-03
3.705794159856037797e-03
2.886208114973465126e-03
5.547058593628017946e-03
5.331067246796957967e-03
-1.829090829630179455e-03
-5.179632570225667018e-03
-6.440277149773810869e-03
-8.343751175788859109e-03
-8.367318918028370661e-03
-6.050118574826242324e-03
-5.281435297586003705e-03
-4.235839341538310578e-03
-1.946323255847146006e-03
4.273117491264085722e-03
7.668980204185516306e-03
4.234688963931117558e-03
2.456652728648058264e-03
7.123214833259341842e-03
1.015686270924719137e-02
6.475958148014208070e-03
2.690280418979150174e-03
-1.664099787108211121e-03
-6.640619435410307150e-03
-8.057373351231755104e-03
-7.556671079389403085e-03
-6.338122210117052950e-03
-2.665203858704220572e-04
3.808588483343989303e-03
2.096497671778630670e-03
2.414483679603610621e-03
5.880887582451491125e-03
7.681680960240471097e-03
3.330525358771146451e-03
-3.850181369328508577e-03
-8.065847175446401451e-03
-7.150243489960750494e-03
-1.954280428580941215e-03
1.210558815722563315e-03
1.400633240957204796e-03
-5.971124752235278804e-03
-1.541380649350900141e-02
-1.320347350822149469e-02
2.612418050499271897e-03
2.296249351370275443e-02
2.697519221372100123e-02
1.767569316011037214e-02
2.605395772473633170e-03
-8.003408284657145128e-03
-1.006515201159822667e-02
-6.997158813638772526e-03
-3.596991191978227923e-03
-6.634102000148798736e-03
-6.675476695043995948e-03
-3.402325656557310136e-03
3.859182793279938763e-03
7.750294642031857820e-03
4.629905168471158163e-03
-2.375937167772307606e-03
-8.109360634940273455e-03
-1.256017241975394307e-02
-1.034798929914405169e-02
2.617182701784111416e-04
6.050850759265528900e-03
9.503151868723042767e-03
1.505722516108809993e-02
1.643142350067693450e-02
1.004671288779051923e-02
4.946234757526852752e-03
-6.960681262647812817e-04
-1.178208969644857843e-02
-2.101766528902973552e-02
-1.881881692071562390e-02
-9.630395955167642824e-03
1.809768729405698395e-03
6.653528920010684522e-03
5.668118965165103856e-03
3.427888186162365933e-03
5.099372182177682247e-03
7.429200614152613701e-03
3.162303111049582279e-03
-2.024227731138443596e-03
-1.269955348842663869e-03
6.557778085485805935e-04
3.535941000805486231e-03
7.596826938841589640e-03
5.739599979711029927e-03
1.879265490764297391e-04
-4.056684620443977082e-03
-8.048646748867537004e-03
-6.524283416717851711e-03
-5.438665464700652603e-03
-4.412246997123982217e-03
-3.292284019866706726e-03
-4.295399032198581567e-03
-6.221521081265848907e-03
-5.539492774392241331e-03
-8.336334962099079806e-04
6.256845870903547657e-03
9.792957806552442593e-03
1.080530887387902081e-02
9.952084405034963832e-03
8.117784044189068487e-03
6.256283161913810988e-03
4.020627867102145002e-03
9.935261646791407678e-04
-3.450268776583893370e-03
-1.333025481811592021e-02
-1.513692833292549708e-02
-1.031598715820130664e-02
-2.437476453891195081e-03
1.592457350225947015e-03
2.522344444560367400e-03
5.246649542623361105e-03
4.155698631975942269e-03
2.359006848080877523e-03
5.436003891690035410e-04
1.702230248134641195e-03
3.503156176488525942e-03
2.563146261975152163e-03
9.508258812102397654e-05
-7.276468946007783902e-05
1.945502386266351582e-03
-3.445134706683983662e-04
-2.267210090504142347e-03
-4.608005305070366625e-03
-8.121581950685631893e-03
-8.653700743011128599e-03
-7.830669080524670436e-03
-6.204889281330941940e-03
1.612918491757804260e-03
1.213598897447621533e-02
1.527391724963180798e-02
9.577525880887272774e-03
3.144903590541947482e-03
3.424154736868892401e-04
-2.923442311156508166e-03
-2.566488033171067037e-03
-9.574245015660265727e-04
4.154953688471747461e-04
4.015512480994845243e-03
3.153302687440976727e-03
1.115420219095044844e-05
-2.731236183158849366e-03
-7.831378398342169964e-03
-8.974905096688082923e-03
-5.262463002360088897e-03
1.845845679976736414e-03
1.814874762067333024e-03
-1.168920620953009873e-03
-5.146586981186418441e-03
-6.282682759972544467e-03
-2.241283801800753993e-03
4.893614812515366744e-03
9.816727937429325923e-03
6.726720818179750781e-03
-1.079765344697647487e-03
-2.901951305181135841e-03
2.264353424373541281e-03
7.704442825411838419e-03
8.139183772157145003e-03
1.713049057141902880e-03
-4.961125310707928393e-03
-4.265264358868236724e-03
-7.127571387236695210e-05
2.196266654568135909e-03
4.630432115730744405e-04
-1.228272252754490385e-03
-3.684997224843922312e-03
-4.917357679092713291e-03
-1.954312546195558550e-03
2.302103464619663278e-03
5.494044194093613588e-03
3.218698538152528054e-03
1.561959754920736788e-05
-3.911477584323089056e-03
-8.582393157395250272e-03
-1.623671905628210760e-02
-1.914501336270191603e-02
-1.046631630713219276e-02
3.058626714078144324e-03
1.755590114497708118e-02
1.947598937747010636e-02
1.791675559055633943e-02
1.607203670305596549e-02
1.305593559501826498e-02
6.654349338181219514e-03
-5.555165163331187697e-04
-4.994924505393901620e-03
-9.682394896496610004e-03
-1.214682459971796157e-02
-1.187394824356965278e-02
-1.150229207514061498e-02
-1.314461414282803650e-02
-1.090460569565607392e-02
-7.360349398940608384e-03
-4.117606793531750076e-03
4.119417706078616799e-03
1.090547820134001207e-02
1.053784463927977949e-02
8.863225360396929930e-03
6.776604019275059287e-03
9.515214009489098013e-03
1.459975807405214550e-02
1.290858337608686082e-02
5.631287587407886666e-03
1.242459950202631867e-03
-5.828191103872367232e-03
-1.074555296610571996e-02
-1.028724470184748385e-02
-9.219688944600833505e-03
-8.218100341444479345e-03
-8.123042949011819239e-03
-1.115660017293777784e-02
-1.284282588445388208e-02
-1.118261020831561384e-02
-6.378945404467765284e-03
2.938655775396338803e-03
8.225483370424190033e-03
9.743917626177531210e-03
1.438418109296867725e-02
2.067504239099702407e-02
2.440491577260237369e-02
1.983154461843228411e-02
7.925454973470509243e-03
-4.222679121652930800e-03
-1.329107746774840781e-02
-1.572294887206679426e-02
-1.485876383105328401e-02
-1.296414049851587341e-02
-1.043486860296708590e-02
-5.925407333808835331e-03
-3.011264037779720257e-04
3.367796557038103735e-03
1.788204050561803277e-03
5.910809633465681110e-04
1.654057632130031489e-03
3.391083017154203436e-03
3.482312161944313856e-03
1.604234271259127095e-03
2.161264881636348108e-03
1.608401895448498525e-03
2.632509555515254781e-03
8.195636285455498715e-03
5.358817064252838387e-03
-2.311223621462597853e-04
-3.409717957352005873e-03
-3.149094351241066032e-03
-3.311628898014129258e-03
-2.874904033341614800e-03
-3.552647374822434732e-03
-2.006115944620442352e-03
8.523091175780969858e-04
1.844415865913803625e-03
-2.491169719816363742e-03
-4.153175102969798756e-03
-3.977603104352306872e-03
-3.558288191898306002e-03
-2.509544571568402254e-03
1.218661809829595533e-03
6.600799910616388794e-03
1.090101386904208935e-02
1.134657505058364081e-02
6.195186411655296752e-03
5.373264980385712925e-04
-2.545191629046171956e-03
-3.187543474304129973e-03
-2.896201973043786761e-03
-7.190284443193854574e-04
-1.013093825691558595e-03
-5.193255742129629371e-03
-8.519832047242284490e-03
-6.809157996606843635e-03
-4.217583949193095226e-03
-3.330793665985950711e-03
-4.566114356411111151e-03
-2.679816994054326496e-03
7.011768140490712850e-04
6.977228375220152941e-03
1.185960881488672472e-02
1.634166695959348922e-02
1.234615747649106879e-02
5.000811100958948638e-03
1.962470176588901067e-03
-4.423583874971058309e-03
-6.588820438403990634e-03
-6.745826823710149474e-03
-6.186764094805213138e-03
-7.401109400204905139e-03
-7.194382295177791098e-03
-5.833416655793883729e-03
-2.261103809531423380e-05
2.904994452512431758e-03
3.140924816902863296e-03
2.900147666658271610e-03
1.986129459325907277e-03
2.662987361395672842e-03
1.557850193086548433e-03
-1.956420796790845924e-03
-1.649649480848393215e-03
1.978650315004356567e-03
4.135811003631288500e-03
2.294420792842799366e-03
1.227007569112797698e-03
-7.254049538565988725e-04
1.320154780019843020e-03
2.772010445296321183e-03
1.471969744862161589e-03
-1.077170901218150578e-03
-3.367143657732024186e-03
-5.709726651947321686e-03
-5.960679210153699975e-03
-4.096465901688645279e-03
-3.589785004562130906e-03
-2.870063951500314691e-03
2.433365465530973792e-04
3.648287969739416863e-03
3.848370101922639428e-03
1.130855907801794295e-03
3.068265853295919308e-03
4.524598023196666277e-03
6.728188021794084296e-03
1.040937563483194418e-02
1.031645257961657895e-02
2.553707064493323121e-03
-7.466418525001754583e-03
-1.232787654445287664e-02
-8.694994863479851149e-03
-3.704092669692505852e-03
-3.354125549083322982e-03
-1.665924160152508927e-03
-2.501438802065538477e-03
-5.225836698452188643e-03
-8.991091903416256401e-03
-9.700373810142484329e-03
-1.553931552094655949e-03
1.346828770599169632e-02
2.299058759932928742e-02
2.085427210418246136e-02
8.476699347590967160e-03
-3.935759468933350963e-03
-1.295295977772358692e-02
-1.794985240624124082e-02
-1.240205693018601660e-02
4.220355984074096803e-03
1.394876620774684189e-02
8.705349216895702166e-03
9.925861545884851877e-04
-3.105611352893011563e-03
-2.388027700607801840e-03
-5.258770545992040709e-04
2.034063791680337189e-03
-1.535284409317956089e-03
-9.328982303446782878e-03
-8.723152328117947385e-03
-4.451223801772166699e-03
-9.073383321510085668e-04
5.781431081886433468e-03
9.893203550337705682e-03
5.561573930912172212e-03
-4.170152528237342968e-04
-4.308793295178929041e-03
-1.940652115829107332e-03
-1.218370207414219133e-03
-3.057724235526091631e-03
-1.997995532809016764e-03
3.267975896799572757e-03
7.452983686489376459e-03
1.058054733862444190e-02
6.852374467679063497e-03
5.272121874524204410e-04
-2.458810677945871392e-03
-5.311284472309000387e-03
-6.324314429210612515e-03
-4.359745221073698350e-03
-9.721424493772896696e-04
-9.620842367992524745e-05
-1.177484995695411230e-03
-2.683970144848722358e-03
-7.301271265587816299e-03
-1.065329097885705026e-02
-1.215289571137294355e-02
-9.987467329586576653e-03
1.451507954230360411e-03
1.781156734808230988e-02
3.192961258063460595e-02
2.832352635319813211e-02
1.263539283017727291e-02
-1.486853520058801798e-03
-8.091870690751915007e-03
-1.317582911301503831e-02
-1.695693420559015591e-02
-1.583401119206584440e-02
-7.858253060383700583e-03
1.105921117761084709e-04
8.049844524311077854e-04
-3.530662225670439750e-03
-4.653944973111045005e-03
-5.405586543640827869e-04
8.570931330625575911e-03
1.253643194338896483e-02
8.841335004225622102e-03
2.285083210993229651e-03
-2.136168894270738165e-04
2.293093225259526264e-03
5.850943835796741654e-03
6.914206752236929212e-04
-8.926643792579964931e-03
-1.386669668796017968e-02
-1.231672903068883711e-02
-3.072666257407409996e-03
5.611718959941846413e-03
9.450476560217090788e-03
8.427365098065383101e-03
3.893473500264582089e-03
-8.244659674898688470e-04
-1.797683903454762398e-03
-2.275955708026791788e-03
1.325188366137090357e-04
9.524799134075400331e-04
-1.681218726340065570e-04
-2.353360575030249632e-03
-3.800904295249677486e-03
-5.583110915109798121e-04
2.187670887680683365e-03
3.692781433967517752e-03
3.230787865993487145e-03
-8.221139634978111245e-04
-2.900878467452184129e-03
-4.291287283831346847e-03
-4.892963410682731051e-03
-3.244148971971219631e-04
6.584354613820905127e-05
4.768092163190923536e-05
-1.046183670409999008e-03
-2.224782587644493631e-03
1.137183081240701610e-03
6.001645293677641130e-03
8.224472390656201864e-03
8.352867276925685439e-03
5.524536648029378452e-03
-2.370431169789209756e-04
-5.113719613495323196e-03
-5.753158461956450059e-03
-5.359586745736741840e-03
-1.474651693023394747e-03
6.050729378569505304e-04
-1.635834116439147893e-03
-3.960022510005021396e-03
-4.989462206962089023e-03
-2.850968907785765127e-03
-6.750268249084381183e-04
2.398532539627943553e-03
1.902398483137747280e-03
-9.830470133536683454e-04
5.593284598485057319e-04
4.020128631774999052e-03
6.711287781882700754e-03
7.897994166143442948e-03
8.798131459690982162e-03
4.040802315138687303e-03
-4.135855796034191602e-03
-7.553243761664774070e-03
-6.271798172139032498e-03
-5.223287275867527675e-03
-3.520828346971691548e-03
-1.929904135613798050e-03
-1.798064865528063976e-03
-1.394325999427333505e-03
-1.254647774577661787e-03
-3.274140819974140273e-03
-4.308163077816631013e-03
9.176313516074696176e-04
8.199815126139819998e-03
1.605486867935294187e-02
1.457376992402540858e-02
2.204136690875372739e-03
-7.228885065814183095e-03
-9.693948228138600867e-03
-6.978043036400117041e-03
-3.625687382271378014e-03
-3.691060365227167759e-04
6.909740220802127820e-04
1.889227126633695984e-03
8.154893427427853229e-05
-3.739139316561844277e-03
-4.441098430057461091e-03
1.296413438452700961e-03
7.354549460938465504e-03
1.190878394965014589e-02
1.300561096766615285e-02
5.971361019455784756e-03
-5.750465402392331005e-03
-1.547873776914884987e-02
-2.046519788299410586e-02
-1.823542796814447628e-02
-1.270123652578639475e-02
-3.036850187478868594e-03
8.671403021220484841e-03
1.587623033283248886e-02
1.624463816592193119e-02
1.575994520080881145e-02
1.467331532440651135e-02
9.333866585754534845e-03
1.322619767119712021e-04
-3.903563574525362265e-03
-3.088695593246199803e-03
-2.321795292742595117e-03
-3.578078451250865395e-03
-1.259506131853782573e-02
-1.886033253891371969e-02
-1.497426471544891467e-02
-7.629276718897258502e-03
2.681988923288937659e-03
1.265288657077255977e-02
9.736041423736673320e-03
-4.134556686976324411e-04
-7.695883456696542280e-03
-8.273430439563106420e-03
1.355866190987086177e-04
8.316327194835411787e-03
1.369700331763902892e-02
1.743688953827667726e-02
1.206107502154604716e-02
3.283069397867068289e-03
-5.538652722681393868e-05
-3.361925929045418270e-03
-7.503257155343841245e-03
-1.076500513967156188e-02
-1.188068525692205848e-02
-9.249487287695116675e-03
-6.720665828368738853e-03
-2.294344708192246843e-03
5.884310050167379383e-04
3.875500739829970762e-03
6.350788794886856430e-03
5.607847781928219227e-03
4.905682059331267948e-03
3.240769616078113553e-03
5.271026409543298633e-04
-2.256889425306803001e-03
-1.088027344190039842e-03
2.097722553924751768e-03
1.389480490827793785e-03
7.890126553449394080e-04
1.091375543971520069e-03
1.567341391331091537e-03
4.253895255563009282e-04
-2.285227272661919436e-03
-5.129381141576207052e-03
-7.116036228988046469e-03
-6.173735636911603826e-03
-7.242006840967963287e-03
-4.425701295728478799e-03
2.668673176767168056e-03
8.312028558838988057e-03
1.071341376845196848e-02
1.323294130711847802e-02
1.125535524556500570e-02
4.245463301020295163e-03
-3.177862468433455701e-03
-1.053971591065102145e-02
-1.279959354363362223e-02
-7.815968852425209806e-03
-2.134040210964687368e-03
1.609691935716674128e-04
1.415707047230348962e-03
9.499804436207374839e-04
2.533114012115129151e-03
3.090620800000663457e-03
1.246683024125059755e-03
8.312329084209053387e-04
1.112311799593875862e-03
4.424098774566118282e-03
4.569558822294102207e-03
-2.097024510559958364e-04
-5.554889367949063066e-03
-7.704199606499755049e-03
-5.935690395897745553e-03
-2.112783501182950198e-03
-2.978487925804867379e-03
-2.157407646726471062e-03
-1.534648058852919772e-04
4.948946988408745550e-03
1.122081623248774584e-02
1.242503466418585882e-02
5.338403054311403710e-03
-1.091134264488647244e-03
-2.980855272588226433e-03
-1.198726600448954448e-03
-1.352068083978976657e-03
-4.315283138808842511e-03
-6.524160133425931096e-03
-5.002585268900580986e-03
-3.002751302344272132e-03
-4.510167716895384024e-03
-6.616273424066421507e-03
-1.660148846387449455e-03
4.910560906016206081e-03
1.085698273735881403e-02
1.149377768694339816e-02
5.479572170532744438e-03
-2.746866362038859980e-03
-3.579107133808892994e-03
-1.468410622739420215e-03
-2.713826319075689827e-03
-2.487998038190743482e-03
5.193061621862794667e-04
2.275274910903810153e-03
1.648903248677987881e-03
-4.996070177642864636e-04
3.642369161301262288e-04
-5.166488236570258071e-04
-2.234010458106519981e-03
-1.874197577617472705e-03
-2.146834456845285368e-03
-2.077909496505331386e-03
-3.116001013536910929e-03
-2.575365123754896988e-03
1.017781978553921208e-03
5.629944168777111652e-03
5.866368681347517745e-03
3.951544711118094508e-03
1.179853258703966474e-03
1.117234472260981992e-03
-2.911991631160588262e-03
-3.563292691085365171e-03
-2.816743017166827446e-03
-1.752304082069138912e-03
-3.961270523955032707e-04
1.517200432056958585e-03
-4.904420064362711171e-04
-2.823226789217737464e-03
-9.828606774071883996e-04
2.344754034001381247e-03
6.751166349070638131e-03
6.020515015996500720e-03
1.255825429512176170e-03
-4.608861423654091530e-03
-2.376830409878071936e-03
2.208970937059074203e-03
2.358904628185730205e-03
1.992832844526678127e-03
-1.343947705012382959e-03
-4.727430938071141946e-03
-6.109480220784946347e-03
-9.812679291160326250e-03
-1.005629898921587065e-02
-4.393414834002622171e-03
1.240857242113908507e-03
6.094596562016055090e-03
1.000594402854308035e-02
1.369455407687791490e-02
1.631033329009170044e-02
9.172904943839691252e-03
-3.169637081377154903e-03
-1.269915723860766919e-02
-1.188349216798920138e-02
-2.971013327113817149e-03
2.633080799091195873e-03
1.773779043743563526e-03
-1.054237417461373165e-03
-2.549331797388055491e-03
-5.023304147976358734e-03
-6.786573019306367874e-03
-2.607094086521574965e-03
8.503763982142045763e-03
1.260398120804988656e-02
7.516285652977443103e-03
-5.572323613159617384e-03
-1.693108307105685786e-02
-1.561875104921469672e-02
-9.330101417166558608e-03
-1.366247182981736221e-03
1.271105940777372996e-02
2.523353053012505204e-02
2.527124154940557990e-02
1.343506447341877817e-02
-1.013196079168849923e-03
-8.536275555616906069e-03
-8.759473616387356346e-03
-6.783652406058608871e-03
-7.668133436002162913e-03
-8.934008412780865271e-03
-1.184226114415885128e-02
-1.421691213899201056e-02
-1.212720842704497620e-02
-7.834668750185756758e-03
5.140607583402652739e-03
1.452917209850177784e-02
1.705654794784179987e-02
1.612965765231631418e-02
1.434047968438609440e-02
6.892754137145074012e-03
-1.769486123079427962e-03
-5.281659077865848498e-03
-5.113308331613882624e-03
-5.670045742545437757e-03
-4.968457965192426759e-03
-4.079392657948236953e-03
-9.343325163810348676e-05
6.280586462807640698e-06
-3.099160365425723210e-03
-5.026414528197102258e-03
-5.165419515070521911e-03
-4.545861271908665721e-03
-1.977604811341211277e-04
2.327055355116508864e-03
6.186286059518529903e-03
6.756093304666931781e-03
3.522301357598916442e-03
1.445131076910012319e-03
3.629301626660144057e-03
2.624043897503229670e-03
2.091227323725157981e-03
2.405202663565218617e-05
-1.787113816623144003e-03
-6.750910465279582814e-03
-7.446654049573292987e-03
-1.792929280610507017e-03
2.378894892295518610e-03
1.059767465116883463e-03
-3.800491001237018326e-03
-2.768551083616723960e-03
1.081015023149508626e-03
4.064520466492416162e-03
4.174824348021743091e-03
2.909780896825025533e-03
3.879386144121197582e-04
2.313259954527828921e-04
1.479794797128761207e-03
1.197587853571374373e-04
6.847646609489233373e-04
-2.050556781900445252e-03
-1.856157993390878443e-03
-7.261952060426175469e-04
-2.772179811552836267e-03
-2.929416965134372820e-03
-1.147143659492295400e-03
1.882878646451780717e-03
1.824674367419265239e-03
4.599720357534444284e-04
-1.146830428938632791e-04
-1.002522271605997724e-03
2.019580889268903672e-04
8.626208898301676977e-04
4.679347900083068016e-04
-3.341451774200343647e-03
-2.722988464141226726e-03
5.272439144232025704e-04
4.736929054417212889e-03
6.219306662785975374e-03
1.561694603128396808e-03
-1.081288706289498368e-03
-1.515161821098751169e-03
1.295087250937767360e-04
1.573223604887704491e-03
2.210424107062112977e-03
1.134562139120857830e-03
5.037843813904360106e-04
-3.148376236870386192e-03
-5.630900358653173447e-03
-7.297358806701814173e-03
-5.719400797742949308e-03
-1.638432370635995849e-03
4.234997364990529013e-03
6.942573392311262095e-03
3.068872826251474624e-03
-7.219129798593397268e-04
-2.952660132392768370e-03
-1.236854395466802873e-03
1.611971330714472971e-03
2.458500085499571147e-03
3.488482789851633965e-03
4.730977339032590989e-03
4.975070133188840005e-03
2.841309393781915691e-03
2.963108419640134703e-04
-6.801579477244368462e-03
-1.038566727785426684e-02
-6.197826746538895835e-03
-2.941295642160270726e-03
-3.055088048673712271e-03
-3.327824558061387092e-03
-1.922685985998384868e-03
8.523297748924126916e-04
4.520696594663952891e-03
1.148332881599572683e-02
2.014956202270262037e-02
1.608914544129512458e-02
4.540994164161354235e-03
-3.154431893613231664e-03
-9.222625515132809593e-03
-1.372109640390564538e-02
-1.604994309064462429e-02
-1.585711430768836638e-02
-9.831050669848823143e-03
-3.150066308697113421e-03
2.699648985626754171e-04
3.706714207475801139e-03
1.058843048362067933e-02
1.149880541555535658e-02
3.837260358842674215e-03
-2.097033522603785217e-03
3.300868015784720524e-03
9.861497493899640254e-03
7.630846845534996342e-03
3.968826748472448901e-03
2.813444187096552675e-03
5.619168175545306496e-03
6.349666781240769463e-03
3.563733819684246611e-03
-6.418777028902505899e-03
-1.636398240752287916e-02
-2.076351002855338426e-02
-2.039513208795706162e-02
-1.483962685063645176e-02
-1.875919063432742329e-03
1.014244752999526704e-02
9.585316644568535674e-03
5.868838266391507514e-04
-2.330314741836098189e-03
5.720416436711769914e-03
1.431203466991391726e-02
1.263061203129613695e-02
7.308692028498219723e-03
3.188441546600875431e-03
8.785673490639677461e-04
1.796654963093985815e-03
1.774805212175582618e-03
-1.901314145348427607e-03
-4.670421335919770420e-03
-7.945476565503997723e-03
-5.813767478974062736e-03
-3.172527500103559332e-03
-3.656086162910434940e-03
-2.298170160113118064e-03
-3.834373755241245272e-03
-4.083800205755862278e-03
-1.853388335642260597e-03
9.025922991959100389e-04
3.344646814802750608e-03
1.615622468385012351e-03
2.712817450914248394e-03
6.317148277948349093e-03
7.528552579978677918e-03
7.385968976900881069e-03
3.401399648573202785e-03
-3.118283604286147068e-03
-8.902325491444996672e-03
-1.069823369551190645e-02
-8.016648648707130898e-03
-1.146739345608540402e-03
3.960808350437675096e-03
4.695468184473308541e-03
5.905739368573033332e-03
7.234377633577005265e-03
6.782441728181664437e-03
3.555016189039559432e-03
-3.295114509932489059e-03
-6.677227591611361451e-03
-5.897129349485264599e-03
-2.834411919504023925e-03
-3.004422060170918243e-03
-2.890003164020417837e-03
4.459026977498858923e-04
-1.018269278793340659e-03
-3.379709960994696418e-03
-1.347071848829830241e-03
9.171509231751559348e-04
3.520386454655961232e-03
9.763205504209943389e-03
7.821610580545141148e-03
5.990024789190280877e-03
1.093570025991839629e-03
-7.320660634722877223e-03
-1.148796371824526048e-02
-9.308284333286530321e-03
-3.732935866538535531e-03
